tree
version=v4
num_class=1
num_tree_per_iteration=1
label_index=0
max_feature_idx=136
objective=binary sigmoid:1
feature_names=Column_0 Column_1 Column_2 Column_3 Column_4 Column_5 Column_6 Column_7 Column_8 Column_9 Column_10 Column_11 Column_12 Column_13 Column_14 Column_15 Column_16 Column_17 Column_18 Column_19 Column_20 Column_21 Column_22 Column_23 Column_24 Column_25 Column_26 Column_27 Column_28 Column_29 Column_30 Column_31 Column_32 Column_33 Column_34 Column_35 Column_36 Column_37 Column_38 Column_39 Column_40 Column_41 Column_42 Column_43 Column_44 Column_45 Column_46 Column_47 Column_48 Column_49 Column_50 Column_51 Column_52 Column_53 Column_54 Column_55 Column_56 Column_57 Column_58 Column_59 Column_60 Column_61 Column_62 Column_63 Column_64 Column_65 Column_66 Column_67 Column_68 Column_69 Column_70 Column_71 Column_72 Column_73 Column_74 Column_75 Column_76 Column_77 Column_78 Column_79 Column_80 Column_81 Column_82 Column_83 Column_84 Column_85 Column_86 Column_87 Column_88 Column_89 Column_90 Column_91 Column_92 Column_93 Column_94 Column_95 Column_96 Column_97 Column_98 Column_99 Column_100 Column_101 Column_102 Column_103 Column_104 Column_105 Column_106 Column_107 Column_108 Column_109 Column_110 Column_111 Column_112 Column_113 Column_114 Column_115 Column_116 Column_117 Column_118 Column_119 Column_120 Column_121 Column_122 Column_123 Column_124 Column_125 Column_126 Column_127 Column_128 Column_129 Column_130 Column_131 Column_132 Column_133 Column_134 Column_135 Column_136
feature_infos=[-1.8014661073684692:2.1873281002044678] [-1.7160434722900391:2.0962586402893066] [-1.6382262706756592:2.0136351585388184] [-1.5680137872695923:1.9394575357437134] [-1.5054070949554443:1.8737261295318604] [-1.4504051208496094:1.8164401054382324] [-1.4123568534851074:1.7937201261520386] [-1.3844102621078491:1.9274762868881226] [-1.3517893552780151:2.0758624076843262] [-1.3099035024642944:2.0974209308624268] [-1.2559221982955933:2.0165181159973145] [-1.1870334148406982:2.073509693145752] [-1.1039742231369019:2.1457490921020508] [-1.0067610740661621:2.2142360210418701] [-0.90047705173492432:2.2825961112976074] [-0.78966546058654785:2.4052433967590332] [-0.67814630270004272:2.5269482135772705] [-0.65620064735412598:2.5277442932128906] [-0.66012513637542725:2.5302853584289551] [-0.66667592525482178:2.4445860385894775] [-0.8555336594581604:2.3612079620361328] [-0.86833834648132324:2.2960772514343262] [-0.86565589904785156:2.1994528770446777] [-0.7797551155090332:2.1030042171478271] [-1.0841877460479736:2.0739645957946777] [-1.4308524131774902:1.9517765045166016] [-1.6366665363311768:1.8635692596435547] [-1.8254417181015015:1.7312250137329102] [-1.9454965591430664:1.5516149997711182] [-2.1668190956115723:1.3473584651947021] [-2.5042393207550049:1.1444870233535767] [-2.6850478649139404:1.0691677331924438] [-2.6397361755371094:1.0182701349258423] [-2.3245775699615479:1.0153312683105469] [-1.6179424524307251:1.0222163200378418] [-0.83407443761825562:1.0987448692321777] [-0.66409575939178467:1.3781088590621948] [-0.67050886154174805:1.4172744750976562] [-0.67336314916610718:1.4686216115951538] [-0.67729061841964722:1.427788257598877] [-0.67391806840896606:1.3506048917770386] [-0.77278417348861694:1.3033223152160645] [-0.78214722871780396:1.4334096908569336] [-0.67822211980819702:1.6771683692932129] [-0.67593681812286377:1.8418123722076416] [-0.67998087406158447:1.9795904159545898] [-0.67735743522644043:1.8671952486038208] [-0.68056988716125488:1.7601110935211182] [-0.67851173877716064:1.8138210773468018] [-0.68057990074157715:2.0951991081237793] [-0.67672491073608398:2.3221406936645508] [-0.68208664655685425:2.3866791725158691] [-0.6882440447807312:2.3278176784515381] [-0.69760811328887939:2.41339111328125] [-0.68820065259933472:2.0181429386138916] [-0.66555494070053101:1.5468263626098633] [-0.62731093168258667:1.3939603567123413] [-0.6819922924041748:1.3641012907028198] [-0.88048118352890015:1.3483799695968628] [-0.73171019554138184:1.3266682624816895] [-0.58480948209762573:1.2987289428710938] [-0.6056399941444397:1.6912268400192261] [-0.63135004043579102:1.8743280172348022] [-0.66003769636154175:1.7138135433197021] [-0.93073725700378418:1.3433690071105957] [-1.1747497320175171:1.0751444101333618] [-1.3727543354034424:0.99085426330566406] [-1.6713657379150391:0.88485002517700195] [-1.8910553455352783:0.75389385223388672] [-2.0949718952178955:0.60495084524154663] [-1.9126988649368286:0.45876148343086243] [-1.7446892261505127:0.33052113652229309] [-1.674402117729187:0.23037496209144592] [-1.5674382448196411:0.15855956077575684] [-1.4517455101013184:0.2961885929107666] [-1.6804615259170532:0.9557119607925415] [-1.8599822521209717:1.3625956773757935] [-2.0371255874633789:1.0853415727615356] [-2.1728529930114746:1.1285310983657837] [-2.2573421001434326:0.92254304885864258] [-2.3058340549468994:0.73609095811843872] [-2.3315773010253906:0.28676301240921021] [-2.3403120040893555:0.33890664577484131] [-2.3343968391418457:0.39074629545211792] [-2.3124566078186035:0.5232703685760498] [-2.2730567455291748:0.47703936696052551] [-2.2140905857086182:0.50853937864303589] [-2.1362462043762207:0.53271615505218506] [-2.0426793098449707:0.67684948444366455] [-1.9374580383300781:0.56802195310592651] [-1.8240519762039185:0.65060514211654663] [-1.7565661668777466:1.0689502954483032] [-1.6500253677368164:1.4172115325927734] [-1.5946441888809204:1.6287872791290283] [-1.530011773109436:1.664950966835022] [-1.4843816757202148:1.6182941198348999] [-1.4547033309936523:1.5608183145523071] [-1.4384253025054932:1.5597559213638306] [-1.4264529943466187:1.5643377304077148] [-1.4611638784408569:1.5628886222839355] [-1.8966314792633057:1.5670002698898315] [-2.4585905075073242:1.5660412311553955] [-2.604130744934082:1.5686177015304565] [-2.5047333240509033:1.5662518739700317] [-2.1062953472137451:1.5664080381393433] [-1.4475361108779907:1.5610309839248657] [-1.2213733196258545:1.5632989406585693] [-1.1215335130691528:1.561995267868042] [-1.1656886339187622:1.5723429918289185] [-1.225764274597168:1.5757462978363037] [-1.369315505027771:1.5827798843383789] [-1.6010570526123047:1.5860384702682495] [-2.1418814659118652:1.5904537439346313] [-2.4733853340148926:1.5896482467651367] [-2.5047738552093506:1.5896980762481689] [-2.0072333812713623:1.5826603174209595] [-1.6131480932235718:1.5835590362548828] [-1.6321159601211548:1.7016431093215942] [-1.6864286661148071:2.5795986652374268] [-1.7459897994995117:2.8008601665496826] [-1.820858359336853:2.5472877025604248] [-1.9268163442611694:1.7488086223602295] [-2.1567583084106445:1.5763181447982788] [-2.3918964862823486:1.5743108987808228] [-2.6616356372833252:1.8138364553451538] [-2.9761693477630615:2.1341862678527832] [-3.3559722900390625:2.7791450023651123] [-3.8750591278076172:3.7871904373168945] [0:1] [0:1] [0:1] [0:1] [0:1] [0:1] [0:1] [0:1] [0:1]
tree_sizes=6253 5211 5310 6122 6751 6249 6676 6739 6756 5891 6445 6373 6679 6575 5821 6897 5792 6909 5488 6790 6013 6923 5579 6192 6850 6908 5405 6419 6938 6919 6368 6934 6943 6971 6657 6673 6940 5917 6931 6913 6748 5976 6751 6942 6189 6919 6843 6424 6390 6715 6917 6179 6956 6919 5814 6359 6243 6695 6514 6693 6960 6907 6713 5489 6946 6825 5944 6118 6621 6680 6768 6665 5551 6929 5527 6927 6837 5545 5073 5463 5574 5890 5235 5749 6472 4619 6818 6586 6470 4905 6901 6070 5724 6093 6290 6765 6047 5348 5395 4973 6272 6914 6700 5325 5946 4926 6167 5764 6786 6944 6051 6908 6930 6966 6161 6112 6674 6595 6937 6800 5833 5938 6697 6827 6570 6901 6786 6927 6601 5089 6254 6707 6892 6002 5907 6623 6825 6781 5106 5995 5958 6910 6344 6487 6124 6204 6168 6496 6434 6328 5986 6471 6691 6137 4797 6442 6469 6372 6785 6690 6697 6162 6804 6267 5970 6454 6938 6924 6832 5294 6589 6305 6514 6276 6004 6585 6364 5208 6070 6241 6299 5680 6892 6934 6888 6513 6380 6344 5692 6800 6460 6246 6467 6047 6830 5931 6652 6378 6717 5858

Tree=0
num_leaves=58
num_cat=0
split_feature=54 110 113 108 134 42 40 75 84 107 135 32 53 53 96 106 133 31 130 27 33 75 74 73 122 61 95 41 12 75 4 72 40 18 76 109 40 38 24 101 84 99 104 2 50 24 61 128 34 70 36 2 69 104 6 5 0
split_gain=101565 94938.2 57415.3 51613 49742.3 62139.7 45961.1 40241.1 36401.4 29672.7 26816 25557.7 19157.5 15022.7 13162 10882.4 21079.5 11414.9 10294 11682.4 10021.5 9839.43 8625.59 8433.62 5883.1 5705.88 5324.73 4112.33 10320 3350.86 2817.91 2565.84 2161.05 5131.15 2007 1930.36 3738.03 2262.22 1876.99 1844.03 1726.92 1561.85 1374.03 5218.98 1159.24 910.765 871.734 677.596 1640.7 532.244 315.799 315.667 129.153 83.7516 895.077 75.7084 5.68434e-14
threshold=1.0237201452255251 -1.1803402900695799 -0.92585551738739003 -0.91790923476219166 1.0000000180025095e-35 1.0473245382308962 0.98687788844108593 -1.0870892405509947 -1.4027440547943113 -0.98482772707939137 1.0000000180025095e-35 0.96622467041015636 0.90921682119369518 1.0174580216407778 -1.0160436034202573 -0.96151468157768238 1.0000000180025095e-35 0.99478670954704296 1.0000000180025095e-35 1.3861503601074221 0.92267087101936351 -1.0560183525085447 -1.0454496741294859 -0.86838126182556141 -1.029684782028198 0.66397762298583995 -0.89891099929809559 1.0199566483497622 0.78993546962738048 -1.0059427618980405 0.46749152243137365 -0.66297832131385792 1.014243006706238 1.13413542509079 -0.90104547142982472 -1.1223930716514585 1.0497249364852907 0.96851637959480297 1.3108199238777163 -0.94416823983192433 -1.4074142575263975 -0.78845512866973866 -0.91899529099464405 0.67448920011520397 1.1042554378509524 1.270211458206177 0.64370143413543712 1.0000000180025095e-35 0.92523610591888439 -0.078467022627592073 0.87737563252449047 0.68373122811317455 -0.0758712664246559 -0.91680407524108876 0.76759791374206554 0.74777185916900646 1.0198244452476504
decision_type=2 2 2 2 2 2 2 2 2 2 2 2 2 2 2 2 2 2 2 2 2 2 2 2 2 2 2 2 2 2 2 2 2 2 2 2 2 2 2 2 2 2 2 2 2 2 2 2 2 2 2 2 2 2 2 2 2
left_child=2 20 3 15 8 21 7 14 29 10 -10 -11 42 -9 -5 30 25 -18 19 22 35 44 -14 24 -20 -17 -23 28 -8 40 46 -25 33 -7 -32 41 37 -37 -29 -21 -3 -2 43 55 -6 -31 -1 48 -22 -38 -43 -45 -34 54 -44 -4 -55
right_child=1 4 12 6 5 32 27 13 9 11 -12 -13 18 -15 -16 16 17 -19 23 39 47 26 -24 31 -26 -27 -28 38 -30 45 34 -33 52 -35 -36 36 49 -39 -40 -41 -42 50 53 51 -46 -47 -48 -49 -50 -51 -52 -53 -54 56 -56 -57 -58
leaf_value=-3.4389031480038739 -0.81274838324702348 -3.1375544098687986 -0.35633567705515379 -1.4525765256670233 -1.3004200126604046 -1.3210434482346187 -1.66361392604389 -1.6921982002246763 -2.920609936151354 -1.3572789247817174 -0.90240306337722709 -1.9405269539643208 -3.4719149173152921 -1.1798943135784925 -2.352821343958559 -2.5923983560037787 -1.6367470795013461 -2.464918470220808 -1.2984967548777488 -0.52793512386726293 -0.27824106363624956 -0.75737403413364657 -2.6173114412931735 -2.3496215167090151 -3.0856413630375608 -1.3712391198734388 -3.5158735534631753 -3.1707981909051801 -2.9591821527562603 -3.5158735534631753 -2.8978960739060069 -3.4216237413594999 -3.5158735534631753 -3.2176715660778101 -2.4274024121140241 -3.5158735534631753 -3.5158735534631753 -1.376243656315947 -1.5949857671263663 -2.7846080688682258 -2.3414632256148105 -2.3780829929492961 -0.27824106363624823 -2.39110963272371 -3.5158735534631753 -0.93880850188022347 -2.5368285936178112 -0.32602518537601854 -3.5158735534631753 -2.7679053108449256 -3.4715579884212908 -3.5158735534631753 -3.3348437312000114 -3.5158735534631753 -3.5158735534631753 -0.9537441006058911 -3.5158735534631753
leaf_weight=78.84424614906311 2.245058298110961 144.37033724784851 3.8414944410324079 201.47566521167755 2.7392466068267849 16.589913487434387 96.652687549591064 1109.793275475502 249.77589547634125 5989.6883466243744 89.399874329566956 859.05807137489319 138.05418288707733 1182.0509524345398 837.4706689119339 1120.451150894165 560.32144892215729 236.75190436840057 142.31727647781372 28.434799551963806 3.7488341331481942 174.89926946163177 817.20506012439728 72.849973797798157 21.158366560935974 39.615810036659241 7.2892775535583487 175.86516606807709 168.97052943706512 1.5752252340316761 211.13468790054321 32.194619059562683 182.23193883895874 101.75441229343414 158.89920353889465 6.5788818597793606 43.581231474876404 19.854235172271729 7.8982666730880728 4.1494325399398795 33.588242053985596 2.6668676137924185 0.93720853328704734 2.6977543830871573 17.142156958580017 10.596950650215147 12.397129535675047 10.463727712631226 2.6871489286422729 12.17031669616699 273.88451838493347 33.234163761138916 50.284590005874634 190.91112101078033 9.6057852506637555 4.737210750579834 55.843278884887695
leaf_count=2494 14 4146 7 2503 30 185 1398 16359 6649 68892 635 14726 4411 11568 17695 26270 7959 5259 1556 99 4 997 19357 1537 597 461 236 5107 4561 51 5574 1013 5900 3001 3472 213 1411 232 109 105 706 57 1 58 555 79 284 16 87 306 8750 1076 1540 6181 311 36 1808
internal_value=-3.41258 -1.65412 -2.15728 -2.02088 -1.58034 -2.49516 -1.79008 -1.662 -1.51178 -1.47565 -2.38865 -1.43044 -2.69993 -1.42797 -2.17824 -2.38164 -2.27866 -1.88274 -2.52807 -2.67731 -3.20271 -1.09825 -2.74082 -1.97904 -1.5298 -2.5507 -0.86774 -2.73937 -2.48776 -2.87751 -2.81859 -2.67817 -3.29967 -2.9518 -2.69586 -3.31413 -2.88822 -1.90877 -3.10307 -0.815311 -2.9873 -3.43969 -3.41533 -2.90233 -3.21063 -1.27231 -3.31634 -0.822629 -1.63002 -3.3526 -3.46101 -3.43143 -3.47672 -3.50408 -3.22807 -0.686228 -3.51587
internal_weight=0 8308.86 7756.76 6198.59 7930.98 552.931 3780.18 3330.79 7378.05 7187.92 339.176 6848.75 1558.17 2291.84 1038.95 2418.42 1957.14 797.073 1256.36 987.843 377.881 202.07 955.259 268.52 163.476 1160.07 182.189 449.387 265.623 190.131 461.275 105.045 350.861 118.344 370.034 360.981 82.1847 26.4331 183.763 32.5842 177.959 278.796 301.808 44.5106 19.8814 12.1722 91.2414 16.8997 6.43598 55.7515 276.551 35.9319 232.517 257.297 10.543 8.57871 246.754
internal_count=268644 119418 149226 111073 108328 12444 59300 48125 95884 90902 7284 83618 38153 27927 20198 51773 39949 13218 28675 23972 11090 1818 23768 4703 2153 26731 1233 11175 5959 4982 11824 2550 10626 3186 9046 10983 2162 445 5216 204 4852 8821 9478 1177 585 130 2778 107 91 1717 8807 1134 7440 8301 312 43 7989
is_linear=0
shrinkage=1


Tree=1
num_leaves=48
num_cat=0
split_feature=130 103 5 135 102 52 82 71 27 73 53 31 114 0 75 31 30 31 104 2 53 29 104 5 125 91 73 111 102 104 33 3 48 52 113 112 105 74 91 77 103 102 30 107 102 131 113
split_gain=5522.75 6826.39 9675.58 4436.3 3972.62 6160.39 3809.92 3165.54 2502.98 2058.39 2011.24 1690.09 1631.68 1626.49 1562.61 1502.6 1849.37 1486.69 1366.98 1237.66 1200.48 1187.73 1106.27 1202.72 1097.82 978.806 934.749 699.432 706.759 508.447 498.914 487.504 415.339 370.954 320.179 473.464 278.014 178.402 164.248 353.226 137.562 133.187 131.795 100.086 80.0816 64.4992 0.166671
threshold=1.0000000180025095e-35 -0.93011137843132008 0.73143756389617931 1.0000000180025095e-35 -0.91611981391906727 0.97376027703285228 -0.22975197434425351 -0.17719283699989316 1.2848063707351687 -0.8021448254585265 0.88219437003135692 1.0073046088218691 -0.93209856748580922 0.52191075682640087 -1.1100301742553709 0.99625787138938915 1.0722472071647646 1.0028434395790102 -0.7940458059310912 0.5682225525379182 1.0174580216407778 1.1993830204010012 -0.91786023974418629 0.75147131085395824 -1.5634704232215879 -1.147804796695709 -0.89169701933860768 -0.99344128370285023 -0.96262452006340016 -0.84469640254974354 0.87462416291236889 0.70948740839958202 1.0592766404151919 1.032865107059479 -1.0402180552482603 -1.027272582054138 -0.81629168987274159 -1.032245337963104 -1.1456769108772276 -1.225249648094177 -0.94165235757827748 -0.94076094031333912 1.0805395245552065 -0.99819526076316822 -0.93844518065452565 1.0000000180025095e-35 -0.92585551738739003
decision_type=2 2 2 2 2 2 2 2 2 2 2 2 2 2 2 2 2 2 2 2 2 2 2 2 2 2 2 2 2 2 2 2 2 2 2 2 2 2 2 2 2 2 2 2 2 2 2
left_child=1 3 4 10 15 24 -7 8 11 17 27 13 19 18 37 16 -3 25 -2 43 -16 -21 23 30 -6 -10 -17 28 -1 33 -4 40 -19 -13 35 -11 -31 -12 39 -24 -14 -25 -15 -5 -40 -29 -33
right_child=7 2 22 12 5 6 -8 -9 9 34 14 29 31 42 20 26 -18 32 -20 21 -22 -23 38 41 -26 -27 -28 45 -30 36 -32 46 -34 -35 -36 -37 -38 -39 44 -41 -42 -43 -44 -45 -46 -47 -48
leaf_value=0.53707892729915829 0.35912176550686165 0.29267591904207091 0.31740855530647627 1.4231741421552508 0.18765455767254516 0.27007892942344552 -0.11214640353929478 1.8493788184524309 0.26404710650356356 -0.11485620133844175 -0.12074958702892583 -0.040789338796438347 0.47325387882960968 -0.11634723740315769 0.48790684766122461 -0.052912023715656391 0.5354618472065712 0.02370430558850925 0.26375378359372853 -0.022547121422515901 0.30086063519263712 0.59017377189695497 -0.10511138557071636 0.3963174798527298 -0.081766028915098557 0.55002452218430742 0.36214805892182245 -0.11447523062750482 0.027506275731727023 0.06375987593088546 1.1823095536577313 -0.11870925105186098 0.35285165740050711 0.28289365907494235 1.3800062596524834 1.4361779850667744 0.51335450089785106 0.24162348095998018 0.15541923805562485 0.18073879498615794 0.25600817353209993 -0.089352834226824301 0.36006304556889535 1.027230492859821 -0.1144224908512266 0.11982885578544536 -0.10395602795113981
leaf_weight=46.458254098892212 8787.0192157942802 461.93489348143339 123.18571885675192 15.858713297173383 203.10992339998484 44182.234914708883 262.33015992678702 13.96932149864733 140.64141235128045 3.9410171434283248 72.419156897813082 38.972811056300998 45.133373435586691 84.04840749502182 588.97562005370855 98.075535822659731 978.00361817702651 84.546943530440331 1813.1288187224418 32.530302047729492 822.03756988793612 1151.8249633088708 122.31927920505404 5.9191738329827777 592.24089759960771 803.1402400508523 121.44991011545062 132.66864177584648 65.722598895430565 294.50093500129879 7.0512566342949858 15.368924140930178 70.143665567040443 386.89742302335799 28.557685062289238 3.9313485622406006 14.427669648081062 16.723152726888657 11.188465029001234 66.857127476483583 82.28952506929636 122.5783130005002 6.2377430386841288 10.686141580343245 646.11557302623987 12.890363305807112 15.261387906968592
leaf_count=172 17661 1836 552 21 2155 193831 2133 28 508 48 785 334 19 1425 2802 1310 2569 613 5456 284 1877 1393 3574 41 7320 1657 934 1685 843 1978 9 125 198 1248 29 2 48 72 106 420 112 1472 11 41 8245 134 528
internal_value=0 0.270894 0.261569 0.41406 0.268461 0.262886 0.267823 0.344869 0.343196 0.484835 0.308947 0.329126 0.549037 0.339209 0.353283 0.420421 0.457576 0.46031 0.342809 0.58848 0.378936 0.573344 -0.030885 0.150077 -0.0129637 0.507408 0.176715 0.050892 0.238539 0.182424 0.364236 0.24685 0.172954 0.253272 1.22435 0.659708 0.084757 -0.0527682 -0.0861978 -0.00408863 0.332957 -0.0669807 -0.0834327 1.26378 -0.109829 -0.0937258 -0.111359
internal_weight=0 51131.4 48004.6 3126.85 46899.4 45239.9 44444.6 12574.1 12560.1 1134.9 1757.9 11425.2 1368.95 10690.4 1500.16 1659.46 1439.94 1098.47 10600.1 1210.9 1411.01 1184.36 1105.21 258.734 795.351 943.782 219.525 257.74 112.181 734.799 130.237 158.053 154.691 425.87 36.4301 7.87237 308.929 89.1423 846.48 189.176 127.423 128.497 90.2862 26.5449 657.304 145.559 30.6303
internal_count=268644 237400 226507 10893 212088 205439 195964 31244 31216 3055 8370 28161 2523 24553 5536 6649 4405 2976 23117 1739 4679 1677 14419 2074 9475 2165 2244 2834 1015 3608 561 784 811 1582 79 50 2026 857 12345 3994 131 1513 1436 62 8351 1819 653
is_linear=0
shrinkage=0.1


Tree=2
num_leaves=49
num_cat=0
split_feature=109 71 122 130 99 73 74 105 68 46 121 31 84 0 46 36 19 30 75 107 107 56 92 83 118 54 77 33 110 70 116 52 0 33 33 39 109 39 44 50 47 35 82 54 25 84 37 35
split_gain=2716.2 3521.49 3563.78 3466.03 4133.26 4885.82 3016.19 2651.63 2169.8 1676.95 1651.99 1240.6 1415.13 1227.96 1179.12 956.846 943.841 823.323 731.445 640 730.963 376.729 340.977 239.716 206.143 163.668 267.218 154.893 473.634 128.852 103.304 170.066 81.771 74.974 140.883 47.3398 36.169 77.5412 29.6769 35.5213 16.2164 7.18245 0.477914 0.448553 0.160783 0.108517 0.0606511 0.0308755
threshold=-1.1223930716514585 -0.36360602080821985 -2.0662574768066402 1.0000000180025095e-35 -0.8565516173839568 -0.78446415066719044 -1.032245337963104 -0.82322233915328968 0.20519365370273593 1.1694979667663576 -1.8510658144950864 1.0042249560356142 -1.2920886874198911 0.29979090392589575 1.2312406897544863 0.94269365072250377 1.3879197239875796 1.0596045851707461 -1.1301298737525938 -0.83031770586967457 -0.87887844443321217 1.0517349243164065 -0.21074053645133969 -1.3795050382614134 -1.5646378993988035 1.1200132369995119 -0.367310881614685 0.89247676730155956 -1.1907762885093687 -0.078467022627592073 -1.5074865818023679 1.1569116711616518 -0.020539974793791767 0.82206928730010997 0.82007780671119701 1.0118969678878786 -1.1298008561134336 1.0061497092247011 1.1845766901969912 1.1701281070709231 1.1761570572853091 0.84626546502113353 -0.22975197434425351 1.0237201452255251 1.2249474525451662 -0.63995876908302296 0.89994120597839367 0.94032278656959545
decision_type=2 2 2 2 2 2 2 2 2 2 2 2 2 2 2 2 2 2 2 2 2 2 2 2 2 2 2 2 2 2 2 2 2 2 2 2 2 2 2 2 2 2 2 2 2 2 2 2
left_child=15 3 25 4 6 17 16 -8 10 -7 35 12 18 -14 -12 21 -2 -6 -5 20 -13 33 29 -21 -24 30 41 28 -17 -10 31 -3 38 34 45 -4 43 -38 40 -40 -29 -27 -32 -35 47 -1 -28 -34
right_child=1 2 8 11 5 9 7 -9 22 -11 14 19 13 -15 -16 27 -18 -19 -20 23 -22 -23 24 -25 -26 26 46 32 -30 -31 42 -33 44 36 -36 -37 37 -39 39 -41 -42 -43 -44 -45 -46 -47 -48 -49
leaf_value=-0.14641445325691346 -0.032552794127984605 -0.12621672124045197 -0.0072196725117341229 0.25259177088865431 -0.029433802680103583 0.1825593934876345 0.21380853769139829 0.3162103407721043 0.29858421827087295 0.051210743162038365 0.26356499977055103 0.22029153636798787 0.19826648224290572 0.29829444923533072 0.025049951780622089 0.15855077510700447 0.15175791563294488 0.11396781126427383 0.15645783613051625 0.022052814841951745 0.099372885331433139 1.2024822345485513 -0.12742204921372613 0.37496516207486486 0.27957058190760697 0.36611426958199111 -0.14185463061931863 0.28819794929134851 1.4649843438135324 0.37750862381133365 -0.13312527214386444 0.35634945488505831 -0.10615965623791344 -0.11491584269592579 0.65392795496064238 -0.1290379021390797 0.043227557188911622 -0.10540128424798414 0.19931654194296686 -0.12051171118472337 0.19217188893441758 0.26348176827101505 -0.12220461264551674 -0.1045068262649968 -0.14165079275819978 -0.10678637380890635 -0.12269001379772278 -0.12493356453645715
leaf_weight=0.79499957337975491 575.62301851809025 17.754322119057182 48.848425220698118 1575.6938792020082 1448.5866196118295 16801.631380800158 24520.283440660685 2819.4689483027905 231.69453419744968 1031.6908392496407 9347.6347999684513 1050.8686574958265 1465.6768176518381 7545.2407819796354 211.96522440761328 9.9049508199095708 537.07980784960091 553.29345424473286 1590.206708420068 21.275921024382114 953.57112600281835 2.3046984877437344 21.567857690155506 201.83563128113747 29.422140352427959 12.269653186202051 1.7559530586004282 20.626148700714111 3.85510130226612 1929.5698501691222 51.98254019767046 12.40621919557452 6.2395702265202981 50.231741428375244 3.9704667311161757 91.948383774608374 59.068492025136948 86.510573647916317 7.6232957951724512 6.3779106736183167 119.33325739204884 15.348421320319174 174.90955251082778 235.45118142664433 1.8739928938448427 5.2835038211196643 27.720145590603352 1.0190744102001188
leaf_count=5 9985 149 274 4970 9185 64949 98831 8023 279 5184 20110 3005 2991 9654 1075 58 3824 2453 4841 188 4369 19 160 55 49 14 11 3 16 805 295 9 139 671 30 757 930 2098 2 107 154 26 1314 6231 15 131 189 12
internal_value=0 0.215789 0.264882 0.206215 0.193373 0.158332 0.217801 0.224369 0.273649 0.174961 0.253268 0.249266 0.261818 0.282024 0.258276 0.00569605 0.0564104 0.0102005 0.204304 0.18065 0.162767 -0.0727126 0.363017 0.341311 0.10742 -0.0675762 0.0855788 0.202375 0.524569 0.369048 -0.101594 0.0722818 0.175192 -0.0793722 0.190646 -0.086774 -0.085664 -0.0450954 0.192437 0.0536265 0.206323 0.309077 -0.124707 -0.106337 -0.115537 -0.111969 -0.123832 -0.108795
internal_weight=0 74918.8 12226.8 62692 48287.7 19835.2 28452.5 27339.8 11912.7 17833.3 9700.4 14404.4 12176.8 9010.92 9559.6 620.469 1112.7 2001.88 3165.9 2227.55 2004.44 443.616 2212.25 223.112 50.99 314.147 57.0942 176.853 13.7601 2161.26 257.053 30.1605 163.093 441.311 10.049 140.797 431.262 145.579 153.961 14.0012 139.959 27.6181 226.892 285.683 9.13264 6.0785 29.4761 7.25864
internal_count=268644 258023 25516 232507 202434 81771 120663 106854 23509 70133 22216 30073 22456 12645 21185 10621 13809 11638 9811 7617 7374 10115 1293 243 209 2007 240 506 74 1084 1767 158 432 10096 166 1031 9930 3028 266 109 157 40 1609 6902 166 136 200 151
is_linear=0
shrinkage=0.1


Tree=3
num_leaves=56
num_cat=0
split_feature=5 103 53 42 130 69 103 6 135 130 113 31 97 29 114 97 113 4 106 72 103 10 105 30 75 30 30 32 4 73 105 74 132 118 0 6 70 26 101 113 108 76 2 132 113 108 133 109 54 30 93 114 130 136 102
split_gain=2262.47 2632.57 5267.35 2778.92 1959.41 2535.58 1892.4 2225.99 1201.13 1149.47 1079.12 863.904 586.749 564.237 456.803 429.264 418.376 489.13 413.505 382.989 381.978 317.093 308.816 308.565 306.034 296.011 271.726 255.451 229.507 223.841 176.556 142.678 150.955 133.818 107.113 87.244 67.5513 60.5371 140.673 1.76545 0.893181 0.396203 0.251792 0.185621 0.179674 0.162184 0.135029 0.122494 0.0843462 0.068235 0.0518387 0.00996919 0.000942878 0.000245136 4.74462e-06
threshold=0.79358902573585521 -0.92673674225807179 0.95044323801994335 0.89530643820762645 1.0000000180025095e-35 -0.0097887171432375891 -0.91401776671409596 0.7575441598892213 1.0000000180025095e-35 1.0000000180025095e-35 -0.92508685588836659 1.0067743659019472 -0.99399507045745839 1.1705549359321596 -1.0891307592391966 -0.68356323242187489 -0.93624249100685109 0.73750773072242748 -0.94028058648109425 -0.69761443138122547 -0.96962603926658619 1.045187294483185 -0.90702790021896351 1.081452012062073 -1.0709959864616392 1.1032023429870608 1.0729826688766482 0.90675315260887157 0.72171762585639965 -0.91924676299095143 -0.92586025595664967 -1.0209259390830991 1.0000000180025095e-35 -0.9287012219429015 0.68471446633338939 0.86270505189895641 -0.59101751446723927 1.6111397147178652 -0.97588080167770375 -0.92585551738739003 -0.91790923476219166 -1.1122494935989378 0.67448920011520397 1.0000000180025095e-35 -0.92585551738739003 -0.9186544120311736 1.0000000180025095e-35 -0.9771597385406493 0.88009360432624828 1.0278005599975588 -1.027955889701843 -0.93047693371772755 1.0000000180025095e-35 1.0000000180025095e-35 -0.93844518065452565
decision_type=2 2 2 2 2 2 2 2 2 2 2 2 2 2 2 2 2 2 2 2 2 2 2 2 2 2 2 2 2 2 2 2 2 2 2 2 2 2 2 2 2 2 2 2 2 2 2 2 2 2 2 2 2 2 2
left_child=1 8 6 10 5 -5 7 26 12 14 13 -6 18 -4 -8 25 22 33 24 -9 21 31 28 -12 -1 -14 -3 -11 -10 -20 -19 45 36 -18 -24 -23 -33 39 -39 40 46 53 -43 -42 50 51 -22 -17 52 -34 -40 -2 -41 -37 -46
right_child=20 2 3 4 11 -7 9 19 16 27 23 -13 15 -15 -16 47 17 30 29 -21 37 35 34 -25 -26 -27 -28 -29 -30 -31 -32 32 49 -35 -36 41 -38 38 44 48 43 42 -44 -45 54 -47 -48 -49 -50 -51 -52 -53 -54 -55 -56
leaf_value=0.58071012986101145 -0.11341601080905606 0.029114051459805581 -0.0038232322317313019 0.15435947288304594 0.20869824456740413 0.2122119581666343 0.056941593756054655 -0.045989647739241704 0.35753790700181148 0.24850442318020521 0.16504480046542117 0.12029349995344113 0.22202438255383461 0.35143350172387722 -0.093050920454405966 -0.12568344530054806 0.053573594366885295 0.27046935958529827 -0.12581236208553989 0.45182822202708445 -0.10997104022699594 0.22479809724236338 -0.13010897178653374 0.72947547943758106 -0.11581977580347949 0.013998503661710732 0.25358766843372943 -0.13664522386049033 0.28307357953472023 0.093648237131420467 -0.12366155664851475 0.2505346977185065 -0.13332032632058805 0.26674895939669468 0.34307890080325731 -0.10415876671205163 0.46826869920488545 0.25625066360294824 -0.13168430063487932 -0.10284439206634229 -0.13053303493028268 -0.14011675032414067 -0.12211289741042815 -0.12145148587930672 -0.10352084383113916 -0.13520663002064079 -0.11833557552861002 -0.14353320952313622 -0.12432555746471377 -0.11549646195517504 -0.12067328489112786 -0.10377037872977933 -0.10349384480242874 -0.10305180022206667 -0.10330409434324672
leaf_weight=21.822145262733105 3.7022183388471603 58.451713219285011 48.858804982155561 49690.323439473286 15214.787113640457 8938.6777018718421 245.64078252390027 514.82037435099483 976.27280035614967 154.31330505013466 10.805828161537645 1191.9867007136345 2353.0943226441741 526.13248926401138 1170.8782478682697 4.4162579067051402 31.109357461333275 14.700434800237415 93.570562798529863 15.932441636919974 70.973328344523907 8.3445040062069875 20.219219870865349 93.424778796732426 8.8727536574006063 70.450714059174061 696.51636029407382 19.383741617202759 718.53950697928667 92.340256035327911 50.10566496476531 46.573047883808613 3.704073488712309 551.08319189026952 6.2664709091186515 2.9073405303060991 20.530006427317858 15.39333173073828 5.7132023125886944 88.120802722871304 45.687207240611315 9.9195625111460668 35.814373515546322 44.358272850513458 1.3286097049713141 5.5351784434169513 26.507363222539425 29.700929114595056 1.885902827605604 5.1122380793094635 16.992065750062466 1.5079563017934559 29.952543107792735 6.4135826248675585 4.2102636471390742
leaf_count=55 37 321 265 178807 24346 19866 2030 4916 793 188 86 4638 5464 742 12614 46 108 27 922 65 908 14 122 99 85 629 1724 118 758 349 618 72 21 339 1 79 46 23 34 3330 278 53 274 310 41 38 245 158 22 50 137 47 926 224 136
internal_value=0 0.172999 0.168505 0.173551 0.171728 0.16318 0.0356707 0.125884 0.243042 -0.0372687 0.374912 0.202275 0.197113 0.321246 -0.0670405 0.211019 0.294904 0.226349 0.0393335 -0.0310459 -0.0401033 0.0934365 0.320673 0.67096 0.379369 0.215977 0.236208 0.205524 0.325968 -0.0168082 -0.034258 0.217767 0.266038 0.255358 -0.0181535 -0.0765185 0.31715 -0.0971759 0.0130449 -0.112818 -0.118879 -0.122188 -0.126018 -0.126059 -0.119505 -0.123287 -0.112246 -0.141223 -0.103344 -0.122985 -0.123444 -0.110624 -0.103009 -0.103397 -0.103356
internal_weight=0 83633.5 78590.9 75715 75035.8 58629 2875.94 1285.72 5042.56 1590.22 679.222 16406.8 2674.27 574.991 1416.52 2457.66 2368.3 646.999 216.606 530.753 501.187 150.064 1721.3 104.231 30.6949 2423.55 754.968 173.697 1694.81 185.911 64.8061 86.6647 75.9194 582.193 26.4857 63.3994 67.1031 351.123 43.6375 307.485 187.526 55.0549 45.7339 90.0455 28.2441 10.7454 97.4807 34.1172 119.959 8.81631 22.7053 5.21017 118.073 9.32092 5.53887
internal_count=268644 261299 250825 228849 227657 198673 21976 7026 10474 14950 1192 28984 7708 1007 14644 6297 2766 1092 1411 4981 7345 955 1674 185 140 6093 2045 306 1551 1271 645 311 189 447 123 644 118 6390 371 6019 1741 630 327 588 348 122 1153 204 4278 71 171 84 4256 303 177
is_linear=0
shrinkage=0.1


Tree=4
num_leaves=62
num_cat=0
split_feature=107 76 131 106 116 76 130 31 122 67 74 94 130 109 71 40 117 69 49 71 134 41 31 31 128 107 76 110 118 87 123 128 41 65 33 132 42 48 107 90 86 42 101 27 91 55 132 54 95 41 106 100 31 116 19 0 64 37 109 109 113
split_gain=1948.38 2107.03 4740.43 4775.34 2289.22 1999.47 3533.88 1927.65 1971.07 1590.02 1468.88 1455.01 1337.61 1330.58 1241.14 2150.08 1195.78 1495.92 1034.12 1107.67 991.591 947.184 737.434 673.997 650.995 598.48 580.885 571.193 545.594 455.703 393.543 385.858 366.397 622.187 325.495 1047.4 398.762 379.76 431.807 314.03 302.584 294.881 265.83 264.962 234.694 180.518 159.016 122.452 179.066 119.054 94.1112 83.7886 260.727 77.2729 70.531 31.0978 78.1552 18.4348 11.2691 0.456419 0.24854
threshold=-0.97334608435630787 -1.1578549146652219 1.0000000180025095e-35 -0.83293527364730824 -0.99588245153427113 -1.1962772011756895 1.0000000180025095e-35 1.0066065192222597 -2.0662574768066402 0.32597215473651892 -1.0290607213973997 -1.0214592218399046 1.0000000180025095e-35 -0.91240608692169178 -0.48598925769329065 0.98502504825592052 -1.478094160556793 -0.089385729283094392 1.0846239924430849 -0.44121685624122614 1.0000000180025095e-35 1.0205769538879397 1.0053942799568178 0.99087572097778331 1.0000000180025095e-35 -1.0164695382118223 -1.1705827116966245 -0.88160538673400868 -1.1115921735763548 -1.1499454975128172 -1.380423843860626 1.0000000180025095e-35 1.0844470262527468 0.4576698392629624 0.87462416291236889 1.0000000180025095e-35 1.0913888812065127 1.2010458111763003 -0.98482772707939137 -0.22174439579248426 -1.1845645904541013 1.0113424062728884 -0.90418231487274159 1.2337175011634829 -1.1081124544143675 1.0199965834617617 1.0000000180025095e-35 1.1200132369995119 -0.22846104204654691 1.0744244456291201 -0.90095645189285267 -0.56932038068771351 0.88737589120864879 -1.5074865818023679 0.88942909240722667 -0.040551545098423951 0.56617599725723278 0.94742310047149669 -1.1180596351623533 -1.1223930716514585 -1.0076405405998228
decision_type=2 2 2 2 2 2 2 2 2 2 2 2 2 2 2 2 2 2 2 2 2 2 2 2 2 2 2 2 2 2 2 2 2 2 2 2 2 2 2 2 2 2 2 2 2 2 2 2 2 2 2 2 2 2 2 2 2 2 2 2 2
left_child=16 2 4 10 12 6 -6 8 47 13 44 -12 27 -10 43 -16 32 18 23 41 24 -21 -7 25 28 -18 -14 -2 -9 30 -22 -25 33 51 37 42 -37 38 -19 -11 -26 -20 -36 -5 -4 59 54 53 -49 -47 -39 57 -53 -3 -34 58 -57 -1 -48 -35 -31
right_child=1 7 3 14 5 22 -8 20 9 39 11 -13 26 -15 15 -17 17 34 19 21 29 -23 -24 31 40 -27 -28 -29 -30 60 -32 -33 46 45 35 36 -38 50 -40 -41 -42 -43 -44 -45 -46 49 55 48 -50 -51 -52 52 -54 -55 -56 56 -58 -59 -60 -61 -62
leaf_value=-0.12018748140601575 -0.086505959016795586 0.031932185417610878 -0.070514821104022893 -0.015639100570783524 0.0056791386662425119 0.14809126423304539 0.1477456131237784 -0.067012365378071079 0.1467802782262205 0.24447719188781525 0.19677415683721447 0.0044496313486975516 -0.11856135246111102 0.17997743448171213 0.67246855949938245 0.2989094496769652 -0.04692761562497106 0.45316154226707817 0.027830134623037118 0.19165549277294167 0.58351348119243818 0.026928892904946485 0.073399526195733075 0.031146417485661351 0.063450748178850325 0.17800002570457502 0.14212576618490311 0.28700993274592074 0.064932598811495351 -0.11400777512787955 0.20991324994991076 0.57790697717825756 0.5530627643646947 -0.10963531851909979 0.85924993915013437 0.14090500073019516 -0.051886047267591877 -0.14387058915581333 0.22121206728664555 0.14669611895373624 0.30812805542322319 -0.085785235672886567 0.20470627335415756 0.39387090685171433 0.75087068011988078 0.32918200305666706 -0.10580951337934182 0.20274862762351367 -0.12745519014289095 0.14908868669750386 0.25718603291294029 -0.12677760788616699 0.52204415659359638 -0.12681950891149479 0.081442509341404956 -0.11826044156218705 0.28430522887037712 -0.040051050240824546 -0.14725436379074727 -0.14839963049662949 -0.13345311626260209
leaf_weight=134.45104526355863 1082.1036077365279 35.156842079013586 400.55956818722188 136.05645228736103 3830.1113726664335 10000.591316718608 3225.4250754918903 364.72458431497216 30820.325815074146 2783.7416494861245 1476.7236545756459 536.1960574388504 99.932515505701303 19849.604547044262 165.60259286314249 2213.6451836302876 128.37481160089374 106.52204888314009 345.11774238571525 552.97248424589634 29.921511597931385 946.62436622753739 1523.1616700273007 665.01552414894104 77.01283386349678 1506.4665078520775 590.92515450716019 42.551559001207352 2226.5440591238439 31.926784310489893 488.75151125341654 13.162705410271881 4.4974364675581446 4.072225488722327 6.2389414086937895 181.85067430138588 261.64745568111539 28.316615104675293 325.55675851553679 372.37982949987054 147.05084725469351 675.69772731885314 1133.614764329046 17.875778831541538 3.5091076269745818 57.15291603282094 245.04648669064045 34.445743564516306 31.387683350592852 102.60898248106241 7.3748499155044547 19.194329921156168 9.1440052166581172 239.78352439031005 10.75152590498328 15.917964946478607 6.9188151359558097 36.499323129653931 89.593856170773506 11.952469266951082 8.277082856744526
leaf_count=2003 5541 188 5200 1772 24992 28616 8802 2413 83161 1220 5501 2164 471 34239 286 1805 1117 543 1781 2004 39 5462 6224 4925 373 6408 1003 40 8970 373 696 37 2 85 6 569 1896 197 286 750 435 4885 1423 105 4 43 5619 43 197 390 3 276 17 1628 57 244 1 490 505 61 58
internal_value=0 0.147407 0.123383 0.211167 0.102077 0.11255 0.0706246 0.157989 0.162557 0.164075 0.110616 0.145543 -0.00509946 0.159785 0.307106 0.32491 0.0946068 0.107652 0.0772863 0.0329754 0.0846544 0.0876714 0.138219 0.12557 0.0605013 0.160338 0.104417 -0.0723739 0.0463612 0.206325 0.231466 0.0417584 -0.0254926 0.0442854 0.179208 0.157556 0.0271654 0.252499 0.278395 0.23294 0.22403 -0.0473741 0.208289 0.0319163 -0.0633816 0.181421 -0.0957104 -0.077187 0.0453159 0.213515 -0.0610011 -0.0766777 0.0825794 -0.10652 0.220539 -0.109201 0.0037041 -0.103078 -0.116906 -0.138549 -0.118011
internal_weight=0 82886 25345 4950.17 20394.8 18579.3 7055.54 57541 54166.8 53826.1 2416.99 2012.92 1815.51 50669.9 2533.18 2379.25 7632.36 6884.55 4833.43 2520.41 3374.21 1499.6 11523.8 2313.02 2815.33 1634.84 690.858 1124.66 2591.27 558.877 518.673 678.178 747.801 375.075 2051.12 1583.35 443.498 467.77 432.079 3156.12 224.064 1020.82 1139.85 153.932 404.069 175.787 372.726 340.774 65.8334 159.762 35.6915 199.289 28.3383 274.94 15.249 357.477 22.8368 170.95 334.64 16.0247 40.2039
internal_count=268644 227309 92526 16837 75689 68634 33794 134783 121426 119370 12869 7665 7055 117400 3968 2091 41335 31542 26619 14132 13357 7466 34840 12487 12191 7525 1474 5581 11383 1166 735 4962 9793 3365 4923 3894 2465 1029 829 1970 808 6666 1429 1877 5204 579 6428 2056 240 433 200 2786 293 1816 59 6369 245 2493 6124 146 431
is_linear=0
shrinkage=0.1


Tree=5
num_leaves=57
num_cat=0
split_feature=5 102 4 130 70 41 82 86 77 73 29 4 29 54 28 114 101 10 28 109 92 127 4 108 73 112 3 130 74 104 132 103 31 128 117 6 116 113 76 108 114 3 133 30 106 132 114 103 2 0 52 135 130 128 100 71
split_gain=1539.45 1517.55 4135.8 1554.56 1699.94 1771.25 1693.99 808.305 984.62 805.714 750.485 508.728 427.876 398.352 382.169 312.198 291.818 309.358 269.619 252.617 219.748 217.503 237.86 210.901 189.054 186.848 204.009 146.319 141.719 138.908 116.674 114.091 88.2249 81.3919 72.8786 65.2915 34.4793 1.68313 1.41501 0.887456 0.433142 0.286447 0.269012 0.18926 0.182943 0.181903 0.0919072 0.0873218 0.0705901 0.0314608 0.0307316 0.017872 0.00126236 0.000827596 0.000800284 0.000197391
threshold=0.79358902573585521 -0.93476289510726918 0.69639652967453014 1.0000000180025095e-35 -0.18462242186069486 0.98764541745185863 -0.22975197434425351 -1.2325674891471861 -1.0710121989250181 -0.82639694213867176 1.2118902802467348 0.69920316338539135 1.1844359040260317 0.98008257150650036 1.2455147504806521 -0.9312746226787566 -0.97588080167770375 1.045187294483185 1.2237921357154848 -0.93076872825622547 -1.1052315831184385 -1.460041284561157 0.65595218539237987 -0.91790923476219166 -0.81752717494964589 -0.95919832587242115 0.67931652069091808 1.0000000180025095e-35 -1.0209259390830991 -0.91118538379669178 1.0000000180025095e-35 -0.92377984523773182 0.98043280839920055 1.0000000180025095e-35 -0.93758735060691822 0.86270505189895641 -1.0118783712387083 -0.92585551738739003 -1.1122494935989378 -0.91790923476219166 -0.92596802115440358 0.77322363853454601 1.0000000180025095e-35 1.0833806991577151 -0.96151468157768238 1.0000000180025095e-35 -1.0520011186599729 -0.93011137843132008 0.60533618927001964 0.67096182703971874 0.90518859028816234 1.0000000180025095e-35 1.0000000180025095e-35 1.0000000180025095e-35 -0.98685970902442921 -0.36360602080821985
decision_type=2 2 2 2 2 2 2 2 2 2 2 2 2 2 2 2 2 2 2 2 2 2 2 2 2 2 2 2 2 2 2 2 2 2 2 2 2 2 2 2 2 2 2 2 2 2 2 2 2 2 2 2 2 2 2 2
left_child=1 10 3 4 5 -3 -6 9 -9 -5 11 13 14 19 33 21 17 28 -15 -1 32 22 -12 -23 -16 26 -13 31 43 -27 36 -14 -17 -4 -29 -19 -30 39 52 42 -22 -40 51 -2 -44 47 -32 -41 -39 -45 -47 -18 -37 54 -50 -55
right_child=16 2 12 7 6 -7 -8 8 -10 -11 15 25 27 18 24 20 37 35 -20 -21 40 23 -24 -25 -26 29 -28 34 30 -31 46 -33 -34 -35 -36 38 -38 48 41 45 -42 -43 44 49 -46 50 -48 -49 53 -51 -52 -53 -54 55 -56 -57
leaf_value=0.28698713113082713 -0.13459541622634863 0.13302934611218561 -0.11627830689791785 0.15473017110530299 0.15329180449278307 0.095320377673474885 -0.1101838424296876 0.17233572508628014 0.057741382712256498 0.08727308683851015 0.26091248156792929 -0.14137132282564377 -0.013961948745883291 0.12940035785107504 0.059995175600921137 0.16443837787411103 -0.10980626085043239 0.15611293814426172 -0.041881272028664505 0.17321119066358948 -0.1292544090554941 0.30780980560532956 -0.067677267601646343 0.2162457657482425 0.26453223510495566 -0.0676035617403659 0.13215427959166434 -0.15215722921909405 0.31489531328808895 0.25009439314562498 -0.13573559595083104 -0.11286473314120163 -0.050216792826583624 0.18231269953008389 0.19980348041526902 -0.10261303148663024 0.18172450118457645 -0.12408804256442107 -0.13970135536928335 -0.13448714243713553 -0.10653725673665596 -0.12300317776938621 -0.10950063797437944 -0.12026929385382329 -0.12561425968019865 -0.12148554999719825 -0.11609667638996071 -0.12624940960252534 -0.10283378444450171 -0.10928814930625499 -0.13014269235942758 -0.11421245104280527 -0.10394711038873378 -0.10237718887887429 -0.10356989314556252 -0.10316004115198202
leaf_weight=241.04050696641207 5.9879099894315031 18616.367214629427 129.36100070923567 3574.9846555441618 12553.972582319751 37644.951046511531 248.85995604470372 10667.307126421481 806.48136148229241 3508.1329290755093 37.796524658799171 31.606106381863356 136.88673613220453 1257.8457622099668 169.41948475129902 193.63652025535703 62.428605020046234 9.6706106290221197 99.14694039709866 1024.9382634926587 23.845164570957422 285.91449827328324 52.811200123280287 2093.0891150832176 61.62827143073082 165.74773712456226 198.66521278396249 7.6930017396807662 26.821235544979572 15.008768038824199 3.4328929483890533 788.43050590157509 21.248456448316574 9.8222587406635267 25.007428824901581 33.528954045847058 70.665333431214094 1.6454669572412957 13.880390562117098 30.635542422533035 12.951986694708465 39.531231191009283 9.7762024626135808 3.8446454331278792 25.22725984454155 40.27984693646431 7.7912673428654653 22.187230475246906 21.657098107039928 8.1177876684814674 4.565231353044509 10.797697510570286 8.9958348665386421 13.337353006005289 46.438864236697555 4.2462516259402028
leaf_count=617 39 68292 1514 7437 25542 114274 2133 11977 1893 7911 58 182 936 2052 1060 237 799 14 396 1601 210 608 405 1152 217 1138 587 39 29 98 19 8157 161 59 30 1383 92 15 75 171 326 299 137 44 165 278 74 146 846 159 27 107 253 590 1441 143
internal_value=0 0.122752 0.119532 0.122186 0.115282 0.107798 0.14817 0.147883 0.164281 0.12132 0.172517 0.138317 -0.0556035 0.154527 0.0356963 0.210646 -0.0488816 0.0348477 0.116886 0.194874 0.104546 0.221458 0.0693922 0.22725 0.114552 0.0348753 0.0946113 -0.0908868 0.140228 -0.0412241 0.183211 -0.0982336 0.143213 -0.0952065 0.117002 -0.0915419 0.218363 -0.115206 -0.116506 -0.12014 -0.121258 -0.127343 -0.113903 -0.120082 -0.121114 -0.127051 -0.122103 -0.131027 -0.103572 -0.112817 -0.122367 -0.110456 -0.102895 -0.103178 -0.103336 -0.102566
internal_weight=0 94704.6 88949.3 87621.1 69064.2 56261.3 12802.8 18556.9 11473.8 7083.12 5755.29 3034 1328.25 2622.97 370.231 2721.29 525.491 232.268 1356.99 1265.98 251.682 2469.61 90.6077 2379 231.048 411.028 230.271 958.018 126.661 180.757 108.711 925.317 214.885 139.183 32.7004 105.607 97.4866 293.223 95.9364 205.898 36.7972 53.4116 108.23 17.9503 35.0035 97.6679 11.2242 52.8228 87.325 11.9624 44.8451 73.2263 42.5248 85.6796 68.096 17.5836
internal_count=268644 261299 251471 239459 210241 182566 27675 29218 13870 15348 9828 6671 12012 4666 2850 3157 7345 2480 2448 2218 934 2223 463 1760 1277 2005 769 9162 456 1236 214 9093 398 1573 69 2024 121 4865 2010 1830 536 374 1208 242 302 622 93 317 3035 203 305 906 1636 3020 2287 733
is_linear=0
shrinkage=0.1


Tree=6
num_leaves=61
num_cat=0
split_feature=107 76 131 105 117 31 76 130 90 68 121 73 95 113 130 71 48 31 134 72 54 135 35 101 76 132 108 31 72 70 128 31 49 91 87 52 33 108 128 56 74 53 77 130 54 31 127 74 39 109 40 53 110 38 56 109 114 63 95 58
split_gain=1462.2 1501.31 2984.44 3146.53 1608.76 1414.18 1294.66 1959.57 1245.21 1238.16 1080.75 1035.46 1089.1 909.434 905.233 849.838 1155.86 831.31 731.265 656.576 636.371 549.107 567.766 572.371 486.482 479.236 441.446 436.134 467.337 397.523 378.901 354.074 339.761 337.46 319.475 313.408 277.824 259.473 245.151 233.373 208.693 191.755 165.977 158.037 137.472 107.92 57.1751 104.633 12.7207 3.6533 1.40207 1.15013 0.882602 0.553645 0.495687 0.244679 0.223699 0.216543 0.155084 0.106804
threshold=-0.97334608435630787 -1.1578549146652219 1.0000000180025095e-35 -0.82322233915328968 -1.0158280134201048 1.0066065192222597 -1.18705278635025 1.0000000180025095e-35 -0.18790259957313535 0.20519365370273593 -1.8510658144950864 -0.88349536061286915 -0.99179500341415394 -1.3467825055122373 1.0000000180025095e-35 -0.42041303217411036 1.0901033878326418 0.9987454116344453 1.0000000180025095e-35 -0.64083445072174061 0.89203390479087841 1.0000000180025095e-35 0.89035090804100048 -0.79416099190711964 -1.1682552099227903 1.0000000180025095e-35 -0.88607284426689137 0.99694418907165538 -0.72480943799018849 -0.25958250463008875 1.0000000180025095e-35 0.97545871138572704 1.1451428532600405 -1.1524533629417417 -1.1499454975128172 1.1473324894905093 0.94880732893943798 -0.83121418952941883 1.0000000180025095e-35 0.89030674099922191 -1.0425692796707151 1.1486878395080569 -0.367310881614685 1.0000000180025095e-35 1.022720515727997 1.0016526579856875 -3.2329115867614742 -0.45150648057460779 0.99153184890747081 -1.1223930716514585 1.0497249364852907 1.092305660247803 -1.1803402900695799 0.96900549530982982 0.94198739528656017 -1.1223930716514585 -1.0226579904556272 0.54500216245651256 -0.64798352122306813 0.85819315910339367
decision_type=2 2 2 2 2 2 2 2 2 2 2 2 2 2 2 2 2 2 2 2 2 2 2 2 2 2 2 2 2 2 2 2 2 2 2 2 2 2 2 2 2 2 2 2 2 2 2 2 2 2 2 2 2 2 2 2 2 2 2 2
left_child=13 2 4 11 14 8 7 -6 9 10 -3 40 -13 46 37 16 27 19 26 -5 -8 22 23 -17 -16 -24 30 28 -15 45 -7 32 -18 -19 39 -11 -33 -2 -29 -20 -4 51 -43 -28 -31 -23 47 48 -1 54 53 -10 -52 -51 57 59 -36 -48 -56 -49
right_child=1 5 3 17 6 18 20 -9 41 35 -12 12 -14 15 24 21 31 33 34 -21 -22 29 25 -25 -26 -27 43 38 -30 44 -32 36 -34 -35 56 -37 -38 -39 -40 -41 -42 42 -44 -45 -46 -47 49 55 -50 50 52 -53 -54 -55 58 -57 -58 -59 -60 -61
leaf_value=0.31369729961141402 -0.12575904082193429 -0.11222589572310962 -0.11428326888597898 -0.094247866789048673 0.016903819955639856 0.016515200274943811 -0.051116239238543887 0.1081476939856849 -0.10409526707068506 -0.084032863680935821 0.12001329621311066 0.14974071899490857 -0.013429450384945391 -0.095268685315242047 -0.15113802180553368 0.31448241112039921 0.050227859665478471 0.28387697026792857 -0.1467666367700993 0.17503624742393808 0.10652250628329299 -0.1602604124979789 0.094794378680996425 0.10373899899035421 0.11378776629749465 -0.029216260485042424 0.22029259027019454 -0.036535928574424489 0.10698727746699506 0.27684875822808658 0.14666180482884447 -0.081444452870529982 -0.14355543888285316 0.20560638832947575 -0.11391158705592608 0.19088725513174132 0.86626581260424729 0.20345308451758709 0.32296912364329378 0.18831680054971844 0.008531230453874562 0.13239549803235492 -0.12161454182318494 -0.033536294870542147 0.16738585158325353 0.24507927052746692 -0.1107279477624253 -0.13789216671346841 0.13643088653376254 -0.12315164360415332 -0.10665800032520306 -0.12192489130275681 -0.15101850296776942 -0.16159359650868554 -0.14938512660897202 -0.13630493878742186 -0.13279715403511724 -0.13255430276950153 -0.10496739562535472 -0.10448410809262043
leaf_weight=6.5893297195434597 668.81040240824223 201.1038317643106 226.34028919227421 117.48876297846437 5947.2657786570489 2626.9089925289154 262.26841081678867 3895.3662202414125 44.624172139912844 42.089398600161076 55626.466142101213 1700.2243007794023 538.65285285934806 120.59309496730566 84.586624123156071 141.29730574786663 593.89502933993936 1441.0948884449899 21.59359709918499 394.81799861043692 10862.192211901769 44.669894695281982 618.74021700024605 1465.9197338968515 383.88023199886084 627.82410337030888 166.64542416483164 369.76938668638468 2169.3316295817494 132.48573644086719 244.51903820037842 764.55135837942362 106.73888931795955 891.66846461966634 31.857434011995792 2801.8702486343682 3.1058426871895781 24.829706802964211 19.993747115135193 554.91214866191149 355.94371172599494 71.194776674732566 40.277905037626624 28.762431133538485 856.09891289845109 7.7008362486958495 8.6122601032257098 0.99637793004513397 10.496989939361809 4.6657708361744907 16.037177000194792 191.18448282591999 6.2264404743909827 19.014241635799408 0.78876696527004142 2.9375025965273371 7.8094787001609793 9.6261394023895246 228.89536821469665 24.174957759678364
leaf_count=1 3723 1308 3850 1395 32173 11021 2639 9724 1181 181 115629 5323 2111 1020 415 297 2724 1011 101 386 26411 253 2325 5910 584 4233 300 2839 8603 78 745 5150 679 594 376 1051 7 20 21 634 2167 125 323 125 550 11 142 5 65 53 281 1628 30 82 4 27 55 73 5236 636
internal_value=0 0.109011 0.0896657 0.154422 0.0730848 0.117586 0.0794325 0.0530149 0.121338 0.122455 0.119177 0.0795873 0.110484 0.0653521 -0.0414425 0.0721154 0.0406171 0.228627 0.0574682 0.113281 0.102806 0.105662 0.0829843 0.122266 0.0659526 0.0323372 0.0374952 0.079692 0.096336 0.167832 0.027598 -0.0306961 0.0207057 0.253959 0.156878 0.186819 -0.0776101 -0.113974 -0.0180943 0.175766 -0.0392081 -0.0674606 0.0406152 0.182931 0.182056 -0.100657 -0.0950757 0.00963556 0.204794 -0.11118 -0.137081 -0.118551 -0.119064 -0.154019 -0.10638 -0.108994 -0.11763 -0.122248 -0.10512 -0.105807
internal_weight=0 90497.3 27795.4 5666.23 22129.2 62701.8 20967.1 9842.63 59018.8 58671.5 55827.6 2821.16 2238.88 8381.78 1162.11 8042.72 4147.98 2845.07 3683.01 512.307 11124.5 3894.74 2853.78 1607.22 468.467 1246.56 3066.84 2679.69 2289.92 1040.96 2871.43 1468.29 700.634 2332.76 616.173 2843.96 767.657 693.64 389.763 576.506 582.284 347.281 111.473 195.408 988.585 52.3707 339.061 45.1952 17.0863 293.866 45.9436 235.809 22.2636 23.68 247.923 28.1088 39.6669 18.2384 229.684 25.1713
internal_count=268644 227309 92526 16837 75689 134783 70947 41897 121426 118169 116937 13451 7434 41335 4742 34700 21043 3386 13357 1781 29050 13657 12765 6207 999 6558 12191 12483 9623 892 11766 8560 3403 1605 1166 1232 5157 3743 2860 735 6017 3257 448 425 628 264 6635 734 66 5901 446 2809 311 135 5455 668 431 215 5240 641
is_linear=0
shrinkage=0.1


Tree=7
num_leaves=62
num_cat=0
split_feature=130 67 101 5 102 5 123 5 84 135 111 31 76 89 106 53 102 4 74 32 106 2 62 26 112 32 103 87 36 50 72 114 19 106 82 8 128 53 21 26 77 80 110 28 27 111 108 50 50 49 112 55 53 110 82 122 110 122 40 40 95
split_gain=1231.43 1447.73 1369.75 3581.6 1631.03 2282.09 1343.56 978.949 764.455 754.813 747.395 701.437 685.554 711.799 612.228 604.724 604.181 1002.59 585.199 570.999 517.298 439.191 436.696 417.164 405.435 356.589 356.285 354.902 347.937 323.276 296.539 264.007 320.288 256.658 239.313 215.519 208.341 192.688 177.422 169.172 144.237 137.19 133.763 114.587 77.4685 77.3539 48.5425 32.7654 204.586 32.0053 22.8212 49.7003 4.47432 2.11601 2.05446 1.91047 1.7218 1.47842 0.744951 0.139519 0.0123181
threshold=1.0000000180025095e-35 0.31119471788406378 -0.94416823983192433 0.70500534772872936 -0.90155488252639759 0.6707613766193391 -2.2682688236236568 0.79358902573585521 -1.293254494667053 1.0000000180025095e-35 -1.0124318599700926 1.004599452018738 -1.2300011515617368 -1.2869915366172788 -0.85867139697074879 1.1167306900024416 -0.92199045419692982 0.69639652967453014 -1.0454496741294859 0.9637962579727174 -0.84931865334510792 0.58962249755859386 0.38235872983932501 1.3867114186286928 -1.3067036271095274 0.96729132533073436 -0.84026911854743946 -1.3187445998191831 0.92414465546607982 1.055438280105591 -0.28850804269313807 -0.90634632110595692 1.126100540161133 -0.82514584064483631 -1.3123976588249204 0.88726529479026806 1.0000000180025095e-35 1.1486878395080569 1.6019340157508852 1.1638935804367068 -0.367310881614685 -1.1134060621261594 -0.90453848242759693 1.3935793042182925 1.4551316499710085 -0.99841636419296254 -0.82617047429084767 1.1064344048500063 1.1069731116294863 1.2277019619941714 -1.299504220485687 1.0629692673683169 1.0554786920547488 -1.1803402900695799 -0.22975197434425351 -1.029684782028198 -1.1803402900695799 -1.0195278525352476 1.0592915415763857 1.0497249364852907 -0.22846104204654691
decision_type=2 2 2 2 2 2 2 2 2 2 2 2 2 2 2 2 2 2 2 2 2 2 2 2 2 2 2 2 2 2 2 2 2 2 2 2 2 2 2 2 2 2 2 2 2 2 2 2 2 2 2 2 2 2 2 2 2 2 2 2 2
left_child=1 2 7 4 9 -6 37 18 12 -4 26 20 13 47 29 56 17 -5 35 31 38 27 -18 -20 53 -22 44 -15 41 -13 -30 39 -33 -26 46 -1 43 50 -12 -14 49 -28 -16 -9 52 -38 -21 57 -49 -39 51 -3 -10 -17 -52 -23 59 -2 -58 -8 -42
right_child=8 6 3 16 5 -7 15 36 10 -11 11 14 19 21 42 24 22 -19 23 34 25 55 -24 -25 33 -27 28 -29 30 -31 -32 32 -34 -35 -36 -37 45 40 -40 -41 60 -43 -44 -45 -46 -47 -48 48 -50 -51 54 -53 -54 -55 -56 -57 58 -59 -60 -61 -62
leaf_value=-0.11244953074314873 -0.13167693821499066 -0.11897281648043159 0.11611072072226308 0.12448640910800923 0.083304298269237659 -0.033717476241966582 -0.13910192093069154 -0.088498685281172773 -0.12654628769902199 0.2096609708691104 0.15952998937058427 -0.046798025675308906 -0.16939158081575784 0.093104543688423566 -0.056792559697766455 -0.10863904100511342 -0.12040364810519864 -0.063256732457729142 0.09268956292504886 -0.13749675416784132 0.12148115840557859 -0.1566764055673778 -0.010230502405532426 0.15973121543367164 0.16521388455150401 -0.0099143089805134622 -0.068493795948436284 0.16989789534443381 -0.010469164400530563 0.11817562230961798 0.21076297913406555 0.26961587951896354 -0.15622991562367672 -0.06611809528490116 0.19261605662662434 0.13530931629310269 0.23718629933650628 0.21542338581581585 0.011334226127881344 0.071813383135475695 -0.12300194260022479 0.14456021442529512 0.45288647683647287 0.052467045865769106 0.16354006575908567 -0.12313108936285987 0.053302469766070663 0.67719162588483528 -0.11626135200435768 0.07634117468314798 -0.1412387523157802 0.17142503003174836 -0.16979400481525958 -0.18760576069167323 -0.11770247119190021 -0.11223958952085483 -0.1514285284122531 -0.10933852371626362 -0.17562824742360778 -0.10853151758106541 -0.11747629998911249
leaf_weight=123.27205492556095 63.124104879796505 18.366007061675194 2650.6645206082612 510.98468656092882 62266.344279255718 1712.3068319708109 1.8621771037578563 250.48874296806753 42.312453515827656 1278.4750882349908 7133.0371240600944 131.63511436060071 29.488109484314919 1085.7686764411628 330.52762521058321 50.015452990308404 899.10246224328876 641.58814681507647 1183.8727832492441 225.3801972232759 4638.0120641700923 43.87309817969799 599.76736955717206 4296.8662415370345 4246.0193786136806 216.16758066415787 32.425395831465721 1350.1839057132602 521.0960330478847 1216.3211163617671 68.559213295578957 21.37619773298502 101.64471994154155 48.508458033204079 26.109079107642174 49.091818189248443 36.069423571228981 30.821116015315056 81.711331278085709 2087.9619302786887 4.7430883049964931 445.04445249587297 5.2307279556989661 74.909187663346529 8.5152482837438566 7.1371062751859418 14.172773398458956 3.8318024352192905 21.388352900743484 35.721514418721199 50.578199345618486 8.6782535035163146 55.040240328758955 3.6403449475765219 139.03870463185012 12.412260405719278 32.013466261327267 55.832426492124796 21.107787743210793 7.5284183230251074 27.000801494345069
leaf_count=1635 487 325 8164 1192 176041 10440 11 3564 277 2667 5876 651 141 2433 1284 1002 8656 5512 2175 1114 4992 198 4975 5501 2624 681 129 1182 1385 2417 12 15 548 150 37 73 6 10 208 4868 32 485 20 380 5 172 38 5 199 63 260 17 259 15 1143 148 150 1150 88 139 218
internal_value=0 0.0867829 0.0834681 0.0795611 0.084013 0.0801724 0.1405 0.129248 0.114443 0.14655 0.125899 0.132434 0.0811923 0.11679 0.0719698 0.154748 -0.0344587 0.0199778 0.139544 0.0437437 0.14087 0.129288 -0.0763183 0.14525 0.159188 0.11563 0.0492771 0.135669 0.0666361 0.102065 0.0152535 0.0601802 -0.0822347 0.162601 -0.0948746 -0.0418841 -0.0286521 -0.0590414 0.157852 0.0684543 0.0570907 0.130092 -0.0488523 -0.0560473 -0.125698 0.177667 -0.126208 -0.0992421 0.00429124 0.140761 -0.111724 -0.0257868 -0.150997 -0.113997 -0.123981 -0.146877 -0.154066 -0.121192 -0.161044 -0.114594 -0.118302
internal_weight=0 81306.6 76580.9 70559.2 67907.8 63978.7 4725.64 6021.71 20068.2 3929.14 14925.6 13752.6 5142.55 2636.41 1683.71 4410.7 2651.44 1152.57 5653.1 2506.13 12068.9 2492.24 1498.87 5480.74 4348.18 4854.18 1172.99 2435.95 1067.13 1347.96 589.655 2240.47 123.021 4294.53 265.662 172.364 368.604 314.948 7214.75 2117.45 98.2865 477.47 335.758 325.398 105.868 43.2065 239.553 144.177 25.2202 66.5426 216.661 27.0443 97.3527 53.6558 189.617 56.2854 62.5118 118.957 53.1213 9.3906 31.7439
internal_count=268644 237400 231153 217647 197312 186481 6247 13506 31244 10831 18681 16129 12563 5802 4372 4179 20335 6704 9384 6761 11757 3961 13631 7676 3791 5673 2552 3615 2011 3068 1397 5572 563 2774 1189 1708 4122 2068 6084 5009 323 614 1304 3944 541 178 1152 1841 204 73 1745 342 536 1017 1403 346 388 1637 238 150 250
is_linear=0
shrinkage=0.1


Tree=8
num_leaves=62
num_cat=0
split_feature=107 72 55 130 105 53 122 4 117 70 51 86 32 55 104 32 135 41 69 108 107 70 39 135 33 116 115 21 135 108 41 65 31 71 115 0 132 105 109 54 95 36 98 15 107 51 32 116 54 97 60 103 69 0 64 25 37 110 106 82 77
split_gain=1135.48 1241.1 1321.24 1118.28 1208.66 1552.54 935.124 745.326 727.339 1089.21 749.239 603.046 577.484 563.456 622.53 558.547 544.018 540.767 530.141 518.922 388.137 376.236 365.919 311.581 394.58 343.591 288.733 325.393 260.123 258.936 242.559 415.451 169.693 201.693 120.276 102.96 99.6841 98.7721 90.2533 87.1551 94.9371 68.3828 60.7976 179.625 59.4255 57.3974 55.9078 53.0791 76.2647 36.6265 33.1527 25.1445 24.337 23.8069 57.5595 18.2926 16.1755 14.606 14.4984 1.03668 0.156811
threshold=-0.97334608435630787 -0.54055741429328907 1.0404160618782046 1.0000000180025095e-35 -0.91531333327293385 1.0001079440116885 -2.0662574768066402 0.77572619915008556 -1.478094160556793 -0.2393480986356735 1.1071984767913821 -1.2402046918869016 0.92616432905197155 1.0265728235244753 -0.75248953700065602 0.96323189139366161 1.0000000180025095e-35 1.1053360700607302 -0.12724062800407407 -1.0488628745079038 -0.92245846986770619 -0.24174956977367398 1.0393869280815127 1.0000000180025095e-35 0.87897127866745006 -1.4096943140029905 -0.99378108978271473 1.1644797921180727 1.0000000180025095e-35 -1.0600916743278501 1.0844470262527468 0.4576698392629624 0.9567532241344453 -0.43680180609226221 -1.4353480935096739 0.33367082476615911 1.0000000180025095e-35 -0.82380855083465565 -1.1201854348182676 1.1200132369995119 -0.22846104204654691 0.82255163788795482 -0.50473353266715992 0.69629341363906871 -0.98482772707939137 1.1545053720474245 0.90338382124900829 -1.5074865818023679 1.0974741578102114 -0.65063464641571034 0.78355741500854503 -0.77023509144783009 0.056376477703452117 -0.040551545098423951 0.56617599725723278 1.1958700418472292 0.94742310047149669 -1.1803402900695799 -0.83518028259277333 -0.22975197434425351 -0.367310881614685
decision_type=2 2 2 2 2 2 2 2 2 2 2 2 2 2 2 2 2 2 2 2 2 2 2 2 2 2 2 2 2 2 2 2 2 2 2 2 2 2 2 2 2 2 2 2 2 2 2 2 2 2 2 2 2 2 2 2 2 2 2 2 2
left_child=8 2 3 4 7 -6 39 -2 30 10 12 15 19 14 21 -5 17 -15 -14 -10 -13 -8 26 24 29 -26 28 -28 -4 -11 31 42 50 -34 37 -18 52 -33 -16 47 58 -24 56 -44 -36 -43 49 48 -3 -25 -12 -48 55 57 -55 -32 -1 -38 -41 -49 -42
right_child=1 6 22 11 5 -7 13 -9 9 23 32 20 18 16 38 -17 35 -19 -20 -21 -22 -23 41 46 25 -27 27 -29 -30 -31 36 34 33 -35 44 -37 53 -39 -40 40 60 45 43 -45 -46 -47 51 59 -50 -51 -52 -53 -54 54 -56 -57 -58 -59 -60 -61 -62
leaf_value=-0.12414229039383073 0.12923713949662899 -0.12686886856209956 0.040289785722826342 0.089303888164499162 0.032511952352166272 0.078597313285907744 0.16152053118233342 -0.066040807934164045 -0.030786523928751974 -0.071141834477902968 -0.13723185962710222 0.0038848343224086334 -0.037427629102679209 0.13302870504387823 0.16887102379974098 -0.013696495735010828 -0.17384229037612509 0.071501825451424389 0.17531542918110432 0.083392792155318266 0.12148218730138174 0.058490453652955569 0.17408182812827447 0.14657321980852145 -0.12524119374398429 0.06339850499663012 0.15018883760264215 -0.11038905809913258 -0.16801759064977417 0.15474777846724708 -0.11970558189837124 -0.13916464077091192 -0.10258380420124746 0.013686372074732188 0.3018231293750151 0.2141894563650317 -0.10504454540610914 0.1180697369631078 -0.16508501066039549 0.21026065012042117 -0.14144754982029051 -0.036293663448306458 -0.045254154386924823 0.6893872703549131 0.13374179743274825 -0.16775139599667696 0.14714333824529049 -0.13195484261951043 0.17017960299967644 -0.062344399651669817 0.0012104274638987502 0.18175005018879603 0.27470346032361681 -0.11953743032925584 0.21272013776624932 0.14387639859231249 -0.052208125174806844 -0.14977325258371166 0.083681056561309961 -0.11520591081791176 -0.11713823526792158
leaf_weight=144.35740160942078 4997.9588114982471 18.091965155676007 2132.7034310624003 6099.4838301390409 8726.3206895636395 45039.084684738889 456.05441475659609 203.40650767832994 459.3594402577728 54.712733257561922 213.86806896701455 288.13208201527596 1032.9447667002678 10625.066052669659 8.6636444330215436 576.21721073612571 72.281880602240562 1650.3892917800695 132.11476392671466 2981.8628861941397 10831.831768427044 1590.5864040032029 7.4176883697509757 15.420779287815092 110.07572379335761 786.09852063283324 57.956414841115475 276.77911326289177 61.680958822369576 699.90577067807317 4.457961745560171 28.520892281085253 228.54894027486444 429.69862923771143 25.861133988946676 7.5525498390197745 238.07632877677679 31.318421529605985 122.76282614842057 15.345682926476 3.0451722592115429 43.910460010170937 28.786322213709354 3.7633688934147349 112.70483634620905 136.34672202914953 431.02229234203696 50.931820329278708 16.549112726002932 18.409723658114672 18.819507513195276 409.34833976626396 7.0248494148254386 16.807989295572046 7.5587167739868155 6.4315495491027832 39.90017694234848 105.29442468285561 22.052242517471313 134.6636038646102 20.6348024494946
leaf_count=1960 10332 173 5332 12888 42647 115966 587 1753 3202 442 1575 927 6682 11059 11 2025 298 3123 316 10740 11968 3573 1 7 1056 2564 89 1102 257 1284 57 305 1420 1756 53 1 5540 103 567 6 15 128 329 10 118 619 276 302 15 53 70 99 1 244 1 1 487 584 37 1326 182
internal_value=0 0.0847287 0.0797755 0.0822011 0.0755705 0.0711175 0.111302 0.121601 0.0472139 0.0562857 0.0313129 0.104172 0.0475492 0.114797 0.067901 0.0804133 0.123064 0.124757 -0.0133031 0.0681513 0.118435 0.0814487 0.0112408 0.110654 0.0850912 0.0402282 0.0212381 -0.0652724 0.0344346 0.13837 -0.0436572 0.00938132 -0.0526314 -0.0266836 0.113946 -0.137133 -0.100761 -0.00453451 -0.143071 -0.0692806 0.036414 -0.123483 -0.0863082 0.0396845 0.165112 -0.135728 0.158926 -0.0985928 0.0150404 0.0328854 -0.126035 0.164 0.129586 -0.111983 -0.0164689 0.0359709 -0.108565 -0.118761 0.135621 -0.119802 -0.120264
internal_weight=0 94293.9 79479.2 76762.4 58966.8 53765.4 14814.7 5201.37 8823.08 8022.21 5497.22 17795.7 4606.28 14533.4 2178.07 6675.7 12355.3 12275.5 1165.06 3441.22 11120 2046.64 2716.79 2524.99 1650.79 896.174 2529.12 334.736 2194.38 754.619 800.864 415.213 890.935 658.248 198.405 79.8344 385.652 59.8393 131.426 281.314 61.0779 187.675 216.807 32.5497 138.566 180.257 874.201 220.237 34.6411 33.8305 232.688 840.371 17.9144 367.737 24.3667 10.8895 184.258 343.371 37.3979 185.595 23.68
internal_count=268644 227309 206034 198506 170698 158613 21275 12085 41335 31542 25761 27808 20940 19219 4738 14913 14481 14182 6998 13942 12895 4160 7528 5781 5346 3620 6780 1191 5589 1726 9793 3365 4821 3176 579 299 6428 408 578 2056 240 748 2786 339 171 747 435 1816 188 60 1645 375 59 6369 245 58 2447 6124 43 1628 197
is_linear=0
shrinkage=0.1


Tree=9
num_leaves=54
num_cat=0
split_feature=68 115 130 101 53 103 103 82 4 107 86 135 32 41 100 58 35 73 70 33 127 32 38 56 46 69 115 109 28 52 69 110 43 121 122 40 109 108 123 105 99 112 59 77 53 111 53 39 107 110 62 69 111
split_gain=1078.59 1315.7 1025.99 1052.87 2836.07 1212.95 1046.68 874.309 704.053 632.339 657.029 503.511 500.158 441.586 246.505 193.947 163.951 174.395 156.322 143.099 130.627 232.435 104.458 135.636 76.0082 191.032 68.247 62.9129 34.8039 49.1831 30.358 26.3519 14.4715 3.27183 3.11675 2.9237 2.52083 2.21144 2.12111 1.31978 0.889833 0.817554 0.809104 0.441419 0.19437 0.164365 0.121664 0.121441 0.0969118 0.0820458 0.0210787 0.0110491 0.00627511
threshold=0.20519365370273593 -1.4483517408370969 1.0000000180025095e-35 -0.94416823983192433 0.95044323801994335 -0.88681912422180165 -0.91287377476692189 -0.22975197434425351 0.75510370731353771 -0.92529413104057301 -1.2402046918869016 1.0000000180025095e-35 0.96360385417938244 1.0897125005722048 -0.96581885218620289 0.93865591287612926 0.89122119545936596 -0.79974046349525441 -0.069609966129064546 0.93763723969459545 -3.4190056324005123 0.81027081608772289 0.97144407033920299 0.99581837654113781 1.2432550191879275 0.072371881455183043 -1.4587753415107725 -1.1180596351623533 0.87639147043228161 1.1786761283874514 0.086379781365394606 -1.1803402900695799 1.148910701274872 -1.8510658144950864 -2.0662574768066402 1.0497249364852907 -1.1223930716514585 -1.0488628745079038 -2.2682688236236568 -0.82322233915328968 -0.50313329696655262 -1.3067036271095274 0.88658612966537487 -0.367310881614685 1.1182603836059573 -1.2262539863586424 1.0599698424339297 0.98356738686561596 -0.97334608435630787 -1.1803402900695799 0.75768873095512401 0.086379781365394606 -1.2396871447563169
decision_type=2 2 2 2 2 2 2 2 2 2 2 2 2 2 2 2 2 2 2 2 2 2 2 2 2 2 2 2 2 2 2 2 2 2 2 2 2 2 2 2 2 2 2 2 2 2 2 2 2 2 2 2 2
left_child=1 22 3 8 6 -6 -5 15 11 16 12 -3 -11 -12 -10 18 17 -4 -2 -18 21 30 23 37 27 -26 41 -22 43 50 -17 35 -28 44 51 36 -24 46 -23 -35 -39 -25 -36 45 -33 -9 -1 -45 -37 -49 52 -20 -30
right_child=7 2 9 4 5 -7 -8 28 14 10 13 -13 -14 -15 -16 20 19 -19 34 -21 24 38 31 26 25 -27 32 -29 29 -31 -32 33 -34 39 42 48 -38 40 -40 -41 -42 -43 -44 47 -46 -47 -48 49 -50 -51 -52 -53 -54
leaf_value=-0.12540948017270581 0.22721446716905441 0.08322872333906553 -0.13606009872031058 0.027479954883164376 0.10915096439515565 0.063199738180521964 -0.084303524317220865 -0.11798863784166479 0.03434492986898309 0.076693496179823101 0.1104407526714079 0.14317660481426284 -0.025017362932401241 0.0025963110425631232 -0.12646313125745876 0.064764121240844949 -0.1518004871898524 0.091336474131643502 -0.12483594661781179 0.057709133167062644 0.077114830576818949 -0.15001404962009784 -0.10678463109478853 -0.11113201390831334 -0.20536454788371905 0.12610087447685617 0.1821841075721595 0.15685506040152822 -0.10731370087956836 0.22718275160996748 0.16607970561577237 -0.14235482268101543 0.054525451332484633 -0.15933447432927583 -0.17501402621470616 -0.10428611122375242 -0.1581429068186605 -0.17382660375988096 -0.20633607025022518 -0.19555807684310644 -0.13767453686859563 -0.1716335677715658 -0.22333362474828508 -0.14620251590373579 -0.15989384735854303 -0.14372952446095827 -0.10729922421221023 -0.10375956246541365 -0.10887615664937629 -0.11485839725556567 -0.12299400383044679 -0.12995800489613701 -0.11486003373703735
leaf_weight=5.0187812447547939 14.583900202065704 2570.0905359834433 46.049919456243515 1723.9006498903036 6303.4963911045343 64773.138857007027 1629.3218481205404 3.7041958048939705 326.70703646726906 6393.8059357646853 12553.702937547117 3080.2766243703663 523.02247951552272 391.52334545552731 134.59849757142365 56.252092242240906 145.15208189375699 126.02435378544033 8.4630821719765628 42.043769285082817 102.90510598570108 9.7112591862678546 17.115582216531038 8.1642118971794826 20.293830562382936 121.3977651130408 32.920589935034513 2569.6785655394197 1.4446243327111012 7.4772391319274893 62.361574590206146 22.580863848328594 12.160099947825072 12.981512919068335 15.841736428439622 153.2092500757426 21.640819936990738 14.047433577477934 21.468901462852955 44.664434716105461 13.211615752428768 3.0746091008186331 4.4357741102576247 1.2004697956144799 8.7736022323369962 7.5097692012786847 14.218909448012708 7.0479764696210614 65.733787437900901 121.12384429574013 3.3000062890350819 8.3832724913954735 4.6449637785553941
leaf_count=51 16 5540 271 8890 18687 171219 15358 38 3287 13458 13584 3254 1943 909 1355 90 628 265 59 115 251 48 400 153 99 96 28 736 49 1 19 111 53 61 76 4032 98 64 90 181 84 15 23 14 38 38 331 226 993 1102 27 48 42
internal_value=0 0.070606 0.0713675 0.0663114 0.0630351 0.067275 -0.0268353 0.129814 0.106211 0.091506 0.0938843 0.115909 0.0690025 0.107179 -0.0125752 0.141808 -0.0399777 0.0304814 -0.0501952 -0.104745 0.145157 0.0541643 -0.100096 -0.0115757 0.150001 0.0786266 0.0927855 0.153785 -0.0999095 0.0358259 0.118031 -0.126348 0.147749 -0.17326 -0.159174 -0.110146 -0.135462 -0.137984 -0.188794 -0.187401 -0.156305 -0.127683 -0.185584 -0.116194 -0.147263 -0.135227 -0.112024 -0.114545 -0.105664 -0.114248 -0.116558 -0.127385 -0.11307
internal_weight=0 101212 100763 80541.5 74429.9 71076.6 3353.22 3173.23 6111.67 20221.3 19862.1 5650.37 6916.83 12945.2 461.306 3015.78 359.27 172.074 51.7078 187.196 2964.07 149.794 449.516 102.816 2814.28 141.692 56.3195 2672.58 157.453 16.8668 118.614 346.7 45.0807 89.0004 37.1239 257.699 38.7564 46.4967 31.1802 57.6459 27.259 11.2388 20.2775 140.586 31.3545 11.214 19.2377 129.372 218.943 128.172 9.38959 16.8464 6.08959
internal_count=268644 265456 258763 227590 214154 189906 24248 3188 13436 31173 29894 8794 15401 14493 4642 1651 1279 536 222 743 1429 247 6693 779 1182 195 249 987 1537 119 109 5914 81 391 206 5523 498 530 138 242 148 168 99 1418 149 76 382 1342 5025 1328 118 107 91
is_linear=0
shrinkage=0.1


Tree=10
num_leaves=59
num_cat=0
split_feature=67 108 76 131 106 117 131 76 116 124 32 108 75 53 71 55 9 32 74 53 75 91 58 75 112 106 50 72 54 37 90 74 77 106 35 32 38 39 39 86 110 114 121 122 70 110 121 90 110 122 82 68 110 40 108 121 120 93
split_gain=1036.83 1197.53 1655.65 2154.02 2374.34 1523.57 1312.28 1221.52 856.127 810.758 809.779 821.743 742.727 702.44 692.541 676.013 608.761 545.07 479.754 471.04 374.952 348.957 516.447 405.437 276.21 263.262 252.604 232.672 164.384 162.741 159.98 127.847 102.726 89.3266 60.2714 55.7688 52.854 51.5683 41.7197 62.9819 38.079 24.697 31.3965 3.33382 2.12685 1.89077 1.28212 1.09696 0.643131 0.52979 0.514011 0.131065 0.0879008 0.0785899 0.0657363 0.0511142 0.0329328 0.00160015
threshold=0.31119471788406378 -0.90786457061767567 -1.154959440231323 1.0000000180025095e-35 -0.83370485901832569 -1.0180683732032774 1.0000000180025095e-35 -1.1973907351493833 -1.4773703813552854 -2.5054440498352046 0.94659319519996654 -0.91645130515098561 -1.1432533860206602 0.97634416818618786 -0.48598925769329065 1.0163120627403261 0.48130331933498388 0.9703541398048402 -0.88372236490249623 1.1167306900024416 -1.0145323276519773 -1.0547403097152708 0.91043516993522655 -1.0690069198608396 -1.3067036271095274 -0.9246767759323119 1.1882613301277163 -0.41394034028053278 1.1155093908309939 0.93656474351882946 -0.22174439579248426 -0.45150648057460779 -0.367310881614685 -0.8941417634487151 0.82423806190490734 0.96249598264694225 0.97387218475341808 1.0179901123046877 0.99435344338417064 -1.0561831593513487 -1.1778479814529417 -1.4082108736038206 -1.891716420650482 -2.0662574768066402 -0.25152522325515742 -1.1803402900695799 -1.8510658144950864 -0.18790259957313535 -1.1803402900695799 -2.0662574768066402 -0.22975197434425351 0.20519365370273593 -1.1803402900695799 1.0497249364852907 -1.0401654839515684 -1.8763518929481504 -1.7263646125793455 -0.17966860532760617
decision_type=2 2 2 2 2 2 2 2 2 2 2 2 2 2 2 2 2 2 2 2 2 2 2 2 2 2 2 2 2 2 2 2 2 2 2 2 2 2 2 2 2 2 2 2 2 2 2 2 2 2 2 2 2 2 2 2 2 2
left_child=1 6 3 5 12 15 8 -7 29 28 13 -12 -5 -10 -6 -3 38 18 -18 46 -19 23 34 33 45 -25 -24 35 41 31 -29 -1 36 -8 -23 -26 -30 -38 39 -4 -31 42 52 50 -40 51 48 -45 53 -50 -43 -21 -2 -11 -48 57 -57 -34
right_child=9 2 16 4 14 7 21 -9 10 19 11 -13 -14 -15 -16 -17 17 20 -20 24 -22 22 26 25 27 -27 -28 30 32 40 -32 -33 55 -35 -36 -37 37 -39 44 -41 -42 43 -44 47 -46 -47 54 -49 49 -51 -52 -53 -54 -55 -56 56 -58 -59
leaf_value=0.052865460763711306 -0.10336579922955863 -0.12265815935661713 0.19755239160828963 -0.090909605368886814 -0.0173545589862046 0.014897858223683093 -0.049558470046879105 0.062731553555558414 0.029083651364736784 -0.12932395940805855 -0.00037002705390233332 0.066134909681136708 0.060313952614127642 0.070414822775949903 0.17553666521514544 0.019755132229618059 0.083466920581480766 -0.074868358518914838 0.11663723578830587 -0.10543905408229289 0.064898256593276374 0.033505369385100868 0.17751595188566491 0.28211973358336412 -0.18760939208894112 0.034879270416538814 -0.17499587993356439 0.13697371669205788 0.14172075767547856 -0.098285662143201183 0.06480745255903389 -0.14082054367012575 -0.11528320613117199 -0.16492851133579647 -0.14910151249992673 0.078882328307386007 0.15853088962667541 -0.17396768641369018 -0.13351707198338741 -0.1121760404671973 -0.17991963657809809 -0.12776473710692771 0.14973428640189335 -0.17625441752340137 -0.19243335121696248 -0.1845786694324186 -0.16243784223314289 -0.13598881412062963 -0.1246682635421551 -0.14975403749340496 -0.11253883159748293 -0.11747939500418783 -0.12539534942312563 -0.10706852695659851 -0.17832318215253651 -0.11754324074625036 -0.13184648177287114 -0.11230410967243054
leaf_weight=131.13716049492359 2.4372093947604307 779.6296718493104 7.5846772193908683 370.53084540367126 197.82248017564416 7969.6738125700504 197.8711637146771 16171.484465306625 5152.4120286926627 2.1417953819036466 4809.989633847028 3027.2368140369654 2630.4138602633029 20363.943525502458 3149.576591162011 582.23726737871766 27528.687528910115 339.27828431129456 5180.9470336213708 30.667066091671586 441.9906732365489 18.729324638843536 85.235605582594872 48.944444544613361 28.311174385249615 358.66696495562792 26.694280993193388 3809.691655151546 66.125497862696648 274.32728857733309 334.12438017316163 46.045995621010661 1.971729658544066 101.55518338829279 517.32246214523911 10.867018416523932 7.6174904108047512 12.032312780618666 6.8007180467247954 48.848106510937214 72.173615895211697 28.107244549319148 7.9424378592520943 12.292414635419846 61.873263984918594 3.5816423892974845 3.646632330492138 15.04897366091609 11.365797445178023 32.468791052699096 105.00032419711351 12.820435039699076 7.05241733044386 6.1221592836081982 9.1201508156955224 5.0440128743648529 2.3643018156290045 21.066870074719194
leaf_count=819 93 3819 1 4350 1949 32897 977 40251 21828 16 17795 6745 8059 53834 2168 1354 44948 1425 5920 812 1036 98 59 43 118 1012 114 2081 38 5449 533 438 18 485 2630 15 2 55 62 1214 307 178 27 58 255 16 25 96 72 152 1190 195 48 141 39 46 19 220
internal_value=0 0.0624471 0.070447 0.0541097 0.106232 0.041135 0.0475818 0.0469403 0.0514416 0.111051 0.0534336 0.0253184 0.0416422 0.062069 0.164137 -0.0617724 0.0859267 0.0867492 0.0887208 0.12205 0.00420241 -0.0489174 -0.101927 -0.000335628 0.126151 0.064567 0.093445 0.128862 -0.0495741 -0.0754262 0.131155 0.00253074 0.042917 -0.088688 -0.142721 -0.113691 0.0989298 -0.0450705 -0.134251 -0.0705479 -0.115289 -0.110005 0.00303985 -0.122287 -0.186599 -0.114741 -0.145385 -0.154092 -0.138425 -0.14325 -0.115754 -0.108989 -0.119738 -0.112837 -0.173786 -0.114883 -0.122108 -0.112559
internal_weight=0 100700 65467.4 31851.4 6348.34 25503 35232.3 24141.2 33877.3 4589.03 33353.6 7837.23 3000.94 25516.4 3347.4 1361.87 33616 33490.9 32709.6 4294.93 781.269 1355.02 647.982 707.038 4230.06 407.611 111.93 4182.99 294.103 523.684 4143.82 177.183 116.222 299.426 536.052 39.1782 85.7753 19.6498 125.107 56.4328 346.501 177.881 17.4321 160.449 68.674 47.0691 64.8653 27.3414 52.0985 43.8346 133.108 43.4875 9.48963 8.26395 12.7668 30.4469 7.40831 23.0386
internal_count=268644 262341 149708 94847 16526 78321 112633 73148 107215 6303 100202 24540 12409 75662 4117 5173 54861 53329 50868 4215 2461 5418 2901 2517 3770 1055 173 2747 2088 7013 2614 1257 398 1462 2728 133 95 57 1532 1215 5756 1690 168 1522 317 1023 445 154 381 224 1368 1007 141 157 64 303 65 238
is_linear=0
shrinkage=0.1


Tree=11
num_leaves=58
num_cat=0
split_feature=69 130 109 79 76 131 76 73 42 70 63 82 112 31 104 107 53 32 56 111 85 98 42 94 52 70 88 109 79 73 119 127 32 121 92 97 109 104 39 120 28 124 108 122 110 68 110 39 77 122 28 110 42 116 61 107 111
split_gain=970.479 1065.78 1052.4 2164.58 1805.64 2516.17 2258.08 1725.93 924.005 2623.35 2053.65 650.929 618.784 520.115 623.226 610.004 419.095 414.42 395.923 362.12 353.192 530.689 424.891 310.424 299.146 229.885 227.943 224.164 276.09 208.371 130.488 118.538 197.022 109.161 81.1709 98.1214 59.8391 28.6502 27.3923 26.7892 35.2029 2.2949 2.03582 0.736246 0.371319 0.254404 0.0857517 0.0906919 0.0361307 0.0359621 0.0274054 0.0109465 0.0109018 0.00390835 0.00067942 0.000164783 0.000163951
threshold=0.056376477703452117 1.0000000180025095e-35 -0.91289827227592457 -1.2572486996650694 -1.1600450873374937 1.0000000180025095e-35 -1.2104123234748838 -0.86556169390678395 1.0325009226799013 -0.27954316139221186 0.47181925177574163 -0.22975197434425351 -0.92311784625053395 1.0029536485671999 -0.7940458059310912 -0.92529413104057301 1.1167306900024416 0.96674051880836498 1.0117112994194033 -0.8398175537586211 -1.2283893823623655 -0.91358226537704457 1.0337875485420229 -1.0613214969635008 1.1091456413269045 -0.39228796958923334 -1.1936259865760801 -0.91487622261047352 -1.2635270953178404 -0.70461219549179066 -1.1687612533569334 -3.4190056324005123 0.81027081608772289 -1.3515143394470213 -0.73500514030456532 -0.67378947138786305 -1.1161085367202757 -0.79218658804893483 1.0173560976982119 -1.7263646125793455 0.87639147043228161 -2.5054440498352046 -0.91790923476219166 -2.0662574768066402 -1.1803402900695799 0.20519365370273593 -1.1803402900695799 1.024392902851105 -0.367310881614685 -2.0662574768066402 0.84398469328880321 -1.1803402900695799 1.1216511130332949 -1.5074865818023679 0.81767481565475475 -0.96964120864868153 -1.2555020451545713
decision_type=2 2 2 2 2 2 2 2 2 2 2 2 2 2 2 2 2 2 2 2 2 2 2 2 2 2 2 2 2 2 2 2 2 2 2 2 2 2 2 2 2 2 2 2 2 2 2 2 2 2 2 2 2 2 2 2 2
left_child=1 2 3 27 5 6 -4 -7 10 -10 -5 16 18 14 15 33 43 24 -6 -17 21 22 -15 -14 -16 42 -23 29 -29 -1 -27 32 38 -3 35 -33 -36 -19 -18 46 50 -34 -22 51 52 -46 54 49 -49 -48 -41 -2 -45 -53 55 -13 -56
right_child=11 13 4 8 12 7 -8 -9 9 -11 -12 39 23 20 17 19 31 37 -20 -21 25 26 -24 -25 -26 30 -28 28 -30 -31 -32 34 41 -35 36 -37 -38 -39 -40 40 -42 -43 -44 44 45 -47 47 48 -50 -51 -52 53 -54 -55 56 -57 -58
leaf_value=-0.15075894637595488 -0.11528530199168995 -0.012204317585971958 -0.06609881501000614 0.044357019776380409 0.089960669055135709 -0.017935780277534407 0.038122222049331141 0.12269353169659557 -0.044977751172571329 0.045948860027712479 0.13059738943458735 -0.10153329737447608 0.074781911189409314 0.028325324753231351 -0.0046262664821710535 0.098381590407193478 0.12766015953105372 -0.031279374673029631 -0.0095432638220138439 -0.13044103302495946 -0.12083486279849587 -0.09182041894849724 0.15090993558172963 -0.095090776528885632 0.070582588819669431 -0.052071300788474745 0.0030187082703151398 -0.13416951130287591 0.030256800332995867 0.19736746107269665 0.094645759332115359 -0.18361904470111928 -0.14613464470782231 -0.14987414113837025 0.062350068390263504 0.16570673610601372 0.13385588516807448 -0.15368618327976452 0.011585712001643095 -0.1242098060201407 0.17422165391656497 -0.19762219956955038 -0.16367134987397955 -0.12109176652610132 -0.14078127599274268 -0.15772206426801971 -0.11172170982702592 -0.13141167566085085 -0.11715110683126072 -0.12031590589519231 -0.13709525898138414 -0.12416937450552581 -0.10985113145168407 -0.12104816271755875 -0.10336763752698019 -0.10266357654368979 -0.10507681135207847
leaf_weight=605.74252471700311 2.7374213486909893 197.69831649214029 2457.4875947032124 16350.93376018852 18150.875174030662 1059.072850140743 13493.356631986797 4959.5263199806213 3921.1126882918179 16631.482901654206 3322.2874591201544 1.6968929236754773 174.08688521198928 1000.9634397365153 717.59690867736936 12841.160817444324 88.673582091927528 23.284818418323994 408.8885644748807 69.534418251365423 22.145004842430353 384.30906633660197 394.06892627850175 281.55879713967443 2010.8602491393685 63.233060829341412 744.13056680560112 189.87203322723508 220.95677012205124 17.695703014731407 1466.3378472626209 18.032700888812542 18.027378715574741 81.273445352911949 122.01704092137516 14.511670053005217 2864.189320448786 106.93674124032259 26.378930479288101 2.603132311254738 7.9073169976472855 16.654361136257648 22.233526363968849 1.3636244740337127 23.700211690738797 14.161283295601605 107.43891339749098 3.2964623272418976 3.8535471260547629 5.1000708788633338 4.5107016041874886 5.9550135433673903 2.3493095338344574 12.294896662235256 0.9596267864108089 5.3772196350619179 1.3518480900675056
leaf_count=2878 39 544 16572 53737 26724 8629 40446 7048 17640 48822 3795 116 622 2878 2618 14150 57 74 890 781 170 1712 381 4175 2735 286 1727 881 497 37 2121 80 97 427 431 3 1123 494 55 30 4 70 104 14 122 63 1167 20 35 37 26 38 36 86 34 234 32
internal_value=0 0.0560805 0.0510311 0.039757 0.0623809 0.0428534 0.0220653 0.0979475 0.0434297 0.0286015 0.0589207 0.11058 0.084942 0.0766948 0.0848137 0.093988 0.119854 0.0424843 0.0877685 0.0971492 0.0448954 0.0217084 0.062953 -0.0301881 0.0508023 0.0820707 -0.0292803 -0.103086 -0.0457358 -0.140878 0.0885804 0.124915 0.0380675 -0.052312 0.129222 -0.0278532 0.130934 -0.131799 0.101047 -0.0973742 0.0290188 -0.170859 -0.142296 -0.13645 -0.144158 -0.147118 -0.112083 -0.112805 -0.123726 -0.112111 -0.13238 -0.121182 -0.113979 -0.122067 -0.102879 -0.102392 -0.104367
internal_weight=0 102391 82244.9 41260.1 40984.9 21969.4 15950.8 6018.6 40225.8 20552.6 19673.2 3375.14 19015.4 20145.8 16048.3 13189.7 3231.05 2858.68 18559.8 12910.7 4097.42 2523.47 1395.03 455.646 2728.46 1573.95 1128.44 1034.27 410.829 623.438 1529.57 3168.48 149.734 278.972 3018.75 32.5444 2986.21 130.222 115.053 144.096 15.0212 34.6817 44.3785 62.5618 41.5744 37.8615 129.075 119.689 7.15001 112.539 7.11383 20.9873 3.71293 18.2499 9.38559 7.07411 2.31147
internal_count=268644 264595 233393 128287 105106 72695 57018 15677 123994 66462 57532 4049 32411 31202 21823 15902 2314 5921 27614 14931 9379 6698 3259 4797 5353 2681 3439 4293 1378 2915 2407 1916 279 971 1637 83 1554 568 112 1735 60 167 274 398 235 185 1675 1259 55 1204 56 163 50 124 416 350 66
is_linear=0
shrinkage=0.1


Tree=12
num_leaves=61
num_cat=0
split_feature=67 130 109 79 78 111 131 131 40 55 100 82 30 31 103 118 104 107 32 53 85 72 25 73 31 92 71 59 113 40 125 32 112 52 55 46 77 69 123 31 121 110 82 110 110 121 82 93 124 77 110 122 68 111 77 72 110 68 55 115
split_gain=903.79 950.895 962.907 1968.15 1459.4 2705.86 2177.11 884.113 799.082 608.428 2176.87 597.36 457.52 559.427 419.596 396.559 388.603 391.564 363.512 353.109 351.143 348.917 335.067 334.431 295.078 272.969 207.072 198.056 195.195 180.664 205.781 170.172 126.968 108.232 278.926 106.405 70.24 55.5433 43.9736 42.1582 5.04629 4.57815 3.11104 1.9859 1.88344 0.820265 0.74675 0.715101 0.563801 0.346874 0.341496 0.223319 0.30012 0.169006 0.0747991 0.061642 0.0575829 0.0255754 0.00567035 0.00185491
threshold=0.31119471788406378 1.0000000180025095e-35 -0.91642665863037098 -1.2509987354278562 -1.2455624938011167 -0.94170424342155445 1.0000000180025095e-35 1.0000000180025095e-35 0.98870372772216808 0.85950160026550304 -0.9495030641555785 -0.2629225999116897 1.0205048322677615 1.0025133490562441 -0.80976265668869007 -0.89605244994163502 -0.7940458059310912 -0.92245846986770619 0.96674051880836498 1.1167306900024416 -1.3606939911842344 -0.79821714758872975 1.2162798643112185 -0.73398548364639271 0.98622107505798351 -1.048345625400543 -0.27250009775161738 0.90469461679458629 -1.3629435300827024 1.0619729757308962 -2.8295236825942989 0.93202272057533275 -0.9577554166316985 1.0542265772819521 0.96022656559944164 1.2432550191879275 -1.1838241815567014 0.072371881455183043 -1.5337613821029661 0.9567532241344453 -1.8666433095932005 -1.1803402900695799 -0.22975197434425351 -1.1803402900695799 -1.1803402900695799 -1.8510658144950864 -0.22975197434425351 -0.82607200741767872 -2.5054440498352046 -0.367310881614685 -1.1803402900695799 -2.0662574768066402 0.20519365370273593 -1.0391318798065183 -0.367310881614685 -0.30683819949626917 -1.1803402900695799 0.19747435301542285 1.057117283344269 -1.4483517408370969
decision_type=2 2 2 2 2 2 2 2 2 2 2 2 2 2 2 2 2 2 2 2 2 2 2 2 2 2 2 2 2 2 2 2 2 2 2 2 2 2 2 2 2 2 2 2 2 2 2 2 2 2 2 2 2 2 2 2 2 2 2 2
left_child=1 2 3 33 5 15 -7 8 -5 10 -6 19 22 16 20 -4 17 -14 -18 45 -15 -11 24 -16 39 -9 53 40 41 30 49 32 -24 34 -1 -30 -35 -32 -26 -3 46 -28 43 -31 58 51 50 -33 -46 -29 -13 59 -53 -21 -44 -47 -48 -55 -42 -2
right_child=11 12 4 7 9 6 -8 25 -10 21 -12 27 13 14 23 -17 18 -19 -20 26 -22 -23 31 -25 38 -27 28 29 35 42 37 47 -34 36 -36 -37 -38 -39 -40 -41 44 -43 54 -45 48 55 56 -49 -50 -51 -52 52 -54 57 -56 -57 -58 -59 -60 -61
leaf_value=-0.11893196496644223 -0.11811084013983149 -0.10394408096791802 -0.13948518482057123 0.054499735001837891 0.087250662985955435 0.032489867236508915 0.097616917334642422 0.018260637032187992 0.024299699049916666 -0.010929582751480376 -0.097734124137712888 -0.10732220926692085 -0.032452497582243438 -0.1296870251726106 -0.074665394682559019 0.078410916845227316 0.055050596422395383 0.092407839871528605 -0.12368000632167511 -0.15805599847017049 0.058568659350294164 0.095516356877419828 0.072164140738397678 0.12265378764444722 0.15931677874441244 -0.069828951930519731 -0.10878861428858647 -0.13956201037806004 0.12010750504975305 -0.11548968305588235 0.0077267606558415903 -0.21436648111174847 -0.059226419195405569 -0.15795890097328097 0.091867698682582585 0.038017711915149049 -0.051912149638009858 0.13959120901243879 -0.0048719223624759779 -0.19329982188166736 -0.11511665143525647 -0.20203824674778748 -0.1242008648303816 -0.18083069253906681 -0.14980644534334997 -0.16579471462869036 -0.10222767744791963 -0.18248144762212054 -0.18440346170085797 -0.11086547405460466 -0.13512873725846228 -0.12725047846407411 -0.14726146424896888 -0.17921439891037275 -0.11136004090968102 -0.15147313880278565 -0.11121584480717744 -0.17159159659787293 -0.10725920352743479 -0.12073225041606304
leaf_weight=282.08288738131523 9.3153776135295612 103.66201618127525 906.48273399472237 18662.548666637391 2810.5027128905058 21408.152929941192 6751.6293562036008 554.27917504496872 16514.44472550042 316.93614153936505 822.27284739445895 5.4801868963986662 256.5916562192142 101.74498370662332 464.98094437643886 92.000505156815052 2392.0437051132321 11868.999201290309 119.47828584909439 8.1717921309173125 3783.1727354973555 10847.285457817838 494.78482815995812 105.35735904425383 39.286883562803268 962.84221159853041 26.55843179486692 4.6189570575952521 3624.9533467851579 5.7276985291391638 40.886273941025138 14.610385328531267 86.388331763446331 447.98740238696337 80.734685324132442 165.0912546440959 72.576919078826904 146.03569046594203 27.893221609294415 107.61348827928305 1.1953648822382117 6.5667696297168723 7.7772881779819754 24.753663569688797 6.338869214057925 6.5015550851821899 8.2990570859983546 13.563936017453669 18.333905175328255 47.836261071264744 22.757721982896328 21.253963308408856 11.577260613441466 8.9291393458843249 10.886138935573397 5.58875306509435 50.501392230391502 8.6800970882177335 3.9643380623310804 3.8005991876125327
leaf_count=1216 77 1065 3993 54378 5856 62821 15759 1714 55686 847 7210 133 850 579 1612 125 4097 12974 543 38 7661 14863 629 131 13 4018 606 26 2126 71 132 59 414 2310 125 310 232 90 56 449 17 28 68 107 31 33 450 56 76 576 136 171 56 37 171 31 571 36 72 27
internal_value=0 0.050092 0.0453008 0.0335473 0.0553489 0.0423686 0.0481048 0.0370982 0.0403218 0.0809275 0.0453797 0.0968342 0.0696431 0.0729062 0.0418797 -0.119408 0.0823501 0.0897656 0.046548 0.108823 0.0536383 0.0924945 -0.000531028 -0.038215 -0.0914097 -0.0376455 0.112515 -0.0187086 0.114419 0.0257771 0.0616316 0.0409981 0.0526336 -0.113952 -0.0720245 0.116532 -0.143174 0.110748 0.0911455 -0.149458 -0.128531 -0.127275 -0.148865 -0.168553 -0.164025 -0.135999 -0.116366 -0.199016 -0.175515 -0.113392 -0.129732 -0.1299 -0.134307 -0.169941 -0.116711 -0.159175 -0.109947 -0.175457 -0.10908 -0.11887
internal_weight=0 101513 81532.8 37577.5 43955.3 29158.3 28159.8 36694.1 35177 14797 3632.78 4312.38 19980.2 19092.4 4455.26 998.483 14637.1 12125.6 2511.52 3906.99 3884.92 11164.2 887.803 570.338 278.456 1517.12 3848.95 405.393 3823.17 288.522 239.377 609.347 581.173 883.382 362.818 3790.04 520.564 186.922 67.1801 211.276 116.871 33.1252 49.1448 30.4814 29.8325 58.0375 87.0384 28.1743 24.6728 52.4552 28.2379 45.9472 32.8312 25.781 18.6634 12.0903 58.8004 17.6092 5.1597 13.116
internal_count=268644 262341 231153 119679 111474 82698 78580 115796 110064 28776 13066 6303 31188 28447 9983 4118 18464 13824 4640 3576 8240 15710 2741 1743 1583 5732 3181 2727 3070 1241 824 1158 1043 3883 1341 2436 2542 222 69 1514 1486 634 417 178 196 395 1290 115 107 602 269 331 227 111 239 64 1021 73 89 104
is_linear=0
shrinkage=0.1


Tree=13
num_leaves=60
num_cat=0
split_feature=69 55 101 5 71 41 130 53 32 73 136 8 32 73 110 42 30 50 71 131 42 6 41 53 104 126 50 94 30 32 62 71 30 29 94 68 43 71 41 71 31 100 30 129 31 27 61 66 42 95 72 110 37 132 127 43 107 84 53
split_gain=913.374 1164.93 1014.69 1616.39 1609.8 1513.4 2002.24 1256.76 1921.89 937.536 886.207 1004.24 887.629 889.632 762.398 755.706 740.104 675.145 833.827 934.228 876.416 598.723 558.238 501.009 436.007 394.383 819.621 493.342 475.469 369.805 395.536 367.602 326.376 265.726 246.917 233.436 229.766 225.528 212.182 209.924 189.207 207.85 192.208 184.218 175.679 139.16 145.085 138.75 431.26 124.632 111.1 90.65 86.494 84.4974 69.5663 54.1722 7.21128 1.49716 0.416959
threshold=-0.036680670455098145 1.0206332802772524 -0.82556211948394764 0.59572541713714611 -0.46787679195404047 0.98764541745185863 1.0000000180025095e-35 1.0001079440116885 0.91155007481575023 -0.88504433631896962 1.0000000180025095e-35 0.58129096031188976 0.95692071318626415 -0.78688785433769215 -1.175667345523834 1.0383498072624209 1.0542080998420718 1.1556423902511599 -0.42324313521385187 1.0000000180025095e-35 1.0485841035842898 0.65140852332115184 1.0918553471565249 1.0408776402473452 -0.78933480381965626 -1.8744713664054868 1.1622414588928225 -0.91752037405967701 1.0234614014625552 0.95813849568367015 0.59967300295829784 -0.33318245410919184 1.0523560643196108 1.0757813453674319 -0.97758370637893666 0.22952663153409961 1.1454005837440493 -0.39688007533550257 1.0725977420806887 -0.36360602080821985 0.98866328597068798 -0.83587452769279469 1.0436792969703677 1.0000000180025095e-35 1.0052514076232912 1.1349785327911379 0.71808338165283214 0.4042078703641892 1.1108226776123049 -0.99708634614944447 -0.40288378298282618 -0.89754223823547352 0.92691022157669078 1.0000000180025095e-35 -2.9686965942382808 1.1620662212371828 -0.98482772707939137 -1.4027440547943113 1.0670489072799685
decision_type=2 2 2 2 2 2 2 2 2 2 2 2 2 2 2 2 2 2 2 2 2 2 2 2 2 2 2 2 2 2 2 2 2 2 2 2 2 2 2 2 2 2 2 2 2 2 2 2 2 2 2 2 2 2 2 2 2 2 2
left_child=2 24 4 17 5 7 15 8 -1 -9 11 32 16 -14 22 -7 -12 18 20 -20 -4 -13 47 -8 38 28 27 -27 31 30 -19 -16 -6 44 57 53 -30 -31 50 40 42 -42 -5 -28 49 56 -47 48 -3 -26 54 -36 -49 -24 -2 -37 -40 -35 -52
right_child=1 14 3 39 10 6 23 9 -10 -11 12 21 13 -15 25 -17 -18 29 19 -21 -22 -23 35 -25 33 26 43 -29 36 37 -32 -33 -34 34 51 55 -38 -39 45 -41 41 -43 -44 -45 -46 46 -48 52 -50 -51 58 -53 -54 -55 -56 -57 -58 -59 -60
leaf_value=0.054282669967033605 0.39461490509626596 0.12077865294630173 0.043419951924544765 -0.10085043330413489 0.042585198742003776 -0.01296560253314229 -0.015738934579833216 0.0033916276156796886 -0.020604906455592792 0.080481378488939492 -0.018489652128466583 0.10293765162560352 -0.14868156045434008 0.022735769378038173 0.0047995454344894909 -0.10667602159393999 0.116295813034096 -0.17559455703066632 0.046912452043936098 0.14477808584124116 -0.01174719722677621 -0.036656203732370309 0.084450106281938206 0.084576588567828931 0.15051355048190027 0.078408012054901943 -0.018513324629952529 -0.19188501796652691 0.14180639680820445 -0.17837965714727611 0.014666003488438438 0.087756710623735593 -0.098573789913414228 -0.11667762075077666 -0.047935862538510898 0.098125898877451767 0.0024063273193698671 -0.040398371091001403 -0.11244687559151322 0.6126948186439084 -0.0459846690307237 -0.1514143812090151 0.13172215310937543 -0.15269795632523944 0.52213108559287191 -0.1135099719397404 0.17990690581245136 -0.13531750774937898 -0.10815032644162721 -0.099922503499711338 -0.14855485501015295 0.17817809043169161 0.12386991211388997 -0.116681809297489 0.14059316065502883 -0.1331774329231431 -0.18336220479522811 -0.16941585622576441 -0.11283732300693053
leaf_weight=11392.210100965574 11.481575965881346 183.64117769338191 6272.3367694560438 76.438006561249495 325.62213486805558 4985.8840156830847 605.38114256039262 1783.7034141402692 4901.3729554824531 13652.539757225662 559.74965699762106 10817.628645077348 400.00837540999055 1245.3635080754757 576.34464700892568 1040.0640484653413 1496.6486470662057 112.70120380446315 15339.796079616994 1041.6578363403678 5324.0555781945586 316.2329496704042 21.983643721789122 2803.2090907469392 20.460664078593254 2919.2740466967225 231.3550913631916 69.126090049743652 2105.9828965216875 152.59237536787987 3585.6011808328331 7297.6884050983936 329.5826488956809 6.4703834801912299 22.127817720174789 79.953966118395329 125.27213397622108 529.52410770207644 33.346310772001743 4.1590892393141976 277.22536002472043 574.50105281546712 66.405716478824615 183.43000478297472 4.6777653247117987 27.628154098987579 43.206120677292347 13.485537325963376 149.09781062230468 690.36142757348716 4.7235008068382731 89.213629968464375 284.53985998034477 418.80555342882872 176.67387312091887 11.593644004315136 25.157605953514576 32.027553647756577 10.609397627413271
leaf_count=37954 2 500 15714 440 773 17040 1835 6805 21904 27796 1590 16186 2199 2941 1154 4485 2082 533 34387 730 16894 1946 91 3470 297 4596 547 287 1353 767 10097 8500 1541 59 67 94 290 1480 509 5 1411 3490 119 674 5 97 36 185 1745 3185 33 44 486 6499 185 119 104 138 149
internal_value=0 0.0688842 0.0428647 0.0290276 0.0510115 0.040671 0.00550773 0.0511264 0.0317553 0.0715734 0.0784898 0.0918926 0.0358058 -0.0189377 0.0766268 -0.0291398 0.0796073 0.032895 0.0386105 0.0531355 0.018092 0.0989728 -0.00105999 0.0667601 -0.0259237 0.0833157 0.0538724 0.0721557 0.0932314 -0.00361029 0.00886805 0.0816846 -0.0284209 -0.0633351 0.057757 -0.0764721 0.13398 -0.0712654 0.0713449 -0.0962716 -0.0992364 -0.117098 0.00726877 -0.0778537 -0.0886941 -0.0288054 0.0654628 0.0625845 0.0181973 -0.0927138 0.135001 0.133241 0.112142 -0.106651 0.156094 0.0688335 -0.142942 -0.160552 -0.123841
internal_weight=0 15869.7 90012.2 33357 56655.2 41164.4 9434.54 31729.8 16293.6 15436.2 15490.8 11789.1 3701.77 1645.37 14671.6 6025.95 2056.4 32358.3 27977.8 16381.5 11596.4 11133.9 1163.1 3408.59 1198.17 13508.5 3403.19 2988.4 10105.3 4380.42 3698.3 7874.03 655.205 865.339 149.839 532.337 2231.26 682.116 332.827 998.729 994.57 851.726 142.844 414.785 715.5 129.338 70.8343 630.764 332.739 710.822 203.488 111.341 298.025 440.789 188.155 91.5476 58.5039 38.4979 15.3329
internal_count=268644 32030 236614 86067 150547 121289 26830 94459 59858 34601 29258 20446 8812 5140 27120 21525 3672 80602 67725 35117 32608 18132 9719 5305 4910 17401 6104 4883 11297 12877 10630 9654 2314 3795 308 6803 1643 2247 1115 5465 5460 4901 559 1221 3487 746 133 2916 2245 3482 369 111 671 6590 187 213 613 197 182
is_linear=0
shrinkage=0.1


Tree=14
num_leaves=53
num_cat=0
split_feature=68 130 100 4 74 102 71 4 102 135 82 84 76 31 41 107 91 73 135 32 106 110 65 33 35 51 134 61 58 70 27 38 70 61 109 127 128 116 119 28 102 94 84 54 122 120 77 77 110 107 62 110
split_gain=807.982 795 783.51 2451.92 719.579 699.55 1550.71 539.116 1400.88 736.109 465.599 433.523 539.812 532.972 554.063 520.524 351.752 343.3 327.263 317.045 305.159 271.309 229.706 219.208 214.063 239.758 170.486 147.037 109.83 100.953 261.03 193.827 94.487 71.1224 57.3853 61.857 57.7749 49.9841 28.9631 23.2803 25.4873 20.1653 6.05207 4.01207 0.328458 0.22464 0.0524825 0.0523271 0.0274581 0.0268975 0.00754739 0.00220406
threshold=0.20519365370273593 1.0000000180025095e-35 -0.9482341706752776 0.67415729165077221 -1.0454496741294859 -0.90155488252639759 -0.49591614305973047 0.72171762585639965 -0.94337612390518177 1.0000000180025095e-35 -0.22975197434425351 -1.2909405827522276 -1.2396733760833738 1.0049711465835574 1.0897125005722048 -0.80100661516189564 -1.2096209526062009 -0.8272714614868163 1.0000000180025095e-35 0.96856325864791881 -0.85867139697074879 -1.039929151535034 0.36456447839736944 0.94813770055770885 0.93942323327064525 1.1093531250953677 1.0000000180025095e-35 0.66320863366127025 0.93865591287612926 -0.078467022627592073 0.94387137889862072 0.97048938274383556 -0.069609966129064546 0.67189255356788646 -1.1180596351623533 -3.4190056324005123 1.0000000180025095e-35 -0.95516452193260182 -1.5888524055480955 0.87639147043228161 -0.51034361124038685 -0.93625271320343006 -1.4027440547943113 1.0858430266380312 -2.0662574768066402 -1.7263646125793455 -0.367310881614685 -0.367310881614685 -1.1803402900695799 -0.9238665997982024 0.75768873095512401 -1.1778479814529417
decision_type=2 2 2 2 2 2 2 2 2 2 2 2 2 2 2 2 2 2 2 2 2 2 2 2 2 2 2 2 2 2 2 2 2 2 2 2 2 2 2 2 2 2 2 2 2 2 2 2 2 2 2 2
left_child=1 2 4 5 27 18 -7 9 -9 -6 28 12 15 14 19 16 -3 26 -4 -13 22 -19 -15 -16 25 -14 -5 37 32 30 31 -30 -2 -22 36 -36 -31 -1 -32 45 50 -26 -17 44 -34 47 -47 49 -49 -12 51 -41
right_child=10 11 3 17 7 6 -8 8 -10 -11 39 13 24 20 23 42 -18 21 -20 -21 33 -23 -24 -25 41 -27 -28 -29 29 34 38 -33 43 -35 35 -37 -38 -39 -40 40 -42 -43 -44 -45 -46 46 -48 48 -50 -51 -52 -53
leaf_value=0.090926928239030452 0.15865835039309784 -0.044957694799735923 0.057980714158733439 -0.091622536909411259 0.053155563532765487 0.0029315633045855411 0.041437769403191403 0.078390645088442401 -0.12716616591837468 0.13265794043254994 -0.11332135582171853 0.080984903890526233 -0.01127175533153342 0.024993104925518629 -0.094694022638181399 -0.11889725431234305 0.097578309725075835 -0.12161356365536191 0.11840281219221836 -0.070197007635273284 -0.047854934701706042 0.068544163230074076 0.19599434967685936 0.050416986611034442 -0.16515792495075884 0.043721110814594184 0.0062241554365989908 0.10935984258552661 0.1158884808209651 -0.050302710210474388 0.12966000665059271 -0.24312793300558769 -0.11980862462940119 -0.1605122607954074 0.041153366379128226 0.12316546229044056 0.11000559920495839 -0.11772546835056062 0.042848016281879148 -0.10499803866400784 0.15885942191805227 -0.055226714931560263 -0.20576874152971236 -0.22611164022193131 -0.14270766241517102 -0.13809629040421526 -0.12034401998274845 -0.10228542301251485 -0.1103961636078304 -0.12701093573095021 -0.11588591457611411 -0.11026999643895199
leaf_weight=12.028946764767168 14.884620895609258 190.28982475399971 2993.6954911071807 1828.8613781724125 2264.2350698206574 12799.265882648528 57186.583144759759 1414.7851585149765 433.0147875584662 2398.0590753760189 3.0134902261197567 11886.486338837072 1748.4189676009119 1302.3250658847392 257.44721912592649 116.93931667506695 1920.6469455212355 100.8173899948597 1279.5433362871408 140.35229258239269 230.66991923749447 293.3366013430059 83.597600817680359 174.77174191176891 71.985518734902143 1450.5010959543288 197.28116359747946 35.196615993976593 22.862293571233749 40.695266718044877 151.48501360416412 43.939186669886112 12.114942556247117 74.021276757121086 96.390613816678524 2004.0400445833802 50.231175899505615 252.10917364992201 51.495647072792053 1.042807627469301 7.0770750045776349 21.721545532345772 8.6099964417517167 5.4780474808067074 12.969849664717914 3.4572384208440781 3.2131127472966901 4.379408497363328 88.978060275316238 2.740519866347312 2.5174306444823742 3.3105573803186417
leaf_count=28 16 908 7290 13826 4234 46676 142229 2622 3721 2411 40 12378 5296 3064 831 1572 2349 783 2542 441 778 1367 70 299 349 2429 1154 33 15 248 43 212 98 342 159 667 19 5338 66 51 1 60 36 37 71 18 38 226 1078 18 27 40
internal_value=0 0.0407143 0.0364525 0.0335656 0.0689606 0.0367939 0.0343956 0.0759312 0.0302203 0.0940477 0.096882 0.0587955 0.0350516 0.0680737 0.0752229 0.072964 0.0847294 -0.0654842 0.076073 0.0792206 0.0153872 0.0199053 0.0353077 -0.036017 0.00929992 0.0136639 -0.0820954 -0.0826393 0.106084 0.108929 0.0512068 -0.120257 -0.0479554 -0.0752238 0.116035 0.119402 0.0382576 -0.108223 0.107636 -0.0957698 0.0256654 -0.139676 -0.124855 -0.14858 -0.131648 -0.111782 -0.129545 -0.110586 -0.110016 -0.119841 -0.111527 -0.109007
internal_weight=0 103168 83488.8 76679.4 6809.43 74259.1 69985.8 6510.09 1847.8 4662.29 2626.32 19678.8 5529.11 14149.7 12459.1 2236.49 2110.94 2420.3 4273.24 12026.8 1690.61 394.154 1385.92 432.219 3292.63 3198.92 2026.14 299.335 2506.59 2461.14 269.782 66.8015 45.4475 304.691 2191.36 2100.43 90.9264 264.138 202.981 119.73 13.9479 93.7071 125.549 30.5628 25.0848 105.782 6.67035 99.1115 93.3575 5.75401 6.8708 4.35337
internal_count=268644 265456 234254 215867 18387 198737 188905 12988 6343 6645 3188 31202 12999 18203 13949 4865 3257 17130 9832 12819 4254 2150 3134 1130 8134 7725 14980 5399 1651 1429 336 227 222 1120 1093 826 267 5366 109 1537 119 409 1608 206 169 1418 56 1362 1304 58 118 91
is_linear=0
shrinkage=0.1


Tree=15
num_leaves=63
num_cat=0
split_feature=71 2 124 108 110 133 105 56 31 108 130 30 136 55 104 130 38 72 70 32 32 44 53 69 49 105 33 44 79 40 72 113 29 7 60 33 119 97 3 44 44 91 70 124 98 56 93 68 33 61 24 26 114 69 35 106 43 48 60 110 84 116
split_gain=771.368 1002.28 988.626 884.333 866.127 700.074 673.699 844.076 698.272 719.47 708.932 735.321 563.439 546.191 723.714 528.299 480.19 448.69 423.268 389.902 388.27 378.889 360.112 408.162 320.893 399.375 320.893 312.032 311.926 302.605 341.833 290.128 287.649 273.248 261.95 285.915 278.953 242.345 262.761 223.418 214.75 235.192 206.947 205.703 143.099 141.4 114.224 111.55 105.879 102.08 96.9816 103.835 77.3317 59.4824 51.7734 62.8749 50.5238 23.1384 66.8889 27.7355 1.16652 0.881406
threshold=-0.365927904844284 0.396761104464531 -1.8024483323097227 -1.0195981860160825 -1.175667345523834 1.0000000180025095e-35 -0.79332363605499256 0.97781240940094005 1.0067743659019472 -0.84839090704917897 1.0000000180025095e-35 1.0542080998420718 1.0000000180025095e-35 1.0265728235244753 -0.78840261697769154 1.0000000180025095e-35 0.96520501375198375 -0.55515256524085987 -0.3717349618673324 0.96674051880836498 0.89966776967048656 1.1499328017234804 1.0862669944763186 -0.15444586426019666 1.1371623277664187 -0.76286005973815907 0.93065181374549877 1.1868392229080202 -1.3849506378173826 1.0731997489929201 -0.50847467780113209 -0.87228393554687489 1.0757813453674319 0.32411462068557745 0.83313179016113292 0.85896745324134838 -1.6070411205291746 -0.92044472694396962 0.53339004516601574 1.1472408175468447 1.1658707261085512 -1.0435023903846739 -0.18462242186069486 -2.5054440498352046 -0.83271676301956166 0.96011999249458324 -1.0200113058090208 0.03287011198699475 0.92357301712036144 0.69927772879600536 1.2288778424263003 1.1926174759864809 -1.3526412248611448 0.025368117727339271 0.91615918278694164 -0.90711683034896839 1.1580979228019717 1.2226197123527529 0.84499582648277294 -1.1803402900695799 -0.61712512373924244 -1.4816530942916868
decision_type=2 2 2 2 2 2 2 2 2 2 2 2 2 2 2 2 2 2 2 2 2 2 2 2 2 2 2 2 2 2 2 2 2 2 2 2 2 2 2 2 2 2 2 2 2 2 2 2 2 2 2 2 2 2 2 2 2 2 2 2 2 2
left_child=1 2 3 22 27 20 8 37 10 12 11 -3 -10 14 33 17 50 26 -7 -12 -5 -19 23 -1 25 -9 -4 34 -26 43 -31 -11 42 45 35 36 -2 38 -8 -35 41 -17 -16 -18 -42 -6 -34 -24 -37 -39 52 -52 -15 61 57 60 -55 58 -29 -59 -56 -36
right_child=4 6 15 5 13 18 7 24 9 31 19 -13 -14 16 32 40 29 21 -20 -21 -22 -23 47 -25 28 -27 -28 54 -30 30 -32 -33 46 39 53 48 -38 49 -40 -41 44 -43 -44 -45 -46 -47 -48 -49 -50 -51 51 -53 -54 56 55 -57 -58 59 -60 -61 -62 -63
leaf_value=-0.044339200149895508 -0.031738558534529115 0.023026709641933416 -0.050879706541687476 -0.17789264034256136 0.16752731371156948 -0.098865039326930734 0.081398657954037404 0.1077395432708198 0.013612805669444703 0.14777176498884748 0.065965812009822919 0.047259627022184697 -0.072707386654462788 -0.060280889728515467 -0.16021844895668158 -0.10376787979664066 -0.034023851812265533 0.040794449861831818 0.10991103257717594 -0.03389430875508781 0.020195264042563107 -0.1188786392398294 -0.15414872434344637 0.045509086003004587 -0.082558230627017559 0.61480601143530922 -0.14124782902678126 -0.12783523023997551 0.039305085011169014 -0.061730653632617476 0.057813186425301435 -0.13107263789807339 -0.160060904243298 0.0600982153457627 -0.12192777646128683 -0.11307258142690553 0.11990718323798161 -0.1576644976272929 -0.078146394025426766 -0.057455633979245718 0.15120326685572305 0.039067644066976284 -0.03382780427923715 0.085430906434675907 -0.18827547448556872 0.042584626775601986 0.1259882034422006 -0.036572808561659439 0.11772503964903878 -0.08070160546114262 0.10389997928898197 -0.19750281992356467 -0.2043103503602926 0.1216120385022907 -0.20014613527374375 0.17022853454844422 0.013028034533044231 -0.10729373911369051 0.04658492780198855 -0.18717714473282632 -0.11685833230049752 -0.1870169701204572
leaf_weight=899.45285346545279 322.63738276343793 20226.881513344124 2215.3003243189305 115.5259426087141 331.40418636053801 101.71418991684914 169.43545411527157 220.7221862077713 6258.5756303407252 472.81638010963798 13850.060201158747 32871.170016513206 860.09310236014426 109.08099789172411 151.23056561499834 124.42665259167552 146.27215716987848 814.15303043648601 2144.1864360272884 402.35365371406078 689.65503047406673 181.79350600764155 196.53183377161622 1154.6883102320135 254.36657959967852 16.708684906363487 477.67037272825837 78.66232936270535 1205.3599581047893 279.61049916595221 1655.0435827486217 40.510450663045049 15.582269720733164 1179.9103872487321 3.3242121580988169 283.12724440358579 194.38639421761036 279.53135064803064 264.17288938444108 187.34608521312475 14.931801728904246 1568.0347540155053 903.5411224141717 9965.2325554415584 73.721112906932831 124.64792784303427 134.06415499746799 136.90204718895257 21.377633899450302 449.40499499812722 49.891830042004585 14.826938375830649 56.632144801318645 218.1419685697183 1.9678601697087277 14.605765819549559 53.326675687916577 116.54010245855898 30.516259347088635 69.313487730920315 11.561342174187304 5.5604710802435857
leaf_count=4409 2884 50581 10226 504 95 323 648 425 21879 461 18359 91270 3488 753 634 384 822 1671 2187 1223 1949 737 1211 3873 1224 65 2406 1721 2248 781 2285 334 74 2482 52 4065 523 1532 3929 794 9 2327 2739 10550 307 406 119 461 12 1901 46 66 271 265 13 2 256 2677 209 337 129 31
internal_value=0 0.0343004 0.00591269 0.0361038 0.0577098 0.0717747 0.0382786 -0.00935845 0.0400954 0.0114283 0.0433439 0.0380285 0.00318341 0.064653 0.0266125 -0.0241052 0.0740347 -0.0456996 0.100456 0.0631467 -0.00822604 0.0116488 -0.00948001 0.00616695 0.0356065 0.143423 -0.0669089 -0.0168566 0.0180696 0.0767701 0.0405358 0.125766 -0.0335418 0.0663485 0.0084848 -0.019998 0.025276 -0.0750012 -0.0158031 0.0439906 0.0206196 0.0285666 -0.0519494 0.0837029 -0.131097 0.133378 0.0962027 -0.105874 -0.0968695 -0.110215 -0.0689602 0.0348492 -0.109503 0.091949 -0.103261 0.0263522 0.100282 -0.115622 -0.0790834 -0.137086 -0.128973 -0.162664
internal_weight=0 88750.9 10908.7 5438.66 16729.4 3051.08 77842.2 2859.7 74982.5 7632 67350.5 53098.1 7118.67 15304.3 3027.73 5470.03 12276.6 3688.92 2245.9 14252.4 805.181 995.947 2387.58 2054.14 1697.16 237.431 2692.97 1425.05 1459.73 12046.2 1934.65 513.327 1204.42 1823.31 1101.88 821.529 517.024 1162.54 433.608 1367.26 1781.11 1692.46 1054.77 10111.5 88.6529 456.052 149.646 333.434 304.505 728.936 230.432 64.7188 165.713 280.353 323.167 28.135 271.469 295.032 109.179 185.854 13.5292 8.88468
internal_count=268644 232551 32984 14917 36093 4963 199567 11972 187595 26162 161433 141851 25367 22917 7343 18067 15574 15040 2510 19582 2453 2408 9954 8282 3962 490 12632 13176 3472 14438 3066 795 3566 3777 8088 7484 3407 8010 4577 3276 3027 2711 3373 11372 316 501 193 1672 4077 3433 1136 112 1024 604 5088 144 521 4944 1930 3014 142 83
is_linear=0
shrinkage=0.1


Tree=16
num_leaves=53
num_cat=0
split_feature=68 115 21 107 135 136 75 3 108 82 70 58 70 27 34 70 38 56 109 127 128 121 89 49 85 28 3 110 91 123 121 108 54 75 52 70 40 109 70 121 108 45 112 122 77 122 107 111 120 110 60 110
split_gain=729.451 697.745 611.276 598.501 785.923 697.416 1335.35 621.244 399.326 366.22 295.97 96.8405 92.5068 217.318 159.748 76.5067 65.3726 92.0572 51.7892 53.4041 50.839 45.9013 29.8555 28.6631 23.3433 22.4026 22.2503 21.1142 7.90732 5.49536 6.22953 3.29463 3.07269 2.63611 2.18598 1.97474 1.74105 1.39131 1.19094 0.705343 0.571171 0.535948 0.442605 0.246698 0.14841 0.0968447 0.0577639 0.045248 0.0287717 0.0176206 0.00393499 0.000968746
threshold=0.20519365370273593 -1.4483517408370969 0.97022831439971935 -0.99038407206535328 1.0000000180025095e-35 1.0000000180025095e-35 -1.1024586558341978 0.72788426280021679 -1.0600916743278501 -0.22975197434425351 -0.25353141129016871 0.93865591287612926 -0.078467022627592073 0.94387137889862072 0.82461392879486095 -0.069609966129064546 0.97144407033920299 0.99581837654113781 -1.1180596351623533 -3.4190056324005123 1.0000000180025095e-35 -1.8442861437797544 -0.21310009807348249 1.2335425615310671 -0.27292563021183008 0.87639147043228161 -0.18675933033227918 -1.1803402900695799 -0.19897063076496121 -2.2111641168594356 -1.8510658144950864 -0.96177059412002552 1.0858430266380312 -0.44882032275199885 1.1393031477928164 -0.11824941262602805 1.0497249364852907 -1.1223930716514585 -0.10218162089586257 -1.8510658144950864 -1.0519272685050962 1.2124220132827761 -1.2898238897323606 -2.0662574768066402 -0.367310881614685 -0.93416687846183766 -0.97334608435630787 -1.2262539863586424 -1.7207269072532652 -1.1803402900695799 0.8598633110523225 -1.1778479814529417
decision_type=2 2 2 2 2 2 2 2 2 2 2 2 2 2 2 2 2 2 2 2 2 2 2 2 2 2 2 2 2 2 2 2 2 2 2 2 2 2 2 2 2 2 2 2 2 2 2 2 2 2 2 2
left_child=1 16 22 4 8 7 -7 -5 -4 11 -6 15 13 14 -13 -2 17 31 20 -20 -14 24 29 -15 -19 44 -27 36 33 30 -3 40 43 -24 39 -23 37 -18 -36 -29 -1 -30 -31 -17 47 -33 -38 -11 49 -46 51 -28
right_child=9 2 3 5 10 6 -8 -9 -10 25 -12 12 18 23 -16 32 27 21 19 -21 -22 35 28 -25 -26 26 50 34 41 42 -32 45 -34 -35 38 -37 46 -39 -40 -41 -42 -43 -44 -45 48 -47 -48 -49 -50 -51 -52 -53
leaf_value=-0.11028059827846422 0.13608411077386767 -0.19216394642127754 -0.091495941574612813 0.039373894445883441 -0.010886441172576051 -0.091473903590094066 0.023549181649764234 -0.05837686209314763 -0.0063871970798734705 -0.11143559843120002 0.1213412191431941 0.10871629631848577 -0.051613948157508062 0.11852045651731687 -0.22357377785007784 -0.11825238308529842 -0.10581374955031538 0.15286644484224815 0.037725021262151451 0.1145386729538493 0.10441057291489149 -0.12094016827971915 -0.21515902708461254 0.023159103660070342 0.0016297479601702818 0.15333396974354377 -0.10563940673804058 -0.13129762027082612 -0.10763310639255295 -0.13861425299856703 -0.27961783453218841 -0.19436529917629586 -0.21286728078076445 -0.15469263282963749 -0.16090020165405186 -0.22687436494532351 -0.10322033517145419 -0.14666801358104162 -0.18996429559059441 -0.16882078885643603 -0.13671798918698608 -0.13668823931638507 -0.1822466707784135 -0.13870305244633541 -0.10201508051014763 -0.1757370898714348 -0.10725236467012247 -0.12764409656062853 -0.12232220777608323 -0.10891273482091823 -0.11410797804695892 -0.10906314609393049
leaf_weight=18.05214471928775 14.6325222030282 12.332140857353801 680.01886799558997 85120.847027730197 234.1910246424377 1111.9333338877186 10936.187704473734 655.16682698857039 2912.1959436684847 2.4422949831932783 610.72862759977579 21.603268578648567 39.745442356914282 146.49895794689655 43.802144892513752 11.300022700801494 14.522998303174971 28.507493536919352 95.259902007877827 1815.2776576578617 44.006898686289787 6.5584230348467827 8.7263691723346692 40.159807585179806 15.897037705406548 6.8832082748413086 1.0901146694086485 16.33155103772879 51.712286902591586 3.6718350388109684 23.989995211362842 5.6100373864173889 5.3474433002993456 41.491743931546807 22.903090097010136 2.4049701355397683 115.44026182219386 19.566568002104759 36.674994628876448 7.2261392623186103 14.931184980086984 7.2370532620698205 6.3375904243439418 12.340220161713662 3.8850612733513108 5.5535754412412626 51.329791692085564 5.8424254879355413 1.5543798562139262 79.267523787915707 1.5275256801396606 3.4166785478591906
leaf_count=373 16 57 7069 196865 901 7172 23515 7102 13737 38 372 14 248 50 213 98 400 14 159 667 19 105 40 59 118 1 55 97 1441 31 107 23 37 261 106 12 4032 98 157 31 111 52 41 71 226 23 993 38 22 1094 17 46
internal_value=0 0.0330294 0.0335322 0.0338335 -0.00208754 0.0354628 0.0129336 0.0386273 -0.0224986 0.0888466 0.084691 0.0972546 0.10012 0.0430399 -0.113819 -0.0503189 -0.101956 -0.031314 0.107335 0.110709 0.0303677 0.0570557 -0.164586 0.0980034 0.098723 -0.0929503 0.0304496 -0.126213 -0.136041 -0.231846 -0.249925 -0.138142 -0.144412 -0.1652 -0.168595 -0.149363 -0.108671 -0.129263 -0.178791 -0.142808 -0.122249 -0.1112 -0.166241 -0.128928 -0.110092 -0.185098 -0.104461 -0.122866 -0.108842 -0.10859 -0.109722 -0.108235
internal_weight=0 102798 102417 102261 4437.13 97824.1 12048.1 85776 3592.21 2395.88 844.92 2289.97 2246.35 252.064 65.4054 43.6202 381.51 97.5149 1994.29 1910.54 83.7523 53.3679 155.499 186.659 44.4045 105.909 12.9175 283.995 109.167 46.3316 36.3221 44.1469 28.9877 50.2181 83.1358 8.96339 200.86 34.0896 59.5781 23.5577 32.9833 58.9493 10.0094 23.6402 92.9917 11.1636 166.77 8.28472 84.707 83.1526 6.03432 4.50679
internal_count=268644 265456 258763 256733 22079 234654 30687 203967 20806 3188 1273 1651 1429 336 227 222 6693 779 1093 826 267 249 2030 109 132 1537 119 5914 1794 236 164 530 206 301 391 117 5523 498 263 128 484 1493 72 169 1418 46 5025 76 1342 1320 118 101
is_linear=0
shrinkage=0.1


Tree=17
num_leaves=63
num_cat=0
split_feature=70 55 101 70 41 54 71 134 101 80 131 47 29 62 136 12 41 29 56 51 108 62 70 110 69 28 103 41 76 41 65 70 37 41 73 126 68 61 70 74 31 104 65 132 68 55 60 16 91 72 68 126 106 75 50 12 77 107 84 122 108 83
split_gain=685.225 863.621 813.218 1288.98 1708.28 1779.69 1325.62 1267.49 1018.23 990.882 945.761 908.581 766.427 1047.98 942.101 643.74 626.286 623.084 604.344 602.42 608.234 592.334 491.873 488.371 423.413 774.941 396.714 387.406 358.052 505.876 354.978 285.538 284.195 271.152 452.292 280.251 258.38 210.603 186.124 185.691 184.905 181.373 156.021 152.595 121.108 102.359 92.3629 88.4986 78.4569 68.0795 66.2845 65.7045 65.693 103.184 85.4411 67.1094 28.4353 5.69171 5.47788 2.08109 1.38815 0.514933
threshold=-0.19385471194982526 1.0265728235244753 -0.81709247827529896 -0.29548305273056025 0.98764541745185863 1.0076970458030703 -0.48792733252048487 1.0000000180025095e-35 -0.86406362056732167 -1.3125936388969419 1.0000000180025095e-35 1.1154035329818728 1.1137017607688906 0.57463836669921886 1.0000000180025095e-35 0.84866851568222057 1.0301216840744021 1.1227519512176516 0.97781240940094005 1.1412456035614016 -0.87704864144325245 0.56649726629257213 -0.24844552576541898 -1.175667345523834 -0.11374526470899581 1.1534929275512698 -0.84339627623558033 1.0918553471565249 -1.1754157543182371 1.0689704418182375 0.32393833994865423 -0.18462242186069486 0.92163056135177623 1.1035564541816714 -0.67156594991683949 -1.8744713664054868 0.086184684187173857 0.6694791615009309 -0.15312731266021726 -0.94761094450950611 1.0107579231262209 -0.77891477942466725 0.4576698392629624 1.0000000180025095e-35 0.05615347437560559 1.0327643156051638 0.72563421726226818 0.98378479480743419 -1.040545582771301 -0.30683819949626917 0.22952663153409961 -3.1438889503478999 -0.77771675586700428 -1.0810443758964536 1.1216139197349551 0.72758495807647716 -0.44088649749755854 -0.98709022998809803 -1.4027440547943113 -2.0662574768066402 -1.0519272685050962 -1.4162649512290952
decision_type=2 2 2 2 2 2 2 2 2 2 2 2 2 2 2 2 2 2 2 2 2 2 2 2 2 2 2 2 2 2 2 2 2 2 2 2 2 2 2 2 2 2 2 2 2 2 2 2 2 2 2 2 2 2 2 2 2 2 2 2 2 2
left_child=2 28 3 4 6 17 8 9 -1 10 18 -7 13 26 -15 -8 21 -6 -4 20 -11 -14 -12 27 40 44 -5 42 52 36 -21 47 49 35 -35 -34 57 -27 -38 -18 46 -33 60 56 -26 -44 -9 -31 -42 59 -45 -51 54 61 55 -2 -29 -30 -56 -25 -3 -54
right_child=1 23 7 12 5 11 15 24 -10 19 22 -13 16 14 -16 -17 39 -19 -20 30 -22 -23 -24 32 25 37 -28 43 29 31 -32 41 33 34 -36 -37 38 -39 -40 -41 48 -43 45 50 -46 -47 -48 -49 -50 51 -52 -53 53 -55 58 -57 -58 -59 -60 -61 -62 -63
leaf_value=0.036060169520346984 0.13270964600068774 -0.11412199913673492 -0.077023568897083367 0.064916204240888772 -0.13704550064759458 0.035780549469923796 0.1064417561488082 -0.15144646894240676 -0.020151123308339937 0.029476365261532446 -0.16546459661586002 -0.033730236591929356 0.034427769192572837 0.064741657580416431 -0.0014382272746632106 -0.016115412925023984 0.11301178092368153 -0.039977194989170184 0.00088520559764654761 -0.17777769406660041 0.085101909112282895 0.11682788602330854 0.13785694199264112 -0.12880037685021881 -0.10990291413339862 -0.0024312058656130384 -0.12649855182533049 0.076601915045213492 -0.12868327657009945 -0.16565874494690502 -0.001296161945879744 0.033626732438745748 0.084651196304226919 -0.11470452454906495 0.04937724001053001 0.04627710250240466 0.097331378331305174 0.14491292712404472 -0.16545816401819591 -0.1287929652762404 0.24467338716286086 -0.050700041601108484 -0.1389732677688329 -0.11104755296893082 -0.03166613747699823 0.076529872385386319 -0.08625359765335737 0.1814475061434043 -0.12238897290396369 -0.10965330337923032 0.083022671568104084 0.091058519484456452 -0.11217023835488685 0.18663722866151844 -0.11892370335925349 -0.14106710612023987 -0.12146466288044225 -0.20273713086274042 -0.17456395512098286 -0.19686550452576548 -0.16418734002655319 -0.15663954882150083
leaf_weight=25577.679347697645 18.581512182950974 42.503694634884596 2070.2919976739213 139.86894758604467 1094.3615624941885 5926.9439890906215 3410.2554468289018 464.97706349566579 3687.0673539908603 14458.851102434099 60.390613075345755 2754.2906047925353 1147.3088794015348 9677.0488127302378 2765.8110836781561 490.18501025158912 39.375773519277573 1671.0647817850113 1918.1548000723124 117.5171413756907 2275.0169578902423 3640.7155695594847 465.99289745092392 5.0774871632456771 495.62129882723093 155.99402716010809 479.33695815131068 66.62137908115983 33.36547476798296 167.42648202553391 3779.2245832644403 468.42290542181581 7232.8303322605789 186.53897403925657 1689.9822459444404 2582.717548802495 684.31758585013449 256.53401307761669 28.056637030094862 164.17148745432496 20.146725758910183 559.9635280976072 23.109086361713707 355.63998221419752 329.32850951328874 476.58109661284834 408.01497216895223 7.6823795884847632 8.19034495949745 40.792076164856553 18.515510872937739 27.175220727920532 30.235873798839748 17.082811444997787 19.915981337428093 17.279536955058575 8.1331510394811612 15.064980588853357 158.62220692634583 38.957928277552128 6.3678223788738242 2.8493170589208594
leaf_count=78555 18 788 8428 512 5698 13351 4954 2736 11245 31611 229 7891 2595 16263 6910 1813 57 6216 4712 553 3598 3722 217 36 4181 524 3573 137 345 876 8565 2110 7373 599 2279 4138 1112 371 188 797 4 2180 299 6401 2360 1567 3259 2 97 609 73 38 536 33 171 108 74 67 677 168 32 13
