tree
version=v4
num_class=1
num_tree_per_iteration=1
label_index=0
max_feature_idx=136
objective=binary sigmoid:1
feature_names=Column_0 Column_1 Column_2 Column_3 Column_4 Column_5 Column_6 Column_7 Column_8 Column_9 Column_10 Column_11 Column_12 Column_13 Column_14 Column_15 Column_16 Column_17 Column_18 Column_19 Column_20 Column_21 Column_22 Column_23 Column_24 Column_25 Column_26 Column_27 Column_28 Column_29 Column_30 Column_31 Column_32 Column_33 Column_34 Column_35 Column_36 Column_37 Column_38 Column_39 Column_40 Column_41 Column_42 Column_43 Column_44 Column_45 Column_46 Column_47 Column_48 Column_49 Column_50 Column_51 Column_52 Column_53 Column_54 Column_55 Column_56 Column_57 Column_58 Column_59 Column_60 Column_61 Column_62 Column_63 Column_64 Column_65 Column_66 Column_67 Column_68 Column_69 Column_70 Column_71 Column_72 Column_73 Column_74 Column_75 Column_76 Column_77 Column_78 Column_79 Column_80 Column_81 Column_82 Column_83 Column_84 Column_85 Column_86 Column_87 Column_88 Column_89 Column_90 Column_91 Column_92 Column_93 Column_94 Column_95 Column_96 Column_97 Column_98 Column_99 Column_100 Column_101 Column_102 Column_103 Column_104 Column_105 Column_106 Column_107 Column_108 Column_109 Column_110 Column_111 Column_112 Column_113 Column_114 Column_115 Column_116 Column_117 Column_118 Column_119 Column_120 Column_121 Column_122 Column_123 Column_124 Column_125 Column_126 Column_127 Column_128 Column_129 Column_130 Column_131 Column_132 Column_133 Column_134 Column_135 Column_136
feature_infos=[-1.7844352722167969:1.9731968641281128] [-1.6962581872940063:1.9330692291259766] [-1.6161398887634277:1.893924355506897] [-1.5440802574157715:1.8557635545730591] [-1.4800789356231689:1.8185858726501465] [-1.4241359233856201:1.7823913097381592] [-1.3852788209915161:1.7937201261520386] [-1.3575865030288696:1.9274762868881226] [-1.3260828256607056:2.0758624076843262] [-1.2853907346725464:2.0974209308624268] [-1.2320997714996338:2.0118343830108643] [-1.1626077890396118:2.073509693145752] [-1.0779223442077637:2.1457490921020508] [-0.97803342342376709:2.2142360210418701] [-0.86829191446304321:2.2825961112976074] [-0.75375783443450928:2.4052433967590332] [-0.63881856203079224:2.5269482135772705] [-0.65591526031494141:2.5277442932128906] [-0.65910369157791138:2.5653238296508789] [-0.66488730907440186:2.5221147537231445] [-0.8555336594581604:2.4413206577301025] [-0.86833834648132324:2.3840618133544922] [-0.86565589904785156:2.2409591674804688] [-0.7797551155090332:2.1797337532043457] [-1.0841877460479736:2.1696581840515137] [-1.4308524131774902:2.0883691310882568] [-1.6366665363311768:1.9448176622390747] [-1.8254417181015015:1.7314887046813965] [-1.9202775955200195:1.5598906278610229] [-2.1668190956115723:1.3473584651947021] [-2.5042393207550049:1.1458766460418701] [-2.6881959438323975:1.0433628559112549] [-2.6397361755371094:1.0182701349258423] [-2.3245775699615479:1.0153312683105469] [-1.6179424524307251:1.0222163200378418] [-0.8696785569190979:1.0559519529342651] [-0.66409575939178467:1.2162210941314697] [-0.67050886154174805:1.4357191324234009] [-0.67336314916610718:1.5244829654693604] [-0.67729061841964722:1.237102746963501] [-0.67391806840896606:1.2342766523361206] [-0.77278417348861694:1.2273765802383423] [-0.78214722871780396:1.2647323608398438] [-0.67821109294891357:1.3808037042617798] [-0.67593681812286377:1.5838102102279663] [-0.67998087406158447:1.7493973970413208] [-0.67735743522644043:1.7343066930770874] [-0.67972826957702637:1.6915385723114014] [-0.67738151550292969:1.6147197484970093] [-0.68022686243057251:1.5983500480651855] [-0.67672491073608398:1.7146434783935547] [-0.68208664655685425:1.9411417245864868] [-0.6882440447807312:2.0736305713653564] [-0.69760811328887939:2.00534987449646] [-0.68820065259933472:1.8340702056884766] [-0.66498374938964844:1.7058380842208862] [-0.62731093168258667:1.5109990835189819] [-0.60256755352020264:1.3641012907028198] [-0.88048118352890015:1.3483799695968628] [-0.69688475131988525:1.3266682624816895] [-0.58480948209762573:1.3006186485290527] [-0.60407185554504395:1.2719470262527466] [-0.62883800268173218:1.6372760534286499] [-0.6584702730178833:1.5962808132171631] [-0.89532732963562012:1.2496439218521118] [-1.1747497320175171:1.0613176822662354] [-1.3727543354034424:0.98026233911514282] [-1.6710461378097534:0.87500208616256714] [-1.8910553455352783:0.74292320013046265] [-2.0949718952178955:0.59156680107116699] [-1.9126988649368286:0.44254273176193237] [-1.7446892261505127:0.31167539954185486] [-1.674402117729187:0.20973041653633118] [-1.5674382448196411:0.13722024857997894] [-1.4517455101013184:0.30397361516952515] [-1.6804615259170532:0.9557119607925415] [-1.8599822521209717:1.4404212236404419] [-2.0371255874633789:1.2026444673538208] [-2.1728529930114746:1.1285310983657837] [-2.2573421001434326:0.92254304885864258] [-2.3058340549468994:0.73609095811843872] [-2.3315773010253906:0.27998179197311401] [-2.3403120040893555:0.32789856195449829] [-2.3343968391418457:0.37759476900100708] [-2.3124566078186035:0.5232703685760498] [-2.2730567455291748:0.46151745319366455] [-2.2140905857086182:0.49370381236076355] [-2.1362462043762207:0.51996833086013794] [-2.0426793098449707:0.54197138547897339] [-1.9374580383300781:0.55988889932632446] [-1.8240519762039185:0.65018975734710693] [-1.8478662967681885:1.0688302516937256] [-1.6520191431045532:1.4168777465820312] [-1.5958865880966187:1.6290324926376343] [-1.5394163131713867:1.6652539968490601] [-1.4922878742218018:1.6182962656021118] [-1.4547033309936523:1.5608183145523071] [-1.4384253025054932:1.5595740079879761] [-1.4264529943466187:1.5645072460174561] [-1.5819015502929688:1.5648646354675293] [-2.0638625621795654:1.5687597990036011] [-2.4396805763244629:1.5680602788925171] [-2.4439821243286133:1.5700795650482178] [-2.3072562217712402:1.5659784078598022] [-1.8732595443725586:1.5674868822097778] [-1.4073458909988403:1.5623446702957153] [-1.1194825172424316:1.563502311706543] [-1.1123948097229004:1.561995267868042] [-1.1535060405731201:1.5723429918289185] [-1.2011067867279053:1.5757462978363037] [-1.3317182064056396:1.5835809707641602] [-1.6010570526123047:1.5861003398895264] [-1.8691196441650391:1.5904537439346313] [-2.2512052059173584:1.5896482467651367] [-2.2886085510253906:1.5896980762481689] [-1.8361798524856567:1.5826603174209595] [-1.577265739440918:1.5835590362548828] [-1.6321159601211548:1.6058655977249146] [-1.6864286661148071:2.2872264385223389] [-1.7459897994995117:2.4594569206237793] [-1.820858359336853:2.1617026329040527] [-1.9280952215194702:1.6088942289352417] [-2.1567583084106445:1.5763181447982788] [-2.3918964862823486:1.5743108987808228] [-2.6616356372833252:1.8138364553451538] [-2.9761693477630615:2.1645474433898926] [-3.3559722900390625:3.0688047409057617] [-3.8531808853149414:4.2020993232727051] [0:1] [0:1] [0:1] [0:1] [0:1] [0:1] [0:1] [0:1] [0:1]
tree_sizes=5742 6601 6721 6889 6643 6858 6623 5576 5781 6900 6774 6889 6910 5466 5675 4940 6885 6929 5335 6463 6081 6592 5834 6594 6925 5529 5753 6963 6520 6297 6702 6968 6579 6512 6839 5776 6705 6961 6437 6955 6946 5183 6562 6932 6911 6802 6697 5353 5583 5753 6630 5755 5431 6476 6568 5648 5749 6944 5739 6309 6653 6680 5658 6924 6718 6656 6983 6948 5752 6962 6847 6860 6613 6899 6058 6843 6605 4980 6812 6619 6813 5872 6136 6345 5454 6776 6493 6370 6343 6085 6835 6700 6715 6918 6718 6776 6659 6681 6797 6928 6598 6543 5586 6950 6608 6919 5981 5304 5770 6470 6060 5208 6943 6275 5862 5317 6485 5255 6806 6797 6494 6272 6939 6284 6909 6927 6896 6910 6880 6631 6806 6418 6933 5999 6451 6597 6940 6922 5062 6344 6801 6167 6602 6928 6619 6625 6910 6124 6184 6914 6451 6505 6600 6361 6631 6819 6934 6074 5653 6937 6924 5722 5944 5327 4889 6377 6693 5794 5193 6487 6809 6002 6917 6440 6587 6774 6469 6007 5143 5533 6549 5551 6790 5790 6366 6790 5256 6932 6900 6255 5456 5511 6368 6653 5989 6462 6854 6662 6054 5158

Tree=0
num_leaves=53
num_cat=0
split_feature=130 62 110 113 69 101 54 41 131 76 84 107 122 31 4 68 84 29 128 74 93 119 111 4 76 79 75 32 86 109 41 2 6 101 31 119 53 36 103 5 125 84 77 19 78 75 3 120 73 0 0 0
split_gain=104796 64959.2 81804.5 62690.9 53546.2 47730.8 49555 52533.8 35620.5 43468.9 31422.8 28189.7 26115 20051.3 19975.3 13317.4 12264.2 10770.6 10735.9 8820.99 11193.6 9759.16 8717.49 8423.6 6226.51 6149.83 7780.31 5536.59 5440.99 4555.26 5391.98 3802.53 3588.03 3234.25 3125.9 2906.86 2832.59 2566.59 1660.33 1646.77 934.946 872.68 882.179 1429.65 734.466 618.706 1208.43 539.682 282.13 1.42109e-14 8.88178e-16 8.88178e-16
threshold=1.0000000180025095e-35 0.57284989953041088 -1.177834093570709 -0.92494580149650563 -0.0097600445151329023 -0.94410035014152516 0.93614313006401073 1.0088279843330386 1.0000000180025095e-35 -1.2061058878898618 -1.4076939225196836 -0.87333565950393666 -2.0653178691864009 1.0032798647880556 0.75515884160995495 0.20510523021221164 -1.2909072637557981 1.2117092013359072 1.0000000180025095e-35 -1.0455033183097837 -1.0913577079772947 -0.92380034923553456 -1.0127913951873777 0.69665232300758373 -1.2397666573524473 -1.2573745250701902 -1.1431670188903806 0.96648320555686962 -1.3364754319190977 -1.1223446130752561 1.0906419157981875 0.56080198287963878 0.66819921135902416 -0.82607659697532643 1.0069497227668764 -0.92170405387878407 1.0555049777030947 0.95317918062210094 -0.84400010108947743 0.47817197442054754 -1.3908382654190061 -1.4128931164741514 -1.3383280038833616 1.1593980193138125 -1.2399928569793699 -1.1241760253906248 0.67951741814613353 -1.7145795822143552 -0.88364440202713002 0.37459883093833929 0.32684610784053808 0.37859961390495306
decision_type=2 2 2 2 2 2 2 2 2 2 2 2 2 2 2 2 2 2 2 2 2 2 2 2 2 2 2 2 2 2 2 2 2 2 2 2 2 2 2 2 2 2 2 2 2 2 2 2 2 2 2 2
left_child=1 3 18 5 8 14 23 -8 9 -4 39 -10 47 16 17 -14 24 -1 29 45 21 -21 36 -7 31 26 28 -24 -15 38 -31 -12 33 -27 -28 -16 -18 -26 -3 -2 -22 49 43 -43 -34 48 -47 -6 -5 50 -41 -44
right_child=10 2 4 19 12 6 7 -9 11 -11 13 -13 15 25 35 -17 22 -19 -20 20 40 -23 27 -25 37 32 34 -29 -30 30 -32 -33 44 -35 -36 -37 -38 -39 -40 41 -42 42 51 -45 -46 46 -48 -49 -50 -51 -52 -53
leaf_value=-1.6080556960375867 -0.43099719607209641 -2.0067938093305231 -3.0456245572787966 -3.5157534549630611 -3.3389988907694463 -2.676661460632809 -1.9160162524684994 -3.0254974472890033 -2.8531696333030268 -1.8615671868173638 -0.97292714625465271 -0.92501762564193646 -1.2322417036611308 -2.9447412154539387 -3.3833559231059747 -0.49412711620069416 -3.2483776611803368 -0.77808733673134611 -0.33097173560654758 -2.7640718867347651 -2.9130601090875539 -1.7774438764094205 -0.88885876930367269 -3.3379321887574789 -1.7599748573575762 -1.1424357808852061 -2.1239604278832682 -1.9127413403973867 -0.885370278409495 -2.0411537143111449 -3.3666388864821974 -2.3814645656558318 -0.81298711604682428 -1.9787526889870855 -2.8930525179845001 -2.0833914985072615 -1.6047975804099273 -3.1062393404902546 -3.4634080581425617 -3.5157534549630611 -3.4407058760406328 -0.73650753291436866 -3.5157534549630611 -3.5157534549630611 -3.5157534549630611 -0.43099719607209641 -3.5157534549630611 -1.3494902542194107 -3.0254974472890033 -3.5157534549630611 -3.5157534549630611 -3.5157534549630611
leaf_weight=284.6786419712007 1.9670733995735634 8.0425503738224489 335.58135286718607 227.41403847187757 51.494641810655594 654.45595118775964 3358.7783142291009 488.89499465376139 87.000990569591522 4075.4077522866428 183.74496556818485 590.22666916251183 830.4016250371933 15.939961250871418 45.831231866031885 346.4094743616879 11.347216393798588 346.8768209926784 13.3370502628386 448.02319782972336 40.272168409079313 129.15642648935318 1397.5074518844485 272.99060952663422 319.6784799695015 172.57954474166036 132.97396007925272 54.88739475235343 65.745686028152704 61.724634289741516 61.039729814976454 21.398224167525768 1.1225428357720364 63.166573397815228 87.700972627848387 27.536072637885809 138.12745741009712 14.817418415099381 289.80303663760424 0.6486953012645239 202.13650020956993 4.3666103333234787 1.1738295927643756 3.2125862538814545 9.6377587616443616 1.9670733995735634 3.5832692831754684 1.4005551077425469 12.377088472247122 60.915577813982964 2.749232467263937 5.12778190523386
leaf_count=3964 5 143 9338 7362 1579 15876 56772 13509 2259 66739 1430 4320 8545 428 1425 1092 338 2046 21 11247 1069 2010 9740 8368 4921 1626 2515 926 456 1118 1888 458 7 1106 2311 510 1919 421 9235 21 6397 24 38 104 312 5 116 16 342 1972 89 166
internal_value=-3.41246 -2.0137 -1.79608 -2.23819 -1.70486 -2.10176 -2.21515 -2.05699 -1.84798 -1.95165 -1.33763 -1.17272 -1.11267 -1.2795 -1.33364 -1.01497 -1.14129 -1.1522 -3.12423 -2.94026 -2.78279 -2.54329 -1.00239 -2.8713 -1.5536 -1.81875 -2.12099 -0.927552 -1.28723 -3.2128 -2.7002 -1.11985 -1.44803 -1.36652 -2.42961 -2.89546 -1.72957 -1.81961 -3.42408 -3.28866 -3.35305 -3.36055 -2.64146 -1.91454 -3.23379 -3.46629 -2.4225 -3.28632 -3.49045 -3.51575 -3.51575 -3.51575
internal_weight=0 13296.8 6751.87 6544.97 6317.92 5480.04 4775.12 3847.67 5088.22 4410.99 2770.54 677.228 1229.71 2690.38 704.923 1176.81 2141.51 631.555 433.947 1064.93 819.588 577.18 1601.87 927.447 539.639 548.867 302.361 1452.39 81.6856 420.61 122.764 205.143 246.506 235.746 220.675 73.3673 149.475 334.496 297.846 80.1614 242.409 78.1943 13.8808 7.5792 10.7603 245.341 5.55034 52.8952 239.791 64.3135 3.39793 6.30161
internal_count=268644 237311 106293 131018 93888 102470 94525 70281 82656 76077 31333 6579 11232 28914 7945 9637 20153 6010 12405 28548 20723 13257 12923 24244 7230 8761 5710 10666 884 12384 3006 1888 3051 2732 4826 1935 2257 5342 9378 2419 7466 2414 332 128 319 7825 121 1595 7704 2082 110 204
is_linear=0
shrinkage=1


Tree=1
num_leaves=61
num_cat=0
split_feature=107 135 76 41 134 68 112 4 41 121 130 101 53 32 128 132 130 103 74 55 52 31 69 113 5 15 71 1 40 67 71 76 116 54 35 115 55 101 56 59 50 45 66 49 106 105 102 105 2 120 39 120 57 76 35 35 59 60 38 110
split_gain=4775.57 7866.18 4842.59 6072.06 16311.8 10771.9 5307.46 3674.49 4281.93 3560.98 3396.11 3358.38 2814.5 2472.96 2602.43 1769.73 1628 1569.64 1863.45 1445.27 1235.02 1114.94 1012.72 969.407 862.103 991.358 804.983 689.435 684.679 1632.9 614.587 578.145 665.322 565.859 554.406 508.744 506.45 501.001 395.151 738.789 388.079 331.293 323.819 302.081 715.136 267.462 244.725 217.875 192.158 170.638 128.353 111.631 80.8229 57.0686 22.5907 92.8122 16.4463 18.3649 4.21279 1.34672
threshold=-0.99060088396072377 1.0000000180025095e-35 -1.1824159026145933 1.023183345794678 1.0000000180025095e-35 -0.018909770995378491 -0.92108595371246327 0.70226117968559276 0.98859241604805004 -0.98328992724418629 1.0000000180025095e-35 -0.94970053434371937 1.0190750360488894 0.96728441119194042 1.0000000180025095e-35 1.0000000180025095e-35 1.0000000180025095e-35 -0.9057876169681548 -1.0322722792625425 1.0179412961006167 1.0320773124694826 0.9889453947544099 -0.10741116851568221 -0.90389862656593312 0.50055944919586193 0.99092909693717968 -0.42056293785572046 0.46394890546798712 1.0087777972221377 0.15737975388765338 -0.39458854496479029 -1.1890330314636228 -0.96567615866661061 1.0248094797134402 0.77366003394126903 -0.97332578897476185 0.95730650424957286 -0.91232481598854054 0.9351491928100587 0.77103641629219066 1.1481746435165407 1.0316825509071352 0.21676044911146167 1.147045433521271 -0.94613298773765553 -0.89812880754470814 -0.89400836825370777 -0.9051760435104369 0.47712513804435736 -1.5886812210083006 1.013545095920563 -1.6050984263420103 0.79325437545776378 -1.191071569919586 0.88428130745887767 0.8837990164756776 0.78865265846252453 0.72640937566757213 0.98989796638488781 -1.177834093570709
decision_type=2 2 2 2 2 2 2 2 2 2 2 2 2 2 2 2 2 2 2 2 2 2 2 2 2 2 2 2 2 2 2 2 2 2 2 2 2 2 2 2 2 2 2 2 2 2 2 2 2 2 2 2 2 2 2 2 2 2 2 2
left_child=1 15 6 5 13 7 16 8 -4 17 12 -9 -7 14 -5 21 31 18 -8 -15 -19 24 37 34 26 -26 -1 -12 29 -6 48 53 -33 41 -11 -35 -25 -3 46 -40 56 -18 -32 44 52 -46 -39 -30 -23 51 -51 -42 -17 -2 55 -45 57 -24 -58 -56
right_child=2 22 3 4 28 10 9 11 -10 23 27 -13 -14 19 -16 43 33 20 -20 -21 -22 30 40 36 25 -27 -28 -29 47 -31 42 32 -34 35 -36 -37 -38 38 39 -41 49 -43 -44 54 45 -47 -48 -49 -50 50 -52 -53 -54 -55 59 -57 58 -59 -60 -61
leaf_value=-0.0026773244613142321 -0.11868253568289698 0.69674701951992957 0.34636496635548486 0.28880451779917715 -0.059423341415093089 0.13228442875029325 0.18627031953893203 0.25931019635405239 0.21636166767495127 0.46873839262228334 0.3172945354012931 0.0033936775462165298 0.50687689324670337 0.099078329072510088 0.3972459800945744 0.10035900670833037 0.33281919865529025 0.13243586882094588 1.2502516267290944 0.26051670180478553 0.2831567034697775 -0.086169431729548704 0.5650021138311011 -0.099841998730734571 0.64926826353653833 0.23800833885990863 0.20993639599316516 -0.028570798642942732 0.65742349308803383 0.40419705357995861 1.9044597671495538 -0.046778586076103301 0.18239891831778707 -0.12477512796433073 0.10176911955156612 0.47265947914415629 0.086333441269328584 0.41377475313929502 1.2182677447802521 0.21418646544476566 0.55110598751569961 -0.11947648439095659 0.39427995024748458 -0.083526485529600458 0.97442413912437231 0.2534836843177346 -0.11071365630105107 -0.088847547471640032 0.051708375619289204 0.59595486702919565 0.35054561036668191 1.2546255653316356 -0.079995079108907574 -0.037251175529056525 -0.10345728519607181 0.27012480863676108 0.70754872428063564 0.72775183783030506 0.74115408373253089 -0.1169707798348415
leaf_weight=300.15263526886702 370.21254212595522 25.902097269892693 13061.836104711518 19155.276035800576 274.53433819115162 209.38260626420379 30.497493082657456 2089.0265124607831 3143.2420839518309 72.510637063533068 1060.455592289567 679.60067701525986 4769.737340060994 968.23924247920513 2502.1076524779201 28.715976782143116 26.109987106174231 588.09087890572846 35.764175938442349 1297.8956839479506 7196.2362773101777 222.25679542124271 13.379125624895098 310.46453391388059 67.601970177143812 440.83088757097721 437.83589471131563 60.946374291554093 3.9257114604115477 105.03345003724098 1.509936567395928 292.2925332300365 223.56143754348159 16.129778044298291 95.245690220966935 122.52652418240905 276.01532726921141 11.517114192247389 9.1418584585189802 36.931854996830225 4.579876434057951 42.644042415544391 23.800246182829142 114.1058918312192 5.5816063359379759 65.925586428493261 39.093418434262276 1131.709370829165 185.4000903069973 33.911439809948206 57.360955391079187 4.443963158875702 184.44359071180224 112.1288299895823 124.89564566686749 7.9370545148849478 51.609382845461369 14.391468945890663 134.57776473462582 180.07278776168823
leaf_count=2761 3217 36 53197 50435 2523 1572 386 4572 15407 347 1481 11233 15697 6130 6636 345 66 6417 145 4665 32568 2324 33 7478 199 3382 2336 418 5 372 5 2264 1363 120 779 250 2825 63 34 254 38 403 95 2199 10 415 561 9505 2019 27 144 12 2176 882 4139 93 40 7 44 1495
internal_value=0 0.159754 0.292716 0.305202 0.27078 0.340124 0.228424 0.302959 0.321149 0.255956 0.455716 0.196492 0.491124 0.290933 0.301333 0.0884658 0.031922 0.275895 0.760545 0.19154 0.27177 0.14447 0.54995 0.0484113 0.192493 0.29269 0.123463 0.298497 -0.0474051 0.068869 0.0062235 -0.0210483 0.0525426 0.28685 0.260387 0.40316 -0.0122222 0.306168 0.201531 0.413414 0.645047 0.052287 0.484373 -0.0436914 0.0361027 0.309758 0.00864081 -0.0862678 -0.0234634 0.482738 0.441725 0.897568 -0.0556985 -0.0997524 -0.0968861 -0.0605268 0.721131 0.649343 0.731839 -0.111437
internal_weight=0 2827.91 60323.4 50512.9 25438.7 25074.2 9810.43 18973.7 16205.1 8604.83 6100.52 2768.63 4979.12 23923.5 21657.4 2391.07 1205.61 7850.59 66.2617 2266.13 7784.33 1679.39 436.84 754.236 1246.42 508.433 737.989 1121.4 1515.2 379.568 432.967 998.195 515.854 207.41 167.756 138.656 586.48 122.586 96.6842 46.0737 314.254 68.754 25.3102 711.678 284.667 71.5072 50.6105 1135.64 407.657 100.296 91.2724 9.02384 213.16 482.341 427.011 122.043 213.958 27.7706 186.187 304.968
internal_count=268644 25286 243358 183848 80271 103577 59510 84409 68604 50945 19168 15805 17269 67866 57071 23993 8565 39516 531 10795 38985 13121 1293 11429 8678 3581 5097 1899 12405 2895 4443 7726 3627 839 1126 370 10303 948 912 288 345 469 100 10872 2946 425 624 9510 4343 221 171 50 2521 4099 7926 2292 124 40 84 5634
is_linear=0
shrinkage=0.1


Tree=2
num_leaves=62
num_cat=0
split_feature=107 135 75 118 91 133 54 31 102 94 136 32 2 78 83 75 91 3 122 108 31 51 130 73 130 104 74 69 77 116 92 74 106 98 70 33 117 105 59 104 16 75 0 0 89 36 30 109 114 43 91 49 31 59 48 66 44 33 86 109 62
split_gain=2925.68 3040.12 2719.35 3369.44 3353.17 2552.59 3928.61 3894.86 3290.22 2651.28 2435.75 2180.37 2060.06 1837.59 1497.45 1415.29 1699.72 1398.84 1394.74 1146.79 1125.46 1133.95 990.341 938.888 858.486 856.451 719.799 685.395 640.476 909.989 556.805 534.798 512.864 476.597 454.957 416.525 283.313 282.767 316.676 423.087 231.97 208.926 169.505 166.434 164.911 148.32 120.899 119.505 112.751 107.558 74.9526 73.8731 60.0092 227.812 32.3763 78.2852 24.3092 6.33216 0.329922 0.124584 0.0975545
threshold=-0.98612794280052174 1.0000000180025095e-35 -1.087904095649719 -0.99504113197326649 -1.0985428094863889 1.0000000180025095e-35 0.99471750855445873 0.99896985292434703 -0.82279801368713368 -0.99248865246772755 1.0000000180025095e-35 0.9640064835548402 0.67471647262573253 -0.75185728073120106 -1.4210245609283445 -1.1015694141387937 -1.1638608574867246 0.64699277281761181 -1.2370260953903196 -1.0584022402763364 0.9889453947544099 1.1034629940986636 1.0000000180025095e-35 -0.34108020365238184 1.0000000180025095e-35 -0.91298264265060414 -0.65070039033889759 -0.16243065893650052 -1.235317528247833 -0.98300439119338978 -1.070480167865753 -0.73427134752273548 -0.91103035211563099 -0.93734410405158985 -0.2451936528086662 0.9480547606945039 -1.0011914372444151 -0.9210839271545409 0.76554512977600109 -0.9325573444366454 0.94116696715354931 -1.1007921099662779 0.20878204703330996 0.3565241694450379 -0.86671563982963551 0.90352323651313793 1.0137040019035342 -1.1200893521308897 -0.92954686284065235 1.1371585130691531 -1.1383603811264036 1.1358435750007632 0.94988477230072033 0.87581029534339916 1.1726053953170779 0.32297830283641821 1.1781016588211062 0.91624730825424205 -1.2466762065887449 -1.1223446130752561 0.57284989953041088
decision_type=2 2 2 2 2 2 2 2 2 2 2 2 2 2 2 2 2 2 2 2 2 2 2 2 2 2 2 2 2 2 2 2 2 2 2 2 2 2 2 2 2 2 2 2 2 2 2 2 2 2 2 2 2 2 2 2 2 2 2 2 2
left_child=1 19 3 24 11 6 9 13 -8 -6 12 17 14 -7 -5 48 -17 22 35 23 21 27 -4 44 28 -19 -23 -21 50 -30 -20 43 -9 -14 37 -13 58 38 39 -3 46 -38 -33 -22 -1 -46 -39 49 -12 -25 -2 -40 53 59 57 -56 -55 -54 -26 -36 -42
right_child=2 34 4 10 5 7 8 32 -10 -11 15 18 33 -15 -16 16 -18 25 30 20 31 26 -24 47 36 -27 -28 -29 29 -31 -32 42 -34 -35 52 -37 41 40 51 -41 60 -43 -44 -45 45 -47 -48 -49 -50 -51 -52 -53 54 56 55 -57 -58 -59 -60 -61 -62
leaf_value=0.5301789627693928 0.034718703710552655 0.36779499981597552 0.3182053882952795 0.045206907280652478 0.1989873872167281 0.33568107959752508 0.2828261932318904 0.12040019733373904 0.20526077217383909 0.062237976244076412 -0.11706471770746228 0.36227049568362568 -0.057432474653243748 -0.011929605850579582 0.22373859083849928 0.38130906788697394 0.034068871434695919 0.22389677269390826 0.124325127636225 0.17206035037946349 -0.11385648488148992 -0.064630471979698997 0.23369251433034166 0.51334814510774729 -0.11580191630816755 -0.031747748123577856 0.14742252964936037 0.33967240397922549 -0.065487236168804266 0.24335578676733416 -0.073905359520804556 -0.12296697822623602 -0.097716870547624401 0.80422539874720389 -0.10669635455999094 0.14438514197963875 -0.12326436912985056 -0.11887146969410536 0.74549990345388073 -0.046301309544610494 -0.11014714700778915 0.22358879396355491 0.44991758983514424 0.0093726977474527257 -0.01605989837540088 -0.11096231736313798 0.41540446751792826 0.49324965057962206 -0.023485286529460431 0.16496946469336959 -0.11482362197911092 0.40491304346748419 0.40815279370952728 0.4161685516426854 0.16330767277209027 0.39803980935367778 0.30545207275527253 0.37474775019028933 -0.13688635905245392 -0.1275115459511999 -0.11974558766535047
leaf_weight=4.6704808771610251 36.122501116245985 60.523054480552673 8087.7238229624927 490.52943769469857 2867.2498612757772 4080.5362341217697 6909.9000830762088 718.98142720758915 26221.278522321954 2804.5023269504309 201.91701930388808 321.76131578162313 316.17976851761341 157.96407057344913 11122.84630570747 224.95293897762895 377.57437128946185 1283.3345098309219 756.44899558275938 935.13615594059229 166.99919643998146 288.22812861576676 1673.4603231996298 9.604245796799658 15.495928149670364 145.9515493568033 360.02098962664604 330.08122365549207 222.48341545835137 167.02385341003537 174.3582714907825 6.1669649966061106 126.81508474424481 6.5522348321974269 5.7765433788299543 120.63075459003448 18.666182938963175 5.6534368731081512 14.094202078878881 41.654471833258867 19.682549882680178 249.32890866324306 31.779698144644499 318.88345001265407 312.11211842671037 348.63278563506901 16.88528786227107 14.716266736388205 355.33320649899542 114.70197698287666 464.57593053206801 11.617898646742104 269.78072188422084 38.495082378387451 20.666535213589668 45.464505076408386 40.902025021612644 71.859798293560743 14.242604490369557 5.7253914326429367 22.918356336653233
leaf_count=5 199 128 19598 5929 11741 11952 17281 3986 68714 17344 1877 500 5681 851 44419 932 2591 2056 3217 5878 1824 2357 2965 19 140 2223 1803 1343 1591 644 1124 47 866 6 116 393 139 48 12 426 333 564 57 3031 3857 7470 28 4 5506 245 4007 45 75 10 66 16 31 42 87 35 170
internal_value=0 0.131571 0.22018 0.181201 0.230043 0.217003 0.208273 0.283628 0.221438 0.131369 0.195829 0.275594 0.209272 0.322726 0.216198 0.0574745 0.163711 0.290187 0.156672 0.0909609 0.125131 0.160685 0.303716 -0.0125677 0.0199408 0.197792 0.0531383 0.215788 -0.0292222 0.0669471 0.0871927 -0.00474435 0.0876967 -0.0399388 0.321893 0.302858 0.166935 0.19154 0.277918 0.198981 0.0219504 0.19943 0.356814 -0.0329815 -0.0619484 -0.0661338 0.281391 0.223787 -0.0573934 0.191886 -0.104035 0.591607 0.372351 0.298877 0.388729 0.324684 0.359132 0.401126 -0.1259 -0.117058 -0.115311
internal_weight=0 3933.43 70734.7 14283.8 56450.9 43887.2 38802.9 5084.3 33131.2 5671.75 13095.9 12563.7 11936.1 4238.5 11613.4 1159.78 602.527 11190.5 1373.2 3241.73 2437.3 1913.47 9761.18 804.438 1187.94 1429.29 648.249 1265.22 890.206 389.507 930.807 523.829 845.797 322.732 691.7 442.392 297.734 193.029 127.89 102.178 65.1396 267.995 37.9467 485.883 665.415 660.745 22.5387 139.022 557.25 124.306 500.698 25.7121 498.671 90.899 407.772 66.131 79.3971 341.641 29.7385 11.5019 42.6009
internal_count=268644 29521 239123 74312 164811 132735 115080 17655 85995 29085 66941 32076 56035 12803 50348 10906 3523 26842 5234 27940 16340 11381 22563 11600 7371 4279 4160 7221 6441 2235 4341 4959 4852 5687 1581 893 930 1190 611 554 579 703 104 4855 11332 11327 76 268 7383 264 4206 57 391 192 199 82 41 117 227 151 503
is_linear=0
shrinkage=0.1


Tree=3
num_leaves=63
num_cat=0
split_feature=108 75 76 116 107 134 135 94 92 134 53 77 113 118 40 70 108 78 73 104 31 83 136 108 102 54 76 112 31 37 5 59 130 128 130 118 74 127 126 100 101 104 32 130 77 70 129 104 53 106 89 77 39 8 41 11 115 100 36 129 130 75
split_gain=2061.2 3987.23 3547.05 3357.24 2264.46 2489.8 1811.65 1753.56 1601.31 2381.01 2317.87 1554.47 1977.42 1686.61 1306.81 1249.8 1093.2 1422.42 1096.89 1087.21 1131.78 1035.17 1025.4 990.463 955.453 1751.7 935.159 928.368 910.154 856.431 739.119 706.839 684.304 652.107 580.531 560.252 428.46 404.669 454.146 380.841 364.3 355.297 323.947 305.117 346.534 286.305 281.55 271.624 267.35 251.78 237.683 428.628 230.984 220.166 213.165 204.508 189.228 101.94 55.1406 39.068 2.4927 1.15354
threshold=-0.9157404601573943 -0.96038928627967823 -1.157826781272888 -0.99682062864303578 -0.98393404483795155 1.0000000180025095e-35 1.0000000180025095e-35 -1.1072687506675718 -1.0375815629959104 1.0000000180025095e-35 1.0340813994407656 -1.1960040330886839 -0.98462796211242665 -1.078278064727783 0.93190422654151928 -0.3516689389944076 -0.88731515407562245 -1.2505350112915037 -0.8803686499595641 -0.8254680037498473 1.0009091496467593 -1.4210245609283445 1.0000000180025095e-35 -1.0567135214805601 -0.83678728342056263 1.0015476346015932 -1.1629341244697569 -0.95556870102882374 0.9889453947544099 0.99121391773223888 0.74797651171684276 0.86126017570495617 1.0000000180025095e-35 1.0000000180025095e-35 1.0000000180025095e-35 -1.1755501627922056 -0.92067855596542347 -1.412523567676544 -1.3124879002571104 -0.96300077438354481 -0.81697359681129444 -1.0032449960708616 0.95412787795066845 1.0000000180025095e-35 -1.2362787723541258 -0.26541468501090998 1.0000000180025095e-35 -0.88102638721466053 1.0806677937507632 -0.86986911296844471 -1.0468670129775999 -1.1354881525039671 1.0106726884841921 0.56664961576461803 0.99792277812957775 0.59778237342834484 -0.9839966595172881 -0.81563502550125111 0.91081801056861889 1.0000000180025095e-35 1.0000000180025095e-35 -1.1809530258178709
decision_type=2 2 2 2 2 2 2 2 2 2 2 2 2 2 2 2 2 2 2 2 2 2 2 2 2 2 2 2 2 2 2 2 2 2 2 2 2 2 2 2 2 2 2 2 2 2 2 2 2 2 2 2 2 2 2 2 2 2 2 2 2 2
left_child=1 19 3 26 6 14 23 37 9 16 32 12 -12 -13 35 -16 17 -4 -18 20 30 52 -23 29 54 -26 43 60 -25 -3 31 -1 49 36 50 -6 -22 38 -5 -32 53 -34 -35 56 -45 47 -29 -8 57 -10 51 -21 -9 -7 -11 -50 -2 -36 -47 -52 -28 -39
right_child=2 4 8 7 5 40 45 21 10 24 11 13 -14 -15 15 -17 18 -19 -20 34 33 22 -24 28 25 -27 27 46 -30 -31 39 -33 41 42 48 -37 -38 61 -40 -41 -42 -43 -44 44 -46 58 -48 -49 55 -51 59 -53 -54 -55 -56 -57 -58 -59 -60 -61 -62 -63
leaf_value=0.14338820209327396 -0.1115103082496411 -0.051444449632751722 -0.054268731517262248 0.059986468365582468 0.24884412960098434 0.41151626508489525 0.19677655654108583 0.05518193935320205 0.027466571925588774 0.3779545014167574 -0.065156790721338717 0.17981519048741587 0.16081925491100918 0.2593587343681058 0.025465139516459942 0.19664483802974528 0.15340633001253653 0.19259866763341871 0.25841969006521998 -0.12222456851970853 -0.010608695782028029 0.18137053186612462 0.11653187081070909 0.1402546048798971 -0.01174783416243747 0.30728453630066693 -0.12670504363498641 0.16217741025697105 -0.0019064533332084285 0.20436827011300332 0.092385767801548613 0.91985042846853871 1.5174400743919874 0.11072087830972113 0.24840775327989828 0.39105325944056363 0.077073154929200818 -0.10372727606478778 0.98003509484073215 -0.12842110126185927 -0.11831248810685482 0.13107126690802642 0.36839005283156734 -0.1370582668506917 0.10921208209613034 0.12852215473861939 -0.073296169558490207 -0.11375114535214503 -0.15129749473652782 -0.11883784130967708 -0.11259880116497518 0.16601184664085569 -0.12779403364314881 -0.11991591100388076 0.22791504704479176 0.17017944069536292 0.055556701965018301 -0.15307505284070524 0.28542533576138623 0.033838643456450039 -0.16328185671873752 -0.11680287420473079
leaf_weight=4064.2678249813616 538.64970795437694 745.91628077067435 240.86444843932986 148.06362583860755 775.36614260450006 22.373580977320671 149.82275637611747 390.88161156140268 197.85263262689114 1372.4360903464258 443.36380065977573 7464.6925851330161 3058.7096099741757 4146.3239349443465 441.24965154752135 12773.251370321959 1208.9361267089844 7530.6657156981528 5611.6353477053344 101.66542583331466 1102.7123544942588 17406.874418966472 2836.5237020626664 2365.0799273401499 214.87791251391172 864.57917800918221 126.1715762577951 643.22678032889962 556.27871494367719 158.72006628662348 162.34260101243854 11.758018583059309 1.8618121966719616 112.12297717854381 7.296888828277587 431.03628228604794 1126.7556112706661 145.41529616340995 5.5667670518159857 150.55050011724234 286.87852203473449 259.75874570384622 86.383004255592823 81.159381452947855 193.04272118955851 23.23979321308434 55.129516880959272 34.691182561218739 21.575677499175072 290.08958845213056 417.07939883694053 104.74875549226999 83.778136735782027 11.964536610990761 101.70746321603656 238.8849713653326 77.557581480592489 47.445835031569004 618.30894570983946 19.050874814391136 21.860096022486687 125.8722406513989
leaf_count=16157 3469 12404 1323 1138 2111 12 685 4502 1230 1421 2257 16574 5791 6185 2154 28961 2797 19645 8247 723 6433 56384 14627 11787 1198 1245 868 1347 5037 199 853 18 3 410 1 1425 5494 5169 40 2291 2272 390 241 494 430 107 310 451 102 3038 3125 405 839 103 253 298 284 246 454 89 102 1996
internal_value=0 0.150441 0.184019 0.153759 0.174696 0.193891 0.113868 0.164738 0.204993 0.226178 0.182094 0.190607 0.132211 0.20822 0.200024 0.190929 0.210589 0.184947 0.239806 0.0899352 0.103952 0.168862 0.172285 0.0848712 0.315259 0.243778 0.0201077 0.0953701 0.113185 -0.00656165 0.134258 0.145628 0.0104498 0.0491691 -0.00983105 0.299654 0.033705 -0.036356 0.0933242 -0.0138569 -0.0814683 0.140937 0.22285 -0.0514338 0.03632 0.248169 0.143589 0.138393 0.101328 -0.0595138 -0.0643605 0.0240464 0.0228864 0.226348 0.367603 0.143549 -0.0904828 -0.0995597 0.279742 -0.106202 -0.132106 -0.109794
internal_weight=0 27168.8 55888.1 22879.8 19394.2 14742.1 4652.06 21143 33008.4 17145.7 15862.7 15113.1 3502.07 11611 14420.9 13214.5 14592.1 7771.53 6820.57 7774.64 6816.89 20718.1 20243.4 3825.99 2553.6 1079.46 1736.8 846.388 2921.36 904.636 4388.92 4076.03 749.563 2427.97 957.748 1206.4 2229.47 424.918 153.63 312.893 321.217 261.621 198.506 890.409 274.202 826.063 698.356 184.514 315.203 487.942 642.544 206.414 474.66 34.3381 1474.14 260.461 616.207 54.7427 641.549 436.13 148.032 271.288
internal_count=268644 105048 163596 91999 68162 37038 31124 84695 71597 36129 35468 30807 8048 22759 34651 31115 32012 20968 11044 36886 31897 76352 71011 29427 4117 2443 7304 2627 16824 12603 19319 16175 4661 12578 4989 3536 11927 8343 1178 3144 2387 393 651 4677 924 1697 1657 1136 647 4268 4342 1128 5341 115 1674 400 3753 247 561 3214 970 7165
is_linear=0
shrinkage=0.1


Tree=4
num_leaves=61
num_cat=0
split_feature=31 108 135 76 113 109 74 134 101 32 59 31 4 136 117 61 76 130 134 116 128 37 40 105 89 79 127 129 30 32 31 128 0 101 130 32 103 104 32 30 72 6 21 5 105 22 99 72 102 108 80 110 106 113 110 78 55 90 41 72
split_gain=1719.46 1486.37 1746.23 1496.09 2123.56 1674.98 2557.13 2199.94 1643.56 1384.54 1201.32 1056.34 1008.4 1003.55 817.739 807.219 734.559 657.762 633.205 501.065 486.435 469.791 949.648 1028.23 463.171 409.097 374.175 364.578 450.181 318.383 231.573 207.968 206.296 201.235 182.123 165.345 163.408 160.909 216.194 193.465 151.968 364.225 149.401 147.617 146.362 102.981 120.546 90.2798 76.9778 62.6533 7.04401 6.26422 4.25853 0.0952739 0.0929592 0.0916563 0.04159 0.0291789 0.00761261 0.00389031
threshold=1.0073187351226809 -1.0474635958671568 1.0000000180025095e-35 -1.1713922619819639 -0.94918519258499134 -0.92927205562591542 -0.86729061603546131 1.0000000180025095e-35 -0.81421002745628346 0.96674457192420971 0.72149410843849193 0.97192916274070751 0.72197169065475475 1.0000000180025095e-35 -1.0592225790023801 0.70096227526664745 -1.191071569919586 1.0000000180025095e-35 1.0000000180025095e-35 -0.99682062864303578 1.0000000180025095e-35 0.98025652766227733 1.0480666160583498 -0.85712641477584828 -1.2122062444686887 -1.2719876170158384 -2.4068927764892574 1.0000000180025095e-35 1.0947517156600954 0.94805178046226513 1.0081423521041872 1.0000000180025095e-35 -0.18075162917375562 -0.92780002951621998 1.0000000180025095e-35 0.89258417487144481 -0.88247552514076222 -0.82682129740715016 0.95695343613624584 1.0564170479774477 -0.68459221720695485 0.72591316699981701 1.3197737336158755 0.68242639303207409 -0.94907724857330311 1.4225199222564699 -0.99023574590682972 -0.60353118181228627 -0.92587235569953907 -1.0706622600555418 -1.3045424818992613 -1.177834093570709 -0.89552047848701466 -0.92413324117660511 -1.1854009628295896 -1.2785908579826353 0.98697000741958629 -1.1211725473403928 1.0095232725143435 -0.72893375158309925
decision_type=2 2 2 2 2 2 2 2 2 2 2 2 2 2 2 2 2 2 2 2 2 2 2 2 2 2 2 2 2 2 2 2 2 2 2 2 2 2 2 2 2 2 2 2 2 2 2 2 2 2 2 2 2 2 2 2 2 2 2 2
left_child=1 2 21 4 17 6 8 -8 -5 12 27 34 -7 14 26 -11 -13 24 20 -19 -16 22 23 -1 -3 -20 -12 31 55 -28 37 40 -23 43 -6 54 50 38 -15 -39 42 -42 -2 -33 -34 52 -47 -38 -37 -50 -32 -24 -30 -35 58 59 -56 -57 -4 -29
right_child=10 3 35 5 11 9 7 -9 -10 15 13 16 -14 30 18 -17 -18 19 25 -21 -22 32 51 -25 -26 -27 29 28 45 -31 36 33 44 53 -36 48 47 39 -40 -41 41 -43 -44 -45 -46 46 -48 -49 49 -51 -52 -53 -54 -55 56 57 -58 -59 -60 -61
leaf_value=0.0090508233452816899 0.39518637675939594 0.12708784963590089 -0.11408763750900724 0.12109326894249073 -0.058371774162382144 0.17933134781452947 0.16515367123357214 -0.079001051601103781 0.026957048913156263 -0.037865281090420748 0.42551341886732125 0.11996375937564377 0.098990125951382152 0.14285322371078887 0.11490349988148099 0.12174425685442528 0.16703343055628711 -0.1343625891968426 0.045547146946827106 0.19149768401739356 0.23819453147316805 0.37096333528468645 -0.10733327968669573 0.2339368907474495 -0.10132669597786832 0.31426968740434552 0.18475481458169743 -0.10791578135387669 0.34993393664209277 -0.024842942873741697 0.3189188706955674 0.35449886695471944 0.15683656799648524 -0.12711508967426477 0.074323351474580912 0.51178983108999054 -0.11515235050271495 -0.12614430464758306 -0.13055160190677098 0.292905354855307 -0.031117101157823557 0.66203430400943164 -0.11858231177768903 0.0016388210372241863 -0.1361291485924237 0.32520929188899544 -0.12846301028006413 0.00083857371119053659 0.078521512169847568 0.23281914413327984 0.18570068995382966 -0.13182981781899539 0.40976393718496962 -0.11022127832294633 -0.12139927693452626 -0.12886809114342909 -0.13608277971289315 -0.12297253366773608 -0.10593103873757577 -0.11393763220633105
leaf_weight=1042.4320116639137 5.7478435039520255 103.59936995431781 1.8112170621752728 7141.4473986104131 318.37848572805524 33439.708558790386 18087.68134252727 376.73281723633409 2505.3518873602152 381.11738632619381 21.9502311386168 9252.366637557745 1638.8328712359071 56.057991836220026 2622.413890471682 1879.4869122877717 5166.9868475291878 61.498022451996803 69.009971484541893 202.79213101789355 364.48605753853917 41.490448761731386 275.63584600389004 252.57586394622922 620.43399897962809 316.36841569840908 84.533747661858797 1.5792823694646356 25.346833620220423 507.96841739863157 6.7861656397581127 31.131792664527893 134.92032397538424 21.607533447444442 153.20287495478988 9.5396785736083967 240.66918768361211 14.169480785727499 59.748323455452919 49.522253841161728 219.65839105471969 7.8517445512115946 370.39743424020708 19.147905910387635 19.519970273599029 13.145183106884362 10.563590496778486 93.046155601739883 27.65125765837729 545.11885618045926 9.5614180937409383 168.02453352510929 22.418908337131143 3.948230141773819 6.0692796893417817 21.53470990806818 2.8277213349938393 13.758515384048222 3.1072239615023136 3.3452621437609187
leaf_count=9435 2 309 17 28280 4698 61886 42351 2922 10912 1951 16 38364 7303 248 10553 4897 14638 381 298 342 1247 27 7103 1235 3858 352 199 36 33 3403 18 24 142 134 1333 2 1598 88 381 57 1321 58 3196 100 209 29 70 429 161 396 25 1116 8 52 54 136 18 95 63 35
internal_value=0 0.14778 0.0723078 0.150128 0.122593 0.156809 0.138372 0.160172 0.0966453 0.17069 0.0890881 0.132014 0.175578 0.109001 0.126181 0.0948355 0.136831 -0.0193551 0.145513 0.115673 0.129948 0.026197 0.00965459 0.0529122 -0.0686437 0.266149 0.0200808 -0.0245796 0.142852 0.00506089 -0.0203377 -0.0521013 0.172993 0.103985 -0.015263 0.22195 -0.0676901 0.0720106 0.0017946 0.19968 -0.07171 -0.00719532 -0.110731 0.22012 0.119808 0.293448 0.123073 -0.0828119 0.230062 0.22537 0.241002 -0.116611 0.378015 -0.124505 -0.119967 -0.124787 -0.126066 -0.12657 -0.108935 -0.112006
internal_weight=0 83860.3 2530.72 81329.6 15879.3 65450.4 28111.2 18464.4 9646.8 37339.1 5307.47 14890.9 35078.5 4516.29 3986.73 2260.6 14419.4 988.324 3372.28 264.29 2986.9 1934.6 1738.67 1295.01 724.033 385.378 614.452 791.183 111.692 592.502 529.561 679.491 195.931 75.8355 471.581 596.125 350.063 179.498 115.806 63.6917 603.655 227.51 376.145 50.2797 154.44 71.4745 23.7088 333.715 582.31 572.77 16.3476 443.66 47.7657 25.5558 13.8154 40.2178 8.897 35.2932 4.91844 4.92454
internal_count=268644 244403 19978 224425 63923 160502 84465 45273 39192 76037 24241 59033 69189 18912 16068 6848 53002 4890 12450 723 11800 19267 18889 10670 4167 650 3618 5329 442 3602 2844 4887 378 310 6031 711 2070 774 629 145 4577 1379 3198 124 351 140 99 2027 559 557 43 8219 41 186 152 302 72 231 80 71
is_linear=0
shrinkage=0.1


Tree=5
num_leaves=63
num_cat=0
split_feature=31 107 114 59 136 76 115 90 135 75 54 117 108 108 74 73 43 74 32 65 128 101 129 29 70 105 53 37 15 29 101 59 30 107 55 105 30 130 48 106 61 36 23 55 50 99 76 128 109 113 54 32 82 57 72 16 109 76 62 108 55 54
split_gain=1289.01 1268.07 1291.12 1047.88 1049.09 1028.98 2350.07 1269.85 1026.87 964.746 829.763 743.66 710.275 497.422 642.69 495.755 495.17 452.015 482.021 394.522 396.958 381.813 344.707 332.015 240.234 211.953 211.508 265.223 301.063 208.236 274.812 185.777 179.022 257.126 171.56 175.52 154.913 146.958 129.352 128.801 122.609 118.056 103.555 102.833 445.94 101.555 96.5452 79.0501 68.9998 60.538 40.4131 25.6401 56.6397 27.8865 22.9076 6.62253 2.32598 1.43334 0.160481 0.0793118 0.0193065 0.0041333
threshold=1.0064253211021426 -0.98393404483795155 -0.86257839202880848 0.72149410843849193 1.0000000180025095e-35 -1.1629341244697569 -0.9839966595172881 -1.1184152364730833 1.0000000180025095e-35 -1.0606239438056944 0.98299789428710949 -1.0268581509590147 -0.92020103335380543 -1.0584022402763364 -0.85443890094757069 -0.34108020365238184 1.0054492354393008 -1.0357002615928648 0.96196112036705028 0.18561589717864993 1.0000000180025095e-35 -0.90648871660232533 1.0000000180025095e-35 1.1742876768112185 -0.2451936528086662 -0.92457041144371022 1.0404803752899172 0.94827526807785045 0.95523518323898327 1.1770921945571902 -0.8911907672882079 0.73773023486137401 1.0534430742263796 -0.81357464194297779 0.94112813472747814 -0.82851192355155934 1.0590581297874453 1.0000000180025095e-35 1.0616379380226137 -0.94853734970092762 0.58769086003303539 0.90352323651313793 1.4246255755424502 1.0062249898910525 1.1118335127830508 -0.99023574590682972 -0.91287949681282032 1.0000000180025095e-35 -1.043105900287628 -0.85517364740371693 1.1263994574546816 0.90253189206123363 -0.67884805798530568 1.0017698407173159 -0.57341393828392018 1.1878725290298464 -0.80963853001594532 -1.17969274520874 0.57464668154716503 -0.88772517442703236 0.90837976336479198 0.94750794768333446
decision_type=2 2 2 2 2 2 2 2 2 2 2 2 2 2 2 2 2 2 2 2 2 2 2 2 2 2 2 2 2 2 2 2 2 2 2 2 2 2 2 2 2 2 2 2 2 2 2 2 2 2 2 2 2 2 2 2 2 2 2 2 2 2
left_child=1 8 5 22 12 6 21 11 13 -9 -8 -7 19 15 48 41 -16 37 -19 -5 -21 -3 25 59 39 29 31 28 -28 30 -2 40 43 49 35 -27 -35 -14 -36 46 -6 -1 55 56 -45 -44 -10 -31 -15 -34 -17 52 -26 -53 -29 -25 -4 -33 -41 60 -24 -61
right_child=3 2 32 4 26 7 10 9 24 -11 -12 -13 17 14 16 50 -18 18 -20 20 -22 -23 23 42 51 34 27 54 -30 47 -32 57 33 36 38 -37 -38 -39 -40 58 -42 -43 45 44 -46 -47 -48 -49 -50 -51 -52 53 -54 -55 -56 -57 -58 -59 -60 61 -62 -63
leaf_value=-0.01201798962528689 0.22109373633255913 0.21933115613143872 -0.12956774974075763 0.33909977642883482 -0.1205774546604429 0.066630076519135065 0.073583755937329506 0.077344250593078395 -0.018574032284925136 0.1325992684142773 0.12777553151121832 0.16720958968619898 -0.11750752167571479 -0.11903926758555852 0.16116734220117107 -0.0012354512572180544 0.066050687483980616 0.16066681586457715 0.093036479291898788 -0.013457319844804479 0.21227600845308259 -0.0674440029864046 -0.11665796972123786 0.25621746459453498 0.20877444540613302 -0.10519010506183922 0.27179994479210889 -0.12485082203905454 0.027162203897260307 -0.098482133691764201 -0.12022155142098895 -0.11505092496644323 0.12848045413330156 0.11286130606024905 0.15446705389613233 0.4973459243005115 0.49684316051477118 0.072652831854258998 -0.1299643466131136 -0.10980608693593324 0.25643994628719519 -0.10026316612102193 0.24614285170786207 0.80929850653678292 -0.12248057253987871 -0.12542531874448201 0.14551535106528563 0.1118153348330959 -0.023731209988346099 -0.11797483678810768 0.16304994132897552 0.20304276730822046 -0.13091199223797939 0.28851388697865826 -0.024882614414165886 0.318305292625086 -0.10659648151018974 -0.13235521435043116 -0.12728723651259186 -0.11542547546002742 -0.12488906522231671 -0.10880730259635595
leaf_weight=302.01982693374157 87.389593251049519 49.241186067461967 56.485014924779534 38.614488035440445 13.687131870537995 775.18501894176006 3459.969799336046 3410.7606919724494 44.08573155850172 42957.395064309239 15406.791113389656 14221.304605124518 93.149939797818661 129.42063073813915 701.88715932145715 16.820123896002769 2485.3748513460159 2664.7514357455075 1743.3053117990494 698.80750496312976 87.677076827734709 812.27572569437325 3.1489045172929755 30.419862285256386 15.31265537440777 470.51969840377569 59.314015299081802 98.174777656793594 331.20073522999883 94.651535799726844 32.311983872205019 74.71828343719244 12.163159206509588 36.282485753297806 50.646619215607643 4.8847863972187033 14.789437938481568 72.093461014330387 23.365017350763083 7.4214800838381079 23.326298631727695 304.39876523055136 15.322810158133509 6.6071028821170357 23.073143608868122 14.146829698234795 192.09513395652175 22.035914734005928 183.89234209805727 55.191902246326208 136.39072215184569 612.51871577650309 7.2246366068720809 40.709971636533737 29.904374659061432 39.470226943492889 200.70352495834231 133.20241612568498 17.960630550980568 1.271531919017433 29.983336180448532 3.6598197370767593
leaf_count=3892 301 68 648 35 128 2195 17042 10870 213 96917 43109 25381 1167 1138 3223 145 11734 7762 6096 4024 255 4247 37 31 4 3994 70 638 1310 723 273 799 134 247 139 3 47 149 155 118 56 7588 32 42 325 99 774 48 1463 860 131 318 76 12 154 18 6034 769 112 17 194 61
internal_value=0 0.126385 0.129439 0.0820225 0.0969085 0.130329 0.110462 0.136716 0.0784943 0.128535 0.117837 0.162011 0.112426 0.0576451 0.0735627 -0.0157076 0.0869969 0.127833 0.13392 0.0270293 0.0117074 -0.051053 -0.0173314 0.128785 0.173255 -0.0428844 -0.0128072 0.0233639 0.0643194 0.0362926 0.12896 -0.0893914 -0.0486001 0.0548388 -0.0769507 -0.098999 0.224055 -0.0345431 0.0646738 0.0918817 0.117023 -0.0563137 0.22499 -0.0913024 0.0849422 0.0677724 0.114886 -0.0587684 -0.0631002 -0.0734693 0.145014 0.204751 0.0998833 0.208369 -0.10151 0.291281 -0.111642 -0.126137 -0.122176 -0.122346 -0.124107 -0.110514
internal_weight=0 86695.8 81498.2 7085.16 6161.93 81092.9 19728.3 61364.6 5197.53 46368.2 18866.8 14996.5 5398.4 4260.2 3500.57 759.629 3187.26 4573.3 4408.06 825.099 786.485 861.517 923.228 137.423 937.329 785.805 763.528 518.594 390.515 236.389 119.702 244.934 405.296 118.427 549.416 475.404 51.0719 165.243 74.0116 261.563 37.0134 606.419 99.3597 286.869 29.6802 29.4696 236.181 116.687 313.313 67.3551 153.211 675.766 22.5373 653.229 128.079 69.8901 257.189 207.921 25.3821 38.0636 33.1322 4.93135
internal_count=268644 239107 208166 29537 23412 199829 64466 135363 30941 107787 60151 27576 19488 29314 17558 11756 14957 15174 13858 4314 4279 4315 6125 489 1627 5636 3924 2172 1380 1345 574 1752 8337 1288 4291 3997 294 1316 294 1217 184 11480 180 7049 367 131 987 771 2601 994 276 410 80 330 792 49 6682 1568 230 309 231 78
is_linear=0
shrinkage=0.1


Tree=6
num_leaves=61
num_cat=0
split_feature=62 41 41 53 42 134 53 41 114 105 70 130 71 53 32 49 53 62 73 68 33 40 13 100 126 49 30 109 53 32 40 37 21 26 33 105 79 51 1 123 97 73 43 41 33 70 108 70 130 35 2 75 36 32 97 12 65 31 25 34
split_gain=1046.29 2784.78 2552.79 1918.46 1810.82 4986.95 1933.86 1648.64 1567.44 1366.93 1323.8 1180.03 982.201 911.514 2456.67 1058.97 1050 891.537 818.106 775.999 762.055 580.578 541.936 537.943 500.751 852.578 641.902 507.363 494.293 477.222 440.383 426.24 404.56 403.01 362.095 351.346 344.086 349.839 302.144 293.084 267.265 248.896 248.818 226.095 252.282 215.633 213.15 197.718 195.185 207.349 179.671 179.096 115.201 114.076 76.5892 72.0482 58.2403 48.9886 1.89306 1.12
threshold=0.53323528170585643 0.97698676586151134 0.98946362733840953 1.0381948947906496 1.0377647876739504 1.0000000180025095e-35 1.0515560507774355 1.0276485681533816 -0.90805360674858082 -0.84677588939666737 -0.33183859288692469 1.0000000180025095e-35 -0.48957586288452143 1.00028932094574 0.91156005859375011 1.0874841213226321 0.95001745223999035 0.55022495985031139 -0.81278505921363819 -0.090753450989723192 0.89182615280151378 0.9751071333885194 0.87614086270332348 -0.86393943428993214 -2.1056805849075313 1.0853976607322695 1.0682072043418886 -0.91487085819244374 1.0190750360488894 0.95372116565704357 0.97290036082267772 0.9201287329196931 1.3967438936233523 1.324353098869324 0.89960202574729931 -0.85224834084510792 -0.72982501983642567 1.0564557909965517 0.58094581961631786 -1.2803769707679746 -0.68380954861640919 -0.80936750769615162 1.0309442281723025 1.005580008029938 0.91250529885292064 -0.29348187148571009 -1.0584022402763364 -0.35842077434062952 1.0000000180025095e-35 0.88239026069641124 0.50319027900695812 -1.1456460952758787 0.8939839005470277 0.94886615872383129 -0.7948695421218871 0.8752107322216035 0.25520716607570654 0.9979238510131837 1.2480403780937197 0.89473080635070812
decision_type=2 2 2 2 2 2 2 2 2 2 2 2 2 2 2 2 2 2 2 2 2 2 2 2 2 2 2 2 2 2 2 2 2 2 2 2 2 2 2 2 2 2 2 2 2 2 2 2 2 2 2 2 2 2 2 2 2 2 2 2
left_child=1 8 12 9 10 6 -6 -7 13 17 23 24 33 14 16 19 -1 30 -12 -15 -16 22 -11 -5 25 46 45 -28 52 36 -4 -19 -17 35 -23 40 37 -14 39 -31 -2 43 -37 44 -13 -26 -3 55 49 -30 53 -50 57 -43 -27 -35 -49 -10 -38 -52
right_child=2 11 3 4 5 7 -8 -9 28 21 18 41 29 15 20 32 -18 31 -20 -21 -22 34 -24 -25 26 54 27 -29 48 38 -32 -33 -34 47 -36 42 58 -39 -40 -41 -42 50 -44 -45 -46 -47 -48 56 51 -51 59 -53 -54 -55 -56 -57 -58 -59 -60 -61
leaf_value=0.09215462300402881 0.16949444511970801 -0.041225827912466692 0.11501336176787202 0.09114892719788685 0.0044466268740393309 0.068867403825581402 0.1151703188289553 -0.088270003459313018 -0.063737178650692727 0.22362542591570353 0.11529700759012691 0.13524348538229986 0.095870958693398622 0.11566376662863645 0.045185456900238119 0.064593295193665634 0.15825927955281435 0.2098958246066904 0.18146735926013369 0.17658880182571843 -0.071487105282826632 0.287450543262532 -0.0060411375596987876 -0.061597924760993905 -0.10813491485088056 0.18491433930532139 -0.043448850133204882 0.10034893086343682 -0.11569988216475979 0.16124917503102765 -0.041517803411945262 0.07522694390497732 -0.094536474972576834 -0.15257822597466111 -0.077935027985587324 0.022349733046967087 -0.22065034435488592 0.234633706446149 0.69897169638988943 -0.070184433221200368 -0.16450164309893289 0.10284982804094112 0.14441463853247366 0.46149154710146645 -0.096335579362583634 0.15912227439938612 0.20528395722076806 0.26873113595910597 0.18068466764060082 0.61722110796079432 -0.17654508689434498 -0.14655318918632418 0.334521370387313 -0.15086189258320309 -0.11025764971984726 0.035655683104494636 0.024474340452456708 -0.12322239094688457 -0.13452001396784236 -0.14283778178575815
leaf_weight=6233.6544205658138 1576.3222003243864 40.626788502559066 282.70519462786615 817.53118020668626 1634.3587648104876 1103.5186436995864 45269.17363457568 1690.5211955886334 297.43167249299586 143.50887691602111 2623.1868485920131 699.76018853113055 194.01139492541552 4849.2173944413662 3543.0536475721747 697.68883713334799 3909.9963346235454 615.43718410283327 6494.1013143062592 3674.9280580040067 664.87434347905219 27.78607751429081 361.68816891685128 321.13085485994816 1065.3507648222148 9.221389487385748 679.4365023355931 384.06341584399343 56.512853194028139 115.10342669487 493.45265374705195 380.23500597476959 207.21461678855121 78.584181448444724 1134.6454269010574 364.39784804172814 2.8791612088680294 2860.0265480782837 7.445615902543067 104.30487287789583 24.328215561807156 103.57812368124723 308.26203482970595 19.863468896597624 50.432671021670103 31.069950621575117 256.75454349070787 21.619784191250801 148.29952865839005 4.1429747603833667 34.942934229969978 18.850643955171108 6.4228879213333121 21.380071051418781 188.15998709015548 27.432614304125309 17.798022374510765 259.0019221547991 22.445490106940269 13.73125885799527
leaf_count=25908 2393 379 765 2399 7726 3685 97980 10838 6766 101 6934 823 620 10926 15662 1808 9094 967 8985 7577 4140 27 1694 1519 6494 19 3465 1379 747 174 2976 1974 890 385 7056 1842 15 3095 4 705 115 176 607 22 299 98 554 9 234 8 156 100 3 106 1470 58 57 3428 125 83
internal_value=0 0.0902194 0.113084 0.107309 0.111476 0.103581 0.111312 -0.0262079 0.102252 0.0346785 0.149733 0.00805845 0.177035 0.106857 0.0909877 0.131011 0.117635 0.0958384 0.162429 0.14193 0.0267506 -0.0303031 0.0591991 0.0480705 -0.0260846 0.0646609 -0.0468712 0.00848107 -0.0362636 0.212463 0.0154966 0.158467 0.028154 0.128608 -0.0692011 0.138933 0.222775 0.225819 0.0724873 0.0512276 0.164418 0.104106 0.0782888 0.128492 0.119675 -0.100561 0.171607 -0.0327749 0.0880198 -0.0656392 -0.00404758 0.14378 -0.086565 0.0594403 -0.0964676 -0.103871 0.158444 -0.0914256 -0.144312 -0.167036
internal_weight=0 28169.7 69117.9 63393 59953.5 49697.6 46903.5 2794.04 24571.3 3439.46 10256 3598.37 5724.96 23780.6 14351.6 9429.05 10143.7 1771.83 9117.29 8524.15 4207.93 1667.63 505.197 1138.66 2654.68 494.763 2159.92 1063.5 790.662 3306.22 776.158 995.672 904.903 2418.74 1162.43 2273.31 3079.36 3054.04 226.854 219.408 1600.65 943.689 672.66 770.056 750.193 1096.42 297.381 145.435 227.806 60.6558 173.632 167.15 562.856 124.958 197.381 106.017 39.4178 556.434 25.3247 48.6742
internal_count=268644 102814 165830 155626 140066 120229 105706 14523 87291 15560 19837 15523 10204 76005 54804 21201 35002 6682 15919 18503 19802 8878 1795 3918 13858 2422 11436 4844 11286 4738 3741 2941 2698 5466 7083 4957 3855 3715 883 879 2508 1665 2449 1144 1122 6592 933 509 1089 755 521 334 10197 282 1489 443 66 10194 140 239
is_linear=0
shrinkage=0.1


Tree=7
num_leaves=51
num_cat=0
split_feature=92 2 107 76 117 109 75 32 123 135 136 31 108 70 106 72 106 104 39 53 95 69 48 105 61 131 28 108 121 110 51 29 122 122 110 75 130 57 107 120 87 41 114 35 74 108 108 108 110 2
split_gain=961.425 919.063 910.033 1029.98 1624.88 1387.28 2443.17 961.826 855.705 854.704 672.364 389.697 508.296 199.766 172.099 150.769 144.032 107.589 56.575 119.052 134.032 56.4569 47.5467 37.3488 263.525 34.0283 103.463 27.7583 16.4381 11.476 5.89379 3.6587 7.0257 2.3272 7.62785 1.65956 4.90022 0.322094 0.264989 0.260747 0.206836 0.20518 0.111102 0.0479005 0.0218216 0.00285055 0.00220514 0.00111373 5.12743e-05 1.86402e-06
threshold=-0.21268082410097119 0.72453403472900402 -0.98393404483795155 -1.1563496589660642 -1.0066717267036436 -0.92927205562591542 -0.96038928627967823 0.96700650453567516 -1.3003202080726621 1.0000000180025095e-35 1.0000000180025095e-35 0.99398487806320202 -1.053478419780731 -0.2451936528086662 -0.96975228190422047 -0.52380961179733265 -0.9717118740081786 -0.9325573444366454 1.0177800655364992 1.1486573815345766 -0.22861248254775998 0.086423430591821684 1.0163069367408755 -0.7660863697528838 0.80308508872985851 1.0000000180025095e-35 1.3920668959617617 -1.0706622600555418 -1.8662654757499693 -1.177834093570709 1.2318465709686282 0.84551119804382335 -2.0653178691864009 -2.0653178691864009 -1.177834093570709 -1.1389821171760557 1.0000000180025095e-35 1.0017698407173159 -0.93309438228607167 -1.7205251455307005 -1.0593553185462949 1.0906419157981875 -0.91475594043731678 0.85482147336006176 -1.0426195263862608 -1.0460938811302183 -1.0474635958671568 -1.0474635958671568 -1.177834093570709 -0.24433623254299161
decision_type=2 2 2 2 2 2 2 2 2 2 2 2 2 2 2 2 2 2 2 2 2 2 2 2 2 2 2 2 2 2 2 2 2 2 2 2 2 2 2 2 2 2 2 2 2 2 2 2 2 2
left_child=1 2 9 4 8 6 -5 -7 -4 11 -6 12 -1 17 16 -13 22 -11 19 23 21 -21 40 24 41 35 42 -15 33 47 39 38 -33 45 46 44 -37 -31 -25 -22 -3 -2 -27 -39 -16 -20 -35 -30 -47 -49
right_child=18 14 3 5 10 7 -8 -9 -10 13 -12 15 -14 27 25 -17 -18 -19 28 20 30 -23 -24 31 -26 26 -28 -29 29 37 -32 32 -34 34 -36 36 -38 43 -40 -41 -42 -43 -44 -45 -46 48 -48 49 -50 -51
leaf_value=-0.0095464644296550296 -0.13261090001533835 -0.1529679562171864 0.037554294693114401 0.05267738577630568 0.095426268673217407 0.12160909896766839 0.11100410498739806 0.055212342684094397 -0.096670188173133012 0.1617784352682701 0.049609232580150056 -0.067458127062203679 0.068142010555773416 0.068507904942572459 -0.10223052317214153 0.16603788913938791 0.82157752732189948 0.032559822568851614 -0.10639648378444561 0.05826498836033539 -0.11067535700317802 0.30696794099062669 0.25778280720896707 -0.11973879596633477 0.8828081827194858 -0.12436320353105464 0.36245168109297848 0.1731606262994525 -0.10719156606312473 -0.25243193578135192 -0.24662111172818457 -0.11806059852518469 -0.22263002509424346 -0.10672530102327915 -0.28395228819108248 -0.11650615754314637 -0.17502838209073279 -0.27086026849916645 -0.10793396862103295 -0.15089666782666622 -0.10769089201503881 -0.11013570005125387 -0.10189778315250984 -0.28395228819108231 -0.11032954096934532 -0.11037081233997947 -0.11012983296083736 -0.11040373562691636 -0.11069529977732938 -0.11026923457244292
leaf_weight=1163.7620358224958 10.954349309206014 1.254130199551583 2294.6861660573632 11923.171094046906 22111.649154767394 32493.989562066272 18058.537532668561 2338.7700672782958 598.93391221389174 92.642756510525942 3745.5005016624928 414.01035677827895 3047.703997798264 26.350872837007046 58.876494280993938 29.633078074082732 3.2585239671170703 211.61695999652147 1.732269912958144 18.939118273556232 13.681638665497303 17.618817076086998 7.2038259506225586 22.968440070748329 3.054105967283248 2.5014511700719657 6.139859825372695 663.93286656588316 1.5021500587463377 6.9494650214910534 4.3934142962098113 22.568704098463058 8.9822833836078662 3.3404129017144442 3.6503493785858137 163.69644467160106 15.678193805739282 4.2993241250514966 110.49097829312086 1.8270198702812201 5.1609097458422193 6.4556275159120551 18.34991510771215 7.9851392656564713 3.5259939655661574 6.894115291535857 4.4196125417947769 2.645960614085197 16.583962589502338 1.687547631561759
leaf_count=13759 72 7 6490 42208 65454 53019 35390 6440 3563 138 14901 3644 12296 132 2986 75 12 1181 33 37 157 8 1 233 6 20 8 278 24 33 20 221 45 59 16 2002 74 20 1923 11 84 78 1032 35 44 81 53 31 190 20
internal_value=0 0.0937209 0.0942366 0.09659 0.0808368 0.103578 0.0878086 0.117151 0.00977193 0.0552616 0.0887895 0.0372835 0.0466742 0.139411 -0.0853951 -0.0518618 0.224355 0.0719051 -0.0844967 -0.0626994 0.0644435 0.178125 0.0814604 -0.101403 0.0260226 -0.104846 0.00164862 0.169166 -0.169981 -0.23237 -0.144378 -0.117206 -0.147831 -0.127271 -0.164742 -0.116735 -0.121621 -0.269637 -0.109966 -0.115414 -0.116542 -0.124277 -0.104593 -0.27937 -0.102688 -0.110311 -0.108664 -0.109538 -0.1106 -0.110351
internal_weight=0 99500.5 99214.9 93565.2 28750.8 64814.5 29981.7 34832.8 2893.62 5649.65 25857.1 4655.11 4211.47 994.543 285.646 443.643 16.8774 304.26 303.625 241.934 56.46 36.5579 13.6189 185.474 20.4641 268.768 26.9912 690.284 61.6903 25.0696 19.9021 165.01 31.551 36.6207 11.4104 241.777 179.375 19.2339 133.459 15.5087 6.41504 17.41 20.8514 12.2845 62.4025 25.2103 7.76003 5.83566 23.4781 4.33351
internal_count=268644 265238 258968 227465 90408 137057 77598 59459 10053 31503 80355 29774 26055 1729 6270 3719 104 1319 3406 2811 233 45 92 2578 156 6166 1060 410 595 163 188 2422 266 432 128 5106 2076 88 2156 168 91 150 1052 55 3030 304 112 75 271 51
is_linear=0
shrinkage=0.1


Tree=8
num_leaves=53
num_cat=0
split_feature=115 63 41 41 54 42 134 41 73 51 114 130 70 66 102 41 62 105 71 68 52 10 42 36 52 2 44 41 107 26 120 76 73 33 52 111 105 112 110 110 126 109 69 67 33 107 79 41 105 108 85 87
split_gain=870.482 924.338 1964.29 1902.12 1774.62 1707.01 4131.87 1480.07 1425.29 1228.86 1052.76 841.755 804.124 793.084 1338.95 724.042 707.476 633.158 564.405 412.007 382.099 473.764 373.137 410.498 326.194 296.323 274.031 253.271 247.193 222.428 200.057 168.845 123.315 96.533 22.1721 15.0551 14.643 31.7072 9.96749 6.77105 4.18494 2.91876 1.52161 1.40022 1.38288 0.775995 0.263545 0.0462199 0.0424128 0.00183397 0.00077408 0.00025245
threshold=-1.4581089019775388 0.4470020085573197 0.96787372231483471 0.98859241604805004 1.0187541246414187 1.0440889596939089 1.0000000180025095e-35 1.0000898838043215 -0.68479251861572255 1.0722389817237856 -0.90805360674858082 1.0000000180025095e-35 -0.3401829302310943 0.12328458204865457 -0.91611880064010609 0.98157691955566417 0.50826337933540355 -0.85819309949874867 -0.49892137944698328 0.21537840366363528 1.0392336845397951 0.71024435758590709 0.99388310313224804 0.87344542145729076 1.0339629054069521 0.2612628042697907 1.0332182049751284 1.0952722430229189 -0.90888464450836171 1.3327562808990481 -1.419540226459503 -1.2450509071350095 -0.34108020365238184 0.91954231262207042 1.161097049713135 -1.2396164536476133 -0.78405350446701039 -1.3025551438331602 -1.177834093570709 -1.177834093570709 -3.0311866998672481 -1.1223446130752561 0.063527405261993422 0.31737799942493444 0.89730831980705272 -0.9495759606361388 -0.50149023532867421 1.0906419157981875 -0.80214187502861012 -1.0474635958671568 -0.1773971691727638 -0.16999099403619763
decision_type=2 2 2 2 2 2 2 2 2 2 2 2 2 2 2 2 2 2 2 2 2 2 2 2 2 2 2 2 2 2 2 2 2 2 2 2 2 2 2 2 2 2 2 2 2 2 2 2 2 2 2 2
left_child=19 2 10 18 7 12 -7 9 -9 -5 13 15 -6 14 -2 16 -4 -15 22 35 21 -20 29 -24 33 -22 44 32 -28 -3 -17 -26 -21 -12 47 36 38 45 41 49 -41 -1 46 -40 -13 -38 -37 -34 -48 51 -51 -29
right_child=1 3 11 4 5 6 -8 8 -10 -11 24 26 -14 17 -16 30 -18 -19 20 27 25 -23 23 -25 31 -27 28 39 -30 -31 -32 -33 34 -35 -36 42 37 -39 43 40 -42 -43 -44 -45 -46 -47 48 -49 -50 50 -52 -53
leaf_value=-0.10584027201224298 0.10352934110273769 0.15174754774615981 -0.043239628582803558 0.010525277919991723 0.0097168747703600365 0.088634814048406868 -0.055227349395069472 -0.013272330362781172 0.11968433237694534 0.13584440129046954 -0.10221145969526513 -0.19965035477994164 0.13292285183111971 0.13965122431999813 0.049812955383438724 0.041477646122465447 0.067631749505546582 0.042481728017454007 0.2147638350262672 0.37090832764593701 -0.0031960951219132563 -0.00037593667764993644 -0.1364337008966818 0.071701148583105917 0.1768738946437326 0.17496453743327986 -0.073315403800070456 -0.10791234700654243 0.09947706779010547 -0.10174760149772089 -0.072634094199678062 -0.016334828458247026 -0.12731712244369284 0.27031407930894652 0.13929852771170848 -0.16854068286394014 -0.11207337424161481 0.1449826217126155 -0.17608345064204126 -0.14772070125700154 -0.29430120268574117 -0.1280114997222653 -0.25297189181890084 -0.24086267236448611 -0.14857983481908527 -0.1819621975465473 -0.20289117958909189 -0.11039043795094763 -0.19017491857825458 -0.11145566064427287 -0.10924270314899126 -0.10609684004683671
leaf_weight=152.11507735587656 8631.8395718298852 749.4002983327955 930.78391544148326 1181.0281645413488 558.96923825144768 44272.994235059246 2090.7051915153861 4529.3376828413457 980.87925877422094 2318.6419039368629 425.35902900341898 6.0724436417222014 10129.033556140959 3621.1317907609046 10035.017763452604 171.63616939634085 1507.9613045137376 822.98812136612833 156.22351457551122 35.44071601331234 95.644415840506554 296.86110603809357 110.06387386098504 681.46425941772759 75.875247118994594 3901.7915136069059 88.49162483215332 1.5549206379801037 1285.3498273603618 36.290022686123848 1464.9468977600336 111.99153614789248 3.043273810297249 7.0717134475707999 6.897810772061348 4.8263889998197564 11.067038144916296 6.775189481675624 12.778353273868563 3.408267080783844 4.5453621372580519 97.394548401236534 4.6904943510889998 4.51599346846342 41.791518066078424 1.8549957200884826 5.4488836973905563 3.432923499494791 5.0572385415434837 2.2887818403542051 5.1090244576334953 1.5094140395522124
leaf_count=3991 23595 916 4408 4757 2019 89509 11863 20158 4094 4120 9248 27 15809 6800 36331 939 4999 2938 146 10 289 1244 500 1974 390 4689 348 24 1867 133 8232 670 23 1 2 21 138 2 56 31 21 762 26 21 286 13 22 41 21 25 66 29
internal_value=0 0.082764 0.0677635 0.0888459 0.0839393 0.0904526 0.0821476 0.042696 0.0103954 0.0935532 0.0802404 0.0138996 0.126479 0.083691 0.0746522 -0.00921318 0.025316 0.121657 0.142621 -0.0701284 0.160837 0.0738042 0.0912192 0.0427595 -0.048322 0.170702 0.0801525 0.154057 0.0883472 0.140039 -0.0606667 0.0616979 0.273272 -0.0961194 0.0145381 -0.1193 -0.113441 -0.0302365 -0.119583 -0.161945 -0.231489 -0.114495 -0.203131 -0.192999 -0.155059 -0.122106 -0.187884 -0.118345 -0.19677 -0.109075 -0.109927 -0.107018
internal_weight=0 101318 29228.3 72089.3 66061.6 57051.7 46363.7 9009.89 5510.22 3499.67 23731.3 5497.03 10688 23111 18666.9 4075.33 2438.75 4444.12 6027.74 373.755 4450.52 453.085 1577.22 791.528 620.298 3997.44 1421.71 67.2305 1373.84 785.69 1636.58 187.867 48.8147 432.431 13.374 306.524 286.501 19.6972 266.804 18.4158 7.95363 249.51 20.023 17.2943 47.864 12.922 15.3325 6.4762 10.5061 10.4621 7.39781 3.06433
internal_count=268644 263299 101079 162220 152329 119200 101372 33129 24252 8877 79973 21106 17828 69664 59926 18578 9407 9738 9891 5345 6368 1390 3523 2474 10309 4978 2528 272 2215 1049 9171 1060 76 9249 66 5073 4983 153 4830 196 52 4753 90 77 313 151 64 64 43 144 91 53
is_linear=0
shrinkage=0.1


Tree=9
num_leaves=63
num_cat=0
split_feature=32 71 101 30 134 41 61 73 110 54 41 0 31 136 108 75 113 136 76 20 131 73 41 7 131 135 135 53 37 103 106 33 1 103 52 30 62 0 15 104 71 27 35 35 6 108 59 3 101 37 101 8 39 130 54 131 107 32 85 8 134 32
split_gain=760.296 1047.46 1529.62 1141.19 2943.8 1118.55 1968.61 1072.39 1054.8 1000.21 959.977 909.944 862.641 787.229 750.822 1110.55 1297.47 1061.01 897.817 700.902 932.652 1038.95 659.152 635.978 641.039 622.923 593.463 491.071 458.226 382.886 365.493 330.756 276.69 272.171 255.352 218.387 297.272 218.216 211.578 210.996 200.428 188.654 414.117 173.949 142.124 88.948 80.1307 91.899 79.4627 71.3926 69.2655 100.727 69.9097 40.502 4.22333 1.78859 4.70676 0.547174 0.532714 0.265733 0.126688 0.00404288
threshold=0.96622979640960704 -0.48667286336421961 -0.86237841844558705 1.0546202659606936 1.0000000180025095e-35 1.0276485681533816 0.66087183356285106 -0.78258696198463429 -1.1733738780021665 0.98804625868797313 0.98157691955566417 0.32684610784053808 1.0056509375572207 1.0000000180025095e-35 -0.91941308975219715 -1.0872071981430051 -0.93617019057273854 1.0000000180025095e-35 -1.1167080402374265 1.2098650932312014 1.0000000180025095e-35 -0.73125535249710072 1.0686886310577395 0.68331205844879161 1.0000000180025095e-35 1.0000000180025095e-35 1.0000000180025095e-35 1.0854505896568301 0.85395625233650219 -0.833666831254959 -0.83294898271560658 0.9480547606945039 0.39972849190235143 -0.83721229434013356 1.0358170270919802 1.0553024411201479 0.60045996308326732 0.52423024177551281 0.9257524609565736 -0.83505910634994496 -0.359172374010086 1.2263346910476687 0.91080915927886974 0.92991027235984813 0.64666917920112621 -0.86529898643493641 0.81345611810684215 0.54027003049850475 -0.85760369896888722 0.94208195805549633 -0.86155098676681507 0.70889049768447887 0.83337843418121349 1.0000000180025095e-35 1.0371908545494082 1.0000000180025095e-35 -0.87292319536209095 0.96674457192420971 -1.3081791996955869 0.62651491165161144 1.0000000180025095e-35 0.96728441119194042
decision_type=2 2 2 2 2 2 2 2 2 2 2 2 2 2 2 2 2 2 2 2 2 2 2 2 2 2 2 2 2 2 2 2 2 2 2 2 2 2 2 2 2 2 2 2 2 2 2 2 2 2 2 2 2 2 2 2 2 2 2 2 2 2
left_child=1 2 14 4 7 6 -6 13 -9 10 33 25 -13 -3 18 17 -17 -16 34 20 21 31 38 24 26 -11 -4 -24 -20 -7 40 32 -2 -5 -1 55 41 -12 -23 53 43 49 -43 -22 -33 -41 47 -32 -26 -37 51 -25 -52 -38 -48 57 61 59 -58 -21 -59 -57
right_child=19 3 23 9 5 29 -8 8 -10 11 37 12 -14 -15 15 16 -18 -19 28 35 30 22 27 50 48 -27 -28 -29 -30 -31 46 44 -34 -35 -36 36 39 -39 -40 45 -42 42 -44 -45 -46 -47 54 -49 -50 -51 52 -53 -54 -55 -56 56 58 60 -60 -61 -62 -63
leaf_value=-0.09903233358634872 0.052163947126410461 0.055800322653957526 0.043516217873940999 0.10717580885290548 -0.083113759087515171 0.20979914391448329 0.14586863876490683 0.014229894179631259 0.092565794128594989 -0.02368589311601119 -0.090869179324611152 0.13242342175164964 0.074779650402119119 -0.072265937686154566 0.067182851258443435 0.10863718685507168 -0.079123585912322381 -0.039862205839933738 0.07684724604832649 -0.15050720228333514 0.084769102567249802 0.18728147278894747 -0.050395023972856036 0.1982899711061516 -0.031353090041825259 0.20552911810063709 -0.068799688756287378 0.068972644863758578 0.011803670031564399 -0.092426330356172065 -0.22144827061155803 -0.10037530640927135 -0.041502224523406558 -0.10045952901236153 0.028353185329772348 -0.037006897662694438 -0.13282507830952678 0.31752760495454002 -0.058172433910666378 0.14199851072795439 0.23284254737470628 -0.13255140871358556 0.29040324983907184 -0.1108208839697013 0.40236516435284414 0.3929878773881032 0.1490677260865628 0.10606456575609431 -0.13265509359332645 -0.13350754410869908 0.10863003218844691 -0.14119056647991327 -0.12857622324480214 0.094198631163632141 0.17052292807968109 -0.11674578743554292 -0.20875698779781282 -0.13340666315565614 -0.17644244498575642 -0.13104535847828014 -0.11885297681974327 -0.11288593426128238
leaf_weight=540.42434335779399 563.64199012890458 6983.7069338625297 5371.1896501779556 776.70293341949582 703.71391194686294 43.18853847309947 804.87982717901468 1810.685938373208 33907.539057478309 730.29996501468122 523.66437983699143 10942.250939352438 3403.667238432914 515.41345900483429 9404.7272925646976 10654.169801868498 381.20048498921096 1027.0683013424277 3197.9278549030423 31.238184951245785 81.018496625125408 495.95026431977749 425.90390691161156 17.39489684253931 110.63587764278054 141.54166986420751 515.60851727426052 1806.3783203139901 1637.8181065954268 1425.6742751710117 10.532456517219542 513.61036773398519 716.00024484097958 68.715840972959995 222.00547626614571 123.05952904373407 33.259037137031555 13.418678343296049 37.794260300695896 84.269234165549278 36.028700329363346 49.739992184564471 43.302090579643846 103.63317248225212 5.6853845864534369 16.961723670363426 104.35144500434399 45.923008054494858 258.01776335760951 203.34533717483282 12.897962969727812 17.566170919686556 338.59143094532192 10.28962506353855 759.53062438964844 3.6259736269712439 6.9742752164602306 110.21341318637133 18.998238205909729 9.0478564575314504 6.324459593743085 10.784754879772661
leaf_count=3216 1526 18405 14753 1901 3515 88 1057 14800 58019 2940 3193 15565 9169 2437 35642 16906 2932 7140 13445 148 110 628 1504 26 534 452 2379 3355 6367 9702 43 2467 3122 324 729 620 203 14 167 206 30 360 168 563 2 5 44 40 2718 1467 63 113 2159 14 159 30 28 637 80 57 49 109
internal_value=0 0.075199 0.0609789 0.0828321 0.0747508 -0.0214245 0.0390552 0.0813768 0.0885947 0.10532 0.0238817 0.112719 0.118747 0.0469983 0.0715318 0.0800372 0.102151 0.0566437 0.0389161 0.039782 0.0518078 0.0315952 0.0700684 0.0179767 0.0256679 0.0135267 0.0336788 0.0461981 0.0548176 -0.0835401 0.132674 -0.0275607 -0.000245234 0.0902992 -0.06194 -0.0503362 -0.0186747 -0.0806656 0.169901 0.104873 0.0170933 -0.0613194 0.0642931 -0.025003 -0.0948712 0.184053 0.160388 0.044963 -0.102254 -0.0971254 -0.10652 0.0277181 -0.119872 -0.0791842 0.167931 -0.140922 -0.15969 -0.13609 -0.18512 -0.146136 -0.132617 -0.113857
internal_weight=0 96502.3 33707.2 62795.1 46194.8 2977.46 1508.59 43217.3 35718.2 16600.3 1382.5 15217.8 14345.9 7499.12 27065.3 21467.2 11035.4 10431.8 5598.18 6467.42 5705.98 4564.96 2766.03 6641.9 6255.45 871.842 5886.8 2232.28 4835.75 1468.86 1141.02 1798.94 1279.64 845.419 762.43 761.434 564.227 537.083 533.745 144.78 220.68 419.447 93.0421 184.652 519.296 101.231 920.338 56.4555 368.654 326.405 386.45 34.9611 351.489 43.5487 863.882 197.207 40.3832 156.824 25.9725 40.286 116.538 14.4107
internal_count=268644 250703 109122 141581 108023 14362 4572 93661 72819 33558 5432 28126 24734 20842 86377 62620 19838 42782 23757 17941 13760 12771 5654 22745 20384 3392 17132 4859 19812 9790 989 7117 4648 2225 3945 4181 3043 3207 795 428 703 2615 528 673 2469 211 286 83 3252 2087 2361 139 2222 217 203 1138 247 891 108 205 686 139
is_linear=0
shrinkage=0.1


Tree=10
num_leaves=62
num_cat=0
split_feature=107 76 111 31 89 135 82 134 5 102 29 134 77 97 70 41 132 66 53 32 106 71 31 113 75 55 110 77 30 78 52 60 117 36 29 73 28 106 112 77 74 110 41 130 31 124 40 88 112 107 103 50 103 29 106 68 107 110 35 62 110
split_gain=747.217 921.56 1337.69 880.994 811.154 705.517 691.168 728.325 626.486 1990.25 698.232 620.912 599.283 587.512 482.261 419.953 800.582 711.144 562.002 497.259 440.45 379.521 374.001 346.548 380.56 325.191 307.56 325.662 285.621 265.756 263.782 197.912 196.981 273.652 177.007 191.396 165.375 378.187 163.773 160.32 136.701 181.991 109.84 106.023 100.875 89.5754 79.8917 73.7584 48.4832 42.4602 137.28 38.1804 32.7396 31.1882 28.0415 10.9821 1.09224 0.933423 0.527344 0.510617 0.0434565
threshold=-0.97596973180770863 -1.1762463450431822 -0.91371196508407582 1.0062466263771059 -0.21391806006431577 1.0000000180025095e-35 -1.4273191690444944 1.0000000180025095e-35 0.7555203139781953 -0.94659754633903492 1.2139755487442019 1.0000000180025095e-35 -1.2453885078430174 -0.92693898081779469 -0.069822970777750001 1.0801036357879641 1.0000000180025095e-35 0.33350408077239996 1.0690283179283144 0.91969525814056408 -0.92392015457153309 -0.40224927663803095 0.80626082420349132 -0.953589767217636 -1.118005037307739 0.93374475836753856 -0.92313721776008595 -1.1923513412475584 1.0636033415794375 -1.2702901363372801 1.1052858829498293 0.79525092244148265 -1.5086378455162046 0.87822079658508312 1.1692570447921755 -0.80433940887451161 1.106183707714081 -0.77226653695106495 -1.2897375226020811 -1.2484372258186338 -0.78610670566558827 -1.0952101945877073 1.0976969599723818 1.0000000180025095e-35 0.93079695105552684 -2.2412154674530025 1.0449114441871645 -1.2344093322753904 -0.96189278364181507 -1.0073459744453428 -0.84083604812622059 1.1696619987487795 -0.93010145425796498 1.0944947600364687 -0.98676264286041249 0.12831015884876254 -0.98504570126533497 -1.1756278276443479 0.88954710960388195 0.57284989953041088 -1.1803042888641355
decision_type=2 2 2 2 2 2 2 2 2 2 2 2 2 2 2 2 2 2 2 2 2 2 2 2 2 2 2 2 2 2 2 2 2 2 2 2 2 2 2 2 2 2 2 2 2 2 2 2 2 2 2 2 2 2 2 2 2 2 2 2 2
left_child=5 2 12 4 8 15 36 13 10 -10 -3 26 30 -8 42 17 31 18 19 -1 -20 34 -16 47 -25 58 27 -5 -27 -28 48 56 33 -19 40 54 55 -38 -34 -9 59 -42 -6 -32 57 -33 -18 -14 -2 50 -46 -48 -37 -51 -36 -4 -17 60 -13 -7 -23
right_child=1 3 6 11 14 21 7 39 9 -11 -12 25 23 -15 22 16 46 32 20 -21 -22 44 -24 24 -26 28 29 -29 -30 -31 43 45 38 -35 35 52 37 -39 -40 -41 41 -43 -44 -45 49 -47 51 -49 -50 53 -52 -53 -54 -55 -56 -57 -58 -59 -60 -61 -62
leaf_value=0.061530854959744578 0.13306011222468125 0.07635763992596295 -0.11018781582998645 -0.047997301375475532 -0.086243367490250439 -0.12764257373019791 0.078992248407224519 -0.12419153169697368 0.093282912380558747 -0.1175905057282622 0.13553078819984946 -0.14197683131404187 0.14607272794027637 0.03573542245573131 -0.10338507948270792 -0.12548835422502877 0.17053097076774168 0.8981470616850562 -0.068938984233410688 -0.0052865663632858271 0.09815694259994151 -0.10799039551450065 0.12780489703686371 -0.12168996822300698 0.046919758610283607 0.025137685844723423 -0.018251699025328558 0.022596835674436159 0.16735537520766117 0.088047192822991505 -0.049916562260872065 0.25139908101334529 0.31198979146841632 -0.082194809180598516 0.055534717830609842 0.25211943208480686 -0.036136660561135389 0.22136260132327024 0.14046837148266597 0.019423820567180269 -0.050087866875448799 0.17903414484036201 -0.21406600835046136 0.13667863651116036 0.15575328818439627 0.093741913940055932 -0.067460366644564534 -0.13542052038312349 -0.12072908552417552 0.14911837001547001 -0.085778973890293625 -0.13481524625492244 0.13422153086629804 0.22312989967457364 -0.15699817409651559 -0.16847099374174523 -0.16520563108288192 -0.16981348412308633 -0.12137474758289586 -0.16348462004156877 -0.12847694066002921
leaf_weight=3199.7704771496356 7.614032343029975 66345.759432600811 84.817041388712823 881.86997185647488 181.61183814890683 82.479246478527784 10566.865122843534 243.20611907169223 1309.5370837114751 679.97657714784145 2055.9091273546219 26.105065852403641 9.8631634861230832 4467.2337181847543 107.90263322368264 24.216236885637045 9.5692032761871797 3.001922369003295 923.74357711523771 1708.487107951194 190.23487923666835 3.7951892931014299 199.06501523032784 149.44378345273435 1283.8893366269767 188.52229055948555 311.64538447931409 2523.1927042547613 562.76181683130562 958.7290607187897 61.721946328878403 43.255417257547379 63.911620495840907 55.305942077189684 8.5809977352619189 43.200604073703289 603.15433328319341 62.993629171513021 431.58701623417437 114.24146864563227 102.38145635277033 52.415005147457123 106.73781940340996 60.102646548300982 88.104372296482325 215.98445376381278 105.74004990980029 165.49946986883879 661.57771845906973 682.78926185518503 32.107471477240324 412.35950222611427 51.791769415140152 62.116309605538845 22.448100708425045 52.242637854069471 9.6964802965521795 6.7946323156356794 23.707548946142197 4.1759900152683249 1.4238968677818773
leaf_count=11940 4 127434 3239 3744 2113 604 32525 1973 2567 6804 2948 149 13 12267 1036 218 29 1 5525 9059 401 65 247 816 3785 730 1218 9465 614 2496 253 43 105 659 11 12 5841 564 734 486 689 85 798 90 30 357 1184 1097 3823 360 166 6408 100 36 140 255 42 30 190 18 9
internal_value=0 0.0677072 0.0477407 0.0725628 0.0755442 0.0369941 0.0580654 0.0627847 0.0765272 0.0212105 0.0781362 0.0339175 -0.0219368 0.0661389 -0.0406939 0.0252735 -0.0421692 0.0336917 0.0237193 0.0382728 -0.0404039 0.106652 0.046539 0.0131055 0.02934 0.115263 0.0199798 0.00431381 0.131668 0.0619702 -0.0932026 0.0903297 0.142133 -0.0317229 0.0213375 0.117405 -0.0323686 -0.0117865 0.162592 -0.0782916 -0.0288031 0.0274942 -0.133559 0.0421409 0.142394 0.120048 -0.115781 -0.119588 -0.117841 0.14639 0.0912423 -0.121069 0.187839 0.15529 -0.0982229 -0.132403 -0.136845 -0.145384 -0.132172 -0.12937 -0.11358
internal_weight=0 95057.5 18594.5 76463 70986.5 8641.47 16194.8 15391.5 70391.2 1989.51 68401.7 5476.53 2399.71 15034.1 595.317 7396.86 820.821 6576.04 6022.24 4908.26 1113.98 1244.6 306.968 1608.7 1433.33 801.097 4675.44 3405.06 751.284 1270.37 791.016 293.153 553.807 58.3079 367.473 126.021 803.208 666.148 495.499 357.448 241.452 154.796 288.35 121.825 877.131 259.24 527.669 175.363 669.192 865.117 120.212 518.1 94.9924 744.906 31.0291 137.06 33.9127 12.0137 49.8126 86.6552 5.21909
internal_count=268644 229584 67031 162553 143947 39060 57150 47251 139753 9371 130382 18606 9881 44792 4194 36705 8281 28424 26925 20999 5926 2355 1283 5711 4601 1683 16923 13209 1344 3714 4170 660 1499 660 1659 263 9899 6405 839 2459 1396 774 2911 343 696 400 7621 1110 3827 592 196 7592 112 396 151 3494 260 104 339 622 74
is_linear=0
shrinkage=0.1


Tree=11
num_leaves=63
num_cat=0
split_feature=54 37 43 134 68 26 66 28 32 41 17 108 76 113 72 42 54 75 30 14 130 131 133 99 92 78 136 53 107 72 30 72 79 29 51 52 103 58 92 76 73 70 38 99 103 61 98 38 61 15 45 26 135 18 74 17 59 107 129 113 108 41
split_gain=725.83 2320.02 992.729 3143.8 1095.44 1084.33 977.298 1542.34 891.91 806.743 1006.78 767.355 827.914 743.057 736.295 679.994 763.805 656.94 620.008 552.758 513.837 510.006 454.101 501.153 425.185 414.238 405.298 416.36 398.73 412.812 684.464 394.03 379.721 354.5 347.55 346.829 305.63 299.476 281.845 277.531 253.36 247.064 772.239 379.756 240.237 207.725 200.823 196.805 168.916 288.851 227.993 174.15 93.8195 92.2829 66.384 62.4357 19.3711 3.59006 1.39781 0.949911 0.576883 0.286071
threshold=1.02378785610199 0.92458364367485057 1.0733724236488345 1.0000000180025095e-35 0.011735209263861181 1.2925840616226199 0.19117482006549838 1.1866643428802492 0.96622979640960704 0.9956515133380891 1.1368154883384707 -0.9171757400035857 -1.120686888694763 -1.3539006710052488 -0.52930340170860279 1.0397020578384402 1.011731028556824 -1.0872071981430051 1.0527862310409548 0.8901648521423341 1.0000000180025095e-35 1.0000000180025095e-35 1.0000000180025095e-35 -0.89288511872291554 -0.98384991288185109 -0.75185728073120106 1.0000000180025095e-35 1.0353378653526308 -0.97116395831108082 -0.64627817273139943 1.0341597199440005 -0.63232681155204762 -0.80601018667221058 1.1213768720626833 1.0765859484672549 1.1096053719520571 -0.82292798161506642 0.86864218115806591 -1.082629323005676 -1.1370199918746946 -0.68774905800819386 -0.2604722380638122 0.96905997395515453 -0.81498017907142628 -0.8022504150867461 0.63495695590972911 -0.67484694719314564 0.95776119828224193 0.66872164607048046 0.94998353719711315 1.1472985148429873 1.1680997014045718 1.0000000180025095e-35 1.1522483229637148 -0.77657026052474964 1.0429442524909975 0.84433433413505565 -0.98612794280052174 1.0000000180025095e-35 -1.0207851529121397 -1.0584022402763364 1.0276485681533816
decision_type=2 2 2 2 2 2 2 2 2 2 2 2 2 2 2 2 2 2 2 2 2 2 2 2 2 2 2 2 2 2 2 2 2 2 2 2 2 2 2 2 2 2 2 2 2 2 2 2 2 2 2 2 2 2 2 2 2 2 2 2 2 2
left_child=1 6 5 4 20 18 7 22 13 26 34 12 -9 -6 15 16 47 -13 19 25 39 -10 23 -1 -21 -2 36 -28 52 30 -30 -18 -24 38 -11 44 -8 -22 -17 -4 -12 59 43 -43 -20 -35 -31 -3 49 50 -16 60 57 -51 -54 -53 -44 -7 -37 -5 -50 -61
right_child=2 14 3 41 8 28 9 11 21 10 40 17 -14 -15 48 33 31 -19 35 24 37 -23 32 -25 -26 -27 27 -29 29 46 -32 -33 -34 45 -36 58 -38 -39 -40 -41 -42 42 56 -45 -46 -47 -48 -49 51 53 -52 55 54 -55 -56 -57 -58 -59 -60 61 -62 -63
leaf_value=-0.0024920664007527199 0.14055286393184116 -0.074184125727710756 -0.14453661335506204 -0.12011171727527442 -0.049798792971075832 -0.12697919228274138 0.14848403964738024 -0.058628189639971198 0.017486459174889033 0.016692978449041208 -0.066322169847542439 0.047146660460211404 0.042286244651250554 0.07550610044484854 -0.051849475910646127 -0.022901254709979248 -0.018125849987426546 0.083099129574212657 0.12179749196965486 0.059738807945624667 0.085232812873144076 0.09959184887223993 0.11352333982156547 -0.099947274531773322 -0.13910503337768645 -0.15282880143541963 -0.0438877644971509 0.11288349986918481 0.068635229927054439 0.1115275056622118 -0.11445654600476561 0.089364285010367278 -0.13521517452236692 -0.024579198957788838 0.096212118953566919 -0.18750956092974763 0.054553935172974938 -0.098086918073884782 -0.10414024081393808 -0.019662192505671229 0.1315186164524231 0.19085898988483543 -0.12054136206536176 -0.063401047684484235 -0.18974347751922888 0.18562728917437324 -0.15971414335858777 0.1199391417448841 -0.11748085109058776 0.55565004023844056 0.15359863741894736 0.2035490058196946 -0.14391975111475794 0.20258881061112441 0.18555212044602842 0.04600018098260323 -0.078549780585360565 -0.15560873971720104 -0.14841505669642077 -0.13712698525945147 -0.15700106688117701 -0.12643636008963163
leaf_weight=1265.2676257584244 1256.6527341119945 863.79195076972246 205.02578785270452 467.0467966645956 480.05812659487128 75.082558464258909 2748.5329122301191 885.5901439646259 4709.165604930371 684.31095216237009 675.75325891375542 9232.911829196848 9915.2052092123777 33346.902683259919 193.16099174879491 613.7454456910491 515.54555149748921 11305.896566746756 6897.9310234636068 3713.6586331017315 707.18123921006918 901.34398420900106 350.25126030854881 905.15161947719753 110.74257523939013 50.042992245405912 272.81911870464683 446.93818827718496 452.82678671553731 528.22080673277378 371.84461947530508 1007.4474918060005 74.412022586911917 114.00924158096313 2792.7903268467635 26.152949616312981 396.36201649252325 101.96188301593065 1403.9109898172319 1349.0651735477149 71.587351389229298 165.33361387997866 406.37009108252823 91.114261943846941 24.841112829744816 79.996729489415884 28.783503711223602 55.586131155490875 5.2987036090344217 8.952560216188429 74.983708763495088 191.05124218016863 9.8896375410258788 42.778408089652658 16.024387709796429 28.967595480382442 150.55933321267366 105.12537470459938 14.063867866992949 27.848467618227005 12.193105280399321 247.3522243052721
leaf_count=8700 1537 5273 952 3480 7095 519 2645 4385 13136 2698 2600 34827 34082 57887 1109 2683 2153 20238 8619 7157 885 1183 759 6078 507 246 1224 876 669 764 1612 1730 504 784 5554 117 1277 312 8019 5171 118 366 2975 536 119 196 127 201 97 5 90 122 61 81 9 70 1122 493 76 151 54 1529
internal_value=0 0.0490962 0.0658568 0.0584457 0.0636405 0.0893415 0.0569007 0.0494552 0.0676033 0.0881355 0.0579298 0.05559 0.034012 0.0737278 -0.0138374 -0.0268454 0.00952862 0.0669372 0.0995419 0.0731662 -0.0024904 0.0306769 -0.0246314 -0.0431348 0.0539809 0.129317 0.121153 0.0534604 0.011646 0.0310014 -0.0139209 0.052978 0.0699379 -0.0670138 0.0805624 0.118979 0.136646 0.0621323 -0.0794284 -0.0361364 -0.0473711 -0.0811398 -0.04307 0.100522 0.12068 0.0620977 0.0975109 -0.0624473 0.0947763 0.0473403 0.00560182 0.158662 -0.118097 0.26369 0.0598149 0.182806 -0.109189 -0.14368 -0.173838 -0.122858 -0.145029 -0.127518
internal_weight=0 47235.2 57038.2 43356.3 41800.7 13681.9 42023.8 33934.7 39437.5 8089.09 4224.44 31339.6 10800.8 33827 5211.42 4654.03 2442.37 20538.8 12094.1 5131.1 2363.23 5610.51 2595.08 2170.42 3824.4 1306.7 3864.65 719.757 1587.8 1381.68 824.671 1522.99 424.663 2211.66 3477.1 6962.99 3144.89 809.143 2017.66 1554.09 747.341 1555.62 813.377 256.448 6922.77 194.006 557.004 919.378 557.386 319.876 268.145 237.511 206.122 51.731 25.914 220.019 556.929 180.208 40.2168 742.247 17.4918 275.201
internal_count=268644 149232 119412 96780 86621 22632 126565 109573 79301 16992 10970 93532 38467 64982 22667 21039 9357 55065 18378 9447 7320 14319 16041 14778 7664 1783 6022 2100 4254 3172 2281 3883 1263 11682 8252 8931 3922 1197 10702 6123 2718 10159 4999 902 8738 980 891 5474 1628 1285 1199 343 1082 86 70 192 4097 1012 193 5160 151 1680
is_linear=0
shrinkage=0.1


Tree=12
num_leaves=63
num_cat=0
split_feature=53 32 102 53 4 28 135 101 30 42 61 70 84 8 73 32 70 135 134 75 133 130 31 72 29 47 96 49 110 114 131 74 58 101 65 100 125 65 130 109 32 102 95 52 0 78 109 107 25 21 130 77 56 125 58 70 70 12 38 107 6 112
split_gain=627.689 1965.52 858.528 2185.99 1307.67 1439.69 1098.93 1026.01 795.427 708.438 1609.5 991.315 966.559 778.8 642.134 628.094 683.473 600.876 542.693 711.73 697.441 520.444 465.585 453.69 409.609 373.154 341.926 331.776 331.341 327.982 314.138 785.806 313.285 259.163 336.042 253.152 315.414 246.261 237.632 231.479 229.391 225.899 223.486 223.466 219.366 194.494 211.874 182.749 144.82 161.954 141.828 175.131 120.503 115.573 100.213 78.2802 74.2487 68.6132 63.4457 22.9927 14.712 0.390936
threshold=1.008664667606354 0.9340895712375642 -0.91723090410232533 0.95001745223999035 0.70226117968559276 1.3387805223464968 1.0000000180025095e-35 -0.95202863216400135 1.0782371759414675 1.0053246617317202 0.61544218659400951 -0.35976283252239222 -1.3992292284965513 0.67609471082687389 -0.87279123067855824 0.96854242682456981 -0.29532617330551142 1.0000000180025095e-35 1.0000000180025095e-35 -1.1203556060791013 1.0000000180025095e-35 1.0000000180025095e-35 1.003858268260956 -0.6809047758579253 1.2261095046997073 1.0749736428260805 -1.0092209577560423 1.0881500840187075 -0.87117159366607655 -1.0011662244796751 1.0000000180025095e-35 -0.97796350717544545 0.80794677138328563 -0.85916307568550099 0.25947356224060064 -0.89956450462341297 -1.3908382654190061 0.27191397547721868 1.0000000180025095e-35 -0.83559927344322193 0.91002643108367931 -0.86523276567459095 -0.96408528089523304 1.0880687832832339 0.42921766638755804 -1.2912235260009763 -0.88392585515975941 -1.0141425132751463 1.3046920299530032 1.3149462938308718 1.0000000180025095e-35 -1.2045589089393614 0.90107625722885143 -1.2958148717880247 0.76528578996658336 -0.31380891799926752 -0.2604722380638122 0.86957257986068737 0.92585340142250072 -0.82921412587165821 0.71447014808654796 -0.9169514775276183
decision_type=2 2 2 2 2 2 2 2 2 2 2 2 2 2 2 2 2 2 2 2 2 2 2 2 2 2 2 2 2 2 2 2 2 2 2 2 2 2 2 2 2 2 2 2 2 2 2 2 2 2 2 2 2 2 2 2 2 2 2 2 2 2
left_child=1 2 4 17 6 23 24 -7 -8 11 21 13 39 27 38 16 -14 40 20 -20 -5 35 30 -6 -1 32 -16 29 -17 -2 31 -13 -24 34 45 36 -11 -37 -15 59 -4 61 -27 -41 -29 55 -47 54 53 -50 56 -52 -43 -23 -35 -3 -49 -32 -56 -12 -19 -36
right_child=9 33 3 18 5 7 8 -9 -10 10 12 22 15 14 26 28 -18 60 19 -21 -22 48 25 -25 -26 42 -28 44 -30 -31 57 -33 -34 47 41 37 -38 -39 -40 43 -42 52 -44 -45 -46 46 -48 50 49 -51 51 -53 -54 -55 58 -57 -58 -59 -60 -61 -62 -63
leaf_value=0.07188279736387318 0.035411460715385555 -0.12178006024047508 0.017705905843427974 0.024161007772516212 -0.058896514322631301 0.11809661900757867 -0.037305856395481236 -0.038682742185773895 0.19222224007532321 0.15047343109610917 -0.0056190758480652268 0.0037661952428515513 0.037697199013503768 0.0060685831020788547 0.22681141436898897 0.0022097274638571934 0.063923031923540971 -0.091566856720912915 -0.11969480955929153 0.19385516543540826 0.090778650171670111 -0.16545125908695604 0.064551916681121993 0.49651760339508011 -0.19080018245791608 0.12572569683925844 0.089160846944477304 -0.1060990082537811 0.11515293070009761 -0.18894479467608621 0.18892900238669474 0.12739013168789942 -0.081712857187698884 -0.11300901471915376 -0.14445769101974387 -0.088662278513436929 -0.096781393614651087 -0.010631752327708549 0.083127340981134307 -0.057268732434168579 -0.11037543753662137 0.17745930190816603 -0.097807019142356053 0.031342331950321871 0.06946987108773979 -0.029600905654409454 0.19138608491916725 -0.13144758627663219 0.22252822997102537 0.052853842704751242 0.080621998510918294 -0.18829698115637514 -0.12827625779725607 0.08770287379020586 0.42602782465802314 0.20003227815140778 0.13510453042613121 0.3619750594690147 0.091874763103402285 -0.1382509841702548 -0.12377988334149392 -0.12116396882726908
leaf_weight=1905.4983075801283 1035.1867568343878 277.86891384422779 735.98388150520623 4861.6341293808073 1286.6587246153504 1698.531771980226 166.05994272232056 553.42715020105243 1662.9686969295144 130.70088352635503 14.069912508130072 589.63806663453579 12285.477008430287 1533.6569423992187 191.53435306623578 2796.2596870139241 51987.785307312384 170.11024424433708 85.09445072337985 485.04066867381334 2322.2272928059101 49.600370056927204 299.79731788486242 14.877079758793114 61.270279407501221 523.45682048797607 3120.4716071486473 421.17069417238235 286.34880269318819 69.535783648490906 439.04019687138498 4017.4936191439629 286.27518545463681 11.188294718042014 22.3322225920856 1172.5535895675421 85.241591839119792 617.4211610686034 541.47526875138283 553.53983883187175 172.62939233332872 146.12156468071043 48.905674062669277 585.77463158965111 85.636355027556419 1522.9920532926917 44.65753585472703 548.6987501271069 63.446341946721077 496.28966892883182 77.49411990866065 35.224765505641699 14.138964375481008 28.336330950260162 10.941618807613851 7.7700525969266883 10.653095073997973 24.174768947064877 11.820890143513678 184.0203089043498 851.25773126445711 10.636475950479506
leaf_count=4075 2631 3047 6792 14421 9650 1828 677 4010 1791 246 43 2519 32736 5227 283 8904 106798 996 747 538 5542 264 758 92 323 789 4719 1840 323 318 395 4253 1502 136 116 6690 527 2775 969 3853 1414 179 199 2735 141 6849 124 3712 67 799 155 180 112 43 7 3 30 12 63 1214 6367 96
internal_value=0 0.0363329 0.049003 0.029445 0.0747741 0.0311777 0.115588 0.0795675 0.171383 0.0561185 0.0521772 0.0773742 0.0551238 0.051548 0.069793 0.0567953 0.0589101 -0.0657871 0.0531485 0.147057 0.0456956 -0.0243911 0.106393 -0.0525479 0.0636995 0.0491946 0.0971212 -0.00944295 0.0127012 0.0212896 0.119461 0.111568 -0.00689313 -0.0420722 -0.0240494 -0.049408 0.0528715 -0.061747 0.0261759 -0.029057 -0.00662854 0.101445 0.106626 -0.0117097 -0.0764327 -0.0371339 -0.0233057 -0.094314 0.054304 0.0720865 -0.105749 -0.00341545 0.150486 -0.0734091 0.132047 -0.113026 -0.126371 0.19796 0.252497 -0.12883 -0.118415 -0.136943
internal_weight=0 19785.8 17033.3 9683.98 7349.29 3553.49 3795.8 2251.96 1829.03 84564.3 71336.9 13227.4 68693.3 6998.67 5387.14 67355.9 64273.3 1929.98 7754 570.135 7183.86 2643.59 6228.78 1301.54 1966.77 1158.43 3312.01 1611.53 3082.61 1104.72 5070.35 4607.13 586.073 2752.54 2046.52 2005.92 215.942 1789.97 2075.13 1337.4 908.613 193.229 572.362 1139.31 506.807 1853.29 1567.65 706.022 637.673 559.736 672.071 112.719 160.261 77.9367 33.9508 285.639 559.352 463.215 22.7625 198.09 1021.37 32.9687
internal_count=268644 74072 59263 36817 22446 15580 6866 5838 2468 194572 168017 26555 156606 16128 11198 148761 139534 15569 21248 1285 19963 11411 10427 9742 4398 3248 5002 4930 9227 2949 7179 6772 2260 14809 10526 10238 773 9465 6196 7845 8206 503 988 6588 1981 10023 6973 4283 1173 866 4077 335 291 307 206 3050 3742 407 70 1257 7363 212
is_linear=0
shrinkage=0.1


Tree=13
num_leaves=50
num_cat=0
split_feature=69 89 108 77 111 77 134 107 122 77 45 75 92 130 76 56 41 61 103 63 58 116 43 130 69 84 110 29 103 9 36 36 64 24 122 41 122 92 111 122 110 120 110 105 112 51 41 112 106
split_gain=614.246 958.319 680.587 1369.22 1952.05 1129.02 943.919 994.309 647.474 573.239 474.124 494.725 450.905 419.324 341.117 327.059 225.92 211.688 168.209 164.734 122.071 100.845 133.614 95.0649 84.1987 75.7448 84.3337 58.3248 140.73 46.2677 43.9656 95.8928 41.3226 32.5468 23.3238 23.2002 20.4471 8.91926 5.2335 4.66823 3.83251 0.0968636 0.0442451 0.020027 0.0195702 0.0188277 0.0301419 0.0047606 0.000764449
threshold=0.072768099606037154 -0.24105802178382871 -0.91644495725631703 -1.2104150652885435 -0.93860718607902516 -1.0969696044921873 1.0000000180025095e-35 -0.9673367142677306 -1.0445851087570188 -0.3681573867797851 1.1961378455162051 -0.99585735797882069 -0.94833791255950917 1.0000000180025095e-35 -1.1287624239921568 0.84414476156234752 1.0976969599723818 0.80308508872985851 -0.833666831254959 0.68804696202278148 0.94481709599494945 -1.5010076165199278 1.1601191163063052 1.0000000180025095e-35 0.063527405261993422 -0.26861838996410364 -1.177834093570709 0.97862008213996898 -0.74160945415496815 1.0000000180025095e-35 0.89602383971214306 0.89653104543685924 0.63389149308204662 0.98307618498802196 -2.0653178691864009 1.0952722430229189 -2.0653178691864009 -0.21268082410097119 -1.2368522286415098 -2.0653178691864009 -1.177834093570709 -1.7259225249290464 -1.1971617341041563 -0.85712641477584828 -1.3025551438331602 1.1634073853492739 1.0906419157981875 -1.3104811310768125 -0.88379758596420277
decision_type=2 2 2 2 2 2 2 2 2 2 2 2 2 2 2 2 2 2 2 2 2 2 2 2 2 2 2 2 2 2 2 2 2 2 2 2 2 2 2 2 2 2 2 2 2 2 2 2 2
left_child=1 2 5 4 13 12 7 -7 -6 19 11 -5 14 -4 -1 -12 17 30 -8 20 34 22 -21 -14 32 -18 42 29 -29 -23 37 -32 -19 -26 44 -24 -28 -3 -36 41 43 45 -27 -41 -2 46 -11 -47 -45
right_child=9 16 3 10 8 6 18 -9 -10 39 15 -13 23 -15 -16 -17 25 24 -20 21 -22 27 35 -25 33 26 36 28 -30 -31 31 -33 -34 -35 38 -37 -38 -39 -40 40 -42 -43 -44 48 -46 47 -48 -49 -50
leaf_value=-0.06278599039420768 -0.12693995708473665 -0.16610903736742272 -0.10497554638164885 0.062625822977505546 0.046307707299104321 0.025634105447457201 0.041842622790370244 0.065979084116429318 -0.020839901890104925 -0.12517985732854425 0.093027661789044924 0.098722995793417631 -0.13271779325260991 0.011399506469711216 0.01279358902161956 -0.17630766991889091 0.098859185314098014 -0.19937520080809545 -0.11738500619282451 0.31207850440449347 0.11002160750263515 0.025877353915433849 0.12978644512149434 -0.026172316653619576 -0.022492790341274486 -0.10547434673933864 -0.11431143840838483 -0.21737627758967665 0.12553072905002691 0.12515281673337877 0.16288723455963547 -0.15289746354690298 0.083302618496073483 0.13412409043446469 -0.24794282143244067 -0.051253436113090113 -0.27527376106701507 -0.11579998093596942 -0.3816188056538164 -0.12334052749406342 -0.23988674404693069 -0.1336513459358824 -0.1111243348547491 -0.10465941348645912 -0.11597761432495952 -0.10704976436518637 -0.1105897484504216 -0.11205295090507153 -0.10825411429712667
leaf_weight=668.33192447479814 2.186733290553093 62.19676486775279 1098.1292437463999 30410.292580489069 32420.855380021036 11494.162603231147 78.857096735388041 13037.351693730801 1502.5758006582037 2.833707269281148 67.720547899603844 4338.4619966670871 298.83067659288645 431.19835353642702 5607.9751222208142 134.89086123555899 8.5402134209871274 15.777037415653469 418.17012570984662 60.37805137783289 17.642331346869469 48.51150331646204 16.076201438903812 116.34847362712026 16.177761368453503 25.050321318209168 8.6289292797446233 17.470694214105606 38.001395463943481 1454.2788083963096 16.764603804796934 22.55220072902739 7.6929259300231925 73.792032361030579 4.6244237180799246 12.647250585258005 92.399267330765724 81.308726998046041 7.9874252080917341 1.0494565255939958 5.543587923049925 2.1727351471781722 31.027753621339802 0.8184683509171008 6.3792087510228175 1.9439672119915474 2.830169316381216 87.704976215958595 2.1342139914631848
leaf_count=3438 17 382 5041 57638 80413 45155 313 24543 13537 22 82 5318 2037 856 19782 535 8 102 3546 14 7 80 3 263 101 662 96 86 9 522 20 245 12 33 28 61 407 1666 43 10 23 18 363 23 55 34 36 928 31
internal_value=0 0.0460684 0.0467184 0.052198 0.0383513 0.0345563 0.0443113 0.0470756 0.0433335 0.105105 0.0662433 0.0671326 -0.00193096 -0.0721633 0.00474551 -0.0862854 -0.097645 -0.0453508 -0.0921223 0.119349 -0.0842639 0.124147 0.227616 -0.10286 0.0619597 -0.191174 -0.20694 0.118231 0.0175337 0.121948 -0.111936 -0.0182475 -0.10672 0.105962 -0.246115 0.0500726 -0.261526 -0.137604 -0.332603 -0.119309 -0.186049 -0.112774 -0.1086 -0.111475 -0.118776 -0.112298 -0.117889 -0.111944 -0.107258
internal_weight=0 102586 102124 70404.1 35452.8 31720 25028.5 24531.5 33923.4 1793.22 34951.4 34748.8 6691.49 1529.33 6276.31 202.611 461.909 296.262 497.027 1686.18 38.8201 1647.36 89.1015 415.179 113.44 165.646 157.106 1558.26 55.4721 1502.79 182.822 39.3168 23.47 89.9698 21.1778 28.7235 101.028 143.505 12.6118 107.031 9.54573 97.4856 56.0781 4.00214 8.56594 95.3128 5.66388 89.6489 2.95268
internal_count=268644 266594 262497 163420 99847 99077 73557 69698 93950 2050 63573 62956 25520 5897 23220 617 4097 2561 3859 925 150 775 78 2300 248 1536 1528 697 95 602 2313 265 114 134 143 64 503 2048 71 1125 87 1038 1025 64 72 1020 58 962 54
is_linear=0
shrinkage=0.1


Tree=14
num_leaves=52
num_cat=0
split_feature=69 42 72 1 132 134 121 75 124 108 135 77 68 78 31 109 74 24 15 41 63 105 109 34 58 29 116 43 111 29 103 20 41 37 7 87 110 128 37 122 122 110 113 110 119 105 112 51 41 112 106
split_gain=578.705 851.214 601.765 1373.77 808.095 792.094 758.855 732.147 675.053 519.922 616.957 494.463 393.279 373.175 361.98 339.882 324.368 209.274 225.884 176.757 141.553 135.759 122.398 150.429 96.6369 89.9247 69.8651 98.8498 50.6713 50.4089 119.674 47.9674 47.1675 69.7795 46.3295 28.024 26.4631 23.9394 21.761 11.9083 3.03283 2.23715 1.57887 0.910271 0.0864421 0.0150549 0.0145003 0.0137998 0.0217232 0.00342409 0.000553662
threshold=0.072768099606037154 1.1378973722457888 -0.54097506403923024 0.35733184218406683 1.0000000180025095e-35 1.0000000180025095e-35 -1.8505761027336118 -1.0684948563575742 -1.5518520474433897 -1.0474635958671568 1.0000000180025095e-35 -0.3681573867797851 0.20510523021221164 -1.2361081838607786 0.9696432650089265 -1.0973489880561826 -0.80694881081581105 1.1833601593971255 0.50758492946624767 1.1095724105834963 0.68804696202278148 -0.7660863697528838 -1.1160984635353086 0.89473080635070812 0.94481709599494945 0.92975497245788585 -1.5010076165199278 1.1601191163063052 -1.2368522286415098 0.97862008213996898 -0.74160945415496815 1.004372835159302 1.1035248637199404 0.9424991011619569 -0.047160701826214783 -1.1299136281013487 -1.177834093570709 1.0000000180025095e-35 0.93710091710090648 -2.0653178691864009 -2.0653178691864009 -1.177834093570709 -1.3539006710052488 -1.177834093570709 -1.6214268803596494 -0.85712641477584828 -1.3025551438331602 1.1634073853492739 1.0906419157981875 -1.3104811310768125 -0.88379758596420277
decision_type=2 2 2 2 2 2 2 2 2 2 2 2 2 2 2 2 2 2 2 2 2 2 2 2 2 2 2 2 2 2 2 2 2 2 2 2 2 2 2 2 2 2 2 2 2 2 2 2 2 2 2
left_child=1 2 3 5 7 8 12 -5 -1 10 -8 20 28 -11 -6 22 31 18 -18 -19 24 -14 23 43 39 -25 27 -22 -4 34 -31 -17 33 -24 -28 -7 -34 -33 -29 46 44 45 -41 -3 47 -42 -2 48 -13 -49 -47
right_child=11 15 6 4 14 35 9 -9 -10 13 -12 40 21 -15 -16 16 17 19 -20 -21 26 -23 32 25 -26 -27 29 38 -30 30 -32 37 36 -35 -36 -37 -38 -39 -40 42 41 -43 -44 -45 -46 50 -48 49 -50 -51 -52
leaf_value=0.020794497724514145 -0.12405988561789186 -0.10736948375971436 -0.10911768579125017 0.033775537034438953 -0.00399783954869125 -0.011840936500281287 -0.015495003575830769 0.053539594894924061 -0.063044613121771176 0.035639790170924765 0.11277441336262646 -0.12241939325797746 0.110274174690488 0.079096458425058039 -0.13009819587425597 0.12694266351386729 -0.25818574925141069 0.078180818903667681 0.047809491431839338 -0.19809278445711409 0.27470057562451794 -0.073036236334562535 -0.20400222044488531 0.55888703564570752 0.10526125875744417 0.067758735448816873 0.020451754494905407 0.12321175912615534 -0.19802512877127521 -0.20096330005865837 0.12158677944694024 -0.21142407524123491 -0.11299960528259473 0.068128405166808029 0.1201102853696481 -0.11747477905135605 -0.23542392697511866 -0.085910893305817193 -0.056350728827680822 -0.21353318125379661 -0.12107491114440599 -0.2106897205379625 -0.29067012993245983 -0.14449718578498191 -0.13359172191566068 -0.10420213842205105 -0.11423802347216377 -0.10633977362755927 -0.10949727354183288 -0.11078602714144228 -0.10741007967248917
leaf_weight=7283.8325345497578 2.0222019478678712 129.45944452285767 175.87813375331461 34146.142094479874 732.61616536229849 26.341943114995956 1500.2719049453735 41551.464041184634 1106.2423602538183 2412.3065651021898 499.93546549789608 2.6188756301999083 119.36789034679532 10926.955983411521 330.26206760108471 5.0726723670959464 25.111397817730904 33.301325269043446 613.79374770075083 76.027900345623493 61.653962343931198 61.071572747081518 22.582553938031197 4.4572720527648952 16.6479871571064 22.789509879425168 48.292648106813431 15.923783555626871 100.86886473745108 17.029772393405437 35.44259150326252 82.151457868516445 20.998479746282101 16.16938155144453 1369.3792936429381 538.97746858000755 110.94216477125883 18.645092643797398 11.713965050876139 3.577366982586681 0.96644444391131434 5.6718873530626279 10.27500709146261 6.9584403187036505 1.7280728295445431 0.74366499204188641 5.8555212616920489 1.7701181713491667 2.5850843898952007 80.504665654152632 1.9455152079463001
leaf_count=19052 17 3032 1724 104242 3911 131 11508 88746 4457 3860 488 22 104 15142 2036 1 130 54 784 330 14 397 121 1 7 105 81 4 563 86 9 351 215 21 521 4524 473 51 60 21 10 23 50 40 15 23 55 34 36 931 31
internal_value=0 0.0414046 0.0423896 0.0390844 0.0434085 0.00202033 0.0603246 0.0446243 0.0097402 0.0641085 0.0165649 0.100293 -0.066632 0.0712376 -0.0431803 -0.0427348 -0.00927518 0.0139057 0.0357827 -0.113941 0.1137 0.0482309 -0.128206 -0.0664173 -0.0760312 0.148102 0.118369 0.204255 -0.141523 0.113153 0.016904 -0.173107 -0.187451 -0.0904548 0.116715 -0.112553 -0.21594 -0.188207 0.0471061 -0.214924 -0.117117 -0.171373 -0.27075 -0.109263 -0.111444 -0.11037 -0.116759 -0.111006 -0.116 -0.11069 -0.106523
internal_weight=0 102701 101513 85715.9 76760.5 8955.39 15796.7 75697.6 8390.07 15339.5 2000.21 1696.35 457.186 13339.3 1062.88 1188.46 854.104 748.234 638.905 109.329 1597.81 180.439 334.357 163.665 38.3781 27.2468 1559.44 89.2917 276.747 1470.14 52.4724 105.869 170.693 38.7519 1417.67 565.319 131.941 100.797 27.6377 21.7301 98.5343 9.32751 13.8524 136.418 89.2068 3.65562 7.87772 87.4787 5.20396 82.2748 2.68918
internal_count=268644 266594 260885 227099 198935 28164 33786 192988 23509 30998 11996 2050 2788 19002 5947 5709 1701 1298 914 384 925 501 4008 3178 150 106 775 78 2287 697 95 403 830 142 602 4655 688 402 64 143 1125 87 71 3072 1038 64 72 1023 58 965 54
is_linear=0
shrinkage=0.1


Tree=15
num_leaves=45
num_cat=0
split_feature=2 69 41 71 40 108 121 29 72 109 9 77 68 130 132 63 39 106 58 107 99 29 110 131 109 69 122 67 122 130 79 110 75 130 119 114 52 119 9 74 107 105 51 54
split_gain=557.176 537.345 736.467 573.684 917.498 874.389 737.753 513.53 456.718 505.836 442.852 428.182 302.483 237.607 164.401 119.831 97.1571 91.325 78.4133 69.2689 57.6409 105.001 84.2836 27.5799 48.2995 9.49322 6.7493 3.12416 2.01719 1.58868 2.0349 1.36837 1.35266 3.22379 0.487613 0.421479 0.206216 0.066045 0.0341769 0.0307444 0.0229539 0.0113091 0.0101389 0.00152318
threshold=0.72453403472900402 0.072768099606037154 1.1035248637199404 -0.36419603228569025 1.0510640144348147 -0.92020103335380543 -1.8505761027336118 1.0736337900161745 -0.50918251276016224 -1.0929867625236509 0.57355517148971569 -0.3681573867797851 0.20510523021221164 1.0000000180025095e-35 1.0000000180025095e-35 0.68804696202278148 1.0257271528244021 -0.96975228190422047 0.94481709599494945 -0.9673367142677306 -0.66032683849334706 0.97862008213996898 -1.177834093570709 1.0000000180025095e-35 -0.9220784306526183 -0.0097600445151329023 -2.0653178691864009 -0.3808987140655517 -2.0653178691864009 1.0000000180025095e-35 -1.1707443594932554 -1.177834093570709 -1.1299593448638914 1.0000000180025095e-35 -0.92170405387878407 -0.95817449688911427 0.78131896257400524 -1.6214268803596494 0.90834176540374767 -1.0426195263862608 -0.97826144099235524 -0.85712641477584828 1.1634073853492739 0.79677560925483715
decision_type=2 2 2 2 2 2 2 2 2 2 2 2 2 2 2 2 2 2 2 2 2 2 2 2 2 2 2 2 2 2 2 2 2 2 2 2 2 2 2 2 2 2 2 2
left_child=1 2 3 4 5 -1 12 -8 16 14 -6 15 -5 -11 -10 18 -4 19 26 36 21 -17 -22 27 -25 -18 -3 29 37 34 -31 41 39 -34 -19 -26 -2 42 -37 -29 43 -30 -13 -38
right_child=17 11 8 6 10 -7 7 -9 9 13 -12 28 -14 -15 -16 20 25 23 -20 -21 22 -23 -24 24 35 -27 -28 32 31 30 -32 -33 33 -35 -36 38 40 -39 -40 -41 -42 -43 -44 -45
leaf_value=0.019907157488368889 -0.1523264742484548 -0.11498165580200986 0.15803787627681526 -0.13351706540005936 -0.012496924710128874 0.043217925350886366 0.055604719226407119 0.11875443929042824 0.029353112869789141 0.031476497348359139 -0.15146776215624286 -0.11432854211528767 0.03021858837563425 -0.20468125695924066 -0.14776071318817893 0.083818425871112601 -0.18094001899976067 -0.11119379042700667 0.10086276726751837 0.2307888740047398 0.24519976688521317 -0.18644784742519238 0.11430880060705451 0.18470139558549936 -0.15176330580672434 -0.23473075524370321 -0.23375030074144282 -0.10178444399266912 -0.11903715318572422 -0.14026165322494566 -0.25265302140947071 -0.19012512737219983 -0.11756059940132008 -0.17966954949483405 -0.14009946544047353 -0.1253300717974542 -0.10888227158054818 -0.13037799908169231 -0.10167271622273365 -0.11107741533668734 -0.12193119346223856 -0.10586663088896353 -0.10957599864404317 -0.11256010523813374
leaf_weight=21450.151477698237 1.7351614311337487 7.2325535565614691 8.1773769408464414 271.10388031974435 1781.701527107507 64409.655150993727 10996.256516750902 1458.5273141935468 64.18763130530715 1092.2734676897526 263.17444334551692 4.7739838082343331 193.25610899180174 44.333730727434158 285.57910515740514 112.84100805968046 127.72011622413993 6.6146502867341033 15.686711415648459 14.244670931249855 51.14234821125865 16.473767943680286 1292.1965360864997 8.282804178074004 1.9657827168703104 44.151214823126793 14.13716669008136 47.174468245357275 0.88867717981338534 3.7404667725786567 2.8295568674802771 5.6565700471401197 132.41003048978746 8.9201616849750263 49.570785893127322 0.63656780123710532 3.2714115977287284 1.6001859754323948 15.004815960302947 3.850654484704136 2.4728260561823854 2.4475833093747497 75.163586288690567 1.7171386592090128
leaf_count=69274 9 72 4 2322 4711 151801 22240 1349 203 1648 1210 58 580 180 4035 138 586 76 7 8 57 86 494 10 9 184 68 2988 10 30 12 23 1606 44 300 4 47 15 1037 50 20 54 965 20
internal_value=0 0.0385174 0.0376196 0.0387094 0.0358176 0.0373943 0.0583857 0.0629999 -0.0283167 -0.0100961 -0.0303824 0.0960176 -0.065374 0.0222651 -0.115258 0.108685 -0.178735 -0.0969635 -0.0689212 0.0926661 0.113154 0.0493885 0.119292 -0.112783 -0.0144399 -0.194758 -0.193553 -0.122763 -0.11522 -0.142137 -0.188666 -0.160167 -0.116442 -0.121481 -0.136696 -0.10812 -0.121275 -0.110262 -0.102636 -0.102486 -0.114053 -0.109375 -0.10986 -0.110148
internal_weight=0 104090 102490 100824 87904.7 85859.8 12919.1 12454.8 1666.42 1486.37 2044.88 1600.24 464.36 1136.61 349.767 1509.71 180.049 304.442 37.0564 23.4412 1472.65 129.315 1343.34 281.001 25.89 171.871 21.3697 255.111 90.5306 62.7555 6.57002 8.99283 192.355 141.33 56.1854 17.6072 9.19654 81.5378 15.6414 51.0251 7.46138 3.33626 79.9376 4.98855
internal_count=268644 262374 260327 253487 226996 221075 26491 23589 6840 6066 5921 2047 2902 1828 4238 922 774 6270 147 104 775 224 551 6166 1060 770 140 5106 1125 418 42 87 4688 1650 376 1050 96 1038 1041 3038 87 64 1023 67
is_linear=0
shrinkage=0.1


Tree=16
num_leaves=63
num_cat=0
split_feature=54 40 42 134 70 53 66 41 62 35 127 69 30 8 42 136 104 54 100 105 108 72 74 0 80 55 65 0 71 84 33 57 30 46 124 48 71 38 56 72 6 59 18 61 44 73 102 71 26 66 93 14 121 43 28 16 59 117 82 106 42 7
split_gain=518.434 1957.03 929.056 2188.04 940.983 936.253 836.974 940.168 1181 881.296 748.534 659.695 595.312 588.877 585.816 466.263 489.243 457.419 458.751 447.527 438.219 475.5 403.758 522.112 382.398 378.418 366.139 329.714 314.966 310.545 289.11 275.666 273.532 254.713 250.132 241.274 234.105 562.558 406.176 227.281 223.254 212.865 199.955 192.096 190.556 189.813 185.217 175.599 158.82 116.314 86.7202 74.6207 89.6864 74.4838 71.8292 64.618 22.4984 2.58333 2.32514 1.73139 0.490237 0.307265
threshold=1.02378785610199 0.98638728260993969 1.0499163866043093 1.0000000180025095e-35 -0.33772478997707361 1.0633998513221743 0.2230230197310448 0.99792277812957775 0.53208142518997203 0.87360122799873363 -2.3902909755706783 -0.13354569673538205 1.0592966675758364 0.69273048639297496 1.059700667858124 1.0000000180025095e-35 -0.78462928533554066 1.0133437514305117 -0.89445132017135609 -0.84489625692367543 -0.87223395705223072 -0.62838476896286 -0.94524207711219776 0.41482929885387426 -0.70046117901802052 0.9995362162590028 0.30545111000537878 0.4316921085119248 -0.51904690265655506 -1.4030181765556333 0.93424838781356823 0.91820779442787182 1.0694720149040224 1.1078372597694399 -1.3543296456336973 1.1124641895294192 -0.42521323263645167 0.96905997395515453 0.96117353439331066 -0.52930340170860279 0.56782543659210216 0.79475098848342907 1.196611821651459 0.66792830824852001 1.0796748399734499 -0.87433794140815724 -0.82163056731224049 -0.36847998201847071 1.1680997014045718 -0.19656614959239957 -0.66057711839675892 0.93397587537765514 -1.6535903811454771 1.0498688817024233 1.2048138380050661 1.0695655941963198 0.84433433413505565 -1.0992870330810545 -1.4185232520103452 -0.92392015457153309 1.0518559217453005 0.54230618476867687
decision_type=2 2 2 2 2 2 2 2 2 2 2 2 2 2 2 2 2 2 2 2 2 2 2 2 2 2 2 2 2 2 2 2 2 2 2 2 2 2 2 2 2 2 2 2 2 2 2 2 2 2 2 2 2 2 2 2 2 2 2 2 2 2
left_child=1 6 4 5 13 15 7 8 9 -1 33 31 20 28 -13 16 -4 18 -9 -10 39 -22 23 34 40 -17 32 51 54 -25 -28 -7 -14 44 -6 -30 57 38 -38 -12 -24 46 -19 47 -3 49 -29 -35 -45 -15 -46 52 -8 -47 -2 -53 -39 61 -43 -26 -59 -5
right_child=2 10 3 36 22 11 27 17 19 -11 12 14 26 45 -16 25 -18 42 -20 -21 21 -23 24 29 59 -27 30 41 35 -31 -32 -33 -34 43 -36 -37 37 56 -40 -41 -42 58 -44 48 50 53 -48 -49 -50 -51 -52 55 -54 -55 -56 -57 -58 60 -60 -61 -62 -63
leaf_value=0.031024851110873955 -0.07503977074206751 -0.12017775210641396 0.013113847465999175 -0.11545319536393253 0.033368337542208276 0.010379545889183092 -0.16684958451033854 0.11466103440952212 0.085522217562464767 -0.038529865096501359 -0.10055969802394094 0.084643609001912534 -0.077897813171149244 -0.2044365871344164 0.040655652111000071 -0.1658907547910449 -0.14944067737281616 0.045938947768456834 -0.068237159995986216 0.031881046021137588 -0.086072772321659705 0.028828214252641007 0.070044383077823777 -0.042633894151678078 -0.13561727285201375 0.061969909141193658 0.092055410078603114 0.073342266661787461 0.072745574779184877 0.088263649361789598 -0.13563004426957811 -0.079762256653450339 0.084295930630025412 0.032854091460601795 -0.050895371865606123 -0.047404075904404312 -0.1436344792641929 -0.12059951831728362 0.13828339380990537 0.059236515117699264 0.10826907084781784 -0.12999981398843538 -0.051465643269335504 -0.1475161304660296 0.19054592992156197 0.11336652729799646 -0.15784808410239662 -0.10763557593911739 0.14163125357742909 0.028398454620862212 0.4012368009423477 0.10468932137515873 0.13897438670404938 -0.031032512349363429 -0.15453676806214461 -0.18618861140146117 -0.073000419159681126 -0.13962888502969037 -0.17999753700377019 -0.17273691568618954 -0.1280337472476579 -0.12156857321849648
leaf_weight=27937.596405998804 281.45394711196423 15.636700501665471 2175.8914559241384 242.00858942046762 1321.8808696493506 873.05524375662208 9.6713412664830667 149.18953110836446 5527.2848157789558 1948.7319413796067 2029.2764885220677 3327.8616406358778 449.62764770723879 22.248670615255833 33551.231383470818 326.28483932092786 202.37132020760328 977.60078767314553 1697.6781313400716 2164.365592315793 649.38076379336417 808.69227763265371 2451.5084844231606 194.28521594405174 18.094255823642015 93.847410313785076 565.39050197601318 547.02254059351981 269.64130637049675 2699.9734558686614 61.871978471055627 554.87704456597567 135.25600863434374 447.09137248620391 480.2726567722857 439.64118375256658 67.652953147888184 372.53446339443326 208.94346895441413 93.091356050223112 4055.8914753124118 13.023486111313103 268.67458734661341 20.958830649033189 60.901539752259851 470.09582367539406 36.99680901505053 111.07007310725749 202.85256744548678 601.74239746108651 28.761742074042559 17.746132478117946 1129.388132199645 38.65943868458271 190.6449058689177 13.406907975673674 135.38996468484402 40.79143363982439 32.545383766293526 41.12599216401577 343.64240302145481 124.39154497906566
leaf_count=88134 976 165 5492 2185 2507 2549 49 443 8167 8807 10178 4384 2986 101 69353 1398 1307 2086 7301 6116 3213 2405 4014 1153 108 147 1301 1029 458 3772 486 1953 621 1976 1588 1666 365 2860 506 230 3577 130 948 175 153 355 274 671 176 1067 70 16 707 94 1014 59 1097 218 160 173 2073 902
internal_value=0 0.0267015 0.0408397 0.0335857 0.0636217 0.0379637 0.0340741 0.031121 0.0354831 0.0264896 -0.0284268 0.0420428 -0.0440467 0.00554251 0.044625 -0.0178746 -0.000718255 -0.0218729 -0.0534627 0.070428 -0.0645535 -0.0223451 0.0755548 0.0531665 0.0915668 -0.114992 0.0165261 0.100807 -0.0438533 0.0794768 0.0695969 -0.0246485 -0.04039 0.0559443 0.0109121 -0.0017279 -0.0836231 -0.0454225 0.0693289 -0.0935507 0.0938688 0.0424545 0.0249403 0.0362828 0.201953 0.0570592 0.0586967 0.00489767 0.114554 0.0200966 0.25813 0.132202 0.136378 0.102394 -0.107143 -0.0204918 -0.107912 -0.123538 -0.165708 -0.161395 -0.129264 -0.117529
internal_weight=0 48150.8 56217.9 42640.8 13577.2 41105.4 42470.9 40671.1 37578 29886.3 5679.86 38307 4792.59 2314.13 36879.1 2798.4 2378.26 3093.14 1846.87 7691.65 3580.44 1458.07 11263 4696.41 6566.62 420.132 1212.15 1799.8 1181.38 2894.26 627.262 1427.93 584.884 887.273 1802.15 709.282 1535.35 784.521 276.596 2122.37 6507.4 629.588 1246.28 781.973 105.3 1132.75 584.019 558.161 223.811 623.991 89.6633 1170.21 1139.06 508.755 472.099 31.153 507.924 750.834 45.5689 59.2202 384.434 366.4
internal_count=268644 149232 119412 96789 22623 86583 124426 122002 111224 96941 24806 78239 21420 5731 73737 8344 6799 10778 7744 14283 16026 5618 16892 9020 7872 1545 5394 2424 4114 4925 1787 4502 3607 3386 4095 2124 10206 4828 871 10408 7591 1593 3034 2998 388 1617 1303 2647 351 1168 223 831 756 449 1990 75 3957 5378 290 281 2291 3087
is_linear=0
shrinkage=0.1


Tree=17
num_leaves=63
num_cat=0
split_feature=136 75 108 76 30 108 74 107 108 135 28 84 53 32 101 5 71 102 29 113 32 41 132 107 32 32 99 50 107 71 54 33 109 54 76 107 60 60 20 105 78 114 113 112 31 77 109 40 107 53 109 74 111 113 56 101 74 54 77 92 76 127
split_gain=544.017 1044.34 650.322 641.361 1146.6 628.891 581.393 579.701 531.88 525.13 491.335 483.315 519.797 1362.84 848.26 1314.87 758.998 590.645 505.257 467.285 458.086 362.023 522.649 462.803 679.294 357.887 337.333 298.936 294.239 264.786 238.563 213.74 195.069 197.487 188.343 167.996 144.394 136.273 133.448 131.385 120.87 83.9647 118.962 122.619 82.4768 66.706 197.042 61.764 38.8917 37.2269 19.3536 1.34782 1.08706 0.723853 0.741487 0.584837 0.428629 0.353553 0.170252 0.121548 0.112406 0.0921049
threshold=1.0000000180025095e-35 -1.1015694141387937 -0.89722415804862965 -1.1415085792541502 1.0525614619255068 -0.88237568736076344 -0.88501951098442067 -0.97596973180770863 -0.91644495725631703 1.0000000180025095e-35 1.1335592269897463 -1.3992292284965513 1.0114970803260805 0.93665203452110302 -0.82607659697532643 0.59367609024047863 -0.48084925115108484 -0.92192605137825001 1.1152403354644778 -0.96018144488334645 0.95471125841140758 1.0801036357879641 1.0000000180025095e-35 -0.99613651633262623 0.9216582477092744 0.95451799035072338 -0.88604530692100514 1.1086066961288454 -0.86302560567855824 -0.40224927663803095 0.99546286463737499 0.94565397500991832 -0.83559927344322193 1.0366847515106203 -1.1167080402374265 -0.90653428435325611 0.79525092244148265 0.78658014535903942 1.2574579119682314 -0.9210839271545409 -1.0078433156013487 -0.92954686284065235 -0.9218427538871764 -0.91413259506225575 0.93079695105552684 -1.282106280326843 -0.86875119805335987 1.0449114441871645 -1.0073459744453428 1.0823819637298586 -0.84138271212577809 -1.0455033183097837 -1.2193112969398496 -0.92494580149650563 0.9453529715538026 -0.94410035014152516 -1.0455033183097837 0.93614313006401073 -1.2770586013793943 -1.1449004411697385 -1.1697642803192136 -1.3844624161720274
decision_type=2 2 2 2 2 2 2 2 2 2 2 2 2 2 2 2 2 2 2 2 2 2 2 2 2 2 2 2 2 2 2 2 2 2 2 2 2 2 2 2 2 2 2 2 2 2 2 2 2 2 2 2 2 2 2 2 2 2 2 2 2 2
left_child=7 41 6 4 28 -6 25 9 20 21 37 18 13 17 16 -16 -14 -13 32 -12 -8 23 36 27 -25 35 -15 -1 -4 39 38 -10 50 -34 -27 -3 -23 -5 -20 40 -11 53 43 59 52 56 -47 -24 -46 -41 -9 -32 -31 55 61 60 -44 -57 -56 -43 -2 -55
right_child=1 2 3 10 5 -7 8 11 31 29 19 12 14 26 15 -17 -18 -19 30 -21 -22 22 47 24 -26 34 -28 -29 -30 44 51 -33 33 -35 -36 -37 -38 -39 -40 49 -42 42 45 -45 48 46 -48 -49 -50 -51 -52 -53 -54 54 58 57 -58 -59 -60 -61 -62 -63
leaf_value=-0.0065657492214263175 -0.14800632970250782 -0.14237218177099106 -0.17105265168992492 -0.14320159254151058 -0.017141575014330526 0.065836131459801897 0.033139985081618049 -0.088910046065275056 0.098189567962044449 -0.15606721298363538 0.093542825875404287 0.058485542748560305 0.0381628594896452 -0.024608820762624165 0.034338121431043526 -0.089049086815095033 0.071084707833485403 0.016566799775273661 0.17514288100987471 -0.20244816741062055 -0.11319953875452665 -0.14025240247631438 0.11627749343183583 0.047677652807684601 -0.042068731002530016 -0.17571316912434348 -0.1077549406608396 -0.085497898167894368 -0.048567851727025491 -0.11784333549405875 -0.11038539032334616 -0.16610762924595493 -0.069764591223489228 0.0089206790971598938 -0.070193110777234266 -0.0054727699165577634 0.080383574840075134 0.056036483916517749 -0.11920170021117729 -0.12705347141477183 0.066548406348006725 -0.14472535795411948 -0.10132294927137148 0.37887044926837232 0.052791985919578323 -0.086806061862598247 0.10638146904330839 -0.12753474302191339 0.11769449419988259 -0.009273700191730792 -0.15444391407122368 -0.15594820751240324 -0.17645090461983148 -0.11540773402994518 -0.12577390551455347 -0.11858401843547602 -0.11931113787645989 -0.13597633596879274 -0.14993865796729344 -0.11787548033327876 -0.16482160885958513 -0.13701897658974385
