tree
version=v4
num_class=1
num_tree_per_iteration=1
label_index=0
max_feature_idx=136
objective=binary sigmoid:1
feature_names=Column_0 Column_1 Column_2 Column_3 Column_4 Column_5 Column_6 Column_7 Column_8 Column_9 Column_10 Column_11 Column_12 Column_13 Column_14 Column_15 Column_16 Column_17 Column_18 Column_19 Column_20 Column_21 Column_22 Column_23 Column_24 Column_25 Column_26 Column_27 Column_28 Column_29 Column_30 Column_31 Column_32 Column_33 Column_34 Column_35 Column_36 Column_37 Column_38 Column_39 Column_40 Column_41 Column_42 Column_43 Column_44 Column_45 Column_46 Column_47 Column_48 Column_49 Column_50 Column_51 Column_52 Column_53 Column_54 Column_55 Column_56 Column_57 Column_58 Column_59 Column_60 Column_61 Column_62 Column_63 Column_64 Column_65 Column_66 Column_67 Column_68 Column_69 Column_70 Column_71 Column_72 Column_73 Column_74 Column_75 Column_76 Column_77 Column_78 Column_79 Column_80 Column_81 Column_82 Column_83 Column_84 Column_85 Column_86 Column_87 Column_88 Column_89 Column_90 Column_91 Column_92 Column_93 Column_94 Column_95 Column_96 Column_97 Column_98 Column_99 Column_100 Column_101 Column_102 Column_103 Column_104 Column_105 Column_106 Column_107 Column_108 Column_109 Column_110 Column_111 Column_112 Column_113 Column_114 Column_115 Column_116 Column_117 Column_118 Column_119 Column_120 Column_121 Column_122 Column_123 Column_124 Column_125 Column_126 Column_127 Column_128 Column_129 Column_130 Column_131 Column_132 Column_133 Column_134 Column_135 Column_136
feature_infos=[-1.8014661073684692:2.1873281002044678] [-1.7160434722900391:2.0962586402893066] [-1.6382262706756592:2.0136351585388184] [-1.5680137872695923:1.9394575357437134] [-1.5054070949554443:1.8737261295318604] [-1.4504051208496094:1.8164401054382324] [-1.4123568534851074:1.7788288593292236] [-1.3844102621078491:1.76683509349823] [-1.3517893552780151:1.9168174266815186] [-1.3099035024642944:1.9795591831207275] [-1.2559221982955933:1.9855276346206665] [-1.1870334148406982:2.073509693145752] [-1.1039742231369019:2.1457490921020508] [-1.0067610740661621:2.2142360210418701] [-0.90047705173492432:2.2624907493591309] [-0.78966546058654785:2.2854878902435303] [-0.67814630270004272:2.3655431270599365] [-0.65620064735412598:2.4135627746582031] [-0.66012513637542725:2.4605560302734375] [-0.66667592525482178:2.4363620281219482] [-0.8555336594581604:2.3619022369384766] [-0.86833834648132324:2.2948129177093506] [-0.86565589904785156:2.1508355140686035] [-0.7797551155090332:2.1787192821502686] [-1.0841877460479736:2.1696581840515137] [-1.4308524131774902:2.0883691310882568] [-1.6366665363311768:1.9448176622390747] [-1.8254417181015015:1.7312250137329102] [-1.9454965591430664:1.5516149997711182] [-2.2033448219299316:1.3473584651947021] [-2.6534385681152344:1.1458766460418701] [-2.9375624656677246:1.0433628559112549] [-2.8855924606323242:1.0082290172576904] [-2.3245775699615479:0.99214470386505127] [-1.6179424524307251:0.99480384588241577] [-0.8696785569190979:1.096311092376709] [-0.66409575939178467:1.2523990869522095] [-0.67050886154174805:1.4357191324234009] [-0.67336314916610718:1.5244829654693604] [-0.67729061841964722:1.3777114152908325] [-0.67391806840896606:1.3165556192398071] [-0.77278417348861694:1.2273765802383423] [-0.78214722871780396:1.2687077522277832] [-0.67822211980819702:1.5027958154678345] [-0.67593681812286377:1.6759111881256104] [-0.67998087406158447:1.7528411149978638] [-0.67735743522644043:1.7343066930770874] [-0.68031680583953857:1.8940913677215576] [-0.67738151550292969:2.0411467552185059] [-0.68022686243057251:2.1347439289093018] [-0.67672491073608398:2.3221406936645508] [-0.68208664655685425:2.3866791725158691] [-0.68785721063613892:2.3278176784515381] [-0.69603323936462402:2.41339111328125] [-0.68564701080322266:2.0181429386138916] [-0.66462117433547974:1.7058380842208862] [-0.62813276052474976:1.5109990835189819] [-0.6819922924041748:1.3603483438491821] [-0.85317844152450562:1.3460699319839478] [-0.73171019554138184:1.3262704610824585] [-0.58480948209762573:1.3006186485290527] [-0.6056399941444397:1.5017008781433105] [-0.63139909505844116:1.6471337080001831] [-0.66095739603042603:1.5962808132171631] [-0.93073725700378418:1.2496439218521118] [-1.1305865049362183:1.0751444101333618] [-1.2528316974639893:0.99085426330566406] [-1.6713657379150391:0.88485002517700195] [-1.706031322479248:0.75389385223388672] [-1.8203862905502319:0.60495084524154663] [-1.7363165616989136:0.45876148343086243] [-1.6730015277862549:0.33052113652229309] [-1.5802557468414307:0.23037496209144592] [-1.5674382448196411:0.15855956077575684] [-1.4517455101013184:0.2961885929107666] [-1.6804615259170532:0.9557119607925415] [-1.8599822521209717:1.3625956773757935] [-1.985605001449585:1.0853415727615356] [-2.0616223812103271:1.1285310983657837] [-2.1171634197235107:0.92254304885864258] [-2.168381929397583:0.73609095811843872] [-2.1978850364685059:0.28676301240921021] [-2.2107267379760742:0.33890664577484131] [-2.208972692489624:0.39074629545211792] [-2.1915850639343262:0.5232703685760498] [-2.1574652194976807:0.47703936696052551] [-2.1063995361328125:0.50853937864303589] [-2.0390708446502686:0.53271615505218506] [-1.9571486711502075:0.59374678134918213] [-1.8642418384552002:0.56802195310592651] [-1.767259955406189:0.65060514211654663] [-1.8478662967681885:1.0689502954483032] [-1.6520191431045532:1.4168777465820312] [-1.5958865880966187:1.6290324926376343] [-1.5394163131713867:1.6652539968490601] [-1.4922878742218018:1.6182962656021118] [-1.4547033309936523:1.5607637166976929] [-1.4384253025054932:1.5597559213638306] [-1.4264529943466187:1.5643377304077148] [-1.5819015502929688:1.5623300075531006] [-2.0638625621795654:1.5685317516326904] [-2.4619696140289307:1.5680602788925171] [-2.648137092590332:1.5700795650482178] [-2.4631106853485107:1.5662518739700317] [-2.0338072776794434:1.5671930313110352] [-1.4165751934051514:1.5610309839248657] [-1.2213733196258545:1.5632989406585693] [-1.1215335130691528:1.561995267868042] [-1.1531716585159302:1.5723429918289185] [-1.225764274597168:1.5757462978363037] [-1.369315505027771:1.5827798843383789] [-1.6010570526123047:1.5860384702682495] [-2.1418814659118652:1.5904537439346313] [-2.4733853340148926:1.5896482467651367] [-2.5047738552093506:1.5896980762481689] [-2.0072333812713623:1.5826603174209595] [-1.6131480932235718:1.5835590362548828] [-1.6321159601211548:1.7016431093215942] [-1.6864286661148071:2.5795986652374268] [-1.7459897994995117:2.8008601665496826] [-1.820858359336853:2.5472877025604248] [-1.9268163442611694:1.7180403470993042] [-2.1498878002166748:1.5763181447982788] [-2.3795907497406006:1.5743108987808228] [-2.643824577331543:1.8138364553451538] [-2.951240062713623:2.1341862678527832] [-3.3299288749694824:2.7791450023651123] [-3.8750591278076172:3.7871904373168945] [0:1] [0:1] [0:1] [0:1] [0:1] [0:1] [0:1] [0:1] [0:1]
tree_sizes=6380 5727 6243 5691 6353 6837 6783 6896 6917 6766 6598 6542 6914 6786 6881 6936 6926 6907 6578 6953 6270 6913 6910 6588 6822 6348 6563 5971 6889 6883 6924 6966 6474 6809 6651 6146 6539 6760 6945 6968 7009 5580 6855 6758 5839 6953 6591 6923 6214 6960 5815 5042 6969 6931 6856 6389 5729 6397 6568 6285 6725 6789 6851 6595 6761 6825 6918 6789 6940 6002 6937 6142 6105 6365 6604 6735 6986 6919 6854 6123 6322 4939 5951 6699 6939 6836 6749 6072 6154 6892 5309 6597 6280 6407 6798 6387 6959 6923 6965 5302 6850 6199 6489 6755 6819 6426 6612 6943 6672 6927 6304 6599 6802 6722 6905 5849 3989 5937 6461 6936 6539 5863 6927 6565 6384 6529 6718 6144 6571 6933 5954 6780 6591 6503 6717 6911 6471 6043 6374 6486 6188 6054 6819 4656 6836 6921 6139 6517 5294 4926 6601 6811 6073 4946 5503 6148 6698 6245 6598 5135 5036 4961 6819 6947 6312 6628 6079 6263 6464 6638 6469 6792 6811 6479 6483 6822 6692 5762 6198 6085 6575 6665 6970 4490 6407 6815 6789 5729 4856 5969 6800 6283 6344 5877 6947 4626 6716 5715 6625 6681

Tree=0
num_leaves=59
num_cat=0
split_feature=52 103 45 104 104 45 124 103 45 74 52 125 103 45 44 30 135 31 81 95 103 44 75 52 32 57 103 20 111 123 134 7 20 31 57 134 71 114 83 112 134 102 36 55 72 104 134 3 85 133 40 29 53 3 105 113 43 0
split_gain=87697.8 36327.8 30093.7 28656.1 23457.5 14503.4 17769.8 9921.08 11029.6 9837.72 15569.7 9709.41 9573.12 11033 8402.94 8269.77 8086.5 6238.88 5094.11 4802.93 4692.7 4523.05 3842.49 5679.5 5870.93 3839.18 2779.47 2709.51 2650.87 2636.95 3642.82 3149.2 2508.98 2248.99 1930.49 2797.21 1807.87 2295.31 2061.28 1783.41 3707.47 1609.57 1557.66 1272.27 1264.57 1110.83 881.437 784.172 697.632 624.587 611.867 472.915 454.848 267.082 247.079 139.621 124.584 1.77636e-15
threshold=1.0753409266471865 -0.83860564231872547 1.0435101389884951 -0.92311096191406239 -0.72130185365676869 1.2008801698684695 -2.3040412664413448 -0.86131557822227467 1.0753346085548403 -0.97259303927421559 1.1015803217887881 -1.3845484256744383 -0.87892347574233998 0.86210504174232494 1.0761916637420657 1.0948732495307925 1.0000000180025095e-35 1.0032960772514345 -1.3106313347816465 -0.59404683113098133 -0.81588545441627491 1.2011290788650515 -1.0930171012878416 1.0554113388061526 0.9518355429172517 0.87012338638305675 -0.94182977080345143 1.2996736764907839 -1.2641652226448057 -1.3536629080772398 1.0000000180025095e-35 0.4663695096969605 1.2723160386085512 0.9986371397972108 0.87319520115852367 1.0000000180025095e-35 -0.20006982237100598 -1.403428792953491 -0.33846487104892725 -1.0466791391372678 1.0000000180025095e-35 -0.80952927470207203 0.96069824695587169 1.0275936722755434 -0.43972048163413996 -0.74387511610984791 1.0000000180025095e-35 0.57874608039855968 -1.2696977853775022 1.0000000180025095e-35 1.0749966502189638 0.84434041380882274 1.1599390506744387 0.59087923169136058 -0.78119587898254383 -1.3680145144462583 1.1851466298103335 -0.16317521035671231
decision_type=2 2 2 2 2 2 2 2 2 2 2 2 2 2 2 2 2 2 2 2 2 2 2 2 2 2 2 2 2 2 2 2 2 2 2 2 2 2 2 2 2 2 2 2 2 2 2 2 2 2 2 2 2 2 2 2 2 2
left_child=1 2 3 15 5 6 28 25 11 17 -11 -9 13 -5 22 16 -1 -8 -10 44 29 50 23 47 -25 27 -17 -4 43 31 -31 -16 -27 -14 35 -22 38 51 52 40 -24 -36 45 -2 49 -21 -30 -3 -41 -7 53 -38 -23 55 -46 -6 -39 -44
right_child=4 14 7 12 21 19 9 8 18 10 -12 -13 33 -15 20 26 -18 -19 -20 42 34 36 39 24 -26 32 -28 -29 46 30 -32 -33 -34 -35 41 -37 37 56 -40 48 -42 -43 57 -45 54 -47 -48 -49 -50 -51 -52 -53 -54 -55 -56 -57 -58 -59
leaf_value=-1.906194899367311 -2.5376801291888338 -2.4250267333806215 -1.4432744202230627 -2.796076913069403 -2.6349562360815399 -1.8454011138317346 -1.5434032835310461 -2.5531262602211937 -1.4621046736065533 -2.0003687871188482 -1.7545306230334654 -1.9406566438635875 -2.5260142303291029 -2.2213372683923858 -1.5130113599509003 -2.0251427852894923 -1.3158754918212865 -2.2459530415569358 -1.9646988091582627 -1.3520916483537424 -2.5085642466155589 -2.9444451173755981 -2.6676538377207075 -1.7982893689649508 -2.563839983065479 -1.6922062002368148 -2.6436407112907654 -1.7381567054014873 -2.8562905913029479 -2.1325651222707807 -1.3926020200081539 -2.5311184147935526 -2.2192179337311253 -2.8315552589936552 -2.3571306864959305 -1.3651468900718586 -2.0926299631173602 -2.9444451173755981 -2.9444451173755981 -2.6848638779011202 -1.2118850639577503 -2.7950149603371917 -2.9444451173755981 -1.6664738945906219 -2.9444451173755981 -1.5798287340890169 -1.0294220111861165 -2.8888950207418693 -2.9116245876345137 -2.6315040474331846 -1.6570912360862062 -1.1264060196764265 -1.5643621741568856 -1.3153640928320689 -1.3926020200081539 -2.9363834655286722 -2.085175892871832 -2.9444451173755981
leaf_weight=767.13137659430504 33.61493556201458 42.777154877781868 418.98994502425194 380.15347081422806 16.56769397854805 135.29758107662201 1629.8259021192789 554.70081633329391 312.46918416023254 4283.4479270875454 6463.721258237958 485.27566811442375 620.87720221281052 2751.2861710935831 37.014876052737236 148.73647536337376 332.68926860392094 137.02897338569164 568.70863829553127 880.15717685222626 62.739063739776611 2.7153719067573574 154.37375415861607 172.98172071576118 238.00555175542831 147.40846349298954 142.05014319717884 1215.6876157522202 193.88367614150047 197.88910017907619 100.22577983140945 169.5415908396244 233.31732082366943 393.64458379149437 136.77699136734009 32.467060282826424 6.0195184946060172 11.122581079602238 36.918614193797112 177.77730689942837 19.73002153635025 217.32075674831867 2.6631532162427902 33.435266926884651 14.986764177680017 283.0633998811245 2.6775223016738883 246.14500595629215 572.83950290083885 10.923285707831381 3.9829895645380011 31.964032158255577 19.815300136804581 1.0491635054349888 1.1013821959495533 212.01267318427563 1.9890999346971519 3.9686204791069022
leaf_count=7192 515 610 2102 6749 269 1191 9713 8579 1623 43956 51369 4707 9444 33957 210 1561 1270 1723 5645 3660 944 52 2554 1446 3705 1085 2318 9474 3552 2277 455 2587 2875 7120 1863 139 67 213 707 2970 56 3856 51 238 287 1784 3 4585 10793 177 28 65 122 4 5 4044 22 76
internal_value=-2.83859 -2.18614 -2.09555 -2.24584 -1.82084 -1.80094 -1.83368 -1.88418 -2.04678 -1.81656 -1.85251 -2.26733 -2.3776 -2.29111 -2.51891 -1.85302 -1.72763 -1.59789 -1.78648 -1.48695 -2.28333 -2.63654 -2.65724 -2.48047 -2.24162 -1.72918 -2.32728 -1.66257 -2.6462 -2.07406 -1.88379 -2.34867 -2.01517 -2.64457 -2.51839 -2.11864 -2.10953 -1.67332 -2.48444 -2.79104 -2.50268 -2.62587 -1.41622 -2.10324 -1.99671 -1.40751 -2.83141 -2.82022 -2.85792 -1.90413 -2.88591 -1.27953 -1.73069 -2.90723 -2.83821 -2.91454 -2.81409 -2.94445
internal_weight=0 12051.7 9473.13 5536.57 14454 14109.8 12777.6 3936.56 1921.15 12514 10747.2 1039.98 4145.96 3131.44 2578.61 1390.61 1099.82 1766.85 881.178 1332.16 953.975 344.157 1624.63 699.909 410.987 2015.4 290.787 1634.68 263.611 504.671 298.115 206.556 380.726 1014.52 449.304 95.2061 110.545 51.0952 59.4493 924.721 174.104 354.098 1169.85 67.0502 162.309 1163.22 196.561 288.922 750.617 146.221 233.613 37.9836 22.5307 229.63 16.0881 228.58 13.1117 6.63177
internal_count=268644 144751 105701 69611 123893 118300 111069 36090 20554 106761 95325 13286 57270 40706 39050 12341 8462 11436 7268 7231 12331 5593 26719 10346 5151 15536 3879 11576 4308 5529 2732 2797 3960 16564 6802 1083 1248 367 881 16373 2610 5719 5571 753 1660 5444 3555 5195 13763 1368 4345 132 174 4317 292 4313 235 127
is_linear=0
shrinkage=1


Tree=1
num_leaves=52
num_cat=0
split_feature=45 31 43 104 102 34 104 44 103 29 132 37 113 83 74 87 6 133 134 38 38 134 32 102 130 114 32 103 127 53 135 96 30 106 8 135 114 90 104 135 30 103 103 135 102 118 30 102 19 115 36
split_gain=6419.37 5712.71 6655.6 5825.4 3760.02 3311.8 5156.39 3294.11 3105.45 2989.06 2569.53 5610.33 3869.91 3477.11 3121.68 2419.4 2402.61 2772.6 1749.9 1629.48 1405.29 1307.73 1266 1168.54 1161.54 1140.96 1059.5 1026.59 860.345 745.067 673.186 619.534 494.794 288.944 118.151 111.331 51.8328 125.275 0.822668 0.174068 0.0243448 0.00998317 0.0115831 0.00938164 0.00465528 0.000827719 0.000669266 0.000480695 0.000462892 0.000130463 5.63377e-05
threshold=0.74328023195266735 1.0004903674125674 1.0705295205116274 -0.81518176198005665 -0.83445569872856129 0.83487880229949962 -0.90305465459823597 1.043824374675751 -0.8567325472831725 1.2197031378746035 1.0000000180025095e-35 0.94730725884437572 -1.1558368802070615 -0.6841440200805663 -0.92523548007011402 -1.1342681646347044 0.74192023277282726 1.0000000180025095e-35 1.0000000180025095e-35 0.9880170226097108 0.95285364985466015 1.0000000180025095e-35 0.95513194799423229 -0.92721667885780323 1.0000000180025095e-35 -1.0119509696960447 0.96036037802696239 -0.92846137285232533 -1.8455408215522764 1.1052287220954897 1.0000000180025095e-35 -0.78496554493904103 1.0687958002090456 -0.91615301370620716 0.99372637271881115 1.0000000180025095e-35 -0.98223114013671864 -1.0813514590263364 -0.92311096191406239 1.0000000180025095e-35 1.0930864214897158 -0.83860564231872547 -0.87892347574233998 1.0000000180025095e-35 -0.93311491608619679 -0.91545739769935597 1.0939057469367983 -0.95595145225524891 1.7578429579734804 -1.0006999373435972 1.0000000180025095e-35
decision_type=2 2 2 2 2 2 2 2 2 2 2 2 2 2 2 2 2 2 2 2 2 2 2 2 2 2 2 2 2 2 2 2 2 2 2 2 2 2 2 2 2 2 2 2 2 2 2 2 2 2 2
left_child=25 5 4 15 7 6 9 8 -3 23 12 13 18 -12 -14 24 17 -8 -7 21 31 -5 -9 -2 -4 33 -22 -11 -21 -13 -17 -6 -18 44 -35 49 37 -27 39 45 -41 42 -40 47 46 -38 48 -39 -1 -36 -43
right_child=1 2 3 19 20 10 16 22 -10 27 11 29 14 -15 -16 30 32 -19 -20 28 26 -23 -24 -25 -26 36 -28 -29 -30 -31 -32 -33 -34 34 35 -37 38 43 41 40 -42 50 -44 -45 -46 -47 -48 -49 -50 -51 -52
leaf_value=-0.11655369210562901 0.43593743715737743 0.22566717375212583 0.52072817071170741 0.10104408269855024 -0.024144554978018831 0.44516768037328869 0.28614325452203099 0.38105798419539233 -0.068745119653070452 0.24969469296006311 0.33455641005731479 0.27994635424034564 0.40716866652833528 0.060608155703794998 0.33267062164326616 0.2792301262215055 0.19095040271752425 -0.004257989192221299 0.6144696287353042 0.28108881288653137 0.30319323476231236 0.48924666791490057 0.26614550122469144 0.3274327216911373 0.28406884421601014 0.43465603390343815 0.066494020381797164 -0.02166304940289706 0.54735569521542116 0.3991245484112339 0.56778439355844146 0.96939992029802657 -0.063963229575866906 0.4766120159138601 -0.11492607549698902 0.47280135991569355 -0.11283456259724507 -0.11476092509194807 -0.10610491581459013 -0.12682394252935184 -0.11748356431176157 -0.10543872852252256 -0.10799771518377083 -0.12132545358047853 -0.11036270988339135 -0.11486449586618799 -0.11344301162518076 -0.11308865730696394 -0.11486449586618797 -0.11403596430014391 -0.10556758052924452
leaf_weight=2.3614623695611936 2732.7622153945267 2466.1282244622707 2359.1227423325181 870.96995628997684 696.95563748851418 4345.8448967635632 1964.5756261460483 1942.2775714918971 419.16750874370337 469.13224934786558 798.75368306785822 612.15473012253642 11970.781436596066 1103.2840230800211 10609.985734440386 796.74374782666564 95.979682218283415 394.84513581544161 710.28815031424165 559.15867692604661 366.68239453062415 96.37830751016736 1893.2950099855661 1558.6221464946866 227.37878138199449 6.0928967148065594 390.49189979583025 198.36670078337193 154.98463424295187 3666.2579395100474 89.980809815227985 6.3331358358263961 368.45176201313734 51.130035907030106 4.9702046141028386 5.7008013725280762 2.0971144363284102 8.2886733636260015 105.79509289562702 18.845102190971378 3.2754883803427211 56.993208285421133 46.559315279126167 2.4182525463402262 2.8727211877703658 47.656137339770794 2.29490015655756 2.168677106499671 5.1824641078710556 2.4624514430761337 83.862748354673386
leaf_count=20 9373 18097 7555 6395 9644 15353 15885 8763 5823 2646 4251 3162 44516 9610 45630 4074 873 4080 557 2631 2015 391 11432 9590 1265 5 3717 3023 481 6880 206 19 4284 39 44 2 22 74 1951 113 33 1165 679 21 38 423 22 23 46 24 1679
internal_value=0 0.345042 0.288088 0.377088 0.232013 0.3633 0.304485 0.263615 0.182896 0.365909 0.376836 0.318546 0.389871 0.175652 0.372164 0.451055 0.196621 0.237545 0.468951 0.224303 0.0865839 0.139721 0.324335 0.396529 0.499924 -0.0296697 0.181122 0.169053 0.338875 0.382073 0.308511 -0.0151977 -0.0112826 0.321723 0.407891 0.140354 -0.100099 0.0610723 -0.108473 -0.11806 -0.125441 -0.106122 -0.106683 -0.115712 -0.113904 -0.114779 -0.114938 -0.114414 -0.115393 -0.114631 -0.105515
internal_weight=0 54936.1 13336 5154.72 8181.33 41600.1 7782.74 6720.87 2885.3 4958.88 33817.4 6180.45 27636.9 1902.04 22580.8 3473.23 2823.85 2359.42 5056.13 1681.49 1460.46 967.348 3835.57 4291.38 2586.5 461.028 757.174 667.499 714.143 4278.41 886.725 703.289 464.431 76.975 64.2635 13.1335 384.053 18.9685 365.084 71.8738 22.1206 293.21 152.354 12.8756 12.7115 49.7533 9.83883 10.4574 7.54393 7.43266 140.856
internal_count=268644 262221 82508 22998 59510 179713 49754 44115 23920 24632 129959 23903 106056 13861 90146 13100 25122 19965 15910 9898 15395 6786 20195 18963 8820 6423 5732 5669 3112 10042 4280 9663 5157 235 109 70 6188 123 6065 591 146 5474 2630 118 126 445 88 97 66 68 2844
is_linear=0
shrinkage=0.1


Tree=2
num_leaves=57
num_cat=0
split_feature=45 102 31 38 102 114 103 124 59 73 53 37 123 53 134 135 39 100 73 53 103 27 103 103 45 71 132 70 130 36 78 59 59 126 57 132 133 2 108 29 38 16 59 46 30 100 96 103 24 37 14 112 41 34 40 44
split_gain=3283.64 5651.44 3301.02 2986.18 3589.14 3064.42 2710.69 2370.64 1941.72 1939.57 1788.61 1693.46 1494.06 4058.07 1813.28 1443.3 1070.82 1070.72 950.407 1217.36 977.023 882.174 863.058 861.217 839.509 808.52 799.468 698.625 670.685 657.963 556.264 1169.21 728.641 555.955 525.559 495.988 439.929 408.198 357.156 330.934 322.656 295.091 254.446 167.735 155.059 148.857 144.228 101.533 76.6369 0.0341699 0.0247082 0.0150397 0.00813229 0.00656091 0.00374114 0.000802671
threshold=1.1082190275192263 -0.81962618231773365 1.0047057867050173 0.85678458213806163 -0.90709394216537464 -0.92965918779373158 -0.89046892523765553 -2.4757920503616329 0.80045828223228466 -0.90014517307281483 1.0638633966445925 0.93474456667900097 -1.4576623439788816 1.0898498296737673 1.0000000180025095e-35 1.0000000180025095e-35 0.93784168362617504 -0.82218319177627552 -0.82562133669853199 1.0509077906608584 -0.82899627089500416 1.2464620471000674 -0.80443310737609852 -0.82532337307929982 0.97635856270790111 -0.44818687438964838 1.0000000180025095e-35 -0.32113687694072718 1.0000000180025095e-35 0.95052477717399608 -1.2440899014472959 0.79850897192955028 0.73885399103164684 -1.6478067636489866 0.91343882679939281 1.0000000180025095e-35 1.0000000180025095e-35 0.4206769466400147 -0.92261132597923268 1.1185699701309206 0.96167716383934032 1.0634080767631533 0.80717003345489513 1.2435206174850466 0.9942612648010255 -0.40657328069210047 -0.99539697170257557 -0.80313175916671742 1.2910746335983279 0.9481172263622285 0.38311851024627691 -1.3200505375862119 1.1121425628662112 0.83487880229949962 1.0564564466476443 1.2113856077194216
decision_type=2 2 2 2 2 2 2 2 2 2 2 2 2 2 2 2 2 2 2 2 2 2 2 2 2 2 2 2 2 2 2 2 2 2 2 2 2 2 2 2 2 2 2 2 2 2 2 2 2 2 2 2 2 2 2 2
left_child=1 2 3 4 5 -1 21 43 22 -8 17 15 13 -12 -14 16 -4 34 19 37 35 -5 27 33 -6 47 -27 39 42 -19 31 -22 -32 -13 -10 36 -20 -3 -17 -9 -25 -29 -21 49 -37 -45 -30 -24 -39 51 -51 54 55 -53 -2 -47
right_child=7 18 11 6 24 -7 9 8 10 -11 12 23 14 -15 -16 38 -18 29 20 28 30 -23 25 40 -26 26 -28 41 46 -31 32 -33 -34 -35 -36 44 -38 48 -40 -41 -42 -43 -44 45 -46 52 -48 -49 -50 50 -52 53 -54 -55 -56 -57
leaf_value=0.26227101427370486 -0.1084564395519052 1.1703261804039202 0.049107459858987228 0.21774506083471332 -0.0013007371517191762 0.056181740385850977 0.39609014558584843 0.20543932365831954 0.28723329261982283 0.23987718573483133 0.10360914352464093 0.20405980808234281 0.26786550777617679 0.25609253077601696 0.3848740860713103 0.33533085528453604 0.15544407026307452 -0.066867531247103137 0.44784612688667846 0.21376134782104456 0.20235131762703948 0.36756893983457994 0.27946583713135204 -0.087904444435635637 0.13908186855534896 0.30931206713903348 0.078745084784565059 0.35220929997111861 0.071527436852787049 0.18584127867301081 0.13109175663434394 -0.024203075972547939 -0.052382823084602841 0.39543390646045701 0.094676015322361168 0.39915248865496916 0.18645902468039122 -0.11150363548225101 -0.0087987744347594841 0.33382473657073519 0.19368736689410893 0.12940532295330703 -0.050013216185970683 0.54234399670369038 -0.11423265179213012 -0.10701304686493379 0.37030958545553067 -0.080579817732391715 0.078212376929015129 -0.12385808766048034 -0.10900225942928465 -0.10719960768143511 -0.11572619600473018 -0.10579934633508757 -0.11340801149710876 -0.11023394119935925
leaf_weight=4857.2256482802331 2.3524826839566222 2.6737265512347212 1441.9374620504677 451.35673587024212 884.00407491996884 847.37174519896507 847.07539113983512 568.36302544921637 375.72464764863253 12885.742914244533 2042.4509778469801 219.33406788110733 13686.748219788074 11997.019512798637 1466.3274120762944 405.29864921793342 2758.9577915109694 322.86500528454781 86.401311729103327 84.821212407201529 477.92242147773504 3039.6149506419897 8.6119548305869085 65.085063558071852 822.19307607784867 687.79541531950235 192.46883296594024 4079.1078453734517 17.023581251502037 151.31559395045042 283.14563578739762 435.26087886840105 918.9419127702713 493.01526464521885 227.60881409794092 6.6060332506895056 252.74227821826935 116.43311903253198 32.583387844264507 310.43793108314276 108.56705046072602 60.323370985686779 64.287878330796957 7.8032891191542149 53.761871621012688 1.6534643881022912 317.11797550320625 86.516273621469736 26.058019272983074 2.0719133466482154 2.4356840513646603 129.80191022902727 3.1572577878832817 45.083579622209072 4.342528223991394 1.4541991204023361
leaf_count=19761 33 7 11770 1083 8311 8421 1554 1592 1199 55570 9899 884 36701 30849 2625 1421 15968 2308 195 243 3469 7632 38 639 5853 2114 1324 9599 69 731 2631 2948 8783 1249 1109 20 1496 1587 298 744 512 242 338 27 534 27 297 629 193 19 35 2091 28 876 48 21
internal_value=0 0.217711 0.231009 0.246677 0.193598 0.231658 0.269515 0.261145 0.263039 0.249513 0.252742 0.161149 0.257412 0.233909 0.279188 0.136953 0.118945 0.126218 0.090106 0.200107 0.0626181 0.348198 0.315041 0.287831 0.0663477 0.228969 0.258899 0.331771 0.27639 0.0137743 0.0355297 0.0943661 -0.00916631 0.336509 0.214591 0.206042 0.253051 -0.053839 0.309724 0.250792 0.0881463 0.348962 0.100036 -0.08206 -0.0580531 0.250881 0.355087 -0.0479849 -0.0768094 -0.10723 -0.115831 -0.107017 -0.112152 -0.106839 -0.111668 -0.10852
internal_weight=0 33302.6 30159.4 24634.6 7410.79 5704.6 17223.8 36463.8 36263.7 13732.8 30270.1 5524.78 29192.5 14039.5 15153.1 4638.78 4200.9 1077.51 3143.2 628.416 2514.78 3490.97 5993.62 886.001 1706.2 975.392 880.264 5018.23 483.251 474.181 2115.27 913.183 1202.09 712.349 603.333 399.511 339.144 145.165 437.882 878.801 173.652 4139.43 149.109 200.156 60.3679 14.0682 334.142 95.1282 142.491 186.088 4.5076 181.581 6.26492 174.885 6.69501 3.10766
internal_count=268644 163736 140926 108185 42346 28182 65839 104908 101703 57124 85421 32741 80074 40748 39326 29457 27738 5347 22810 2734 20076 8715 16282 3284 14164 4105 3438 12177 947 3039 17831 6417 11414 2133 2308 2245 1691 1787 1719 2336 1151 9841 581 3205 554 103 366 667 1780 3102 54 3048 76 2967 81 48
is_linear=0
shrinkage=0.1


Tree=3
num_leaves=52
num_cat=0
split_feature=45 31 45 60 52 34 103 53 102 104 104 38 58 105 31 0 110 77 114 134 98 136 31 21 107 132 52 75 103 36 106 29 99 8 135 114 90 4 104 135 30 135 103 114 102 103 2 30 102 99 105
split_gain=2420.92 2474.98 1910.8 2007.85 1908.01 1536.04 1903.62 1772.28 2240.45 1497.87 1084.32 1019.25 1058.95 976.081 911.273 836.718 695.65 692.002 675.446 549.396 494.477 550.862 492.549 534.668 444.255 345.337 248.64 239.381 227.692 303.56 152.449 132.885 124.51 51.8485 63.1379 35.1715 73.8379 13.4798 0.98685 0.251306 0.038958 0.0128071 0.00995494 0.00863458 0.00699036 0.00671595 0.00218167 0.000962364 0.00071553 0.000651425 0.000261335
threshold=0.74328023195266735 0.9973278045654298 1.0190795660018923 0.62992537021636974 1.0365447998046877 0.85473310947418224 -0.89336836338043202 0.9217849373817445 -0.92865952849388111 -0.86130273342132557 -0.81464886665344227 0.83671593666076671 0.71607550978660595 -0.88966244459152211 0.94016128778457653 0.51762443780899059 -0.82431364059448231 -1.2542216181755064 -1.0119509696960447 1.0000000180025095e-35 -0.9692411720752715 1.0000000180025095e-35 1.0116357207298281 1.4860616922378542 -0.87031829357147206 1.0000000180025095e-35 1.0833851695060732 -1.1586880683898924 -0.89797160029411305 0.85215976834297191 -0.91615301370620716 1.146411716938019 -0.97733908891677845 0.99372637271881115 1.0000000180025095e-35 -0.98223114013671864 -1.0813514590263364 0.62133195996284496 -0.92311096191406239 1.0000000180025095e-35 1.0930864214897158 1.0000000180025095e-35 -0.83860564231872547 -0.92965918779373158 -0.93311491608619679 -0.87892347574233998 0.63845583796501171 1.0939057469367983 -0.95595145225524891 -0.95035403966903675 -0.90458646416664112
decision_type=2 2 2 2 2 2 2 2 2 2 2 2 2 2 2 2 2 2 2 2 2 2 2 2 2 2 2 2 2 2 2 2 2 2 2 2 2 2 2 2 2 2 2 2 2 2 2 2 2 2 2
left_child=18 5 13 20 9 6 7 8 -2 -5 -6 24 -13 22 -9 16 17 -7 30 25 32 -22 23 -3 -8 -17 -18 -21 29 -15 44 -24 -4 -32 50 36 -20 -30 39 43 -41 48 45 -37 47 -40 -44 49 -38 -1 -35
right_child=1 2 3 4 10 15 11 14 -10 -11 -12 12 -14 28 -16 19 26 -19 35 27 21 -23 31 -25 -26 -27 -28 -29 37 -31 33 -33 -34 34 -36 38 41 -39 42 40 -42 -43 46 -45 -46 -47 -48 -49 -50 -51 -52
leaf_value=-0.11912156225936273 0.20420798279019411 0.15641104066652839 0.20250184455547676 0.13771522254580859 0.1841831842833028 0.23910585099699322 -0.042114465556986197 0.17225425905551772 0.040273943139457563 -0.062576890197110685 0.13480731581425728 0.34213531512047662 0.1325288585421682 -0.039002221177376187 0.26237468663008323 0.41622737956631256 -0.052028415009153818 0.20459130440913748 0.2561336515829683 0.68265052193495945 0.25711391584792698 0.49645348619157492 0.70463174900489456 -0.055746672544854416 0.28137821353476605 -0.027763948358209445 0.12862474148521003 -0.11510444536462656 -0.02113827317828143 0.44591050984908265 0.27410159873953799 -0.10027653546534324 0.5646218750111639 -0.11729443862061802 0.27874734842942556 -0.11686732688190543 -0.11710664082710041 -0.1090049237770942 -0.10593637752250272 -0.12922670799460548 -0.1174737754294158 -0.12442837093929873 -0.10563586960076053 -0.11401730994624015 -0.11195823756968121 -0.10741718724584344 -0.10481690717045632 -0.11559927407466181 -0.11517288459249329 -0.11721902687810332 -0.11603049881202221
leaf_weight=2.6165864467620814 2463.8579536341131 867.01958379149437 10.612638019025324 933.95664102584124 17927.306824918836 7295.2120231539011 430.12785398587584 1546.3573656082153 1260.0137839391828 622.06311941891909 5915.1342973820865 252.6566052287817 5236.6109506264329 44.329634994268417 4088.8772597834468 341.71038569509983 114.0725983530283 28514.625697825104 8.3584692776203173 4.2769292294979087 674.76455591246486 112.14694702625275 2.0871355682611457 137.64441680535674 47.101281497627497 18.465016052126884 229.394272595644 31.206482566893101 18.400930818170309 18.214055575430393 72.189068809151649 118.72037199139595 90.165740795433521 6.0315595418214807 7.8638272285461417 15.385150238871573 9.2251038998365384 341.30525748804212 102.83881748840213 19.680022910237316 3.2921582870185366 2.6330969631671897 58.379408627748489 34.396449461579323 3.1648766882717601 43.617357812821865 73.458378609269857 2.5647248625755301 2.4142494685947886 5.7646127343177813 2.2446361482143411
leaf_count=20 7800 4428 49 4877 63530 12921 3925 3711 9293 7470 23378 997 26441 349 12100 418 732 70414 5 3 2212 41 3 1059 243 126 561 277 172 55 39 1087 141 48 2 126 74 3408 1951 113 33 21 1164 319 38 679 1680 22 23 46 20
internal_value=0 0.187797 0.163741 0.170098 0.164931 0.200704 0.17413 0.20227 0.148739 0.0576428 0.171933 0.12999 0.142176 0.055762 0.237645 0.211847 0.210264 0.211623 -0.0383688 0.356479 0.317933 0.291223 0.104404 0.127344 -0.0101866 0.393465 0.068626 -0.0189485 -0.07389 0.102215 0.189116 -0.0863705 0.526488 0.237875 0.0758429 -0.100731 0.0200998 -0.10451 -0.108521 -0.118891 -0.127542 -0.11813 -0.10581 -0.114898 -0.116097 -0.106377 -0.10518 -0.117294 -0.116706 -0.117813 -0.116952
internal_weight=0 79708.4 27833.9 26286.2 25398.5 51874.6 15325.6 9359.11 3723.87 1556.02 23842.4 5966.5 5489.27 1547.72 5635.23 36549 36153.3 35809.8 476.119 395.659 887.69 786.912 1125.47 1004.66 477.229 360.175 343.467 35.4834 422.25 62.5437 102.44 120.808 100.778 88.3291 16.14 373.679 22.6309 359.706 351.048 72.7538 22.9722 14.2725 278.294 49.7816 14.1108 146.456 131.838 10.9459 11.6394 8.3812 8.2762
internal_count=268644 262221 112259 101698 99255 149962 64510 32904 17093 12347 86908 31606 27438 10561 15811 85452 84628 83335 6423 824 2443 2253 6577 5487 4168 544 1293 280 3984 404 235 1090 190 109 70 6188 123 3580 6065 591 146 118 5474 445 126 2630 2844 88 97 66 68
is_linear=0
shrinkage=0.1


Tree=4
num_leaves=58
num_cat=0
split_feature=45 102 113 133 29 31 124 73 128 58 53 124 38 130 58 57 57 108 6 102 45 123 51 52 0 112 82 102 53 132 107 59 103 71 116 120 34 98 103 30 102 25 46 102 30 121 113 37 100 72 37 112 112 41 34 40 44
split_gain=2049.36 3213.67 1797.61 1940.96 1687.1 1661.19 1346.16 1040.79 1517 845.254 1153.11 1885.55 917.188 1330.57 877.821 707.265 686.77 669.263 1010.43 850.377 642.273 788.773 613.342 560.636 510.328 490.606 742.341 483.117 997.382 985.58 456.652 425.324 380.287 291.721 247.001 365.362 231.614 227.072 223.744 181.963 271.315 115.721 115.005 114.686 154.899 112.783 87.5757 83.4028 68.6411 63.5564 0.0385223 0.0260573 0.0159071 0.00838956 0.00670161 0.00395057 0.000812751
threshold=1.1185265779495241 -0.81199064850807179 -1.1119009256362913 1.0000000180025095e-35 1.0916650295257571 1.0014491677284243 -2.4757920503616329 -0.80137315392494191 1.0000000180025095e-35 0.87369209527969371 1.0898498296737673 -1.5772893428802488 0.9891745150089265 1.0000000180025095e-35 0.89747467637062084 0.91180023550987255 0.94773000478744518 -0.99368208646774281 0.51856443285942089 -0.86535146832466114 1.1051411032676699 -1.380036413669586 1.0955319404602053 1.080309331417084 0.31184005737304693 -1.0523035526275633 -1.0287735462188718 -0.79188901185989369 1.0877903103828432 1.0000000180025095e-35 -0.86676606535911549 0.74612885713577282 -0.87194329500198353 -0.44133196771144861 -1.1961704492568968 -1.2941941022872923 0.9110170602798463 -0.73550733923912037 -0.85019734501838673 1.0451946854591372 -0.79503977298736561 1.3593335151672366 1.2435206174850466 -0.80564084649085987 1.0454504489898684 -1.1675459146499632 -1.1402204632759092 0.96342968940734874 -0.40657328069210047 -0.60385775566101063 0.9481172263622285 -1.3063924908637998 -1.3200505375862119 1.1121425628662112 0.83487880229949962 1.0564564466476443 1.2113856077194216
decision_type=2 2 2 2 2 2 2 2 2 2 2 2 2 2 2 2 2 2 2 2 2 2 2 2 2 2 2 2 2 2 2 2 2 2 2 2 2 2 2 2 2 2 2 2 2 2 2 2 2 2 2 2 2 2 2 2 2
left_child=1 2 17 4 22 -6 42 8 23 27 11 24 13 -12 -13 20 -14 18 38 -20 31 -22 -4 36 -11 26 -5 32 29 -29 -25 -9 41 -30 46 -36 -3 -34 -1 40 -17 -8 50 44 -10 -27 -19 -41 -44 -45 52 -52 55 56 -54 -2 -50
right_child=6 7 3 25 5 -7 9 15 43 10 12 14 16 -15 -16 39 -18 34 19 -21 21 -23 -24 30 -26 45 -28 28 33 -31 -32 -33 37 -35 35 -37 -38 -39 -40 47 -42 -43 48 49 -46 -47 -48 -49 53 -51 51 -53 54 -55 -56 -57 -58
leaf_value=0.25714125907137808 -0.10868280192502877 0.10749675551448974 -0.10772322735521772 0.12299885409046268 0.16192097205307318 0.11505409810602062 0.13905164818136742 0.072570311041647573 0.12676472416276269 0.041001628534809785 0.12420766286852802 0.15922737962886266 0.23019151335441657 0.233044261184992 0.03104637193579626 0.082265407292751239 0.17683098422491611 0.37148058199610401 0.18808245324394213 0.10221604970680027 0.048568086799547959 0.21501325750738731 0.067860579113228722 -0.13202418017247844 -0.12996660772478549 -0.086144846683551546 -0.077682849618275457 0.17127673408384783 -0.0004207610032906429 0.030999728924393441 0.2203211467605288 -0.05228727061540217 0.21162227535721667 0.28304262057164725 -0.024838098173670334 0.25201944756221956 -0.10340089829549332 0.27878807104223674 0.17619779068860725 -0.10099644663582297 -0.071729477450469231 -0.14354345026504187 0.29265819236369728 -0.12356953584575753 -0.12514699619436134 0.0022789402960945063 0.16599290983734316 0.41076182363412417 -0.10724353383470844 0.086905376035090368 -0.12424522644233681 -0.10933267946823338 -0.10738379333752202 -0.11599090648084694 -0.10598695456374517 -0.11372031776345773 -0.11044845436805084
leaf_weight=1498.6702030450106 2.4052065387368193 151.90044949948788 313.81112154200673 714.36506526917219 21799.524930935353 11580.491602178663 544.61287953704596 478.30039524659514 57.913264166563749 866.38123789429665 5902.8805669844151 6308.2789535671473 3100.3556415811181 1387.2616774588823 583.70318211615086 200.35570706427097 10862.943043678999 213.1599697843194 2834.1108739115298 1944.8147844672203 832.55091026425362 432.68281233310699 543.51515561342239 38.185479037463665 218.65131397545338 311.48733051866293 248.42811210080981 1967.0110208131373 38.334797866642475 671.96653221175075 1001.5934493988752 635.09622537717223 5633.2871628701687 685.89292412996292 50.435945421457291 867.97751561924815 79.238094359636307 552.73405746370554 442.27765480428934 406.37131574004889 266.70717929303646 14.886557787656782 12.171272568404676 202.82426000759006 42.192155841737986 268.65839064493775 22.97565320879221 3.2097240909934035 1.6990167647600165 15.43899594247341 2.2182237878441811 2.4836594238877288 132.67476452887058 3.1960698962211609 46.344478033483028 4.413303017616272 1.4809988439083099
leaf_count=2229 33 848 4113 2518 72265 52722 1168 3696 202 3723 16624 14262 4606 1934 1882 760 18813 203 6069 7004 3691 1358 1477 216 1247 2068 1604 5062 164 3342 1207 5632 10427 675 284 1273 628 629 1194 2481 1478 71 27 1473 323 1562 69 6 27 157 20 34 2091 28 876 48 21
internal_value=0 0.138104 0.146679 0.13716 0.142104 0.145662 0.168776 0.0608322 0.127168 0.170121 0.161501 0.129081 0.173669 0.144918 0.148371 0.0284458 0.188679 0.189935 0.177851 0.153139 0.0567431 0.105489 0.00359082 0.176067 0.00654881 0.0274455 0.0712172 0.195047 0.164086 0.135558 0.207381 0.00134989 0.210483 0.268038 0.260269 0.236815 0.0351976 0.217624 0.238697 -0.0483344 -0.00567038 0.131533 -0.08429 -0.0680344 0.0205897 -0.0451969 0.351487 -0.096986 0.153419 -0.108681 -0.107429 -0.116368 -0.107203 -0.112373 -0.107022 -0.111943 -0.108736
internal_weight=0 48499.3 43654.7 35780.3 34237.3 33380 39548.3 4844.56 1589.29 39339.2 29230.5 7977.01 21253.4 7290.14 6891.98 3255.27 13963.3 7874.42 6719.87 4778.93 2378.63 1265.23 857.326 1270.92 1085.03 1542.94 962.793 10108.7 3363.21 2638.98 1039.78 1113.4 6745.52 724.228 1154.55 918.413 231.139 6186.02 1940.95 876.644 467.063 559.499 209.087 318.369 100.105 580.146 236.136 409.581 18.5474 218.263 190.54 4.70188 185.838 6.37609 179.019 6.81851 3.18002
internal_count=268644 180810 156654 138329 130577 124987 87834 24156 5054 84629 63091 21114 41977 18558 16144 19102 23419 18325 16496 13073 14377 5049 5590 2899 4970 7752 4122 21538 9243 8404 1423 9328 12295 839 1829 1557 1476 11056 3423 4725 2238 1239 3205 2155 525 3630 272 2487 103 1630 3102 54 3048 76 2967 81 48
is_linear=0
shrinkage=0.1


Tree=5
num_leaves=63
num_cat=0
split_feature=52 103 30 58 37 132 32 134 113 20 74 45 57 103 8 10 122 58 103 52 125 0 134 105 100 0 68 103 45 29 132 83 31 59 96 49 45 97 123 53 57 30 76 111 75 102 98 99 111 28 29 19 104 57 16 72 13 56 66 75 101 103
split_gain=1924.96 2990.55 1212.11 1076.99 1527.3 1904.82 1766.85 1062.45 1736.16 1323.07 960.761 863.654 838.436 832.883 2010.18 929.19 816.179 955.777 741.181 688.285 2094.34 1365.38 1322.82 586.877 538.73 533.461 527.574 582.55 509.029 495.025 443.227 441.242 425.755 406.964 347.368 342.094 331.017 319.092 288.482 498.142 465.236 268.065 210.272 196.949 278.88 210.362 264.113 170.025 269.018 162.807 151.213 139.796 127.677 115.83 81.0001 72.5285 71.9445 66.595 63.3913 26.4204 14.1748 0.0614095
threshold=1.0668871402740481 -0.84225451946258534 1.096825957298279 0.8462793529033662 0.9394630789756776 1.0000000180025095e-35 0.95623239874839794 1.0000000180025095e-35 -1.0758965015411375 1.2932380437850954 -0.95100539922714222 1.064206123352051 0.84568795561790477 -0.91514155268669117 0.80640071630477916 0.963921219110489 -1.2140391469001768 0.83164963126182567 -0.93522092700004567 1.1141256093978884 -1.6594852805137632 0.33575470745563513 1.0000000180025095e-35 -0.93979600071907032 -0.84876784682273854 0.6363235116004945 0.007898474112153055 -0.8295471966266631 1.0903195738792422 1.1103133559226992 1.0000000180025095e-35 -0.83019277453422535 1.0127905011177065 0.84121569991111766 -0.97085967659950245 1.1118397116661074 1.2246632575988772 -0.7311078906059264 -1.3312384486198423 1.0598619580268862 0.87399980425834667 1.1060767173767092 -1.0356312990188596 -1.156626224517822 -0.81220674514770497 -0.85036531090736378 -0.95448285341262806 -0.97733908891677845 -0.91314822435379017 1.1458761692047121 1.2093677520751955 1.2991810441017153 -0.96989199519157399 0.89092031121253978 1.0554021596908572 -0.68712973594665516 0.82318645715713512 0.95410165190696727 0.26733480393886572 -1.1532105803489683 -0.77700248360633839 -0.83860564231872547
decision_type=2 2 2 2 2 2 2 2 2 2 2 2 2 2 2 2 2 2 2 2 2 2 2 2 2 2 2 2 2 2 2 2 2 2 2 2 2 2 2 2 2 2 2 2 2 2 2 2 2 2 2 2 2 2 2 2 2 2 2 2 2 2
left_child=1 2 7 26 5 6 10 13 51 -10 -5 43 30 15 -15 -1 28 -18 25 20 21 -6 -22 57 -8 41 27 29 -14 37 42 60 -31 -25 59 -36 -33 -2 39 40 -28 -4 -13 44 -3 46 -45 48 -20 58 -49 -9 -27 -41 -51 -47 -46 -21 -40 -29 -7 -32
right_child=3 11 18 4 19 31 24 8 9 -11 -12 12 16 14 -16 -17 17 -19 47 23 22 -23 -24 33 -26 52 38 34 -30 32 61 36 -34 -35 35 -37 -38 -39 49 53 -42 -43 -44 45 56 55 -48 50 -50 54 -52 -53 -54 -55 -56 -57 -58 -59 -60 -61 -62 -63
leaf_value=0.17982022950045773 0.10469289660516334 0.66092699841768232 0.24433064945435606 0.1711918413615007 0.09093879521400855 0.27931272830766618 0.046665397807638807 0.25260133566689053 0.2440166575930435 -0.075175397194141402 0.10110603523830718 -0.12181250887309225 -0.083869430311013904 0.12491034558290343 -0.033437884199749579 0.085097705141626637 0.1682394227389985 0.018094394898543299 0.20363165354623691 0.27680743170231359 0.13470005136896121 -0.056464527358103089 0.24271488976771396 0.17874238607012782 -0.089049505023509334 0.13939937945269162 0.26264356480036127 0.32222743094860884 0.038271512185986074 0.18279093488952658 -0.12401639462167027 -0.077034352148046908 -0.019036052994618267 0.14594755978924429 -0.013398329416961991 0.10947351206398824 0.16657271018631103 0.19974034056094686 -0.052894405131007696 0.2932367365195489 0.10097158799600461 0.037594668698542548 0.2401019246529956 -0.090681677111749237 0.22346484457079518 -0.016923381095272756 0.1985539891990023 -0.016802317496543817 -0.11929289790801514 0.31923153419624978 -0.11741357458426752 0.46821151252302134 -0.066501232421210629 0.20857674891554751 0.19738223489843834 -0.10281197522464654 -0.11335975195995569 -0.14510111589462504 0.19708416630055212 0.21089944202851904 0.17401956363785426 -0.11465244533688577
leaf_weight=4943.8119525685906 1738.2336312457919 8.7917372435331327 241.35230456292629 3202.272142354399 3226.4553472883999 31.9272520840168 1049.2071130014956 51.777342095971107 156.21757694333792 769.70816197991371 5025.49788274616 16.828786168247461 680.50741587951779 18023.547199986875 839.01549173891544 1310.0364577919245 726.43753902241588 1018.2489880248904 63.231751091778278 3.9439451694488517 13582.932765629143 780.39995737746358 1237.0479872599244 4957.442157112062 405.55142376199365 38.11994107067585 241.2403986826539 58.81560242921114 684.33851381763816 6130.5486736297607 8.8193623796105367 782.25076489895582 106.33324832469225 15985.284178204834 295.23623905330896 974.52656516432762 60.06169642880559 443.28802172094584 17.380906730890274 379.26308342069387 678.91068002209067 84.742291629314423 348.46368663758039 64.319706570357084 10.134400200098755 117.67291813343763 62.006077736616135 311.29481209814548 43.575865916907787 349.38843593001366 287.19981767609715 71.732874125242233 143.43182547017932 281.60171127319336 64.650504298508167 597.78971159085631 16.943905271589756 72.758074216544628 24.364864230155945 33.435795418918133 21.325242102146149 34.015729911625385
leaf_count=10261 3756 10 591 5300 9608 18 4480 57 470 5847 13334 180 7276 60083 7313 5240 2927 6200 283 1 31325 3598 1334 7584 2549 122 257 30 3822 11085 60 6817 505 28982 1955 3130 241 650 65 292 2542 461 698 968 67 1073 183 2031 347 357 2530 32 846 455 117 7318 171 374 28 49 36 323
internal_value=0 0.107411 0.119703 0.137662 0.131294 0.0975158 0.110421 0.124233 0.0256535 -0.0213229 0.128384 0.0308424 0.0529841 0.128352 0.117867 0.159978 0.0352969 0.0806105 0.0219772 0.140261 0.126374 0.0622296 0.143716 0.152699 0.00883137 0.114117 0.164834 0.155192 -0.0226275 0.165008 0.187743 -0.0420146 0.17935 0.153711 0.0945165 0.0809042 -0.0596638 0.124007 0.211135 0.190928 0.143358 0.190606 0.223429 -0.0579016 0.171581 -0.0676802 0.0512875 -0.0443412 0.0718834 0.281228 -0.0650827 0.377824 -0.0232688 0.257162 0.300205 -0.0886858 0.0127011 -0.123407 0.0930053 0.281877 0.237148 -0.11658
internal_weight=0 31774.1 27378.8 62241.6 50424.4 10578.1 9682.53 26165.8 1049.44 925.926 8227.77 4395.32 3517.66 25116.4 18862.6 6253.85 3109.53 1744.69 1212.95 39846.3 18826.8 4006.86 14820 21019.4 1454.76 507.646 11817.2 9780.42 1364.85 8418.4 408.128 895.565 6236.88 20942.7 1362.01 1269.76 842.312 2181.52 2036.8 1581.02 920.151 326.095 365.292 877.658 35.87 841.788 126.326 705.302 106.808 455.785 598.495 123.51 181.552 660.865 414.039 715.463 27.0783 76.702 41.7458 92.2514 53.2525 42.8351
internal_count=268644 127790 96514 140854 115581 32775 25663 89303 6406 6317 18634 31276 21486 82897 67396 15501 20225 9127 7211 82806 45865 13206 32659 36941 7029 2020 25273 21160 11098 15996 1261 7112 11590 36566 5164 5085 7058 4406 4113 3546 2799 1052 878 9790 248 9542 1151 5191 630 567 4561 89 968 747 474 8391 238 375 93 79 54 383
is_linear=0
shrinkage=0.1


Tree=6
num_leaves=62
num_cat=0
split_feature=45 102 44 102 45 31 44 103 38 74 32 32 132 72 58 122 60 70 134 134 53 122 38 114 31 135 136 58 81 69 97 51 57 57 132 38 46 130 26 5 30 32 70 28 51 30 29 46 68 100 73 0 88 101 127 73 117 104 81 36 96
split_gain=1621.1 2271.65 1343.77 1667.99 1239.69 1034.51 1460.3 996.303 1435.64 1489.57 1433.32 1323.26 1511.14 916.002 943.029 962.209 914.347 863.695 806.829 780.316 944.237 939.214 746.306 683.75 670.354 536.498 530.49 513.759 618.861 425.047 411.543 491.663 429.509 394.345 376.972 338.474 331.835 302.2 283.28 273.905 288.762 266.567 242.832 264.133 235.89 212.693 217.42 208.705 176.273 174.891 162.718 205.603 158.691 147.535 139.594 110.171 100.369 66.9128 24.6012 0.465209 0.369976
threshold=1.0955315828323366 -0.85036531090736378 1.043824374675751 -0.87148401141166676 1.0676462650299074 1.0072859525680544 1.006048917770386 -0.82213428616523732 0.97034746408462536 -0.93221208453178395 0.95950058102607738 0.94332569837570202 1.0000000180025095e-35 -0.66591337323188771 0.79430353641510021 -1.2140391469001768 0.75770929455757152 -0.29119095206260676 1.0000000180025095e-35 1.0000000180025095e-35 1.1063374280929568 -1.3763744831085203 0.96607866883277904 -1.0537734031677244 1.0025161504745486 1.0000000180025095e-35 1.0000000180025095e-35 0.8389442265033723 -1.3666549921035764 -0.16800572723150251 -0.92051780223846424 1.0579564571380617 0.84568795561790477 0.83727470040321361 1.0000000180025095e-35 0.91954329609870922 1.0994659662246706 1.0000000180025095e-35 1.2258800864219668 0.33249127864837652 1.0582952499389651 0.95879581570625316 -0.32007338106632227 1.1663409471511843 1.0770869851112368 1.0740053653717043 1.1002582311630251 1.1101111173629763 0.01369795296341181 -0.80892324447631825 -0.84905457496643055 0.48038622736930853 -0.92580130696296681 -0.85628661513328541 -1.5746845006942747 -0.82832854986190785 -1.4764517545700071 -0.84601512551307667 -1.3831095695495603 0.9758819341659547 -0.96201723814010609
decision_type=2 2 2 2 2 2 2 2 2 2 2 2 2 2 2 2 2 2 2 2 2 2 2 2 2 2 2 2 2 2 2 2 2 2 2 2 2 2 2 2 2 2 2 2 2 2 2 2 2 2 2 2 2 2 2 2 2 2 2 2 2
left_child=1 2 3 5 23 6 -1 16 9 10 29 12 -11 24 34 -16 37 55 -12 20 -19 -21 -13 25 38 26 -3 42 44 -9 31 -5 -32 -27 -15 -7 -30 45 -6 56 49 52 43 -4 -29 46 -2 -47 -43 -41 51 -25 -39 -26 -44 -10 -18 -57 -52 -58 -42
right_child=7 4 27 30 13 35 -8 8 17 11 18 22 -14 14 15 -17 39 19 -20 21 -22 -23 -24 50 53 33 -28 28 36 -31 32 -33 -34 -35 -36 -37 -38 41 -40 40 60 48 54 -45 -46 47 -48 -49 -50 -51 58 -53 -54 -55 -56 57 59 -59 -60 -61 -62
leaf_value=0.092659739492553517 0.13194176144228986 -0.016221270565700007 0.022787018673149737 -0.068203327165102343 0.006672360608521978 0.0037318408925566373 0.15569352766874847 -0.1464752979312923 0.16458621154785932 0.11463186226347544 -0.03644837443430668 -0.074321269201044315 -0.039417183561914919 0.17230217364135045 -0.01893659144813245 0.07260056261661281 0.21693493794476224 0.10402025386723238 0.2723683808272252 0.11365881381206207 0.13991589253284417 0.21102958412551215 0.04924344959486545 0.092674089562081063 0.067420258562604363 0.31307777222219657 0.40068131246848115 -0.063928388543451412 -0.074111735828492439 0.15262375647633875 0.080212650594449736 0.052401976345042657 -0.11067708577513924 -0.074434100826277702 -0.016032093745266766 0.1392487163017197 0.085214671550083138 0.12717214727650436 0.17884309188432654 0.059158363612175795 -0.13387598278279353 -0.13039257893456593 0.16383264369213182 0.14499505456191833 0.17125913185221942 0.17280983184813581 0.16409441927349086 -0.14367974778973105 0.0832540147234406 0.15679044678127008 -0.023670820157423819 -0.097975358309453323 -0.15503318460097873 -0.07111210994125354 0.22637981759927106 0.10564403421757187 -0.1462140440112544 -0.12624915933857939 -0.10962737439638537 -0.12865830171410789 -0.15005642909998929
leaf_weight=13145.470265496522 2759.3457790613174 624.72993780300021 182.91536459326744 813.68491330742836 103.8340604044497 1267.4608822390437 5101.678638830781 48.139029502868652 16.021232321858406 2897.1657556593418 700.42696563899517 1118.8470473848283 816.16523230075836 726.38041790947318 2140.0780255161226 2478.0623792298138 8.5852847546339017 18925.814697865397 96.224381498992443 1878.9535951837897 11958.69089083001 2095.3063384070992 868.0060910731554 106.29726621136069 160.61627320945263 107.45590404421091 32.089375033974648 46.629789434373379 284.13844978809357 3649.736059229821 1143.6364983916283 578.20938315242529 131.41547112166882 34.754127379506826 124.49505756050348 215.66640141606331 242.10516089200974 784.89841869473457 1199.9514083191752 710.36027275025845 23.479932576417923 77.116084136068821 1033.8294359743595 5339.8099118471146 499.21186017990112 37.529601544141769 8843.4592704772949 46.842285841703415 77.358043573796749 247.37051559239626 34.951130747795105 120.90792844071984 20.445107109844685 147.45079702138901 544.8886049836874 13.442304596304892 64.030195154249668 167.42251477390528 703.29754608497024 19.749967359006405 35.494099572300911
leaf_count=49181 5059 3961 518 6758 465 7205 10230 236 24 6654 3592 6303 5643 1524 14023 10570 3 43228 69 3512 20209 2138 2706 435 682 210 25 218 1213 5869 4240 2384 720 240 599 451 637 1571 2096 1707 127 460 1961 9824 596 68 14540 234 236 373 301 1819 91 951 548 34 312 770 7989 140 162
internal_value=0 0.0934738 0.106387 0.0937218 0.0488436 0.103755 0.110283 0.119666 0.112501 0.0794716 0.122519 0.0455294 0.0807729 0.0675317 0.0480057 0.0301816 0.143233 0.122107 0.000852386 0.123286 0.117919 0.164995 -0.020339 -0.0261516 0.133783 0.0422749 0.0041468 0.141093 0.0765672 0.14873 0.0194952 -0.0181025 0.0605383 0.218375 0.144746 0.0234378 -0.000811567 0.150868 0.165131 0.0561722 0.071151 0.0969273 0.150834 0.140947 0.151168 0.155298 0.156448 -0.00290148 -0.023402 0.0843756 -0.0827828 -0.00878059 0.120008 0.00111422 0.185421 -0.0867506 -0.108706 -0.109014 -0.105558 -0.142076 -0.143614
internal_weight=0 39416.1 30570.8 22397.2 8845.35 19730.3 18247.1 59006.4 45250.4 10194.7 4494.53 5700.18 3713.33 7080.87 5469.02 4618.14 13756.1 35055.7 796.651 34858.8 30884.5 3974.26 1986.85 1764.48 1611.85 799.029 656.819 8173.53 1072.09 3697.88 2666.95 1391.89 1275.05 142.21 850.875 1483.13 526.244 12647 1303.79 1109.07 1016.7 959.818 7101.44 5522.73 545.842 11687.2 11602.8 84.3719 154.474 957.731 965.454 227.205 805.344 308.067 1578.72 196.886 92.3654 180.865 738.249 83.7802 58.974
internal_count=268644 142574 96684 81169 45890 67067 59411 126070 100987 31072 9766 21306 12297 30910 26716 24593 25083 69915 3661 69087 63437 5650 9009 14980 4194 4436 3986 15515 2664 6105 14102 9142 4960 450 2123 7656 1850 22259 2561 2824 2369 2358 12851 10342 814 19901 19599 302 696 2080 10544 2254 1662 1633 2509 828 455 804 8290 452 289
is_linear=0
shrinkage=0.1


Tree=7
num_leaves=63
num_cat=0
split_feature=45 102 29 134 31 37 73 103 43 123 32 134 124 45 60 75 32 136 75 45 57 59 107 130 103 59 107 103 31 53 45 98 78 6 33 73 116 133 33 105 31 0 104 97 57 45 120 29 56 36 32 118 45 46 46 111 38 30 104 8 103 37
split_gain=1328.84 2341.32 905.995 949.802 841.985 855.505 765.089 731.909 1794.15 2249.28 1143.41 923.421 729.427 693.767 736.595 966.746 909.599 605.377 581.948 964.806 568.884 520.424 483.727 440.122 428.094 426.047 377.055 362.747 344.63 316.005 263.747 253.64 467.468 242.325 233.951 217.279 209.232 235.131 206.753 196.355 301.62 177.832 278.322 162.715 157.107 261.425 127.94 127.128 121.73 119.252 104.672 101.907 74.7861 73.6112 43.9417 41.4875 27.4578 86.5822 2.83945 0.370604 0.25511 0.0732228
threshold=1.0768372416496279 -0.85790276527404774 1.2260965108871462 1.0000000180025095e-35 1.0083307027816775 0.84327921271324169 -0.82832854986190785 -0.82584410905838002 1.0823321938514712 -1.3579009771347044 0.9572662115097047 1.0000000180025095e-35 -2.4757920503616329 1.0520218014717104 0.65037935972213756 -1.1082442402839658 0.95249915122985851 1.0000000180025095e-35 -1.1017728447914121 1.1454122662544253 0.86697170138359081 0.82439401745796215 -0.95535966753959645 1.0000000180025095e-35 -0.84809705615043629 0.76378640532493602 -0.85991528630256642 -0.93522092700004567 1.0103478431701662 1.0397444367408755 1.1114286184310915 -0.80223199725151051 -1.2313811779022215 0.52036294341087352 0.93420335650444042 -0.82832854986190785 -0.94556641578674305 1.0000000180025095e-35 0.89848127961158764 -0.9377976357936858 0.99694725871086132 0.33252026140689855 -0.87565875053405751 -0.88015028834342945 0.7624967396259309 1.0033900141716006 -0.99832361936569203 1.0981510281562807 0.86452722549438488 0.94700244069099437 0.91903427243232738 -0.90770617127418507 1.083902180194855 1.2435206174850466 1.1219369173049929 -1.2339150905609129 0.66658031940460216 1.0930864214897158 -0.92311096191406239 0.38196526467800146 -0.83860564231872547 0.9481172263622285
decision_type=2 2 2 2 2 2 2 2 2 2 2 2 2 2 2 2 2 2 2 2 2 2 2 2 2 2 2 2 2 2 2 2 2 2 2 2 2 2 2 2 2 2 2 2 2 2 2 2 2 2 2 2 2 2 2 2 2 2 2 2 2 2
left_child=1 2 3 4 5 -1 26 21 9 20 17 -12 53 41 22 16 -16 -11 34 -20 29 23 33 31 -17 -6 -5 36 35 -9 -22 32 -2 -15 -14 -25 37 -4 -33 52 47 42 48 -24 45 -43 -46 -41 -3 -42 -8 -38 -23 61 -44 -55 58 -58 -29 -54 -30 -10
right_child=7 13 27 6 25 -7 50 8 12 10 11 -13 18 14 15 24 -18 -19 19 -21 30 39 43 28 -26 -27 -28 56 60 -31 -32 38 -34 -35 -36 -37 51 -39 -40 40 49 44 54 -45 46 -47 -48 -49 -50 -51 -52 -53 59 55 -56 -57 57 -59 -60 -61 -62 -63
leaf_value=0.080920708469716454 0.13635999329742057 0.30372835388786129 0.14046602048035101 -0.10752125451133084 0.047677001855732447 0.11992651118386854 0.30634774247504731 0.03962744368063012 -0.10675554486546975 0.13334601487230122 0.018854905496216452 0.19048873492788937 0.17811808145068747 0.18460124208777337 0.13866148087649455 0.035139146902391581 -0.053283992608497088 -0.0094127692705623517 0.080724454627479514 0.11426008511910622 -0.073228002834117331 0.3249276060354036 -0.035577721063348014 0.12216843866510707 -0.06541891255569629 -0.12498251144036698 0.21124185122447883 -0.1419373488871408 -0.13617712760911826 0.25399963018894989 -0.0045182127103037661 0.16083570105929229 0.098555722860435721 0.018707935517154287 0.1225857435115178 0.045220046909755729 -0.14453678676494761 -0.050388214525153421 0.11619134500070703 0.05199197121870304 -0.09944222285423493 -0.083569280548809632 -0.10764711016524964 0.27445631704788737 -0.10090708669085653 0.24571455285329705 0.035104670449076711 0.16713641831943707 0.064217748515460096 0.079220301418905736 0.093455228239650814 0.015435559975977488 -0.13420416003917812 0.17256216463550697 0.22297432891954433 -0.11763395095073226 0.026360680008549471 -0.10699019345427448 -0.11015336825259903 -0.14914919261960427 -0.12469642628205731 -0.11872931852615017
leaf_weight=10652.029435906559 7088.8490503020585 35.743727415800095 247.04428922384977 459.10504692792892 1905.9161740541458 11909.893768887967 60.012875571846962 273.33686117455363 172.01706021279097 3654.9742534309626 2594.412369094789 356.54840395599604 1398.999202311039 125.16018897294998 861.60629822686315 643.71054443717003 346.03844503313303 323.31991134956479 13125.369792651385 24765.983775075525 1192.0118959993124 3.6412911415100089 18.431303102523088 694.39276238903403 1236.7234952785075 154.49959641695023 40.371211968362331 37.08538630977273 47.376368582248688 91.876694314181805 1051.4468827396631 3126.5515257716179 6073.2002940699458 296.98953697085381 1657.3857243582606 778.2158011496067 64.738409873098135 87.384853109717369 1552.3889117762446 222.67824669927359 139.96983482688665 62.502481603994966 81.831165717914701 207.57140734046698 744.85829819738865 39.25213611125946 76.238489296287298 168.40022639930248 52.224720723927021 50.961163111031055 37.541779693216085 103.46004866808653 49.520416833460331 15.929437711834909 4.2275676727294913 7.1322023198008528 72.920784398913383 146.52603302150965 116.10070321336389 24.95392082631588 32.723679661750793 5.2634888887405387
leaf_count=38071 12615 98 536 3524 8297 26880 19 1403 3048 6908 11488 672 1085 337 2026 2663 2247 1343 30681 44108 8669 1 137 1249 10312 847 151 243 251 130 3912 4477 13554 1047 2791 2490 364 477 2587 508 601 1334 1579 244 6842 56 529 215 256 115 180 361 294 34 1 69 444 1372 1465 117 236 54
internal_value=0 0.0775883 0.0894295 0.0929007 0.0959227 0.101511 -0.0317273 0.102438 0.0960399 0.0569618 0.0867581 0.0395925 0.105098 0.0136563 0.0341847 0.0138428 0.0836614 0.121744 0.106029 0.102644 -0.0221841 0.118609 0.131102 0.121581 -0.0309959 0.0347302 -0.0817566 -0.0105903 0.0705166 0.093557 -0.0410256 0.126025 0.118916 0.0678925 0.148005 0.0815042 0.0448404 0.0905967 0.146024 0.0312925 0.0512733 -0.0562685 0.0364534 0.249172 -0.0737536 0.0434529 -0.0882785 0.101574 0.161537 -0.0517556 0.224421 -0.0461367 -0.117576 -0.0852485 -0.0914056 0.0828141 -0.0853582 -0.0626785 -0.117848 -0.139212 -0.131487 -0.107111
internal_weight=0 30927.7 26094.6 25219.4 24622.3 22561.9 597.031 70739.8 50686 9537.93 6929.25 2950.96 41148.1 4833.11 3736.23 3088.08 1207.64 3978.29 40947.7 37891.4 2608.67 20053.8 648.152 19393.7 1880.43 2060.42 499.476 875.261 1552.71 365.214 2243.46 17841 13162 422.15 3056.38 1472.61 502.628 334.429 4678.94 660.125 582.009 1096.88 174.027 226.003 922.851 101.755 821.097 391.078 87.9684 190.931 97.5547 168.198 78.1156 200.342 86.0587 23.0616 372.633 219.447 153.186 74.4743 80.1 177.281
internal_count=268644 112939 83231 77969 74095 64951 3874 155705 116395 34525 20411 12160 81870 29708 19013 17248 4273 8251 78665 74789 14114 39310 1765 37459 12975 9144 3675 5262 4226 1533 12581 33233 26169 1384 3876 3739 1738 1013 7064 1851 1439 10695 1934 381 8761 1390 7371 723 354 716 199 725 412 3205 1580 103 3524 1816 1708 411 487 3102
is_linear=0
shrinkage=0.1


Tree=8
num_leaves=63
num_cat=0
split_feature=45 103 75 44 102 30 103 31 29 59 38 132 114 45 82 32 38 103 57 124 26 136 136 25 136 32 127 130 96 111 134 104 44 135 30 108 25 30 30 81 103 38 62 88 24 104 31 81 2 134 101 93 103 27 63 133 106 38 127 103 127 15
split_gain=1150.66 1397.32 930.307 805.181 1675.92 803.961 845.168 741.061 863.642 708.66 974.242 1100.82 1048.81 861.786 1025.86 792.022 578.216 541.131 536.941 874.587 834.957 599.076 470.076 438.194 429.642 549.1 706.985 488.405 419.911 591.281 425.08 680.003 414.675 385.548 583.971 394.237 367.845 359.94 325.36 305.305 291.725 251.004 247.063 218.992 215.239 214.468 193.029 190.154 170.945 165.748 386.696 154.048 129.726 124.178 193.969 117.912 113.73 112.687 98.3947 68.1855 55.3813 21.017
threshold=1.1018954515457156 -0.83109998703002919 -1.0785668492317197 1.0466571450233462 -0.87148401141166676 1.096825957298279 -0.90872320532798756 1.0014491677284243 1.0941569805145266 0.80045828223228466 0.9891745150089265 1.0000000180025095e-35 -1.3133610486984251 1.2147548198699953 -0.68003824353218068 0.95932868123054515 0.95494702458381664 -0.93522092700004567 0.85116395354270946 -1.3395835757255552 1.3071697950363161 1.0000000180025095e-35 1.0000000180025095e-35 1.2639265060424807 1.0000000180025095e-35 0.96208998560905468 -1.8489423990249632 1.0000000180025095e-35 -0.90584746003150929 -1.0687140226364134 1.0000000180025095e-35 -0.83854064345359791 1.098197937011719 1.0000000180025095e-35 1.0460190773010256 -0.86088386178016651 1.3128573894500735 1.0437478423118594 1.0468456745147707 -1.0689854621887205 -0.64923498034477223 0.92988511919975292 0.71389076113700878 -1.1523578763008115 1.353757441043854 -0.79934453964233387 1.0059336423873904 -1.3903756141662595 0.54304203391075145 1.0000000180025095e-35 -0.82504940032958973 -0.99078974127769459 -0.82734170556068409 1.1776466369628908 0.55494239926338207 1.0000000180025095e-35 -0.83984580636024464 0.95285364985466015 -1.6582372188568113 -0.86131557822227467 -1.767727196216583 0.96166828274726879
decision_type=2 2 2 2 2 2 2 2 2 2 2 2 2 2 2 2 2 2 2 2 2 2 2 2 2 2 2 2 2 2 2 2 2 2 2 2 2 2 2 2 2 2 2 2 2 2 2 2 2 2 2 2 2 2 2 2 2 2 2 2 2 2
left_child=1 3 7 4 5 6 -1 8 60 28 11 12 55 14 -13 -14 36 -7 21 20 -20 44 -10 52 25 27 -27 -12 37 30 31 -30 43 35 -35 -6 57 53 -21 -34 -15 -38 45 -31 -5 -26 -25 48 -9 50 -39 -51 -18 54 -2 -11 -49 -4 -55 -23 -3 -32
right_child=9 2 16 18 33 17 -8 47 22 10 24 13 15 40 -16 -17 23 -19 19 38 -22 59 -24 46 42 26 -28 -29 29 32 61 -33 39 34 -36 -37 41 49 -40 -41 -42 -43 -44 -45 -46 -47 -48 56 -50 51 -52 -53 -54 58 -56 -57 -58 -59 -60 -61 -62 -63
leaf_value=0.10568941553386296 -0.076516079809416854 0.13201118753497162 -0.092834517137770189 0.069637494683754006 -0.018904464065222334 0.076018091001268329 0.06472043641322392 0.099185743763653217 0.12160269367920572 0.21626232080194918 0.11732273624531545 0.12394288273332217 0.091187338387509601 0.19368679739215205 -0.033219157727947049 0.049334791772837644 0.090432635593961946 -0.053070839899121383 0.034579113054387628 0.027959758412752275 0.11702921952183652 0.21850547504367646 -0.035074909195447312 0.1545838671492088 0.16654433820485792 0.062471030320180615 0.13943179456118157 0.044720684668979632 0.1222413572344337 0.11325497484632721 0.20245146195174246 0.003256042737265328 0.10152797798918548 0.29345705973861502 0.037914682887155646 0.071966401061870397 -0.020429073398965516 0.15666177982137008 0.12152022867006407 -0.10780343301822709 0.0407982903261076 0.14258028977384896 -0.13780574716375313 -0.015778885926047297 0.13655940113296827 0.062684128474429321 -0.032427904926845046 -0.0015968178601197412 -0.074564955918165532 0.20854556956775885 0.031068971696554273 0.055459824341589553 -0.12356923535278162 0.029383123008380502 0.14189381108644109 0.10590590281764936 -0.085423044076601201 -0.0010118465638596344 0.12529818668848822 0.30594539008975535 -0.098687908842821775 0.2684426789075699
leaf_weight=9312.9365764036775 110.19068637490273 10.875731840729712 1086.4683238118887 692.77383987233043 2917.8686360679567 574.39424601197243 10962.876287657768 204.02944296225905 2016.0512056164443 618.60191260278225 11133.559063192457 511.36159156262875 13597.726578712463 328.8803388401866 2211.5484605766833 6774.2311461642385 36.838835991919041 747.10320994257927 3978.1033280752599 399.19340489059687 1776.8305182494223 330.28740970790386 211.59133031219244 323.36769200861454 1570.9324339181185 6247.3008992224932 1475.5606997683644 1010.6916686445475 4890.100867908448 159.25171767547727 409.88508175313473 532.62868870794773 1472.8951998725533 106.81829360127449 549.23857318609953 570.82897397875786 390.27432331442833 2126.0855525583029 5394.6436687782407 73.132447347044945 201.12548108771443 124.62599170580506 29.614382520318031 755.54870618879795 1569.2330708988011 227.63098204135895 66.552181515842676 297.1502836458385 78.375888608396053 728.02463167160749 277.10730927437544 72.257377840578556 122.58696504682302 143.92903047055006 64.4420225918293 114.7846040725708 355.4624299891293 152.39946560189128 416.33263437449932 122.16746115684509 240.77374755032361 54.702158242464066
leaf_count=21996 394 14 10936 1680 17738 2021 38205 1018 4487 222 14801 873 24905 227 11654 18131 104 5300 13291 853 3412 89 854 918 1644 13607 2121 2208 7662 387 161 2135 3103 69 2386 2150 3011 2698 9879 307 1376 384 167 3281 2301 488 407 1824 702 508 1087 174 944 330 73 221 2563 860 514 33 2737 19
internal_value=0 0.0713861 0.0251436 0.0779949 0.0674346 0.0786124 0.083538 0.0582734 0.0868837 0.0925732 0.0868805 0.0731539 0.0814999 0.0190042 -0.00370418 0.0772702 -0.0239706 0.00303819 0.0970539 0.0876474 0.0600355 0.137074 0.106721 0.0655557 0.102292 0.098023 0.0771755 0.111281 0.113911 0.101213 0.118419 0.110554 0.0600491 0.00919006 0.0795217 -0.00403596 -0.0520135 0.140827 0.115074 0.0916259 0.135669 0.0190256 0.148682 0.00668379 0.116064 0.1534 0.122664 -0.0175895 0.0509648 0.155306 0.14218 0.194723 -0.0741194 0.0777083 0.00408036 0.19899 -0.0472549 -0.0815389 0.100658 0.242115 -0.0887176 0.210222
internal_weight=0 45722.7 5717.42 40005.3 25742.1 21597.3 20275.8 3414.31 2479.29 58340.1 46053.6 24358.3 21105.3 3252.92 2722.91 20372 2303.11 1321.5 14263.2 11548.8 5754.93 2714.46 2227.64 549.346 21695.3 19867.1 7722.86 12144.3 12286.5 8348.14 5887.32 5422.73 2460.83 4144.75 656.057 3488.7 1753.77 3938.37 5793.84 1546.03 530.006 514.9 1828.18 914.8 2262.01 1798.56 389.92 935.018 282.405 3203.47 2403.19 800.282 159.426 734.894 174.633 733.387 652.613 1238.87 560.262 452.455 251.649 464.587
internal_count=268644 153166 31763 121403 89865 67522 60201 14199 8092 115478 92645 57609 43479 14130 12527 43036 17564 7321 31538 27435 16703 4103 5341 2373 35036 32737 15728 17009 22833 17055 9977 9797 7078 22343 2455 19888 15191 5778 10732 3410 1603 3395 2299 3668 3981 2132 1325 6107 1720 4467 3785 682 1048 1311 467 443 4387 11796 844 122 2751 180
is_linear=0
shrinkage=0.1


Tree=9
num_leaves=62
num_cat=0
split_feature=37 103 114 135 31 21 108 114 103 73 36 23 104 73 36 2 104 37 32 96 102 74 11 29 53 26 132 120 102 30 53 106 0 0 27 136 57 87 45 89 35 84 114 69 31 91 3 73 106 30 36 20 35 116 10 47 75 41 62 43 42
split_gain=1065.12 1979.27 1022.82 1041.16 855.138 847.734 777.176 962.767 767.09 753.954 1188 1142.59 986.878 779.527 646.612 644.126 613.712 588.836 581.004 540.478 546.248 526.27 518.192 513.986 559.52 1205.74 503.336 502.1 496.86 473.848 385.212 346.305 313.005 307.799 300.732 297.784 292.178 282.675 251.199 247.321 234.302 197.236 193.457 289.831 186.479 136.238 123.56 168.918 115.477 111.597 97.5664 96.0385 81.3912 80.5845 79.961 75.8778 51.692 45.1649 44.6347 1.85909 0.313637
threshold=0.87812846899032604 -0.8877541422843932 -0.93055614829063404 1.0000000180025095e-35 0.99627831578254711 1.4487964510917666 -0.88770645856857289 -1.0119509696960447 -0.93815144896507252 -0.86849328875541676 0.90128400921821605 1.3800607323646548 -0.81350198388099659 -0.83205151557922352 0.92409744858741771 0.66958129405975353 -0.72130185365676869 0.97506090998649608 0.9483582377433778 -0.97174489498138417 -0.80700179934501637 -1.015282094478607 0.87998798489570629 1.1149671673774721 1.1086059212684634 1.1572370529174807 1.0000000180025095e-35 -0.96622753143310536 -0.91050118207931507 1.0624375939369204 1.170520603656769 -0.9761579930782317 0.49503441154956823 0.51361992955207836 1.2790802121162417 1.0000000180025095e-35 0.84902015328407299 -1.3411906361579893 1.0606011748313906 -1.1976774930953977 0.83693185448646557 -1.301969528198242 -1.403428792953491 0.056844113394618041 1.0116357207298281 -1.120611250400543 0.57530850172042858 -0.87572377920150746 -0.80159860849380482 1.0544959306716921 0.85684248805046093 1.7278843522071841 0.84915879368782055 -0.82513415813446034 0.86223632097244274 1.1297073960304262 -1.1371794939041135 1.1202695965766909 0.50255712866783153 0.88032695651054393 1.1398380398750307
decision_type=2 2 2 2 2 2 2 2 2 2 2 2 2 2 2 2 2 2 2 2 2 2 2 2 2 2 2 2 2 2 2 2 2 2 2 2 2 2 2 2 2 2 2 2 2 2 2 2 2 2 2 2 2 2 2 2 2 2 2 2 2
left_child=1 2 3 5 16 28 7 -5 -7 18 11 13 14 -11 -12 27 23 -14 37 21 26 22 34 24 25 -2 29 52 -1 -21 42 -26 39 38 -3 -13 -34 53 -25 -20 54 -39 43 -18 -29 -8 47 -23 57 -35 51 -22 -4 -6 -17 -44 -48 -32 -28 -24 -50
right_child=4 19 15 6 9 8 45 -9 -10 10 12 35 17 -15 -16 40 30 -19 32 20 50 46 59 33 31 -27 58 44 -30 -31 48 -33 36 49 -36 -37 -38 41 -40 -41 -42 -43 55 -45 -46 -47 56 -49 60 -51 -52 -53 -54 -55 -56 -57 -58 -59 -60 -61 -62
leaf_value=0.123538107936499 0.0083882794559216167 0.0082627156400902138 -0.11709588551138189 0.16080844867591318 -0.13421968099987122 0.068017076520972788 0.25483212247238329 0.069102787368778687 -0.021370007641528844 0.04460445481023563 0.067564052184230491 0.093244716816954898 0.030530743436470449 -0.030801492898082462 0.10583988630714172 0.40591932934840058 -0.12361941247494862 0.089702916817779421 0.1246249115104795 0.10300671720408659 -0.10326842567069841 0.22731759536375701 -0.10526115984809202 0.064902298870802302 -0.12057887224038322 0.082335015328123387 -0.13145759330471612 0.077171838201932408 0.052801974850139079 0.017245016009016838 0.1664889971980851 0.10113493996418657 0.19140431966385332 0.075501011212885105 0.16716968825105522 0.27940533561743591 -0.0066193765184580332 0.17914644812755173 0.11531147347624754 -0.10853719583021491 0.30711708053123493 0.078264827545546201 0.37499001547948418 0.10357929140832374 -0.12028599840373991 0.16367671082267288 0.22523047968519194 -0.06701139362759724 -0.13485598797826645 0.21344858464190908 0.49916051560211017 0.24017443159675997 0.071909439647921694 0.19925044769869929 -0.092424043551567442 -0.10411426781054645 -0.10569822277994526 0.0033804713117553831 0.029671189260494141 -0.12456893350964555 -0.16801998387350958
leaf_weight=2054.1958254426718 2437.403027318418 276.96255336329341 196.88970466703176 1718.6670611128211 41.708475116640329 1926.4205123484135 371.50289138406515 3428.5291856527328 1913.8453907631338 2617.1852704063058 9133.5152369663119 1351.6305616721511 6724.1889903843403 2879.0750696025789 8540.810783918947 3.2369782030582419 88.244934163987637 2242.630542203784 773.75456538796425 990.35075029358268 366.06606773287058 26.96789712458849 100.72268981859088 1176.4085669890046 70.801311321556568 23129.870986562222 182.68249512463808 1113.1839896738529 1922.2068668007851 1843.4638957567513 144.26484690606594 14148.349119734019 85.450599282979965 69.263791389763355 208.94009280204773 91.75946531444788 581.94350919127464 1309.3593463078141 6190.4817028157413 48.334989920258522 15.247532680630682 227.47282169759274 3.3424379825592032 154.36730038374662 49.975055575370789 293.48271587863564 4.7447353675961486 70.403032638132572 4.1112200990319243 382.49109771847725 2.7783292084932318 8.3273133635520917 25.76554174721241 8.7704838365316373 604.66214941442013 300.20539007335901 910.55385977961123 19.240634523332119 18.977997541427612 98.774825289845467 9.3075416274368745
leaf_count=3512 8240 1365 1265 2382 283 4320 288 12218 7757 9523 28688 2873 20951 15625 14776 6 672 4258 1472 3110 3721 34 2501 2967 392 43325 1094 3955 5037 8439 163 19955 295 118 586 48 2231 1324 9731 232 12 567 1 566 371 381 19 338 30 286 8 4 111 3 5344 3961 6078 58 67 661 46
internal_value=0 0.0533382 0.070995 0.0808141 0.0786103 0.0569806 0.112867 0.0997236 0.0234699 0.0670927 0.0627516 0.0258988 0.0723513 0.00510498 0.0860602 0.00438255 0.0873466 0.0453299 0.114472 -0.000688187 0.0222511 -0.0467898 0.020879 0.0887354 0.0841292 0.0752855 0.0363539 0.0423527 0.089344 0.0472167 -0.00408879 0.100031 0.0696124 0.112175 0.0765934 0.105079 0.0187348 0.156566 0.107262 0.110916 -0.0800591 0.164215 -0.045631 0.0209407 0.0686881 0.214602 -0.0925897 0.0145061 0.124151 0.192298 -0.0912482 -0.0956295 -0.0952243 -0.0762808 -0.0897704 -0.0988387 -0.103983 0.147295 -0.116294 -0.114821 -0.157859
internal_weight=0 20748.5 15637.8 13628.9 84985.7 7816.67 5812.18 5147.2 3840.27 36657.6 33580.8 6939.65 26641.1 5496.26 17674.3 2008.96 48328.2 8966.82 3076.79 5110.72 3412.65 1698.07 685.4 47605.1 39786.4 25567.3 3035.48 1385.81 3976.4 2833.81 723.084 14219.2 1489.48 7818.65 485.903 1443.39 667.394 1587.31 7366.89 822.09 623.147 1536.83 546.16 242.612 1163.16 664.986 1012.67 97.3709 176.924 451.755 377.172 374.393 222.655 50.479 607.899 303.548 915.299 163.505 201.66 199.498 13.4188
internal_count=268644 74984 46959 35895 193660 20626 15269 14600 12077 103149 96742 28069 68673 25148 43464 11064 90511 25209 6407 28025 16443 11582 5113 85014 71912 51565 12710 5702 8549 11549 5497 20347 4230 13102 1951 2921 2526 2177 12698 1704 5362 1891 5200 1238 4326 669 6469 372 297 404 3733 3725 1376 286 5350 3962 6097 221 1161 3162 76
is_linear=0
shrinkage=0.1


Tree=10
num_leaves=60
num_cat=0
split_feature=38 104 74 3 113 25 29 58 53 57 84 57 53 124 136 135 112 20 103 83 31 102 52 108 58 32 136 31 52 67 136 82 52 52 58 58 103 20 26 96 102 136 1 5 135 54 133 105 110 2 69 104 106 74 30 114 102 31 90
split_gain=880.73 1126.86 1294.85 1248.06 850.338 956.127 741.526 687.439 760.533 808.165 817.876 674.073 749.088 1583.91 669.782 656.261 941.95 822.175 809.691 531.938 528.135 521.967 507.806 496.914 487.677 483.891 422.47 417.664 400.747 398.023 350.915 337.327 307.673 286.401 492.242 256.004 243.311 219.315 315.271 203.949 173.941 167.853 143.753 141.007 128.824 121.724 112.14 109.91 105.167 102.866 83.9413 72.8563 29.9997 29.1685 45.5832 20.625 10.7849 5.06543 0.0860169
threshold=0.92642980813980114 -0.89476418495178212 -1.010181128978729 0.64683565497398388 -0.97588738799095143 1.3278722167015078 1.2260965108871462 0.80684599280357372 1.0462796092033388 0.89092031121253978 -1.2553606033325193 0.89698690176010143 1.0679230093955996 -1.5006333589553831 1.0000000180025095e-35 1.0000000180025095e-35 -0.91635099053382862 1.4282917976379397 -0.93025293946266163 -1.3662418723106382 1.0116357207298281 -0.93846276402473439 1.0495022535324099 -0.91114333271980275 0.8764149844646455 0.9483582377433778 1.0000000180025095e-35 0.98194825649261486 0.99220624566078197 -0.083271689713001237 1.0000000180025095e-35 -1.3875399231910703 1.0619586110115053 1.0356839895248415 0.75558874011039745 0.81412532925605785 -0.93522092700004567 1.2596314549446108 1.255953907966614 -1.0112388730049131 -0.8732638657093047 1.0000000180025095e-35 0.62347427010536205 0.67045724391937267 1.0000000180025095e-35 1.058998763561249 1.0000000180025095e-35 -0.87992697954177845 -1.173032224178314 0.62202209234237682 -0.11763508245348929 -0.86712965369224537 -0.89651092886924733 -1.0141901373863218 1.0948732495307925 -1.116585850715637 -0.85790276527404774 0.9859164059162141 -1.1989420056343076
decision_type=2 2 2 2 2 2 2 2 2 2 2 2 2 2 2 2 2 2 2 2 2 2 2 2 2 2 2 2 2 2 2 2 2 2 2 2 2 2 2 2 2 2 2 2 2 2 2 2 2 2 2 2 2 2 2 2 2 2 2
left_child=1 6 3 25 5 47 15 14 9 10 22 37 13 -13 33 17 21 20 -19 39 -1 -17 -9 -7 -14 27 -21 -3 49 -30 -12 32 -11 34 46 -27 41 45 -39 -6 -36 44 -18 48 -8 -10 -2 -4 -35 -5 -33 56 -53 54 -38 -55 57 -16 -45
right_child=7 2 4 28 19 23 36 8 11 31 30 12 24 -15 51 16 42 18 -20 26 -22 -23 -24 -25 -26 35 -28 -29 29 -31 -32 50 -34 43 40 -37 53 38 -40 -41 -42 -43 -44 58 -46 -47 -48 -49 -50 -51 -52 52 -54 55 -56 -57 -58 -59 -60
leaf_value=0.083843710683330408 0.18324274803203305 0.0095222539547415996 -0.028870213113383787 0.039220660465894286 -0.10316177650423718 0.041284504640622194 -0.051628295565984465 -0.0041627439930133426 0.12199936477345104 -0.10074147263751139 -0.0020376501782519638 -0.039122354668513742 0.092543789793014752 0.062338494842259555 0.13616547118081412 0.16361385309243304 0.054463813227331549 0.057392304427666269 -0.0423312819275182 -0.0078018362067423979 -0.059086991695791159 0.09295194258866124 0.099596873499022048 0.1321381109411415 0.068704069492108708 0.073390950211078707 -0.074946984487127069 0.12889911333619838 0.37368400384893796 0.0099699839162471719 0.20190594779019133 -0.11130190837543888 0.084690824162539174 0.17542087484174773 0.1328420903179913 -0.054780712203877605 0.0096263632274957607 -0.097552513245098837 0.088322747013248104 0.13332352295114122 -0.049398469657500846 0.23294354907882339 -0.089761235832527653 -0.19237610413731088 0.051216395024355724 0.025429286359660824 -0.012339324000339181 -0.10447323681403818 0.10527243072159971 -0.1128116130709349 -0.040502448011864117 0.23407113298043863 0.33169410938622668 0.053748478953666051 -0.11254428094440197 -0.11145856413566674 0.21993040096735494 0.18687658357318834 -0.17738044129897426
leaf_weight=6737.2652052640915 199.46326488628983 327.5630481466651 396.27442444860935 49.748993080109358 41.785717934370041 4191.6361697874963 211.78561001271009 561.62194724008441 3582.9321509934962 127.07808081433177 2175.7280669510365 1832.1586832813919 11471.789785176516 9603.8343403972685 20.965259537100792 1394.2657142132521 91.892608836293221 2091.669913828373 1333.0960910208523 3003.5281897317618 268.83526268601418 4177.6216127350926 2945.0428929068148 702.95990542694926 34050.191283777356 382.67848123982549 1361.9743241555989 2784.0532086193562 33.660016544163227 283.49371381103992 87.772297907620668 416.7224447503686 302.41565231606364 234.49276096373796 60.61016684025526 262.88735286146402 67.728645257651806 93.947907645255327 3179.7404579333961 286.57096235081553 385.40262388065457 35.374886319041252 278.73945032432675 9.6434506326913816 286.63865846395493 135.45839699357748 34.366704396903515 373.55688362568617 2412.4771394059062 422.14121031574905 279.96838587522507 69.898341655731201 57.26932991668582 7.8246561475098124 55.620579060167074 220.73340821638703 108.54287274181843 325.72622266411781 6.3400303274393073
leaf_count=13169 140 1088 1660 204 254 15391 958 3196 5166 878 10235 7188 19388 23415 21 1120 379 4865 5847 17395 1575 11288 7764 1688 64394 1212 7194 5347 19 1331 227 2562 1193 174 75 1204 438 361 5856 489 2588 33 1882 39 747 277 112 2387 3873 5409 1734 17 38 34 637 2355 27 80 27
internal_value=0 0.0516262 0.0314841 0.0759748 0.0119573 0.0380392 0.0690203 0.0714155 0.0691585 0.0376077 0.0527312 0.072561 0.0689638 0.0460835 0.112151 0.0738412 0.100366 0.0587302 0.0185747 -0.0195176 0.0783592 0.110634 0.0829789 0.0543329 0.0747118 0.0999859 -0.0287502 0.116332 -0.0383586 0.0485715 0.00587072 -0.0398794 0.0298253 0.0949091 0.0369783 0.0211969 -0.0201004 0.101864 0.0829885 0.103229 -0.0246332 0.0224557 -0.0540028 0.109699 0.00751663 0.118481 0.154497 -0.0655562 0.111487 -0.0967836 -0.0828508 0.211116 0.278035 -0.0846526 -0.0454628 -0.105803 0.192422 0.18381 -0.186428
internal_weight=0 32163.6 14904.5 4546.23 10358.3 5664.43 17259.1 74771.6 70846.4 6896.35 5770.17 63950.1 56958 11436 3925.2 16373.4 5942.52 10430.9 3424.77 4693.86 7006.1 5571.89 3506.66 4894.6 45522 3757.18 4365.5 3111.62 789.044 317.154 2263.5 1126.18 429.494 3342.8 679.843 645.566 885.706 6992.08 3273.69 328.357 446.013 533.799 370.632 2662.95 498.424 3718.39 233.83 769.831 2646.97 471.89 696.691 582.402 127.168 351.907 123.349 228.558 455.234 346.691 15.9835
internal_count=268644 107599 62272 15814 46458 21126 45327 161045 153834 27789 21422 126045 114385 30603 7211 40125 14669 25456 10712 25332 14744 12408 10960 17079 83782 8851 24589 6435 6963 1350 10462 6367 2071 7028 2915 2416 5202 11660 6217 743 2663 1738 2261 4113 1705 5443 252 4047 4047 5613 4296 183 55 3464 1075 2389 128 101 66
is_linear=0
shrinkage=0.1


Tree=11
num_leaves=60
num_cat=0
split_feature=2 127 44 94 28 81 113 103 123 93 125 114 0 33 0 104 66 30 4 111 76 0 28 45 101 81 51 44 31 73 31 53 134 29 43 44 32 100 118 98 32 0 45 103 11 50 57 127 35 31 57 72 131 33 91 53 31 79 31
split_gain=777.535 1318.3 1134.04 1054.15 876.78 1034.06 934.799 831.431 698.784 1078.51 603.591 1191.76 608.863 579.308 532.394 522.508 519.935 504.087 494.339 483.015 579.357 632.405 469.261 693.124 538.746 443.989 448.223 376.978 324.245 312.208 310.123 302.993 297.668 253.094 215.846 213.035 142.452 136.026 96.8838 92.7613 91.2804 80.2761 79.921 78.4741 160.117 77.5833 82.1775 71.1123 53.7532 51.8131 36.2489 23.2935 20.9162 16.2348 32.3782 5.84691 1.76859 0.273631 0.0888139
threshold=0.42384892702102667 -1.8421136140823362 1.0781707763671877 -0.98084035515785206 1.1616234779357912 -1.3706284761428831 -0.99071589112281788 -0.91514155268669117 -1.4576623439788816 -0.93974336981773365 -1.5895134210586546 -0.99064508080482472 0.39244194328784948 0.91487225890159618 0.32004359364509588 -0.72130185365676869 0.42140538990497595 1.0626878142356875 0.30680614709854132 -0.94914904236793507 -1.1303659677505491 0.29582417011260992 1.1458761692047121 1.1172090172767641 -0.80810815095901478 -1.3903756141662595 1.0794226527214053 1.1102543473243716 1.0022920966148379 -0.82472085952758778 0.98406854271888744 1.170520603656769 1.0000000180025095e-35 1.0603793859481814 1.1144535541534426 1.1429583430290224 0.94538515806198131 -0.8648921251296996 -1.1275289654731748 -0.88098749518394459 0.92975652217865001 0.42828628420829779 1.1463101506233218 -0.92678532004356373 0.84807145595550548 1.1220296621322634 0.90511387586593639 -1.8455408215522764 0.79177093505859386 0.9961434304714204 0.85989379882812511 -0.5628068447113036 1.0000000180025095e-35 0.95469501614570629 -1.0196539759635923 1.0898498296737673 1.0032960772514345 -1.1054316163063047 0.99654877185821544
decision_type=2 2 2 2 2 2 2 2 2 2 2 2 2 2 2 2 2 2 2 2 2 2 2 2 2 2 2 2 2 2 2 2 2 2 2 2 2 2 2 2 2 2 2 2 2 2 2 2 2 2 2 2 2 2 2 2 2 2 2
left_child=8 3 4 34 25 28 -7 43 9 38 11 -9 -12 15 18 16 -11 19 -15 27 35 -22 23 24 -4 26 -3 36 -6 37 -25 -17 -31 -29 40 -21 -10 -24 42 52 -2 -27 58 48 -45 57 -47 -42 -5 -36 -16 -44 56 55 -55 -40 -19 -41 -1
right_child=1 2 22 7 5 6 -8 10 17 13 12 -13 -14 14 50 31 -18 39 -20 20 21 -23 29 30 -26 41 -28 33 -30 32 -32 -33 -34 -35 49 -37 -38 -39 53 45 47 -43 51 44 -46 46 -48 -49 -50 -51 -52 -53 -54 54 -56 -57 -58 -59 -60
leaf_value=-0.16231902672591358 0.18508009619875562 -0.069971959918791252 0.040319052455837577 0.089926206719033119 0.11877238189042545 0.077398255825764373 0.035387996360997126 0.024894173825353558 0.066121528780413483 0.069591249076974837 0.086096857237273366 -0.10514190199220375 -0.04130543420062583 -0.072092080733428807 0.034861819838720075 -0.050600396829518272 0.12715410378509309 -0.18271283205889782 0.049436990114218676 0.063793056569993359 0.061763707984188301 -0.12929298139735632 0.10002732587090253 0.026934241947106342 -0.089522908574376323 -0.14529514795478313 0.057711010399555798 -0.0056947119727346288 0.047190169573833499 0.0772161504028612 0.092771357712394475 0.098562733842595313 0.14649559323117786 0.12707637196212204 -0.047743452565240395 0.10835869759872735 -0.055494318464263816 0.14854271875778249 -0.14590340841017899 -0.1395954973465274 -0.14976566331173419 -0.060541408768928967 0.19030356657442155 0.12805522144469553 -0.013346572623794174 0.17767869334083208 -0.027160019475024264 -0.053300109304237203 0.17515209498751097 0.19349250923318792 -0.13704947645480611 0.014519740790702857 0.002632637013626077 -0.1621224007418717 0.12641197526590389 -0.18254306168536216 -0.14795599627214573 -0.15963708187800713 -0.14943592274775275
leaf_weight=8.4046428054571169 9.2643669247627241 388.15137862041593 2225.877678617835 94.920615948736668 2878.0772901549935 7224.7344035245478 19848.14843987301 11726.254392359406 292.88359967619181 20407.003597036004 2532.0631879381835 749.86338488012552 440.35184526070952 351.32095964252949 13.171944677829741 535.4095741212368 1699.8580744042993 19.225107282400131 7077.5646948441863 2133.7807185798883 463.88533537462354 276.52349628508091 978.58322639018297 831.64800626039505 373.1297231093049 137.56280655041337 942.57174329459667 148.01257467269897 811.13850203901529 5064.8800215348601 5121.7123952656984 182.63017560169101 706.72611993551254 4787.524230659008 13.258739843964575 2156.8632145524025 143.50419127196074 1411.4705357141793 62.520738244056702 17.494353167712692 407.95517689362168 595.69817447289824 13.515135109424593 368.19600227475166 102.33888626471162 29.613363146781921 57.835745602846146 94.03332594409585 335.85447578504682 27.104169175028801 178.24232341349125 17.046289384365082 9.2355545014142972 12.580393195152284 5.6295180171728125 143.56418897211552 61.38865252584219 11.157011069357393 14.728197932243345
leaf_count=36 6 5138 5707 143 3952 16895 73877 36205 547 39976 4410 2981 2676 1254 23 5226 1456 81 13668 3551 1832 1001 1292 1581 1653 713 2215 345 3008 10413 7629 335 657 5124 38 2670 445 1210 297 95 1907 2821 6 437 335 28 163 356 247 13 846 37 25 55 7 581 302 49 68
internal_value=0 0.0517022 0.0599298 0.0275863 0.0491337 0.053367 0.046599 0.0321735 0.0691706 0.06153 0.0267266 0.0170785 0.0672227 0.0633203 0.0394469 0.0712906 0.0740174 0.0912977 0.0436897 0.0943648 0.072099 -0.00959101 0.0811331 0.0647645 0.0216781 -0.0139607 0.0204679 0.115218 0.103034 0.0982853 0.0835743 -0.0126614 0.0856993 0.123095 -0.108379 0.0861958 0.0261287 0.128679 -0.134546 -0.0636249 -0.125955 -0.0764416 -0.0138873 0.125534 0.0973011 -0.00458536 0.0422056 -0.131696 0.156373 0.114249 -0.12522 0.0922564 -0.139914 -0.16343 -0.0729232 -0.171428 -0.156245 -0.1474 -0.154117
internal_weight=0 66441.6 49540.1 16901.5 32826.1 30762.1 27072.9 16349.8 41332.1 30723.2 15448.5 12476.1 2972.42 30445.2 7620.3 22824.9 22106.9 10608.9 7428.89 10403 5031.05 740.409 16714 8552.37 2599.01 2063.98 1330.72 5371.92 3689.22 8161.66 5953.36 718.04 5771.61 4935.54 551.616 4290.64 436.388 2390.05 277.989 205.95 511.253 733.261 53.6943 901.31 470.535 116.1 87.4491 501.989 430.775 40.3629 191.414 30.5614 89.8493 224.295 18.2099 206.085 80.6138 28.6514 23.1328
internal_count=268644 188515 138761 49754 108619 97732 90772 47434 80129 63871 46272 39186 7086 62784 15791 46993 41432 16258 14922 15515 9054 2833 30142 16570 7360 10887 7353 6461 6960 13572 9210 5561 11070 5469 2320 6221 992 2502 1087 743 2269 3534 147 1162 772 335 191 2263 390 51 869 43 408 940 62 878 383 144 104
is_linear=0
shrinkage=0.1


Tree=12
num_leaves=63
num_cat=0
split_feature=37 132 31 103 114 30 104 86 77 37 102 113 107 32 136 134 36 127 53 125 59 32 106 87 58 38 130 102 46 130 70 31 108 75 27 66 29 133 74 6 100 11 37 42 53 56 134 42 84 119 57 91 48 29 98 39 31 37 91 105 52 45
split_gain=711.806 1586.73 1211.05 1051.33 909.586 674.934 1054.22 622.786 729.841 604.296 804.303 568.033 648.284 557.612 1166.85 914.24 1030.51 1218.48 477.171 470.996 430.652 403.726 404.091 342.409 325.349 448.809 423.83 362.292 348.354 338.776 267.836 221.633 220.824 216.248 249.68 245.726 296.357 212.032 206.679 206.202 198.7 184.461 179.243 176.409 171.625 160.108 150.288 139.351 133.998 128.371 114.079 103.294 101.094 93.0684 77.8754 63.5106 46.0571 130.981 58.0436 4.31428 1.88143 0.878676
threshold=0.9439942240715028 1.0000000180025095e-35 1.0014491677284243 -0.82213428616523732 -1.3225948214530943 1.0578431487083437 -0.83854064345359791 -1.4051410555839536 -1.2754162549972532 0.91853067278862011 -0.84747612476348866 -1.0533545613288877 -0.99261412024497975 0.96138477325439464 1.0000000180025095e-35 1.0000000180025095e-35 0.95232549309730541 -1.8184856176376341 1.1489493846893313 -1.7094196677207945 0.77756431698799144 0.96569943428039562 -0.84836721420288075 -1.0733037590980528 0.87704363465309154 0.98858460783958446 1.0000000180025095e-35 -0.80016598105430592 1.2280643582344057 1.0000000180025095e-35 -0.25293156504631037 0.99828955531120311 -1.0922849774360655 -1.1056703925132749 1.1759709715843203 0.29411648213863378 1.0973304510116579 1.0000000180025095e-35 -0.93390390276908863 0.59511274099349987 -0.90589025616645802 0.71772953867912304 0.96403187513351452 1.0387906432151797 1.0573921203613283 0.92001691460609447 1.0000000180025095e-35 1.1143489480018618 -1.3277020454406736 -1.5191388726234434 0.90057387948036205 -1.1215401887893675 1.1128810048103335 0.99396610260009777 -0.90510535240173329 1.0035257935523989 0.97203004360198986 0.84133675694465648 -1.1013618707656858 -0.93137332797050465 1.0050062537193301 1.0435101389884951
decision_type=2 2 2 2 2 2 2 2 2 2 2 2 2 2 2 2 2 2 2 2 2 2 2 2 2 2 2 2 2 2 2 2 2 2 2 2 2 2 2 2 2 2 2 2 2 2 2 2 2 2 2 2 2 2 2 2 2 2 2 2 2 2
left_child=1 2 4 9 37 6 11 52 -9 10 -4 12 -3 24 15 16 17 -15 32 -18 -11 22 44 55 33 26 28 -28 -26 30 -27 -25 -8 34 41 36 -35 40 50 45 -1 -2 -31 -41 -16 -5 -37 -40 -24 -39 -23 -13 -6 -20 -36 -17 57 58 -7 60 -58 -61
right_child=13 5 3 39 7 56 18 8 -10 20 -12 51 -14 14 21 23 19 -19 53 -21 -22 38 48 31 25 29 27 -29 -30 42 -32 -33 -34 35 54 46 -38 49 47 43 -42 -43 -44 -45 -46 -47 -48 -49 -50 -51 -52 -53 -54 -55 -56 -57 59 -59 -60 61 -62 -63
leaf_value=0.040419213900344329 0.10689118300903255 -0.025950703277207689 0.026016544709058054 0.35260237183404608 -0.10232470695867815 0.023689979059045047 0.16521832838251441 0.090259662870560212 0.051822906084706015 0.089416731474202565 -0.082810924897109672 0.14153130128289612 0.092117960052090817 -0.052250548490112951 -0.096500807129124413 0.11944105379602168 0.010588743917429366 0.04163275126567216 0.060002835738534245 0.068980063418454959 0.033729304328821805 0.085165969143806461 0.098612797647730482 0.15113500633223778 0.024557835521874582 -0.050981159095730755 -0.028577172046424057 0.10745443372342717 0.14677929497701733 0.11178342426049287 0.082692245976724157 -0.15832174335520074 -0.097377397263530951 0.052062542361017983 0.063973796057184826 0.10610001279331194 0.098430163600043821 -0.1576728328892795 0.14210859271998175 -0.093967196351470078 0.18073526901540787 -0.053155933171456865 -0.0016862730734908422 -4.3842999207712988e-05 0.099977145403945922 -0.12247063442123279 0.19917858504619859 -0.024927126633570933 -0.068701793670530642 0.080805821868748851 -0.18244397709846269 -0.12169053347856447 0.023556645838422857 0.32236928600123427 0.1640576191009557 0.17090617708213493 -0.16411548994080036 0.20654304260447606 -0.13376289683979981 -0.14381844070088695 -0.19103355705450742 -0.17273853685587853
leaf_weight=114.48837280273438 206.3136823028326 666.12582641467452 7316.0439343973994 7.2104894258081904 284.49976350367069 26.528546445071697 32.900673188269138 5667.7213407643139 38479.557114565745 2512.371203251183 748.60365412384272 15.953419312834738 1540.5802508443594 2737.3270855247974 46.639159254729748 566.4576242081821 1901.6058147549629 2792.9142790660262 173.97275219485164 5049.7274405285716 3104.9981018677354 32.577880427241325 58.540014803409576 35.415226146578789 5072.2517539225519 152.00658798962831 227.55157539248466 1402.4377446621656 244.43647583946586 169.45183576643467 10774.389356017113 66.792475752532482 1201.3516952097416 3059.1255058385432 86.064816109836102 794.25166241824627 2508.9655863158405 28.522811979055405 1793.1084615960717 301.22556749172509 851.65110436081886 110.62649578601122 780.14465237408876 594.92823414877057 950.80842627584934 439.25359803810716 221.94472263753414 51.376127913594246 262.52463652938604 108.18551827967167 31.171258941292763 227.59731428325176 82.238691173493862 14.659542709589003 804.23794088512659 415.78918863832951 64.599395386874676 13.39759051799774 199.34468737989664 99.437807515263557 43.417358964681625 11.746893435716627
leaf_count=191 238 2384 27081 30 4582 65 80 8950 101676 6074 6209 17 3136 9006 178 700 4473 7123 807 8519 8933 60 124 32 11178 403 551 1542 232 198 14195 303 8799 5883 127 1299 3678 147 1758 3160 289 397 1782 2691 1305 2673 70 126 975 191 130 1075 187 5 379 261 285 8 959 508 177 50
internal_value=0 0.0456152 0.0497918 0.0251679 0.0579021 -0.0128565 0.000724498 0.0556794 0.0567575 0.0334544 0.0159146 0.0404815 0.0564772 0.0621542 0.0478855 0.0350296 0.0273776 -0.00483706 -0.0677385 0.0530065 0.0586355 0.101935 0.0593815 0.123101 0.0711572 0.0640436 0.0438536 0.088464 0.030177 0.0758535 0.0808326 -0.0510942 -0.0903776 0.0883421 0.127249 0.0812086 0.0729557 0.147614 0.131338 -0.0592757 0.164108 0.0510275 0.018562 -0.0316144 0.0907901 -0.114798 0.126429 0.137456 -0.0381952 0.0310497 -0.0456866 -0.104449 -0.0740966 0.0803926 0.154383 0.141226 -0.127588 -0.0972508 -0.11527 -0.160702 -0.174935 -0.146874
internal_weight=0 64973.1 60641.5 15024.6 45616.9 4331.61 3873.14 44514 44147.3 13682 8064.65 2450.26 2206.71 43407 16792.8 13566 12481.6 5530.24 1422.88 6951.33 5617.37 3226.75 1318.51 1084.45 26614.2 18822.7 6946.68 1629.99 5316.69 11876 10926.4 102.208 1234.25 7791.53 1207.24 6584.29 5568.09 1102.85 1908.23 1342.62 966.139 316.94 949.596 896.154 997.448 446.464 1016.2 1844.48 321.065 136.708 63.7491 243.551 366.738 188.632 890.303 982.247 458.472 239.271 225.873 219.201 108.017 111.185
internal_count=268644 191419 173064 56851 116213 18355 16303 115395 110626 48297 33290 6612 5520 77225 35073 30417 29121 16129 9691 12992 15007 4656 2582 1296 42152 30081 13503 2093 11410 16578 14598 335 8879 12071 1141 10930 9561 818 2074 8554 480 635 1980 5851 1483 2703 1369 1884 1099 338 190 1092 4769 812 506 961 2052 1032 1024 1020 462 558
is_linear=0
shrinkage=0.1


Tree=13
num_leaves=62
num_cat=0
split_feature=37 103 58 54 136 75 45 114 58 135 30 53 0 90 20 103 53 58 128 103 2 96 102 74 132 30 120 30 53 11 113 103 27 35 58 34 103 54 85 68 53 106 110 3 6 77 110 15 20 106 35 101 10 8 101 75 102 40 62 47 47
split_gain=679.427 1376.13 780.429 971.481 918.434 665.369 1559.34 634.267 611.678 583.927 614.774 670.645 580.997 575.884 562.428 611.894 515.309 853.767 473.497 451.279 449.735 374.3 397.835 394.977 367.326 367.79 364.613 354.562 311.088 301.046 279.77 269.292 219.191 166.187 154.803 150.939 250.903 145.673 132.413 121.971 117.677 116.684 117.663 109.307 164.341 95.5919 195.758 83.5088 77.3458 71.137 66.8902 63.32 53.0967 51.167 68.5052 37.7125 36.9379 36.2974 34.5761 1.63112 0.930383
threshold=0.87812846899032604 -0.8877541422843932 0.79430353641510021 0.98705640435218822 1.0000000180025095e-35 -1.103321850299835 1.0845924615859988 -0.93055614829063404 0.83027091622352611 1.0000000180025095e-35 1.0697357654571535 0.9217849373817445 0.32378718256950384 -1.1748033165931699 1.4449143409729006 -0.93815144896507252 1.0075896978378298 0.77157908678054821 1.0000000180025095e-35 -0.90193018317222584 0.66958129405975353 -0.97447079420089711 -0.80700179934501637 -1.015282094478607 1.0000000180025095e-35 1.0587362647056582 -0.96622753143310536 1.0717993378639223 0.98465132713317882 0.87998798489570629 -0.97588738799095143 -0.88507869839668263 1.2790802121162417 0.83693185448646557 0.78563407063484203 0.88775077462196361 -0.8567325472831725 1.0236588120460512 -1.2937967181205747 -0.072081748396158205 1.0157023668289187 -0.86934787034988392 -0.88518229126930226 0.57530850172042858 0.65372660756111156 -1.278598368167877 -0.87271848320960987 1.0834457874298098 1.7278843522071841 -0.94734397530555714 0.84915879368782055 -0.89429804682731617 0.86223632097244274 0.70271396636962902 -0.8754434585571288 -1.1371794939041135 -0.89499777555465687 0.95722347497940075 0.50255712866783153 0.94336128234863292 1.0651746392250063
decision_type=2 2 2 2 2 2 2 2 2 2 2 2 2 2 2 2 2 2 2 2 2 2 2 2 2 2 2 2 2 2 2 2 2 2 2 2 2 2 2 2 2 2 2 2 2 2 2 2 2 2 2 2 2 2 2 2 2 2 2 2 2
left_child=1 7 4 35 16 13 8 9 -7 14 30 -12 -8 18 19 -16 17 28 -5 -1 26 23 24 29 25 -23 50 -15 -2 32 -11 -19 -3 52 -28 45 39 38 -18 -37 -38 53 60 44 -25 46 -4 -39 49 -24 -9 -44 -22 57 -55 -45 -47 -6 -26 -31 -43
right_child=2 21 3 5 41 6 12 20 -10 10 11 -13 -14 27 15 -17 37 31 -20 -21 33 22 48 43 58 -27 34 -29 -30 59 -32 -33 -34 -35 -36 36 40 47 -40 -41 -42 42 51 55 -46 56 -48 -49 -50 -51 -52 -53 -54 54 -56 -57 -58 -59 -60 -61 -62
leaf_value=0.075749661519146097 0.01432188689135871 -0.017927331562389872 0.11159738600088825 0.068776652237198616 0.0786473666636128 0.0078269815083849802 0.057490780551108761 -0.11637558053101003 -0.081150836977895657 0.15577429372388379 0.01186662150107776 0.089659672106493143 0.037566304369884403 0.12155948724090021 0.040272235153390769 -0.048615987564992746 0.15068678941852087 0.061650613723232155 0.016181508418318519 0.0090820436862181879 0.26218320409123058 0.079508980692198347 0.0097764120895071534 -0.14083241965640228 -0.13044089179601215 0.0028331190704781128 0.051757224368988768 -0.057795553364363719 0.11022911602625847 -0.10363705841386078 0.067156858582169396 -0.085907278961439126 0.10959066616952812 0.22290265005464979 -0.11822397507204321 -0.15947048397339694 -0.10233118251491412 0.087591782096820808 0.093231207821301246 0.10160280659822161 0.04998024398074144 -0.13449399056431011 -0.023651090960906888 0.15767189178030919 0.14207930592790866 -0.019279790276194152 -0.11077305656204534 0.01062401221174045 0.2034548885174064 -0.1164694080231002 0.048176424411144621 0.2466546155156063 -0.091272511140678608 0.20672724941668486 0.34804701014513345 -0.10885937555303137 -0.12082535100055179 0.18199533866638173 0.0077077510645096482 -0.12370256182198409 -0.19172422807532041
leaf_weight=3491.8659955784678 524.41025881841779 303.02587158419192 67.257675997912884 10003.792150955647 36.571224920451641 3477.8237853720784 35445.075455974787 192.21037828177214 993.2644581720233 1140.9688118249178 1910.4735588952899 2638.8842707052827 24927.96935206838 2323.499952275306 1814.6169839054346 1351.0318969860673 479.39371374621987 156.43862248212099 2065.0298914946616 1431.6343925818801 4.2817120552062979 863.23006610572338 51.821534436196089 37.686969950795174 178.14885523915291 2272.317111864686 1200.8156990222633 115.71032601967454 952.49008812382817 70.6877182405442 517.99649750068784 590.63149586692452 242.8049796000123 17.640884205698967 56.078972280025482 19.788379795849323 222.99447996355593 268.46239158511162 2456.3832074403763 187.01913572102785 65.661835663020611 17.525300152599815 13.37004743516445 5.3428739774972192 45.108642414212227 39.915408059954643 96.228794291615486 296.82459327578545 8.6532597392797452 321.78406656906009 28.346544370055199 24.632838178426027 575.42939489334822 212.5227056145668 40.903864860534668 830.18830968625844 349.31009364873171 480.3325337767601 20.167793482542038 94.901249118149281 3.3900886923074713
leaf_count=6415 2023 1361 215 18792 65 13573 65629 1265 5333 778 7176 5956 59999 2629 4035 5961 405 432 5915 4215 6 2308 358 210 1096 9672 4031 496 1484 2502 1359 4476 576 12 295 90 2550 321 3843 369 397 113 62 19 89 159 654 582 4 3371 111 18 5344 127 13 5733 2763 119 67 659 14
internal_value=0 0.0310437 0.0508168 0.0481119 0.0839976 0.0493752 0.0450439 0.0454275 -0.0119397 0.0529254 0.0759936 0.056991 0.049264 0.0687342 0.0352209 0.00233662 0.0697509 0.0321082 0.0597774 0.0563643 -0.00624061 -0.0130081 0.00451519 -0.0529644 0.0155945 0.0239423 0.0233632 0.113051 0.0761749 0.00296775 0.128104 -0.0550082 0.0387972 -0.0794608 0.0441732 -0.0475305 -0.00745057 0.0936625 0.102613 0.076622 -0.0676843 0.182355 0.0467186 -0.0962946 0.0133033 -0.0834591 -0.0192908 0.047177 -0.0921125 -0.0989583 -0.0952269 0.151557 -0.0886619 0.192729 0.229537 -0.107155 -0.110412 0.174683 -0.116392 -0.115137 -0.14377
internal_weight=0 21718.1 86954.6 80400.3 6554.28 79352.2 64844.1 16372.3 4471.09 14297.5 6208.32 4549.36 60373 14508 8089.15 3165.65 5725.03 2223.97 12068.8 4923.5 2074.8 5345.87 3716.12 1629.75 3333.86 3135.55 1477.45 2439.21 1476.9 711.42 1658.97 747.07 545.831 597.352 1256.89 1048.18 495.464 3501.06 2935.78 206.808 288.656 829.249 58.9183 918.327 82.7956 552.712 163.486 565.287 382.259 373.606 220.557 38.0029 579.711 770.33 253.427 835.531 389.226 516.904 198.317 165.589 20.9154
internal_count=268644 74984 193660 179563 14097 172366 144534 46959 18906 35895 15269 13132 125628 27832 20626 9996 13566 8415 24707 10630 11064 28025 16876 11149 13143 11980 5702 3125 3507 5098 2137 4908 1937 5362 4326 7197 3406 5151 4248 459 2947 531 207 6051 299 3791 869 903 3733 3729 1376 80 5350 324 140 5752 2922 184 1163 3161 127
is_linear=0
shrinkage=0.1


Tree=14
num_leaves=63
num_cat=0
split_feature=38 132 114 27 30 31 106 130 82 113 32 114 67 73 45 44 58 28 125 0 45 66 26 127 0 115 58 72 43 41 52 44 133 101 58 44 119 73 127 133 77 110 11 75 8 83 68 29 110 18 31 36 91 127 31 93 127 96 105 51 43 31
split_gain=567.367 1094.93 1132.15 782.334 680.493 668.131 933.827 668.249 636.123 770.051 590.09 604.946 518.655 477.196 416.568 312.663 951.041 517.253 1250.83 422.372 295.632 268.065 266.846 260.269 578.459 404.785 310.854 293.178 259.423 249.093 213.346 200.994 177.739 169.553 166.947 164.018 157.166 135.818 134.221 116.396 104.326 101.31 96.6817 86.7967 86.0548 84.1603 59.1828 56.2341 66.6069 51.1599 42.008 115.645 55.1708 37.3036 35.7685 34.7503 17.8761 14.3735 3.25051 1.3583 0.930955 0.810093
threshold=0.98981979489326488 1.0000000180025095e-35 -1.3225948214530943 1.1759709715843203 1.0578431487083437 1.0014491677284243 -0.84645527601242054 1.0000000180025095e-35 -0.68003824353218068 -1.3464945554733274 0.91833925247192394 -1.0643190741538999 0.18733188509941104 -0.7837829291820525 1.2147548198699953 1.1454688310623171 0.90881851315498363 1.1272268295288088 -1.6371198296546934 0.30741955339908605 1.156272351741791 0.29411648213863378 1.1978025436401369 -2.0418874025344844 0.27186276018619543 -1.0380812287330625 0.92433491349220287 -0.57793202996253956 1.1135096549987795 1.1152847409248354 1.1746760606765749 1.1617762446403506 1.0000000180025095e-35 -0.98606121540069569 0.91736856102943432 1.1801375150680544 -1.5191388726234434 -0.73155423998832692 -2.0919380187988277 1.0000000180025095e-35 -1.2935165166854856 -0.94040951132774342 0.63941556215286266 -1.0030924677848814 0.51099303364753734 -0.89672353863716114 0.058434315025806434 1.0845071673393252 -0.93896114826202381 1.0445975065231325 0.97203004360198986 0.8092322349548341 -1.1013618707656858 -1.8421136140823362 0.98897734284400951 -0.83300241827964772 -3.1604131460189815 -0.8304191231727599 -0.93606659770011891 1.0136976242065432 1.1073700785636904 0.98897734284400951
decision_type=2 2 2 2 2 2 2 2 2 2 2 2 2 2 2 2 2 2 2 2 2 2 2 2 2 2 2 2 2 2 2 2 2 2 2 2 2 2 2 2 2 2 2 2 2 2 2 2 2 2 2 2 2 2 2 2 2 2 2 2 2 2
left_child=1 2 32 12 8 6 -5 -7 10 14 11 -3 22 -14 -10 16 17 18 19 -2 47 39 -4 24 27 38 35 46 -20 -29 -11 40 33 41 37 43 60 -22 -26 -19 -28 -1 -36 -25 -23 -12 -17 53 -49 -38 51 52 -6 -18 -33 -37 -35 -27 59 -52 -34 -60
right_child=15 4 3 5 50 7 -8 -9 9 30 45 -13 13 -15 -16 23 20 21 28 -21 34 44 -24 26 25 57 31 29 -30 -31 -32 54 36 56 42 55 49 -39 -40 -41 -42 -43 -44 -45 -46 -47 -48 48 -50 -51 58 -53 -54 -55 -56 -57 -58 -59 61 -61 -62 -63
leaf_value=-0.21459794126025544 0.027932310371310054 0.072830371611041625 -0.079895813427465615 0.042382154314787118 0.018819897041298744 0.03454363474711053 0.075308072876407631 -0.022200645307124144 -0.0027343554040651862 -0.079291394167008949 -0.039614093070041975 -0.10342935645014423 0.079053247416126904 0.0072143967636197062 0.11353473284126683 -0.1449278179955707 -0.18971747276287931 0.062347478209720524 0.040321931968116204 -0.080463418753471516 0.091807255713751687 -0.09904001318614207 -0.0076503558882718946 0.11095088750907839 -0.039852823662443082 -0.1867789573092134 0.10941786270215766 0.072410332992698945 0.090157602205641285 0.019556649836631662 0.042710880419977192 0.10418886458528982 -0.13607864971202785 0.2130351839196 -0.20326705070809756 -0.18645211867249473 0.18307101953313917 -0.088156658160645343 0.061295128979136526 -0.13841475864944874 -0.13691484468445297 0.069922985854125749 0.15390552992544115 0.038788168818697177 0.12775015114605698 -0.1401941904978424 0.0031474840157120197 0.12457279200180248 -0.19198630939862826 0.052048773880303024 -0.15660687448342947 0.12229707899593399 -0.13537183453749435 -0.10812184232522981 -0.023869236798276985 0.078378719091979521 0.15889063220534572 -0.089372635046605253 -0.13812111082121661 -0.18146162723399578 -0.17022062267018287 -0.15680004649975474
leaf_weight=14.241466984152792 557.1852073520422 2366.1300314478576 672.33474162314087 40308.864041946828 26.671960465610027 18091.230269482359 10954.653586344793 2344.2935619242489 1138.8004649952054 1570.8973898738623 200.51097802072763 212.18135949596763 1368.5450140535831 2850.7446324564517 422.45965830609202 75.49279011785984 192.58341936767101 1241.9628549069166 2345.5124471783638 1013.0797337070107 139.56558313965797 16.98311772942543 2133.9942125156522 2398.1249402314425 262.71840539574623 132.80368611216545 20.355749532580376 8606.7720499560237 1883.2181216031313 994.74176286160946 157.72518423572183 102.26038792729378 13.986156061291693 65.218166135251522 52.115174993872643 23.415588989853863 40.1841701567173 59.949385315179825 262.04730635881424 29.566003382205963 110.64981685578823 103.22512492537498 8.8681991249322873 179.12770654261112 1127.8393092751503 142.18501926213503 42.013036280870438 15.117838814854624 11.862074568867682 115.34254316985607 46.630606040358543 22.750505700707436 178.53907025977969 79.018896788358688 27.725126370787621 6.2845640629529944 937.59836342930794 17.099785670638084 88.285329841077328 41.605983905494213 18.617284253239632 31.503464132547379
leaf_count=58 1085 4784 5985 102391 65 57164 18385 10460 4810 8616 728 990 1895 6651 619 273 761 2125 4419 3376 160 53 5781 2411 723 541 19 11340 2392 1989 786 107 85 23 216 96 17 177 433 104 365 134 4 307 982 617 88 13 48 219 213 39 928 238 63 11 334 54 492 171 86 145
internal_value=0 0.0384972 0.0417362 0.0402028 -0.000502429 0.0433233 0.0494182 0.0280341 0.00797497 -0.0221808 0.0419389 0.0583251 0.00835681 0.0305156 0.0287268 0.0564674 0.0418233 0.0504118 0.0342145 -0.0420008 -0.0843786 0.0892836 -0.0249588 0.0661564 0.0587975 -0.0307425 0.0928258 0.0650132 0.0625157 0.0669346 -0.0681595 -0.0112253 0.133993 0.149097 -0.00652686 0.103243 0.0440532 0.0377325 0.0106565 0.0576793 -0.0986395 0.0354281 -0.151327 0.105935 0.124386 -0.0813449 -0.091985 -0.1523 -0.0146066 0.0859016 -0.121268 -0.0916158 -0.115331 -0.165978 0.0768748 -0.130414 0.162412 -0.175668 -0.153762 -0.168327 -0.155574 -0.143034
internal_weight=0 86680 80033.1 78724.7 6646.88 71699 51263.5 20435.5 6210.89 3289.88 2921.01 2578.31 7025.62 4219.29 1561.26 22036.1 8774.43 8215.35 5799 1570.26 559.081 2416.35 2806.33 13261.6 10393.7 674.669 2867.94 9719.02 4228.73 9601.51 1728.62 260.991 1308.41 1120.28 260.498 2606.95 188.13 199.515 524.766 1271.53 131.006 117.467 60.9834 2577.25 1144.82 342.696 117.506 298.582 26.9799 155.527 435.987 227.962 205.211 271.602 129.986 29.7002 1002.82 149.903 208.025 88.2366 32.6034 119.789
internal_count=268644 233671 209668 208712 24003 188400 120776 67624 21950 14831 7119 5774 20312 8546 5429 34973 16153 14536 11272 4461 1617 3264 11766 18820 15441 1751 3379 13690 6811 13329 9402 554 956 549 557 2825 407 337 1156 2229 384 192 220 2718 1035 1345 361 1060 61 236 2053 1032 993 999 170 107 357 595 1021 384 171 637
is_linear=0
shrinkage=0.1


Tree=15
num_leaves=63
num_cat=0
split_feature=36 103 32 77 111 37 124 103 112 77 122 134 111 45 114 28 35 32 29 135 27 31 135 53 36 26 131 2 102 103 110 102 32 132 111 127 4 19 123 34 131 81 33 55 0 111 90 115 10 9 31 112 124 36 115 135 104 57 4 127 12 48
split_gain=543.549 1121.1 683.407 730.214 1736.45 892.917 969.122 761.66 734.254 927.022 757.547 662.084 948.191 652.656 542.608 516.617 614.382 492.344 457.121 573.403 435.571 579.171 490.71 402.917 402.614 381.267 364.089 350.184 341.221 322.761 297.3 276.857 268.914 195.382 183.765 186.313 172.463 187.033 154.911 144.092 134.581 131.158 121.803 273.983 121.193 120.748 99.9238 89.5694 83.3949 138.514 160.626 77.8969 68.6679 52.2591 44.0941 42.395 40.3146 30.2044 16.6072 109.788 13.8338 1.98629
threshold=0.86118999123573314 -0.90479147434234608 0.93564447760581981 -1.2565913200378416 -0.90837931632995594 0.91635534167289745 -1.4344719052314756 -0.85972660779952992 -0.91274213790893544 -1.277000844478607 -1.1515070199966428 1.0000000180025095e-35 -1.0652338862419126 0.95127668976783764 -0.93055614829063404 1.1907957196235659 0.87792393565177929 0.95068699121475231 1.2168681621551516 1.0000000180025095e-35 1.2735387086868288 0.99234464764595043 1.0000000180025095e-35 1.1124309897422793 0.81604427099227916 1.255953907966614 1.0000000180025095e-35 0.66958129405975353 -0.93846276402473439 -0.80112567543983448 -0.90198576450347889 -0.9408036172389983 0.95915409922599804 1.0000000180025095e-35 -1.2058430910110471 -1.4369935989379881 0.63190412521362316 1.2812904715538027 -1.0777444243431089 0.83374175429344188 1.0000000180025095e-35 -1.3808644413948057 0.90497207641601574 1.0221642851829531 0.44083732366561895 -0.90065112709999073 -1.1579156517982481 -0.92865258455276478 0.88447362184524547 0.82200968265533458 0.98194825649261486 -0.91489744186401356 -1.4187158346176145 0.80691695213317882 -1.0043730139732359 1.0000000180025095e-35 -0.91588488221168507 1.001780688762665 0.68088889122009288 -1.3913190364837644 1.0087782740592959 0.88709306716918956
decision_type=2 2 2 2 2 2 2 2 2 2 2 2 2 2 2 2 2 2 2 2 2 2 2 2 2 2 2 2 2 2 2 2 2 2 2 2 2 2 2 2 2 2 2 2 2 2 2 2 2 2 2 2 2 2 2 2 2 2 2 2 2 2
left_child=1 14 11 8 5 7 -7 -5 30 17 -11 15 42 48 18 16 25 -10 19 24 34 26 -23 -18 -1 -2 -22 38 -21 44 40 33 -32 -20 55 -36 37 -17 51 56 -4 45 57 -44 -14 -6 -40 -33 49 53 -51 -16 -43 -3 -38 -15 -29 -13 59 -50 -41 -60
right_child=2 13 3 4 41 6 -8 -9 9 10 -12 12 29 20 27 36 23 -19 31 28 21 22 -24 -25 -26 -27 -28 39 -30 -31 32 47 -34 -35 35 -37 54 -39 46 60 -42 52 43 -45 -46 -47 -48 -49 58 50 -52 -53 -54 -55 -56 -57 -58 -59 61 -61 -62 -63
leaf_value=0.017428031146214263 -0.011546761520221119 -0.11454989534201876 -0.14769801583718109 0.025890124820883133 0.11956335517183932 0.027991696545071304 0.066707379233493472 -0.049127976811180446 0.081995883188738392 -0.11182127874515718 0.023468087169771737 0.16007725872006154 0.098152725449540082 0.024150944118035395 0.0092644974096825657 0.098225001376668453 0.037934265433457015 0.037922621729889951 0.048506296226479569 0.13974359061677355 0.032374647102774601 -0.048173768984091439 0.032823668670063075 0.071928219548312022 0.070543750772194491 0.040299710543672214 0.14850275500058394 -0.060976295314125996 0.071841192526019046 -0.19433161303790414 0.11377481712279214 -0.063914422514984137 0.062077345502460746 -0.13890987327150792 -0.063803677576732512 0.033917161035594438 0.18482454777298973 0.054348682153138851 0.030228307242181365 0.081890125407981185 0.047590056199808321 -0.17051656687551714 0.15034015204861001 -0.22485470456890133 -0.1332718619946418 -0.19790981264815227 0.12464507240029953 0.26154850382789135 -0.13241438424905771 0.044703041661022153 -0.11435311105425586 -0.10689842761641261 -0.10697212005175899 0.23920070990961967 0.11843973431804754 0.15807721827671856 -0.11657493794339123 0.087206872939744537 -0.10686004390646323 0.15750783279912242 0.22588609569220308 -0.12279172090604958
leaf_weight=3200.0554891489446 2619.8110189661384 230.14848961494863 73.730999637395144 3171.1923285722733 40.313952378928661 27754.929746251553 8429.1101044490933 2361.0752672366798 3627.5054042413831 652.81246917694807 1130.8605825826526 1227.0298687368631 92.837638333439827 44.647928159683943 132.84892408922315 1883.0439953580499 6765.4827246703207 8413.2446635328233 749.67953473702073 1060.7409277260303 4597.1227125450969 1880.0538318529725 1242.144521355629 7194.4207419715822 2575.6811084523797 3092.8544154241681 286.82565440237522 271.26881914585829 2447.9325957894325 109.6341245174408 2526.4205253869295 517.15117420628667 1672.1191777773201 60.083099283277988 1247.3451760224998 231.28155075758696 153.7483564093709 2007.0408490151167 425.63617109507322 14.058726899325849 67.681414354592562 280.2951677814126 65.054654404520988 27.771767683327198 29.921875551342964 17.04589731991291 152.16303133219481 8.5963990762829763 57.170465975999832 202.55087412334979 92.479732699692249 102.08962174504995 432.40234993025661 4.2532404810190192 286.51039531826973 50.225900135934353 251.17142989858985 59.646173745393753 111.79695783182979 16.929220013320446 12.697549119591711 260.84411647170782
leaf_count=8234 11463 2277 488 8296 36 61855 17272 14301 5261 2651 3547 372 186 170 522 2356 14074 20147 1683 667 15149 8911 3869 9178 4271 6149 454 1923 5412 449 3005 3309 3297 322 6124 710 80 3762 1315 38 127 1162 25 114 194 70 419 23 333 721 532 553 2384 2 275 21 2900 61 3251 37 4 1851
internal_value=0 0.0240611 0.041502 0.0357177 0.0285432 0.0312899 0.0370106 -0.00612629 0.0524988 0.0412338 -0.0260469 0.055198 0.117238 0.000299125 0.0449951 0.0510317 0.0441486 0.0512005 0.0526158 0.0604845 0.00823664 0.0176898 -0.0159495 0.0554535 0.0411149 0.0165231 0.0391946 -0.0144292 0.0923694 -0.0696269 0.0883823 -0.00208684 0.0931857 0.0346003 -0.039862 -0.0485185 0.0823013 0.0755876 0.0272538 -0.0761144 -0.0542312 -0.120255 0.148718 0.0380895 0.0417444 0.0252184 0.0550929 -0.0585928 -0.0775955 -0.0507465 -0.0051544 -0.0412127 -0.131963 -0.108131 0.141623 0.0950511 -0.0877062 0.156699 -0.109414 -0.0661772 0.150225 -0.118012
internal_weight=0 22537.7 86265.5 60650.7 42486.4 41716.3 36184 5532.27 18164.4 13824.4 1783.67 25614.8 1611.9 10555.8 11981.9 24002.9 19672.6 12040.8 10619.9 9284.41 9579.65 8006.15 3122.2 13959.9 5775.74 5712.67 4883.95 1361.93 3508.67 232.394 4339.95 1335.51 4198.54 809.763 1573.5 1478.63 4330.34 3890.08 812.738 549.197 141.412 770.057 1379.5 92.8264 122.76 57.3598 577.799 525.748 976.173 529.432 295.031 234.939 712.698 234.402 440.259 94.8738 522.44 1286.68 446.741 74.0997 26.7563 372.641
internal_count=268644 76007 192637 143899 105376 101724 79127 22597 38523 31606 6198 48738 1401 44412 31595 47337 40864 25408 23921 18584 35408 28383 12780 23252 12505 17612 15603 7674 6079 829 6917 5337 6302 2005 7025 6834 6473 6118 2809 4865 615 3652 572 139 380 106 1734 3332 9004 3532 1253 1075 3546 2279 355 191 4823 433 5472 370 42 5102
is_linear=0
shrinkage=0.1


Tree=16
num_leaves=63
num_cat=0
split_feature=37 132 113 133 32 81 32 108 60 30 82 45 32 113 28 45 80 81 44 27 58 129 72 53 134 44 47 125 134 54 103 73 118 33 27 36 124 29 83 133 102 87 120 92 95 42 101 133 70 70 69 31 62 104 40 31 57 105 55 29 45 95
split_gain=534.143 923.439 1019.66 737.794 732.274 641.571 634.997 676.945 643.82 494.823 534.375 559.728 433.727 512.082 378.017 850.544 881.323 657.33 636.382 1097.76 616.073 348.447 356.71 337.117 308.583 293.658 292.036 277.714 269.892 301.309 263.571 252.604 383.51 334.335 343.942 225.033 256.321 208.703 198.011 185.94 173.183 164.44 156.776 123.058 121.279 247.213 118.527 62.6319 53.8059 46.2029 68.7262 40.0557 93.057 126.712 27.8333 22.2851 14.6849 2.21871 1.02195 0.953203 0.488778 0.228089
threshold=0.94939193129539501 1.0000000180025095e-35 -1.1558368802070615 1.0000000180025095e-35 0.90167543292045604 -0.94880029559135426 0.95513194799423229 -0.87991747260093678 0.75522199273109447 1.0578431487083437 -0.76092055439949025 1.2147548198699953 0.91833925247192394 -1.0533545613288877 1.1397674083709719 1.1551110148429873 -1.355530261993408 -1.1861853599548338 1.1237903833389284 1.1635313034057619 0.90881851315498363 1.0000000180025095e-35 -0.58002036809921254 0.99051731824874889 1.0000000180025095e-35 1.104108512401581 1.2049502134323122 -1.5367010235786436 1.0000000180025095e-35 1.0246616005897524 -0.69143539667129505 -0.7231137454509734 -1.1956830024719236 0.88985571265220653 1.1200084090232851 0.93927362561225902 -1.5408722162246702 1.0641733407974245 -0.61755013465881337 1.0000000180025095e-35 -0.57648754119873036 -1.0733037590980528 -1.0363852977752683 -1.1609407067298887 -0.90175887942314137 1.073278605937958 -0.93392643332481373 1.0000000180025095e-35 -0.31026342511177057 -0.25396342575550074 -0.094148289412260042 0.97203004360198986 0.30660097301006323 -0.9386378526687621 1.0227785110473635 0.97547638416290294 0.74802318215370189 -0.93137332797050465 0.89044687151908886 1.2197031378746035 1.0435101389884951 -0.76324406266212452
decision_type=2 2 2 2 2 2 2 2 2 2 2 2 2 2 2 2 2 2 2 2 2 2 2 2 2 2 2 2 2 2 2 2 2 2 2 2 2 2 2 2 2 2 2 2 2 2 2 2 2 2 2 2 2 2 2 2 2 2 2 2 2 2
left_child=1 2 3 28 26 6 7 -4 -8 10 12 30 13 -3 15 16 20 24 27 -20 25 22 41 -6 35 -2 -5 -18 29 -1 -12 32 61 38 -35 36 -16 -34 -33 -24 -13 -19 -37 -22 54 -46 -7 -48 -14 55 -51 52 59 -54 -26 -23 -30 58 -53 -11 -59 -17
right_child=14 9 5 4 23 46 8 -9 -10 51 11 40 48 -15 17 31 18 21 19 -21 43 49 39 -25 44 -27 -28 -29 56 -31 -32 33 37 34 -36 42 -38 -39 -40 -41 -42 -43 -44 -45 45 -47 47 -49 -50 50 -52 57 53 -55 -56 -57 -58 60 -60 -61 -62 -63
leaf_value=0.11489866712632531 -0.0011857267537477957 0.070347720542000419 0.024527999965486953 -0.054626063340342347 -0.010975699708025574 0.12934765866420062 0.013261334639262877 0.050615088716084458 -0.085678210628692353 -0.15120060295215484 -0.031251712967443133 0.1103071482769908 -0.15719324072660645 -0.092680054917831156 -0.091964875833656562 -0.19233077594567827 -0.065930796344177547 -0.0013135288011478239 -0.038181239587092936 0.05883805096493188 0.1225995547853866 -0.21247947830062533 0.063348292954354332 0.06424359727946706 0.12548479452375547 0.063932683586593528 0.11573260902036382 0.01665041573772812 -0.24430346512139503 0.043403260601053012 -0.10810316301158765 0.12271454628581131 0.042090317189864147 -0.011155194586008502 0.044095418383982961 0.1040611666003944 0.057515381937575875 0.097145090307311777 0.059073845529781357 -0.039499703340991031 -0.0089501815212827632 -0.10425330635213437 -0.18891645286954356 -0.14307811339352822 -0.053453297999078012 0.11603534632007675 -0.05105425903656461 -0.12758494725447642 -0.056598603583323484 0.14250255231305878 -0.18348796927427649 -0.1486294585786174 0.16229498135489678 -0.088021156945843129 0.16253391029757958 0.15118222795812886 0.14848560641999486 -0.13456195218229153 -0.1687765722066521 -0.13281829020547861 -0.15697389504031786 -0.1767253049202108
leaf_weight=1326.2958311140537 807.85647766664624 1707.7767514400184 28683.86799262464 900.2909851372242 668.00812803581357 23.885460123419762 10966.727713184431 15228.188587985002 699.65477874875069 74.539219491183758 1749.6725482791662 315.96147674322128 73.782275572419167 217.17247773706913 119.48708401620388 40.972082704305649 1784.7315412312746 258.58556224405766 2055.1036506742239 2696.4606230705976 19.168148264288902 1.7006938159465779 633.52298665046692 5514.3242845349014 371.17007365822792 4850.8442266434431 113.28781670704484 527.61297219991684 0.95285351574420829 1061.0280480273068 599.05967466905713 537.69595132023096 949.70108863711357 1435.4899746477604 5237.9258472323418 1376.9276047497988 2871.7606811374426 2504.0640643239021 5387.2384795099497 243.2919047921896 198.12380333989859 388.06971957534552 18.510129876434803 192.71621648967266 104.25055771321058 493.14049705862999 170.15957413986325 287.80783579498529 190.34468076378107 15.553704366087915 11.069965958595274 52.897444389760494 29.045039549469948 66.578512154519558 446.93759466707706 183.50992103666067 873.6200845092535 86.709838405251503 48.0436951816082 45.384156223386526 10.960967756807802 12.141379997134207
leaf_count=1187 2426 3318 88003 4236 1905 24 36058 35366 2381 363 6952 348 354 1044 419 165 5989 626 5619 4220 15 7 963 9001 315 7176 125 1170 4 1707 5445 429 1481 3336 8572 1734 5012 2645 7317 631 1376 1334 82 684 310 452 1634 1548 749 15 46 258 23 378 177 133 277 508 204 268 50 50
internal_value=0 0.0291699 0.0324166 0.0610825 0.0431995 0.0270692 0.0280652 0.0335747 0.00732775 -0.0103412 -0.00172641 -0.0301664 0.0354667 0.051955 0.0440102 0.0388309 0.0197341 0.0639643 -0.0040623 0.0168761 0.0483676 0.00996525 -0.00674419 0.0561161 0.0801142 0.0546361 -0.0355851 -0.0470881 0.100533 0.0831231 -0.0508532 0.054168 0.0779054 0.0475605 0.0322107 0.0670141 0.0515443 0.0820064 0.0648493 0.0348108 0.0643465 -0.0630896 0.100175 -0.119044 0.120712 0.0864579 -0.0878231 -0.0991497 -0.0846991 0.130136 0.00695761 -0.115424 -0.0855715 -0.0119892 0.145725 0.147843 0.148058 -0.147822 -0.158219 -0.144244 -0.137077 -0.188763
internal_weight=0 71984.2 66518.1 10457.8 7195.91 56060.3 55578.4 43912.1 11666.4 5466.05 5051.89 2862.82 2189.08 1924.95 36577.2 29039.7 12934.5 7537.49 7063.91 4751.56 5870.59 1735.3 1523.47 6182.33 5802.18 5658.7 1013.58 2312.34 3261.9 2387.32 2348.73 16105.2 3506.88 12598.4 6673.42 4386.69 2991.25 3453.77 5924.93 876.815 514.085 646.655 1395.44 211.884 1415.5 597.391 481.853 457.967 264.127 211.834 26.6237 414.159 215.547 95.6236 818.108 185.211 874.573 198.612 100.941 119.923 97.6708 53.1135
