tree
version=v4
num_class=1
num_tree_per_iteration=1
label_index=0
max_feature_idx=136
objective=binary sigmoid:1
feature_names=Column_0 Column_1 Column_2 Column_3 Column_4 Column_5 Column_6 Column_7 Column_8 Column_9 Column_10 Column_11 Column_12 Column_13 Column_14 Column_15 Column_16 Column_17 Column_18 Column_19 Column_20 Column_21 Column_22 Column_23 Column_24 Column_25 Column_26 Column_27 Column_28 Column_29 Column_30 Column_31 Column_32 Column_33 Column_34 Column_35 Column_36 Column_37 Column_38 Column_39 Column_40 Column_41 Column_42 Column_43 Column_44 Column_45 Column_46 Column_47 Column_48 Column_49 Column_50 Column_51 Column_52 Column_53 Column_54 Column_55 Column_56 Column_57 Column_58 Column_59 Column_60 Column_61 Column_62 Column_63 Column_64 Column_65 Column_66 Column_67 Column_68 Column_69 Column_70 Column_71 Column_72 Column_73 Column_74 Column_75 Column_76 Column_77 Column_78 Column_79 Column_80 Column_81 Column_82 Column_83 Column_84 Column_85 Column_86 Column_87 Column_88 Column_89 Column_90 Column_91 Column_92 Column_93 Column_94 Column_95 Column_96 Column_97 Column_98 Column_99 Column_100 Column_101 Column_102 Column_103 Column_104 Column_105 Column_106 Column_107 Column_108 Column_109 Column_110 Column_111 Column_112 Column_113 Column_114 Column_115 Column_116 Column_117 Column_118 Column_119 Column_120 Column_121 Column_122 Column_123 Column_124 Column_125 Column_126 Column_127 Column_128 Column_129 Column_130 Column_131 Column_132 Column_133 Column_134 Column_135 Column_136
feature_infos=[-1.8014661073684692:1.9731968641281128] [-1.7160434722900391:1.9330692291259766] [-1.6382262706756592:1.893924355506897] [-1.5680137872695923:1.8557635545730591] [-1.5054070949554443:1.8185858726501465] [-1.4504051208496094:1.7823913097381592] [-1.4123568534851074:1.7937201261520386] [-1.3844102621078491:1.9274762868881226] [-1.3517893552780151:2.0758624076843262] [-1.3099035024642944:2.0974209308624268] [-1.2559221982955933:2.0165181159973145] [-1.1870334148406982:2.064321756362915] [-1.1039742231369019:2.1106562614440918] [-1.0067610740661621:2.1771299839019775] [-0.90047705173492432:2.2759943008422852] [-0.78966546058654785:2.4052433967590332] [-0.67814630270004272:2.5269482135772705] [-0.65620064735412598:2.5277442932128906] [-0.66012513637542725:2.5653238296508789] [-0.66667592525482178:2.5221147537231445] [-0.66607785224914551:2.4413206577301025] [-0.67377018928527832:2.3840618133544922] [-0.78228282928466797:2.2409591674804688] [-0.7797551155090332:2.1030042171478271] [-1.0841877460479736:2.0889520645141602] [-1.4308524131774902:1.9925726652145386] [-1.6366665363311768:1.8694267272949219] [-1.8254417181015015:1.7314887046813965] [-1.8814246654510498:1.5598906278610229] [-2.2033448219299316:1.3473584651947021] [-2.6534385681152344:1.1459542512893677] [-2.9375624656677246:1.0414414405822754] [-2.8964071273803711:1.0182701349258423] [-2.6209216117858887:1.0153312683105469] [-1.9672813415527344:1.0222163200378418] [-1.2877312898635864:1.0987448692321777] [-0.66409575939178467:1.3781088590621948] [-0.66973656415939331:1.4172744750976562] [-0.67192721366882324:1.4686216115951538] [-0.67710685729980469:1.427788257598877] [-0.67391806840896606:1.3506048917770386] [-0.67713803052902222:1.3033223152160645] [-0.67526406049728394:1.4334096908569336] [-0.67822211980819702:1.6771683692932129] [-0.67542338371276855:1.8418123722076416] [-0.67887544631958008:1.9795904159545898] [-0.6766776442527771:1.8671952486038208] [-0.68056988716125488:1.8940913677215576] [-0.67851173877716064:2.0411467552185059] [-0.68057990074157715:2.1347439289093018] [-0.67868822813034058:2.1180493831634521] [-0.68411111831665039:2.0443711280822754] [-0.6882440447807312:2.1199874877929688] [-0.69760811328887939:2.1755821704864502] [-0.68820065259933472:1.8716312646865845] [-0.66555494070053101:1.7058380842208862] [-0.63047897815704346:1.5109990835189819] [-0.79989981651306152:1.3641012907028198] [-0.9627259373664856:1.3483799695968628] [-0.83332031965255737:1.3266682624816895] [-0.62303602695465088:1.2987289428710938] [-0.62908732891082764:1.6912268400192261] [-0.65896600484848022:1.8743280172348022] [-0.67422842979431152:1.7138135433197021] [-0.93073725700378418:1.3433690071105957] [-1.1305865049362183:1.0728911161422729] [-1.2290370464324951:0.99044626951217651] [-1.5406250953674316:0.88485002517700195] [-1.6781172752380371:0.75389385223388672] [-1.8947262763977051:0.60495084524154663] [-1.6609858274459839:0.45876148343086243] [-1.7446892261505127:0.33052113652229309] [-1.674402117729187:0.23037496209144592] [-1.5674382448196411:0.15855956077575684] [-1.4517455101013184:0.30397361516952515] [-1.6804615259170532:0.84510332345962524] [-1.8599822521209717:1.4404212236404419] [-2.0371255874633789:1.2026444673538208] [-2.1728529930114746:1.1271375417709351] [-2.2573421001434326:0.52897804975509644] [-2.3058340549468994:0.2406151294708252] [-2.3315773010253906:0.28676301240921021] [-2.3403120040893555:0.33890664577484131] [-2.3343968391418457:0.39074629545211792] [-2.3124566078186035:0.43792322278022766] [-2.2730567455291748:0.47703936696052551] [-2.2140905857086182:0.50853937864303589] [-2.1362462043762207:0.53271615505218506] [-2.0426793098449707:0.55223846435546875] [-1.9374580383300781:0.56802195310592651] [-1.8240519762039185:0.65018975734710693] [-1.7074116468429565:1.0688302516937256] [-1.6520191431045532:1.4172115325927734] [-1.5958865880966187:1.6287872791290283] [-1.5394163131713867:1.664950966835022] [-1.4922878742218018:1.6182941198348999] [-1.4547033309936523:1.5608183145523071] [-1.4384253025054932:1.5595740079879761] [-1.4264529943466187:1.5645072460174561] [-1.522296667098999:1.5648646354675293] [-2.0638625621795654:1.5687597990036011] [-2.4619696140289307:1.5649210214614868] [-2.648137092590332:1.569068431854248] [-2.5047333240509033:1.5662518739700317] [-2.1062953472137451:1.5674868822097778] [-1.4475361108779907:1.5623446702957153] [-1.2213733196258545:1.563502311706543] [-1.117332935333252:1.5619508028030396] [-1.168958306312561:1.5697338581085205] [-1.225186824798584:1.5734660625457764] [-1.369315505027771:1.5835809707641602] [-1.5990560054779053:1.5861003398895264] [-2.1418814659118652:1.5904401540756226] [-2.465855598449707:1.5896482467651367] [-2.5047738552093506:1.5896980762481689] [-2.0072333812713623:1.5865405797958374] [-1.6131480932235718:1.5868538618087769] [-1.6282110214233398:1.611059308052063] [-1.6824811697006226:2.2395215034484863] [-1.7420622110366821:2.2202906608581543] [-1.8175874948501587:1.9499853849411011] [-1.9280952215194702:1.6493175029754639] [-2.15055251121521:1.6308574676513672] [-2.3795907497406006:1.6220458745956421] [-2.6580204963684082:1.8138364553451538] [-2.9761693477630615:2.1645474433898926] [-3.3559722900390625:3.0688047409057617] [-3.8750591278076172:4.2020993232727051] [0:1] [0:1] [0:1] [0:1] [0:1] [0:1] [0:1] [0:1] [0:1]
tree_sizes=6658 5368 6849 6883 6855 6232 6878 6541 6341 6865 6800 6943 6806 6533 6949 6907 6933 6072 6960 6761 6116 6798 5936 6760 6910 6479 6156 6771 6330 6652 6751 6580 6913 6861 6779 6939 6462 6820 6747 6849 6566 6812 6718 6566 6955 6953 6198 6706 6257 6800 6975 6909 6957 6257 6646 6811 6664 6605 6389 6244 6857 6924 6162 6700 6827 5893 6952 6904 6402 6074 6711 6918 6297 6560 6740 6400 6441 6913 6569 6008 6594 6664 5933 6716 6579 6943 6535 6815 6909 6284 6699 5346 6933 6734 6953 6601 6577 6844 6944 6808 6497 6593 6521 6904 6854 6140 5581 5756 6564 5826 6815 6074 5905 6174 6493 6259 6858 6844 6807 6831 5854 6889 6812 4506 6687 5381 6954 6372 6592 5818 6704 5840 6179 6178 5857 6938 6844 6867 6384 6200 5900 6790 5817 6271 6941 6301 6827 6909 6222 6921 5692 6771 6501 4940 6775 6292 6933 6888 5382 6792 6838 6338 5917 6481 6412 6698 6923 6624 6929 5140 5383 5707 6396 6788 6910 6818 6908 6929 6235 5256 6124 6718 5701 6111 6916 6460 6590 6559 5835 5633 6368 5518 6597 6936 6398 6119 6383 6384 6615 5606

Tree=0
num_leaves=62
num_cat=0
split_feature=52 103 45 103 104 45 125 52 103 53 74 52 103 45 126 113 30 45 31 82 36 59 123 57 134 57 21 132 37 30 44 58 72 37 113 37 132 109 124 109 132 37 3 74 70 72 112 82 108 32 112 71 52 37 2 102 113 109 134 61 1
split_gain=86453.9 31505 29021.8 28578.4 22533.7 13744 20132.1 11133.4 10899.7 15937.6 10229.4 13640 9246.13 11834 8425.95 8222.67 7137.23 5882.6 5630.09 5344.43 5140.22 4811.99 6869.06 4689.43 4359.35 4032.04 3602.47 3583.44 3453.33 3392.04 3323.06 3844.86 3132.58 2688.67 2500.76 1916.65 2551.94 1760.96 1403.97 1664.23 1400.58 1374.03 1101.56 1058.88 926.466 835.22 782.293 629.406 1320.23 588.643 465.655 479.288 462.44 394.171 269.985 201.311 140.822 445.896 133.477 58.8755 1.77636e-15
threshold=1.0778880119323733 -0.83851683139801014 1.0443915128707888 -0.93039461970329274 -0.7222267985343932 1.1982623934745791 -2.4521422386169429 1.0663506388664248 -0.88898378610610951 0.92175018787384044 -0.97174751758575428 1.1016259193420412 -0.86292728781700123 1.0738822221755984 -1.4832969307899473 -0.92511534690856922 1.0939511656761172 1.2244228124618532 1.0035123825073244 -1.3100194334983823 0.95833635330200206 0.79991510510444652 -1.3556427359580991 0.87329408526420604 1.0000000180025095e-35 0.86351647973060619 1.2975317835807803 1.0000000180025095e-35 0.95438456535339367 1.0646261572837832 1.0518919825553896 0.78946754336357128 -0.69123443961143483 0.90638440847396862 -1.3023926615715025 0.94728827476501476 1.0000000180025095e-35 -1.0833177566528318 -2.4738668203353877 -1.1100793480873106 1.0000000180025095e-35 0.9534597396850587 0.70063123106956493 -0.6885387897491454 -0.079147554934024797 -0.31428050994873041 -1.2731032371520994 -1.3783243298530576 -0.84853634238243092 0.96303883194923412 -1.205886125564575 -0.46141073107719416 1.0438242554664614 0.99633094668388378 0.2702088207006455 -0.66196802258491505 -1.3500651121139524 -1.0972271561622617 1.0000000180025095e-35 0.68936651945114147 -0.27210122346878046
decision_type=2 2 2 2 2 2 2 2 2 2 2 2 2 2 2 2 2 2 2 2 2 2 2 2 2 2 2 2 2 2 2 2 2 2 2 2 2 2 2 2 2 2 2 2 2 2 2 2 2 2 2 2 2 2 2 2 2 2 2 2 2
left_child=1 2 3 15 5 6 27 30 9 -5 18 -12 25 14 -14 16 -1 41 -8 -15 35 22 23 -9 -24 33 -27 34 -29 -10 50 40 -33 -4 -2 36 -7 -37 56 44 -32 54 -17 49 -40 53 -41 48 -23 -22 51 -3 -52 -43 58 -45 57 -19 -6 -49 -58
right_child=4 7 12 8 17 20 10 21 29 -11 11 -13 13 19 -16 42 -18 38 -20 -21 43 47 24 -25 -26 26 -28 28 -30 -31 31 32 -34 -35 -36 37 -38 -39 39 46 -42 45 -44 55 -46 -47 -48 59 -50 -51 52 -53 -54 -55 -56 -57 60 -59 -60 -61 -62
leaf_value=-1.5760512760156344 -1.0928739684234623 -1.6704129582713423 -1.7083000053132791 -2.570595637666174 -2.9300478752433512 -1.3663668951340537 -1.5250893447325606 -1.8539164847110516 -2.3131778025824552 -2.0681592790346 -1.989922886677393 -1.7510369426092836 -2.5201584726197295 -1.4988208128213465 -1.9434259775110769 -2.0763932585953402 -2.2281290386238504 -2.9445159907228384 -2.2538550745094064 -1.9615524789923118 -1.912295657329421 -1.66315885651218 -2.1114645765093618 -2.7185527601371029 -1.5176014639252742 -1.5633343506704969 -2.0933410494886537 -2.7968713950550859 -2.031849869477083 -2.6418151596066788 -1.7328106154652145 -1.7581453833301861 -2.6273406797931074 -1.3782361279974009 -2.9445159907228384 -1.371374171774884 -2.1168067767071301 -1.7987905579130439 -2.9445159907228384 -1.1748738524043287 -2.9445159907228384 -2.9445159907228384 -2.8335832937357601 -2.9445159907228384 -1.5763358285387636 -1.2630103080184427 -1.9660699849089176 -2.9445159907228384 -2.6715528244533115 -2.7676564328703948 -2.9171778099633232 -2.9445159907228384 -2.6934208376007622 -1.4628004633316911 -1.3153142973780048 -1.6899447229475237 -2.9445159907228384 -1.0293714250643176 -2.1280267554834777 -2.5770855854622754 -2.9445159907228384
leaf_weight=836.87005074694753 26.770580988377333 6.7078336216509342 945.75484242662787 937.11218080297112 236.28429481759667 86.648047968745232 1540.1904202140868 81.499486804008484 425.06409309431911 1934.8512486256659 3901.7169882133603 6169.8942782655358 584.05390036478639 386.62314318493009 447.34747404977679 25.596409574151039 209.9673813842237 3.8117226473987103 113.84390344470739 704.26232060417533 48.02224013209343 14.673689361661671 566.30983382463455 272.32126298546791 158.12218205630779 183.15878155082464 427.73777012899518 277.85007216408849 74.914328116923571 1202.7706366404891 73.353887721896172 43.223278317600489 1018.5427385419607 333.94034319743514 10.025352716445921 1071.3364123702049 94.994151722639799 105.92406084015965 14.568090666085483 35.738234981894493 10.965229533612726 8.0933837033808249 77.041948772966862 20.886151492595676 7.4959173314273349 8.1322079338133317 19.216427311301231 69.707530606538057 112.71592644229531 9.6646980941295606 375.14439897984266 5.2737532518804056 122.53241764381528 2.3071827217936507 1.0491606034338463 1.3624528758227814 9.9209219589829445 1.7850289344787622 2.0934681780636302 4.6520217359066001 1.6708921194076509
leaf_count=5245 46 48 7105 14648 4493 372 8914 724 5614 21091 39657 48834 8852 2142 4351 281 2605 73 1440 6970 453 104 6404 4636 904 1126 4764 4935 791 19607 568 345 16465 1471 192 4650 1079 886 279 89 210 155 1395 400 47 27 191 1335 1869 169 7088 101 2057 12 4 10 190 2 24 73 32
internal_value=-2.83867 -2.1767 -2.08953 -2.2356 -1.81504 -1.79452 -1.82923 -2.46359 -2.34928 -2.2321 -1.80573 -1.84358 -1.8839 -2.02716 -2.27001 -1.79059 -1.70684 -2.60476 -1.57525 -1.79755 -1.50232 -2.2421 -2.15823 -2.51939 -1.98184 -1.72307 -1.93443 -2.53646 -2.63441 -2.556 -2.63481 -2.54034 -2.59196 -1.62217 -1.59737 -1.45648 -1.75883 -1.40983 -1.92845 -1.74608 -1.89039 -2.85175 -2.64475 -2.28163 -2.4797 -2.02221 -1.45154 -2.69034 -2.5554 -2.0556 -2.84726 -2.23122 -2.86209 -2.61582 -2.91596 -2.86769 -2.74563 -2.3337 -2.923 -2.92153 -2.94452
internal_weight=0 12597.9 9662.15 5649.27 13906.2 13554 12115.2 2935.75 4499.8 2871.96 11725.6 10071.6 4012.88 2122.29 1031.4 1149.48 1046.84 352.167 1654.03 1090.89 1438.84 1280 1078.25 353.821 724.432 1890.59 610.897 389.56 352.764 1627.83 1655.74 1146.09 1061.77 1279.7 36.7959 1358.9 181.642 1177.26 94.2072 77.0187 84.3191 257.96 102.638 79.9355 22.064 18.5328 54.9547 201.749 127.39 57.6869 509.658 11.9816 497.677 10.4006 239.427 22.2486 17.1886 5.59675 238.378 74.3596 11.5918
internal_count=268644 150198 107267 70486 118446 112828 104809 42931 60960 35739 98845 88491 36781 22315 13203 9526 7850 5618 10354 9112 8019 16049 12668 5360 7308 14466 5890 5964 5726 25221 26882 17588 16810 8576 238 6987 1451 5536 903 606 778 4715 1676 1032 326 194 280 3381 1973 622 9294 149 9145 167 4521 410 297 75 4517 1408 222
is_linear=0
shrinkage=1


Tree=1
num_leaves=49
num_cat=0
split_feature=45 31 39 105 102 78 112 124 44 75 103 81 30 113 59 104 130 77 114 113 109 38 102 39 16 25 77 72 111 82 135 87 5 61 45 113 9 113 103 103 30 103 30 117 100 99 122 0
split_gain=6240.05 6527.46 7419.11 5764.6 3980.82 3657.24 3521.94 3239.89 2790.35 2677.48 2560.77 2505.38 2447.29 2351.43 2031.9 2001.8 1723.13 1688.75 1587.71 1530.67 1258.12 1199.1 1544.5 934.185 991.189 814.403 658.439 637.087 581.459 525.561 512.481 476.358 307.02 255.999 91.2546 21.4573 67.8668 0.397749 0.0730206 0.0687429 0.0305212 0.0293428 0.0209097 0.00592237 0.000481151 0.000186195 6.68691e-05 2.84217e-14
threshold=0.74223536252975475 1.0014253854751589 0.97692567110061657 -0.8301873207092284 -0.83751359581947316 -1.3028647899627683 -0.92718678712844838 -2.4738668203353877 1.0410439968109133 -1.1064875125885008 -0.86135154962539662 -1.2121721506118772 1.0542672872543337 -0.92271158099174488 0.77690133452415477 -0.85356849431991566 1.0000000180025095e-35 -1.2769573926925657 -1.0128925442695615 -0.91781818866729725 -0.86881282925605763 0.98646080493927013 -0.82545149326324452 0.9736267924308778 1.0592752099037173 1.3110121488571169 -1.251594543457031 -0.73942670226097096 -1.1415936350822447 -1.362672686576843 1.0000000180025095e-35 -1.2676243185997007 0.63424265384674083 0.24873215705156329 1.2317129969596865 -0.98375836014747609 0.98260352015495311 -0.93559950590133656 -0.93039461970329274 -0.83851683139801014 1.0930614471435549 -0.88898378610610951 1.0922951102256777 -0.9682333469390868 -0.92538228631019581 -0.91544780135154713 -1.0445156693458555 1.0198690295219424
decision_type=2 2 2 2 2 2 2 2 2 2 2 2 2 2 2 2 2 2 2 2 2 2 2 2 2 2 2 2 2 2 2 2 2 2 2 2 2 2 2 2 2 2 2 2 2 2 2 2
left_child=18 5 4 11 8 12 7 34 10 19 -3 16 13 31 -10 -9 -4 -15 30 -8 32 22 -5 28 -25 -13 -11 -22 -6 -23 33 -2 -14 40 -7 36 -20 38 42 41 44 -39 -37 -38 -1 -42 -40 -41
right_child=1 2 3 21 23 6 9 15 14 26 -12 25 20 17 -16 -17 -18 -19 35 -21 27 29 -24 24 -26 -27 -28 -29 -30 -31 -32 -33 -34 -35 -36 37 43 39 46 47 45 -43 -44 -45 -46 -47 -48 -49
leaf_value=-0.12065289454176086 0.44024381301412663 0.2063165088200023 0.51566162190491671 0.46101019095140838 0.89643788849094475 -0.10545077017347476 0.3964852963612619 0.38853944597057566 0.34408936892135622 0.26948803764236062 -0.071169238246929098 0.24990897824588468 0.46215739058615712 0.36351278951531141 0.16253454102830089 0.33860783931606631 0.21275775447502074 0.037858108124604106 0.4287891174930244 0.15589723379075926 0.70396426212936003 0.56495766207832121 0.099905492590106587 0.084518802805409105 0.55761992400526028 0.52143268517380015 0.037797915446452862 0.54111486222510241 -0.034222283678298902 0.29068721732370162 0.56977292312617001 0.53060424623654645 0.25970967678528911 0.54998703583220709 0.19764178862229251 -0.12067899657182363 -0.11454990196103108 -0.10736855030125668 -0.10842878216395938 -0.10540860907847729 -0.11077297926389562 -0.10989224927521607 -0.11131392193145695 -0.12067899657182364 -0.11928671956302819 -0.10927700805837358 -0.10764182679484109 -0.10540860907847729
leaf_weight=16.029226601123817 1566.4297031722963 1947.4063330888748 2396.7826771214604 136.70533829182386 6.7727727815508834 153.81739883497357 791.08622118085623 13618.9323829934 2581.4925051257014 150.47958279028535 401.0684856325388 701.833186481148 147.83534819632769 3742.6135630272329 809.80840504541993 19562.278431680053 203.77318733930588 166.31612256541848 3.1170769184827796 397.22773180902004 342.24478139728308 83.007053859531879 886.79807405918837 181.88736547157168 58.535964619368315 131.09915425628424 663.46108177676797 805.93286980316043 764.63961155712605 441.31403847038746 51.998006790876389 929.6680635586381 151.85930809751153 7.6780101358890525 10.619343876838682 28.682538062334064 2.125299707055091 126.91649534925818 1.4156705886125562 127.9747153930366 1.8436882048845293 72.324954945594072 2.60024370253086 6.1056887954473487 3.0719687640666988 1.5162199437618245 4.5504931248724452 14.603428915143011
leaf_count=113 4525 14863 8107 640 8 3179 4574 63587 12117 806 5362 3890 545 12946 5367 80760 1281 1218 8 3800 642 235 7021 1658 277 318 7227 2432 9780 2096 32 1561 1246 13 86 202 21 2063 20 2629 21 883 29 43 24 20 69 300
internal_value=0 0.344922 0.278778 0.371355 0.210474 0.362887 0.349173 0.356908 0.242714 0.220357 0.158928 0.443583 0.424617 0.398075 0.300736 0.359102 0.491927 0.349657 -0.0200233 0.316062 0.542032 0.211134 0.148137 0.0275908 0.199705 0.292645 0.0806323 0.589656 -0.0260514 0.334108 0.379603 0.473898 0.359574 0.0515101 -0.085877 -0.104098 0.0313963 -0.108154 -0.117967 -0.107085 -0.118887 -0.108285 -0.119901 -0.119096 -0.120433 -0.110098 -0.107829 -0.105409
internal_weight=0 54933.7 11732.9 4981.31 6751.61 43200.8 35347.9 33345.6 5739.78 2002.25 2348.47 3433.49 7852.9 6405.03 3391.3 33181.2 2600.56 3908.93 472.554 1188.31 1447.87 1547.82 1023.5 1011.84 240.423 832.932 813.941 1148.18 771.412 524.321 82.1371 2496.1 299.695 30.1391 164.437 390.417 11.3481 379.069 37.2489 341.82 22.4611 199.241 31.2828 8.23099 19.1012 3.35991 5.96616 142.578
internal_count=268644 262154 73020 23588 49432 189134 164019 147612 37709 16407 20225 13596 25115 20250 17484 144347 9388 14164 6490 8374 4865 9992 7661 11723 1935 4208 8033 3074 9788 2331 223 6086 1791 191 3265 6267 72 6195 320 5875 178 2946 231 64 137 41 89 2929
is_linear=0
shrinkage=0.1


Tree=2
num_leaves=63
num_cat=0
split_feature=45 103 89 103 43 124 32 30 52 32 103 44 7 124 10 135 125 104 134 121 53 61 134 57 103 135 0 134 136 130 130 132 45 113 134 74 97 28 32 58 32 71 40 136 73 47 58 0 30 93 80 81 37 48 105 129 112 25 49 67 45 101
split_gain=4391.9 5269.3 3255.69 2699.99 3482.57 4518.33 2705.94 2389.46 2174.44 2284.88 1865.14 3849.06 1888.1 1817.12 1798.87 1996.83 1771.82 1688.93 1674.81 2110.4 1903.74 1629.3 1544.38 1247.03 1245.99 1041.99 1187.3 979.239 825.674 816.93 722.04 717.519 674.468 639.671 875.07 712.092 562.216 643.264 553.333 470.804 465.653 423.046 405.266 356.013 315.672 440.999 272.408 269.678 261.669 199.473 294.247 193.245 163.227 154.451 129.967 126.493 199.601 104.266 103.26 102.553 75.4483 34.3457
threshold=1.0902715325355532 -0.84539449214935292 -1.1705360412597654 -0.82474246621131886 1.0822620391845705 -1.4742492437362669 0.95743811130523693 1.0922951102256777 1.0415148138999941 0.95261031389236461 -0.90794986486434925 1.0059426426887514 0.77584311366081249 -2.4738668203353877 0.94862574338912975 1.0000000180025095e-35 -1.3439439535140989 -0.91690573096275318 1.0000000180025095e-35 -1.2432911396026609 1.0674232840538027 0.6866910755634309 1.0000000180025095e-35 0.87329408526420604 -0.94211208820343006 1.0000000180025095e-35 0.60174569487571727 1.0000000180025095e-35 1.0000000180025095e-35 1.0000000180025095e-35 1.0000000180025095e-35 1.0000000180025095e-35 0.90754199028015148 -1.0440467000007627 1.0000000180025095e-35 -0.85277238488197316 -0.80300888419151295 1.1351339817047121 0.95879867672920238 0.89830839633941661 0.94459441304206859 -0.7613978087902068 0.95901659131050121 1.0000000180025095e-35 -0.82310199737548817 1.098486661911011 0.85140722990036022 0.39513468742370611 1.1061066985130312 -0.90332242846488942 -1.3317819237709043 -1.3160344362258909 0.92854854464530956 1.127950191497803 -0.91358938813209523 1.0000000180025095e-35 -0.88707068562507618 1.3345755338668825 1.1664965748786928 0.1303181201219559 1.2317129969596865 -0.45484781265258784
decision_type=2 2 2 2 2 2 2 2 2 2 2 2 2 2 2 2 2 2 2 2 2 2 2 2 2 2 2 2 2 2 2 2 2 2 2 2 2 2 2 2 2 2 2 2 2 2 2 2 2 2 2 2 2 2 2 2 2 2 2 2 2 2
left_child=1 7 8 21 5 23 28 10 55 30 14 12 -12 60 15 -1 -13 -16 20 -20 -15 29 -8 31 32 42 -27 -11 -7 36 -10 -5 41 34 43 -36 37 -2 47 49 -25 -9 -26 -4 45 -35 -38 -31 -34 50 -23 -46 58 -54 -51 57 -57 -3 -41 -40 -6 -62
right_child=3 2 33 4 13 6 22 24 9 27 11 16 -14 18 17 -17 -18 -19 19 -21 -22 39 -24 40 25 26 -28 -29 -30 38 -32 -33 48 44 35 -37 46 -39 59 52 -42 -43 -44 -45 51 -47 -48 -49 -50 54 -52 -53 53 -55 -56 56 -58 -59 -60 -61 61 -63
leaf_value=0.27420658594721642 0.095337088647556176 -0.10845414357831995 0.021137394451662361 0.33861877289770137 -0.1049133515297087 0.31406434341251571 0.099171585346866015 0.46395847407164981 0.24375085979461428 0.084157827152108219 0.15340541264682059 0.22046540167872705 -0.08058469235177855 0.15230978878292345 0.23527388809861574 0.42249939932685082 0.30890812651719085 -0.05865660283834543 0.27593140180309927 0.44213412957723763 0.26070638215814562 0.24755956927437658 0.37025314256192154 0.05598742323687933 -0.044810011581829637 0.23104962770779733 -0.012240505077483916 0.49469864657011797 0.084094454733007751 0.30675230621972038 0.4018604223499786 -0.11539013493645983 0.47182784332905564 -0.070059536447742349 -0.11416987929724359 0.56785147097885458 0.38068388773615947 0.31483541010694749 -0.088571039346788283 -0.12246053788636979 -0.06366281979403722 0.061595874198748839 0.37668446083862572 0.49153175387289832 0.5316261565220235 0.20536097545070536 0.29636633857412048 0.16187825226676231 0.15621182608521222 0.16573714790502028 0.10766018472295574 -0.074518369442583596 0.51290022430203253 -0.034311897875776702 0.33906445969485455 0.58262919089173915 -0.1107938994640499 0.11540336546167165 0.35700617763412312 0.12533533649120318 0.26556995408772882 -0.10641279429000283
leaf_weight=3276.0624699518085 136.79284665733576 263.63338824361563 495.36836072057486 175.71415398642421 140.01022317633033 2234.9830713160336 1555.3305487260222 32.491264745593071 757.78700924292207 1063.2085763849318 3152.3053340651095 7165.6101649589837 387.20850167050958 1745.811827827245 1128.6938038468361 1256.2193894535303 3312.1630406044424 236.44028126075864 2556.750132471323 1089.5688090100884 22524.474571816623 336.22482334077358 242.9967565946281 598.41587910801172 553.28351590409875 570.35397503525019 309.40826933830976 61.458463948220015 167.84783739224076 322.52371354028583 466.72468362376094 43.409811586141586 153.69766286760569 123.41065233200788 20.626043755561113 59.383686117827892 2142.8441796824336 5570.2167188376188 61.581259369850159 5.6950888782739666 712.57978744804859 133.48389838635921 23.792564578354359 16.629605837166309 5.2909602187573901 109.91419919580221 466.5956209525466 213.57314606383443 31.683384027332067 58.107471995055676 271.9381103515625 888.66160022094846 5.365060329437255 133.63540384173393 169.32164414227009 7.3469680249691036 9.5431012287735921 22.589395072311163 21.258474543690681 35.238292790949345 8.4694110974669439 3.5111683532595626
leaf_count=9400 513 4332 3979 726 3181 4829 9272 132 3459 8490 21601 30193 4377 8619 3426 3759 9930 3188 6899 1517 61097 788 412 3346 4549 2997 3297 280 966 942 1289 426 428 1440 215 35 4667 14887 537 41 6110 908 38 8 20 478 1084 813 227 189 1128 11316 2 813 318 28 132 241 35 209 24 62
internal_value=0 0.207665 0.107494 0.2595 0.246021 0.174985 0.22857 0.227823 0.176975 0.209499 0.237817 0.217967 0.127808 0.260526 0.284998 0.315309 0.248423 0.184365 0.262403 0.325595 0.252909 0.305284 0.135801 0.0278605 0.117757 0.0769903 0.145486 0.106592 0.298 0.318821 0.304015 0.248677 0.286788 0.000307226 0.084477 0.39203 0.327156 0.309574 0.209301 0.184328 -0.00904738 0.140362 -0.027432 0.0364157 -0.0438959 0.059685 0.365607 0.249037 0.417886 0.214882 0.185004 -0.0709308 0.030481 -0.0131909 0.29478 -0.0750941 0.190836 -0.0907868 0.255698 -0.010718 -0.0843035 0.156552
internal_weight=0 26094.5 4371.58 43750.8 33799.9 5731.28 4201.16 21722.9 2652.29 2349.18 19914.7 14017.3 3539.51 28068.6 5897.42 4532.28 10477.8 1365.13 27916.6 3646.32 24270.3 9950.91 1798.33 1530.12 1808.19 1456.84 879.762 1124.67 2402.83 8949.37 1224.51 219.124 351.356 1719.29 592.008 80.0097 8316.45 5707.01 632.916 1001.55 1311 165.975 577.076 511.998 1127.28 233.325 2609.44 536.097 185.381 835.592 608.163 893.953 165.954 139 227.429 303.113 16.8901 286.223 26.9536 96.8196 151.991 11.9806
internal_count=268644 134192 35742 134452 107486 26087 15479 98450 18251 13518 85874 66101 25978 81399 19773 13159 40123 6614 78132 8416 69716 26966 9684 10608 12576 10881 6294 8770 5795 23652 4748 1152 1695 17491 4237 250 21151 15400 2501 3314 9456 1040 4587 3987 13254 1918 5751 1755 655 2423 1916 11336 891 815 507 4733 160 4573 76 746 3267 86
is_linear=0
shrinkage=0.1


Tree=3
num_leaves=63
num_cat=0
split_feature=45 102 31 38 103 102 44 135 103 53 125 134 73 32 37 0 70 103 57 58 40 57 102 135 136 57 73 0 45 63 45 62 128 103 103 120 70 53 136 20 66 38 32 58 132 34 130 32 104 9 58 128 47 26 73 49 17 32 101 95 114 69
split_gain=2800.76 3423.84 2644.17 2065.19 2886.78 2150.89 3388.1 1698.67 1632.68 2251.6 2580.46 1967.59 2367.79 1599.53 1588.72 1432.63 1393.17 1400.49 953.14 947.846 943.296 1045.91 1024.35 826.738 789.259 688.034 664.811 807.153 663.948 707.34 625.77 611.527 597.984 593.734 547.56 532.76 479.166 434.119 346.184 344.803 329.515 283.431 667.242 372.403 282.572 313.204 278.067 260.012 235.225 203.613 189.198 183.692 128.605 250.08 126.398 114.264 103.73 100.266 95.4355 85.0194 58.1134 43.7471
threshold=1.1019215583801272 -0.81958258152008046 1.0048374533653261 0.85639023780822765 -0.89825320243835438 -0.87248104810714711 1.0429630875587466 1.0000000180025095e-35 -0.81161913275718678 1.0920087695121767 -1.6243693232536314 1.0000000180025095e-35 -0.69117698073387135 0.95879867672920238 0.96344885230064403 0.33049856126308447 -0.29124882817268366 -0.6388130486011504 0.91472142934799205 0.75321930646896373 0.97131696343421947 0.89765766263008129 -0.85798865556716908 1.0000000180025095e-35 1.0000000180025095e-35 0.92641115188598644 -0.8159465193748473 0.43975777924060827 1.1126588582992556 0.60471343994140636 0.97869238257408153 0.78234362602233898 1.0000000180025095e-35 -0.82833454012870777 -0.82623755931854237 -1.0731973648071287 -0.26975150406360621 1.1064112186431887 1.0000000180025095e-35 1.2644580602645876 0.25194749236106878 0.95286434888839733 0.95811662077903759 0.77301788330078136 1.0000000180025095e-35 0.83482182025909435 1.0000000180025095e-35 0.96055400371551525 -0.81775152683258046 0.67396965622901928 0.85445937514305126 1.0000000180025095e-35 1.108543932437897 1.2195627093315127 -0.76618632674217213 1.1497596502304079 1.1275129914283755 0.9203442931175233 -0.83680251240730275 -1.0207642316818235 -1.3591711521148679 -0.23963826149702069
decision_type=2 2 2 2 2 2 2 2 2 2 2 2 2 2 2 2 2 2 2 2 2 2 2 2 2 2 2 2 2 2 2 2 2 2 2 2 2 2 2 2 2 2 2 2 2 2 2 2 2 2 2 2 2 2 2 2 2 2 2 2 2 2
left_child=1 2 3 4 7 19 -7 -1 18 10 11 15 -13 24 -15 -10 46 25 37 -5 22 34 23 -4 -12 -18 27 32 35 38 -6 -19 49 44 -22 39 -23 40 -30 -20 47 43 -43 -35 45 -28 51 -2 -37 -3 -42 -11 56 -54 59 -31 -29 -48 -34 -39 -46 -24
right_child=8 26 20 5 30 6 -8 -9 9 16 13 12 -14 14 -16 -17 17 31 28 -21 21 36 61 -25 -26 -27 33 52 29 55 -32 -33 58 41 -36 48 -38 54 -40 -41 50 42 -44 -45 60 -47 57 -49 -50 -51 -52 -53 53 -55 -56 -57 -58 -59 -60 -61 -62 -63
leaf_value=0.1188748035001253 0.25834997614347399 0.23240025076534021 0.06973784839772032 0.30144270025913988 -0.035998810418161539 0.06877045205625848 0.20597935619421623 0.2167686652705493 0.1035026445114447 -0.064391241763460616 0.26228093216570919 0.14312723978068259 0.43178820870314483 0.096775298171663998 0.21201708788907658 -0.038971713609769733 0.34408043161853258 -0.086519966886074287 -0.093670788606718985 0.22356832255520614 0.19121959627904744 -0.028753231367096677 0.16785015257030511 0.23066014068117077 -0.0455206737340247 0.2189730751463031 -0.054910622780297548 -0.11336613531855777 0.20158684424537468 0.3353507156519468 0.092678885253875964 0.18563236975140104 0.50568899263224598 0.10187596512965419 -0.021712307481674218 0.22742696590068601 0.18757602161699094 -0.13870324293680966 0.26662607303503189 0.14745179180367615 0.3458402810491164 0.18360194016323761 -0.079257865773247005 -0.076166925169989963 0.25906801763257453 0.2064484783804062 0.31751698794936156 0.20553102094572925 0.033551154826042165 0.42308638495922574 0.27063460958960206 0.22651025048650514 -0.059606855883955992 0.44770639775907112 -0.13010661722430814 -0.073780965012877453 0.12554696826503828 -0.0045230347813871793 -0.098730486046479327 0.17919707391939863 -0.11958293370614431 -0.10265503218685637
leaf_weight=3202.6827537491918 5383.322345353663 253.46398401260376 2219.5014811046422 2263.0057430565357 843.21543452888727 2267.2561387233436 8726.1973124146461 3969.5146065577865 3206.6800656244159 235.32093997299671 3034.6919096373022 1616.2908497899771 344.77808295190334 2109.3118814527988 2763.581822309643 904.93549534678459 451.8043015897274 212.0330825150013 167.99253659695387 5052.5411233901978 2309.8607406802475 402.62278885394335 6.0956720001995555 372.88966935127974 85.657670728862286 16255.612938206643 55.565042585134506 122.0153603926301 3436.2055496796966 7.3381652981042853 684.89640930294991 135.21640242636204 2.7389058619737616 138.66066492721438 127.43012054264545 262.19908657670021 137.30772515013814 8.5505112558603269 1074.2256754413247 91.66567201167345 591.39381310343742 194.80907138809562 191.49295270442963 769.09495229274035 4.4201106652617446 262.28469710052013 33.927779033780098 1127.1330637633801 82.198868438601494 71.877042923122644 770.12528657913208 23.912712246179581 27.388716131448746 15.059731028974054 14.021878346800802 97.85481383651495 21.353212483227253 13.520840376615523 56.541070848703384 522.01626677811146 48.828667297959328 311.24231987819076
leaf_count=13053 10983 476 12920 5444 7991 15189 28718 16669 12762 1216 4567 5515 218 9065 6864 5030 455 3732 1055 13951 8111 2717 53 1437 486 33457 497 1581 8155 9 4521 562 7 1601 1394 654 617 43 2015 266 975 1007 1952 7507 12 995 33 3267 355 149 1705 53 215 36 85 622 184 59 370 1088 417 3502
internal_value=0 0.165206 0.173344 0.18658 0.146467 0.205642 0.177682 0.173055 0.202872 0.190334 0.160596 0.111456 0.193877 0.197929 0.162133 0.0721451 0.214426 0.218225 0.231768 0.247658 0.112617 0.15219 0.0721258 0.0928849 0.253831 0.222356 0.0454537 0.138624 0.198196 0.211099 0.0216743 0.0194542 0.221304 0.0135361 0.180087 0.0996088 0.0262607 0.252588 0.217077 -0.00854864 0.258562 -0.0184408 0.0533003 -0.0489707 0.125043 0.160759 0.00318035 0.249206 0.181154 0.274528 0.303301 -0.0375574 -0.0325148 0.120376 0.166242 -0.0452403 -0.0777826 0.225749 -0.0708046 0.174074 -0.0881516 -0.097459
internal_weight=0 35131.9 32896.3 27009.3 8700.31 18309 10993.5 7172.2 45063.5 31427.3 14065.9 6072.68 1961.07 7993.24 4872.89 4111.62 17361.3 17054.7 13636.2 7315.55 5886.95 2977.22 2909.73 2592.39 3120.35 16707.4 2235.59 570.438 5219.68 4615.62 1528.11 347.249 384.621 1665.16 2437.29 604.056 539.931 8416.56 4510.43 259.658 7871.97 1294.06 386.302 907.756 371.099 317.85 306.682 6510.46 344.398 325.341 1361.52 259.234 185.817 42.4484 544.589 105.193 143.369 47.4486 59.28 530.567 53.2488 317.338
internal_count=268644 153293 136287 105536 42234 63302 43907 29722 115351 84074 44507 23525 5733 20982 15929 17792 39567 38206 31277 19395 30751 12839 17912 14357 5053 33912 17006 3018 13131 10801 12512 4294 1002 13988 9505 2330 3334 18146 10170 1321 16930 12067 2959 9108 1921 1492 1361 14250 1009 625 2680 1269 2016 251 1216 631 1765 92 377 1131 429 3555
is_linear=0
shrinkage=0.1


Tree=4
num_leaves=63
num_cat=0
split_feature=45 102 31 29 86 132 59 38 132 37 32 104 75 37 103 102 44 73 0 53 53 103 52 127 25 57 124 58 35 58 44 128 103 134 73 128 45 12 132 72 134 67 28 71 134 75 75 32 104 121 31 30 30 106 29 73 72 135 52 51 52 50
split_gain=2004.98 3017.28 1717.02 1456.14 1355.27 1211.71 993.559 1162.63 1593.48 1542.42 1179.09 1250.8 1193.68 898.969 1141.55 759.437 720.633 681.625 675.855 638.118 633.132 585.302 575.479 1206.13 1067.57 597.004 506.179 488.572 609.375 482.316 796.891 472.761 425.161 721.939 598.606 458.434 457.588 450.229 413.735 411.29 370.141 304.178 319.947 282.203 247.533 210.731 205.806 401.295 308.239 205.08 515.059 197.961 187.854 108.557 108.114 99.0086 65.2886 41.2027 12.0253 0.651154 0.345751 0.175133
threshold=1.1076089143753054 -0.81376972794532765 1.0033953785896303 1.2195454239845278 -1.429310619831085 1.0000000180025095e-35 0.8005833923816682 0.98923704028129589 1.0000000180025095e-35 0.943538397550583 0.96003624796867382 -0.81511986255645741 -1.0447913408279417 0.9351034164428712 -0.82623755931854237 -0.94704285264015187 0.98638418316841137 -0.82749420404434193 0.44219961762428289 1.1596127152442934 1.0846825838088991 -0.82474246621131886 1.115669369697571 -1.9425333738327024 1.2309489250183108 0.94685989618301403 -1.4389246106147764 0.80184394121170055 0.8404584825038911 0.90322512388229381 1.1432809233665469 1.0000000180025095e-35 -0.79682645201683033 1.0000000180025095e-35 -0.69117698073387135 1.0000000180025095e-35 1.1531899571418764 0.73501408100128185 1.0000000180025095e-35 -0.32121272385120386 1.0000000180025095e-35 0.13804490864276889 1.1679812669754031 -0.42180383205413813 1.0000000180025095e-35 -1.0622317194938657 -1.0650138258934019 0.95305749773979198 -0.85560923814773548 -1.2080514430999754 0.98774999380111705 1.0958476066589358 1.0753186941146853 -0.81221726536750782 1.1019077301025393 -0.85571554303169239 -0.69644629955291737 1.0000000180025095e-35 1.1016259193420412 1.0929798483848574 1.0778880119323733 1.0615614056587221
decision_type=2 2 2 2 2 2 2 2 2 2 2 2 2 2 2 2 2 2 2 2 2 2 2 2 2 2 2 2 2 2 2 2 2 2 2 2 2 2 2 2 2 2 2 2 2 2 2 2 2 2 2 2 2 2 2 2 2 2 2 2 2 2
left_child=1 2 3 4 59 -6 32 8 10 19 12 -12 -8 14 16 38 -4 18 31 -10 -11 26 23 24 -9 -25 -15 28 57 39 -31 53 41 35 45 36 -34 -37 -5 -24 -23 42 43 -2 -30 -35 47 -29 -48 50 -43 -17 -44 -3 -51 -33 -16 -19 -36 -1 61 -20
right_child=6 17 13 15 5 -7 7 22 9 20 11 -13 -14 21 56 51 -18 27 60 -21 -22 40 29 25 -26 -27 -28 46 44 30 -32 55 33 34 58 37 -38 -39 -40 -41 -42 49 52 -45 -46 -47 48 -49 -50 54 -52 -53 -54 -55 -56 -57 -58 -59 -60 -61 -62 -63
leaf_value=-0.10708772234989172 0.14982177656996684 0.030226279323037349 -0.020443260398155003 0.17014038766021874 0.16468484629122926 0.072061887564692548 0.20869879767070465 0.036195240168353605 -0.043571217846577484 -0.069531024912971945 0.16465430281639215 0.062165720218367526 0.14466085199837261 0.061630899635060736 0.30222289417863729 0.017410292909849013 0.10619420781083189 -0.098266229815312245 -0.10426135780361911 0.21863848609335956 0.15187840938971353 0.011391782632335255 0.22248320406126401 0.1988868273091744 0.20997968464890429 0.039439006290241829 0.24384233235381381 0.1490930055794378 0.10423195349053316 0.073521384391041819 0.18453094629732913 0.25699014431297557 -0.032161063473732043 0.38755769905428428 0.35130939433928099 0.38572354220927824 0.20607783289058018 -0.11765856558789674 -0.13377957481887895 -0.14327158617718408 0.23332052373543555 0.26003564206878738 0.22201039661553948 0.21933310639078415 0.28980319986086955 -0.1234884547837643 0.064965249297379943 -0.038943465912149769 -0.085092482951546297 0.22266800574442469 0.11891541089534421 -0.094306107946784207 -0.13935861359909052 0.26623373184538202 0.30600211831012003 -0.10458857358439928 -0.10720999677413863 0.17588907238129103 0.30086234928533795 -0.15046669963918655 -0.13865567722741226 -0.11448081835927373
leaf_weight=186.57746733725071 1960.4272481426597 20.951919138431549 482.85704321041703 445.43916179612279 27792.306738197803 1488.0336941257119 4930.5332999452949 1313.0681578889489 1001.9961997643113 141.10582889616489 2323.4099701792002 2442.7490593008697 7105.7753465250134 183.71814420819283 3.9465998709201804 440.77407110482454 6476.5142653100193 138.6345116943121 23.575665961951017 102.28633142262697 1524.5858504958451 286.23336820304394 3601.7748647108674 2865.8328528553247 483.7063280493021 255.78086237609386 896.03771938383579 167.13613199815154 257.43007795512676 694.94160445779562 9308.4441309124231 8.8264719471335393 351.03381446376443 9.8167979717254621 153.19410490244627 72.731000661849976 104.65777666866779 23.511830046772957 49.800087720155716 31.009253431111574 101.9086264744401 797.0073910728097 2462.8625155612826 831.8842788413167 99.726514123380184 45.314601466059685 167.84254311770201 353.6373901553452 742.28569092974067 221.48505720123649 382.87195847555995 247.78107465058565 14.469802208244799 279.29010436683893 523.99103363230824 53.32556302472949 296.04331912100315 5.7076111435890189 68.328102260828018 3.5257812589406958 4.9860247522592536 58.083735622465611
leaf_count=3349 4562 99 3306 1260 88579 5736 7522 5093 8532 791 5562 9743 17108 641 6 3363 30454 2139 624 309 4511 1974 5424 5401 937 815 1634 532 1318 2016 14972 23 2088 3 51 67 247 207 278 168 159 1260 4081 1567 207 325 792 2505 6893 408 1409 2289 75 212 569 309 3468 29 19 16 25 583
internal_value=0 0.136131 0.14274 0.153882 0.15825 0.159978 0.166372 0.159641 0.142639 0.0723638 0.154224 0.112127 0.170893 0.103607 0.0891747 0.045136 0.0974078 0.0268259 0.13781 -0.0192835 0.133122 0.17498 0.177576 0.148252 0.0829794 0.185822 0.212839 0.00103616 0.0859709 0.188153 0.176819 0.197798 0.198356 0.130524 0.262366 0.0644383 0.0225548 0.262749 0.139579 0.219361 0.0696603 0.206168 0.19374 0.170531 0.156048 -0.0324906 -0.0287316 0.0214046 -0.0574194 0.240184 0.214242 -0.0227916 0.2199 0.249764 0.281243 -0.0532393 -0.101824 -0.0874255 0.335749 -0.107892 -0.113091 -0.11153
internal_weight=0 41762.9 39381.5 30654.2 29470.4 29280.3 46150.6 38127 19572.4 2769.97 16802.5 4766.16 12036.3 8727.26 7259.36 1183.79 6959.37 2381.44 449.039 1104.28 1665.69 1467.9 18554.6 4918.39 1796.77 3121.61 1079.76 1932.4 501.499 13636.2 10003.4 362.394 8023.59 828.588 276.654 551.934 455.692 96.2428 495.239 3632.78 388.142 7195 5269.64 2792.31 357.157 55.1314 1430.9 520.774 910.128 1925.36 1179.88 688.555 2477.33 300.242 745.476 62.152 299.99 144.342 221.522 190.103 86.6454 81.6594
internal_count=268644 162802 146512 104870 97680 94315 105842 88904 54078 14143 39935 15305 24630 41642 37234 7190 33760 16290 1875 8841 5302 4408 34826 12246 6030 6216 2275 14415 3693 22580 16988 643 16938 3007 398 2609 2335 274 1538 5592 2133 13931 10285 6129 1525 328 10722 3037 7685 3646 2669 5652 4156 311 977 332 3474 2168 70 3365 1232 1207
is_linear=0
shrinkage=0.1


Tree=5
num_leaves=57
num_cat=0
split_feature=45 102 134 31 38 103 114 125 0 127 94 113 36 44 60 124 60 33 58 72 124 93 42 39 58 107 28 112 18 105 57 31 32 106 114 135 122 111 134 53 128 39 52 35 39 132 0 127 51 127 104 132 52 33 52 31
split_gain=1714.69 2891.56 1301.57 1297.94 1782.31 1859.27 1295.11 816.947 2240.59 1421.28 1875.49 1239.37 905.106 803.954 1144.22 947 933.164 727.873 719.554 712.299 701.775 1751.25 644.925 609.844 709.048 582.65 494.903 471.165 461.807 453.316 382.954 369.759 614.265 331.634 297.056 589.642 217.018 214.96 214.316 210.554 189.316 183.407 167.241 161.807 144.156 137.283 134.374 123.883 121.507 116.647 100.298 73.3237 47.4363 43.3866 1.29776 0.649224
threshold=1.0775425434112551 -0.85636720061302174 1.0000000180025095e-35 1.0073161721229555 0.85850760340690624 -0.91427981853485096 -1.0922009944915769 -1.4921277761459348 0.35680004954338079 -1.8407085537910459 -1.0048485994338987 -0.96818292140960682 0.84099820256233226 1.0420365333557131 0.6440371870994569 -1.3513385057449339 0.70010676980018627 0.89417836070060741 0.81676244735717785 -0.71295693516731251 -1.540576636791229 -0.96390593051910389 1.0375049114227297 0.93516319990158092 0.82008409500122081 -0.9554898440837859 1.1403928399086001 -0.84807074069976796 1.2180192470550539 -0.94422701001167286 0.95702111721038829 0.97940266132354747 0.95726898312568676 -0.85757005214691151 -1.2065674066543577 1.0000000180025095e-35 -1.0750992894172666 -0.93062174320220936 1.0000000180025095e-35 0.99287936091423046 1.0000000180025095e-35 0.95785096287727367 1.0438242554664614 0.92795526981353771 1.0001208782196047 1.0000000180025095e-35 0.44476951658725744 -1.6596354246139524 1.0876440405845644 -2.0241366624832149 -0.85767719149589527 1.0000000180025095e-35 1.0452304482460024 0.95022636651992809 1.0778880119323733 1.0037429928779604
decision_type=2 2 2 2 2 2 2 2 2 2 2 2 2 2 2 2 2 2 2 2 2 2 2 2 2 2 2 2 2 2 2 2 2 2 2 2 2 2 2 2 2 2 2 2 2 2 2 2 2 2 2 2 2 2 2 2
left_child=1 2 3 4 5 -1 -4 8 12 11 37 18 49 34 25 17 -17 -16 -10 -6 21 -14 -12 29 -25 45 -22 30 52 -5 31 48 -33 -30 35 39 43 -11 -13 -3 46 42 -36 54 -42 -15 -38 -45 -9 51 -27 -2 -8 55 -29 -32
right_child=7 13 6 23 19 -7 28 27 9 10 22 38 20 14 15 16 -18 -19 -20 -21 26 -23 -24 24 -26 50 -28 36 33 -31 53 32 -34 -35 41 -37 40 -39 -40 -41 44 -43 -44 47 -46 -47 -48 -49 -50 -51 -52 -53 -54 -55 -56 -57
leaf_value=0.1369472310127513 -0.10696313701590179 -0.083137602157421275 0.50325690994156813 0.20276186571213467 0.19560645296115448 0.050028991185667261 0.48098827647119563 -0.15336670711659162 0.17396696165121905 0.053543048332626512 0.064253754274949823 -0.093369702586068859 -0.12652531495999333 0.16497218198451608 0.065840420686166606 0.1754286023185305 0.0091231063675466656 -0.086023494196359102 0.053377182321363861 0.14207773240052501 0.14903913397887492 0.13689091075509296 0.1603762799137671 0.16300725589687481 -0.016616061627676228 0.46980358807668915 0.19477378751526153 -0.11230206133568355 -0.11040722303917078 -0.0098037873098875874 -0.14840409665390561 0.1891854162700401 0.14268878590341985 0.12362915623333326 -0.081183350097437712 0.46235538409702343 0.1851399935785204 -0.098358814245722792 0.13695377854450494 0.090880504258585321 -0.051661364273313352 0.37173435365011803 0.013255292351346688 -0.14725246324814156 0.22960111450599452 -0.073480889698891036 0.023418833706397774 0.22389222736739006 0.1218542181703783 0.20183212774829215 0.28213005949822562 0.14767652963283801 0.19842950875186716 0.15365080391104327 -0.15392889792588679 -0.12408562785400744
leaf_weight=6150.2567987963557 175.95438662543893 131.48087847605348 43.584150902926922 109.58213644474745 3723.0390750356019 4102.8052456788719 14.254231981933119 16.196861639618874 572.75633327662945 124.20011753588915 845.67158984392881 611.14044897630811 254.53537712991238 183.29865569621325 547.80458448827267 724.47366876155138 631.49956344440579 744.58583753556013 3636.1431738622487 7481.3041940070689 6924.3550293445587 29880.211865190417 3997.4178536348045 749.97411374002695 310.84625242650509 82.725403815507889 3594.2465852387249 8.4976776018738729 481.7604176774621 1187.7777678333223 29.2603929489851 6650.188585255295 4960.7292933650315 69.250197403132915 818.084970343858 31.958452574908733 207.65511122345924 372.76721708849072 43.259296238422394 147.56763042882085 104.46319168061018 9.9533796384930593 243.28233880549669 13.449803836643694 22.072959989309311 27.80685892701149 68.270150296390057 27.142804928123951 1670.3272795006633 14.707393333315848 43.424264807254076 12.084829669445751 10.188036188483236 5.6681957691907874 63.120449095964432 17.569868557155132
leaf_count=18886 1141 944 27 404 7093 22876 32 74 1309 433 3861 3345 1247 446 2540 2525 3452 6929 16393 20909 12861 67437 8892 1947 1339 74 5600 91 3665 7517 136 9706 14645 349 9552 26 238 2266 145 714 660 7 1706 64 16 156 408 29 2974 20 52 49 24 11 286 116
internal_value=0 0.107438 0.120834 0.124555 0.132295 0.102167 -0.0223197 0.136754 0.130909 0.0889907 0.124608 0.0498818 0.141377 0.0324977 0.0616898 0.0395982 0.0979773 -0.021653 0.0697873 0.159865 0.142428 0.134666 0.143592 0.0541352 0.110373 0.235169 0.164667 0.158281 -0.0621263 0.00815067 0.1619 0.162965 0.16932 -0.0809939 -0.0305527 0.0554849 0.0643935 -0.0603961 -0.0781441 0.0088874 0.0986811 -0.0555297 -0.0595365 -0.0585846 -0.00259795 0.133563 0.145127 0.100919 0.119211 -0.0693849 0.405201 -0.0905981 0.363212 -0.107653 -0.14899 -0.13928
internal_weight=0 28802.6 24434.6 23815.6 21457.4 10253.1 619.037 64924.1 51059.5 10203.4 5340.06 4863.3 40856.1 4367.95 2985.62 2648.36 1355.97 1292.39 4208.9 11204.3 40653.3 30134.7 4843.09 2358.18 1060.82 337.255 10518.6 13864.6 575.453 1297.36 13349.9 13297.4 11610.9 551.011 1382.33 311.007 514.672 496.967 654.4 279.049 402.461 1071.32 1061.37 112.211 126.536 211.106 275.925 40.5926 1686.52 202.747 126.15 188.039 24.4423 52.4985 71.6181 46.8303
internal_count=268644 114191 85068 80971 69764 41762 4097 154453 124999 36644 15452 21192 88355 29123 16174 15446 5977 9469 17702 28002 87145 68684 12753 11207 3286 728 18461 29454 4070 7921 27662 27399 24351 4014 12949 1684 1792 2699 3490 1658 1322 11265 11258 470 676 602 646 93 3048 1210 126 1190 56 263 377 252
is_linear=0
shrinkage=0.1


Tree=6
num_leaves=63
num_cat=0
split_feature=45 102 113 133 29 132 59 53 124 0 58 134 38 127 104 31 82 0 118 114 55 37 67 28 57 43 10 21 38 53 136 84 113 98 130 33 113 115 134 101 5 35 75 101 135 134 122 43 43 117 82 106 105 73 43 49 34 112 66 52 103 106
split_gain=1367.31 1766.35 1100.67 1578.73 1446.18 1131.08 737.607 1021.93 2083.05 1695.08 1198.88 865.803 853.706 813.474 795.595 711.15 720.492 596.945 572.605 644.493 489.703 426.146 417.246 407.955 406.843 401.3 471.264 367.625 449.153 363.213 316.434 294.225 476.266 280.906 277.567 471.315 344.942 304.84 412.814 259.653 204.439 195.881 191.091 179.606 179.176 166.922 288.806 148.477 131.455 123.791 167.931 113.617 101.633 59.5014 46.5957 41.9907 33.8892 11.6144 6.89145 0.823857 0.212904 0.212439
threshold=1.0954647660255434 -0.83445391058921803 -1.111837565898895 1.0000000180025095e-35 1.1035775542259219 1.0000000180025095e-35 0.79122555255889904 1.105270564556122 -1.572848320007324 0.31956596672534948 0.87566143274307262 1.0000000180025095e-35 0.96987670660018932 -1.8169584870338438 -0.7132819890975951 0.99804946780204784 -1.3235970735549925 0.46894285082817083 -1.1999983191490171 -1.1572450399398801 1.0943061709403994 0.87335863709449779 0.01778145041316748 1.1441044807434084 0.94958439469337474 1.0581812858581545 0.70315518975257885 1.3152856826782229 0.92263633012771618 1.0529364347457888 1.0000000180025095e-35 -1.0010547041893003 -1.0642943978309629 -0.79245415329933155 1.0000000180025095e-35 0.92197510600090038 -0.98122498393058766 -1.193065285682678 1.0000000180025095e-35 -0.81514057517051686 0.61051994562149059 0.84158262610435497 -1.0845242142677305 -0.81988650560379017 1.0000000180025095e-35 1.0000000180025095e-35 -1.2295350432395933 1.0613996982574465 1.0448448061943056 -1.1365644335746763 -1.1545340418815611 -0.80577337741851796 -0.89227238297462452 -0.78211864829063404 1.1789920926094057 1.1067052483558657 0.90397465229034435 -1.0932856798171995 0.15454424917697909 1.04307496547699 -0.81045711040496815 -0.89481911063194264
decision_type=2 2 2 2 2 2 2 2 2 2 2 2 2 2 2 2 2 2 2 2 2 2 2 2 2 2 2 2 2 2 2 2 2 2 2 2 2 2 2 2 2 2 2 2 2 2 2 2 2 2 2 2 2 2 2 2 2 2 2 2 2 2
left_child=1 2 18 4 29 -6 34 8 9 10 -8 13 -13 -10 21 16 17 23 19 22 54 60 -1 -3 -23 33 47 42 -29 -4 -21 32 -5 48 36 49 37 38 -2 -39 -28 44 -18 -11 -20 46 -38 -27 -17 52 -51 -22 -36 -43 -16 -47 -37 -33 -35 -19 -9 -58
right_child=6 15 3 31 5 -7 7 14 11 43 -12 12 -14 -15 20 25 27 59 41 30 51 24 -24 -25 -26 26 40 28 -30 -31 -32 57 -34 58 35 56 45 39 -40 -41 -42 53 -44 -45 -46 55 -48 -49 -50 50 -52 -53 -54 -55 -56 -57 61 -59 -60 -61 -62 -63
leaf_value=0.096963049672581528 0.146057911551118 -0.089267152869844296 -0.098928034590446912 0.060729280663159559 0.10717339034485834 -0.018821650322150135 0.1144855481844142 -0.15323130435940971 0.093272931776509638 0.042473396796663232 0.036581704020250766 0.11023121355773342 0.22101224519863286 0.13200082812455657 -0.10893630449642795 -0.10511412052629086 0.11199083277922511 -0.10460571372947364 0.15083009539557574 0.0057606180841850421 0.14430165163232545 0.17757828001399933 0.16458069415497839 0.2087233741458844 0.13278824686346494 -0.11140632463168981 0.24865516119612538 0.012960188742918117 0.13496539451755707 0.033856287715715978 0.42817812947469669 -0.044425007885597063 -0.059803982255421752 0.17685643276504504 -0.029078847483991754 0.091363116751338291 -0.020151434126703095 0.12629740683317378 0.25842491411504143 0.044492699063722378 0.066687307421552433 0.11808086739261321 -0.08554750094601947 -0.1162772145666148 0.24141071268287401 0.34749037332525562 0.18045082793557343 0.057284059727356597 -0.033433124799618574 0.11253480426848606 -0.14153212530940701 -0.12670110581333771 0.26208799637764363 0.26292290186435435 0.00032783803372768514 0.22845714532456554 -0.1347945696357622 -0.12957589429967936 0.26619972069762904 -0.12586194075708623 -0.12794910336057355 -0.12284334824059839
leaf_weight=1542.9526110514998 4434.7935987114906 49.947374925017357 401.02454275637865 813.42788486927748 26082.884150255471 732.50970359891653 3813.3963790759444 3.5437517166137686 11160.493579704314 81.826073341071606 4098.5019316710532 1266.3383289538324 1543.5210314840078 10551.415551360697 204.77959357574582 380.93441678956151 57.887983433902264 33.236452950164676 938.08041977137327 521.33519972115755 182.78026453405619 2406.7069547921419 2233.7214333713055 572.85819646716118 12887.290002025664 134.10534739866853 120.70045207440853 833.75671279802918 472.88364871963859 423.59534312784672 18.358142852783203 17.689466506242752 549.12174315750599 14.863882590085266 13.988711208105086 7.7971897087991229 76.474281672388315 2417.6390191577375 352.96874324977398 462.18006003275514 126.39499446749687 30.67365525662899 317.90211320668459 552.29520419239998 284.6399884596467 31.563000250607729 1166.3465978428721 85.405887544155121 779.08316235244274 382.78567992150784 27.912667833268642 16.900582544505596 83.824896030128002 376.3476213440299 48.219529140740633 485.36886678636074 18.101443067193031 169.56778482347727 20.597007229924202 40.395169794559479 55.441363789141178 83.401786610484123
leaf_count=4463 8238 425 4224 2728 88218 3302 8499 16 27431 242 12638 3212 1403 20321 3673 4551 146 934 1785 2013 366 3221 3655 920 21041 1109 318 5099 1407 1007 6 80 3021 22 47 38 400 5167 119 2400 783 55 3315 2925 151 28 1621 537 6647 892 156 142 86 319 325 271 101 1108 19 289 343 626
internal_value=0 0.0950008 0.102202 0.0942135 0.0997204 0.103732 0.119106 0.114034 0.104037 0.0615216 0.07413 0.118853 0.171086 0.112094 0.134949 0.0323889 0.0674544 0.152992 0.141417 0.122348 0.00429011 0.138802 0.136956 0.184825 0.139837 -0.0177988 0.060852 0.0320464 0.0571149 -0.0307186 0.0201295 -0.00399955 0.0121531 -0.048497 0.143786 0.0788523 0.148042 0.138878 0.154342 0.113169 0.155574 0.191919 -0.055118 -0.0957923 0.171917 0.18797 0.168107 -0.0457735 -0.0569722 0.119346 0.0952674 0.121365 0.220447 0.252007 -0.0881115 0.235725 -0.109542 -0.121532 0.22875 -0.116267 -0.129468 -0.124975
internal_weight=0 39176.9 35135.9 29189.8 27640 26815.4 58918.6 48873.5 33067.8 8546.02 7911.9 24521.8 2809.86 21711.9 15805.7 4040.95 2378.87 696.437 5946.11 4316.37 452.68 15353 3776.67 622.806 15294 1662.09 466.607 1682.43 1306.64 824.62 539.693 1549.81 1362.55 1195.48 10045.1 617.812 9427.33 7667.58 4787.76 2879.82 247.095 1629.74 375.79 634.121 1222.72 1759.75 1242.82 219.511 1160.02 508.512 410.698 199.681 97.8136 407.021 252.999 516.932 109.3 187.257 35.4609 73.6316 58.9851 101.503
internal_count=268644 142656 116135 103688 96751 91520 125988 105798 76671 24304 21137 52367 4615 47752 29127 26521 12535 2568 12447 10137 4506 24621 8118 1345 24262 13986 2747 9967 6506 5231 2019 6937 5749 11239 20190 1946 18244 15924 8357 7567 1101 2310 3461 3167 1936 2320 2021 1646 11198 1181 1048 508 133 374 3998 299 765 1188 41 1223 359 727
is_linear=0
shrinkage=0.1


Tree=7
num_leaves=60
num_cat=0
split_feature=31 34 103 5 45 133 60 52 104 29 135 113 105 126 43 52 57 58 75 75 114 53 81 108 134 32 44 58 77 5 97 133 132 36 102 53 98 105 105 133 54 21 113 81 22 124 33 62 104 32 72 24 15 1 4 52 57 103 103
split_gain=1285.6 1210.36 1433.71 1326.44 1200.31 1143.57 989.886 1197.03 966.57 957.946 1078.17 756.488 736.461 687.104 1530.49 669.188 615.822 576.539 533.47 462.527 658.03 513.904 445.369 435.833 438.57 426.498 402.815 561.563 365.269 316.023 310.467 309.669 348.255 288.608 284.977 252.618 247.278 245.041 205.579 195.021 181.233 175.183 156.448 127.945 108.973 99.7224 98.6008 175.575 96.0959 68.5302 105.951 66.8783 40.9788 37.1525 34.9697 16.1501 46.8707 0.829694 0.0411329
threshold=0.99679696559906017 0.83482182025909435 -0.9130549132823943 0.72555482387542736 1.0189245343208315 1.0000000180025095e-35 0.62965095043182384 1.036664664745331 -0.86261627078056324 1.2298084497451784 1.0000000180025095e-35 -0.92426347732543934 -0.88544034957885731 -1.520876348018646 1.0686014294624331 0.88451164960861217 0.77129393815994274 0.81505465507507335 -1.1455788016319273 -1.1032142043113706 -0.93474724888801564 1.105270564556122 -1.3247519135475156 -0.79731380939483631 1.0000000180025095e-35 0.89860036969184887 0.9789436161518098 0.75524801015853893 -1.2893428802490232 0.83043441176414501 -0.83398690819740284 1.0000000180025095e-35 1.0000000180025095e-35 0.87956210970878612 -0.94100424647331227 1.0694388151168825 -0.96936389803886402 -0.90768465399742115 -0.88124805688858021 1.0000000180025095e-35 0.91454216837883007 1.7390400767326357 -0.97198820114135731 -1.3068980574607847 1.3154134750366213 -1.2011041641235349 0.90004444122314464 0.45860017836093908 -0.93562731146812428 0.94287326931953441 -0.75073042511939991 1.45707643032074 1.103034555912018 0.65915444493293773 0.59817841649055492 1.0235240459442141 0.82415530085563671 -0.88898378610610951 -0.88898378610610951
decision_type=2 2 2 2 2 2 2 2 2 2 2 2 2 2 2 2 2 2 2 2 2 2 2 2 2 2 2 2 2 2 2 2 2 2 2 2 2 2 2 2 2 2 2 2 2 2 2 2 2 2 2 2 2 2 2 2 2 2 2
left_child=1 2 9 5 12 18 36 8 22 10 15 -12 26 14 -9 -1 31 -15 -4 23 21 -21 -8 24 -18 -7 29 33 -22 37 42 32 54 -28 41 -25 49 -2 39 -38 -34 -11 -5 -29 -10 -40 55 -48 -33 52 -51 -50 -6 -36 -3 57 -57 -14 -49
right_child=4 16 3 30 6 25 7 13 44 34 11 -13 46 17 -16 -17 19 -19 -20 20 28 -23 -24 35 -26 -27 27 43 -30 -31 -32 48 40 -35 53 -37 38 -39 45 -41 -42 -43 -44 -45 -46 -47 47 58 51 50 -52 -53 -54 -55 -56 56 -58 -59 -60
leaf_value=-0.041383028193698851 0.024767934137003886 0.2392066128438684 0.29955399446105196 0.017808053555359755 0.35700748784713432 -0.1027719885055699 0.17460276748078107 0.041422366342880587 0.00071744461154930092 0.079354629662940282 0.17755122222300876 0.0086081307600215564 -0.1276673121965349 0.16547526818555419 0.095390107045246447 0.09651841315339818 0.14282596372693976 0.098054859653357709 0.077128907676316971 0.099118423537108175 0.066259011236105711 0.12211332655991727 0.032253204111534262 -0.12064010831259803 -0.033076699209193365 0.026966916681299958 0.12846937322773794 0.14279203383040806 -0.087207648993736162 0.45342503100739323 0.28292939630727776 0.18657467397135985 -0.12898127851268157 0.72984020964579432 -0.037497390379971053 0.0751142269973991 0.19087550672360545 -0.081164304909088214 -0.085625136969116417 0.086321575631586808 0.25097872145542527 -0.084431335966246315 -0.099527870563391949 -0.10316999790000286 -0.091684614338121251 0.56271802294372486 0.435670684632324 -0.12413417132632916 -0.13440382261489672 -0.1260949081440981 0.32588242497458553 0.31237550290434957 0.25088702879597252 -0.11520316005534235 0.32658089856462225 0.27141649731645806 -0.12435603311986472 -0.11734765225899564 -0.11348057490706392
leaf_weight=387.27062762528658 635.02402604371309 56.518177345395088 110.54979193769395 134.82303120195866 83.061621889472008 484.24712379649282 281.70062665641308 7629.5315435416996 156.9178549349308 314.66485839337111 2800.8206767514348 292.7493606582284 104.2873397693038 1666.6758965477347 16883.253250703216 3852.1051670089364 6620.4512662552297 5307.3888343945146 4384.0750801041722 26537.097252462059 396.59062734991312 15335.372030600905 1000.069029673934 90.567852981388569 144.84163529425859 531.47793319448829 603.30283872038126 24.683985397219658 254.68867224082351 14.834131233394144 24.087973520159721 20.393856182694435 30.218070648610592 8.0873511433601362 94.972261056303978 242.27162021398544 739.1154428422451 332.80587959289551 43.634583361446857 235.16468441486359 21.474458649754524 82.405677244067192 723.02631583623588 147.67223357409239 683.82444369979203 2.5087728053331366 9.1854285821318644 5.9155259281396857 31.251463852822781 9.6463886797428149 11.217901341617106 3.7527475059032431 64.757776819169521 174.7323565594852 241.6815163642168 4.1510080322623244 10.72018840163946 308.01387325674295 9.35573837533593
leaf_count=2265 2941 16 169 843 40 3324 860 33101 1011 1059 4740 1718 639 3213 39170 7959 8865 14699 19202 60313 896 24687 3987 568 851 2419 1680 69 1111 20 38 29 186 5 612 423 1330 1956 344 664 20 407 7475 931 6904 4 15 38 181 60 16 2 73 1667 93 5 74 2560 97
internal_value=0 0.103584 0.0780279 0.0427194 0.0801985 0.0609435 0.0847448 0.0815724 0.00888454 0.106242 0.116676 0.161564 0.00887303 0.0864722 0.0785928 0.083921 0.110936 0.114167 0.0825997 0.109933 0.105989 0.10754 0.063538 0.133564 0.13906 -0.0348861 0.0380094 0.0914808 0.00624448 -0.00463796 -0.0711447 0.233702 0.268483 0.136424 -0.00851627 0.0218482 0.174412 -0.0116588 0.155871 0.165639 0.0288643 0.0453635 -0.0810869 -0.0679446 -0.0744385 -0.0503753 -0.105085 0.0901924 0.0140244 0.286571 0.116915 -0.0865053 0.310517 -0.0878403 0.310021 -0.116265 -0.0138838 -0.119958 -0.117607
internal_weight=0 64419.2 14392 6392.29 37016.5 5510.35 34798.5 33609.4 2122.51 7999.72 7332.95 3093.57 2218.04 31486.8 24512.8 4239.38 50027.2 6974.06 4494.62 49621.9 42523.7 41872.5 1281.77 7098.13 6765.29 1015.73 1766.41 783.746 651.279 982.664 881.937 405.29 349.892 611.39 666.775 332.839 1189.11 967.83 1020.42 974.28 51.6925 397.071 857.849 172.356 840.742 46.1434 451.629 24.4567 55.3981 168.684 20.8643 35.0042 147.819 269.705 298.2 427.172 14.8712 412.301 15.2713
internal_count=268644 152138 53897 33470 116506 25114 105476 102945 12762 20427 16682 6458 11030 90183 72271 10224 98241 17912 19371 97714 87007 85000 4847 10707 9716 5743 7602 2685 2007 4917 8356 527 315 1685 3745 991 2531 4897 2342 1994 206 1466 8318 1000 7915 348 3428 150 212 189 76 183 113 2279 109 3278 79 3199 135
is_linear=0
shrinkage=0.1


Tree=8
num_leaves=58
num_cat=0
split_feature=37 132 113 133 33 31 103 37 29 106 130 45 82 31 112 42 32 136 134 122 45 37 100 118 87 37 75 134 50 103 32 105 103 65 58 69 50 103 31 83 46 108 42 28 115 39 33 68 111 75 120 104 44 38 121 104 36
split_gain=1073.87 1917.62 2178.85 1169.79 1407.01 1017.33 1050.02 1334.6 976.055 1593 1008.81 658.103 1012.38 1111.91 1003.73 619.254 618.148 883.147 822.619 765.265 1738.8 540.88 466.101 463.407 447.192 409.358 378.036 375.814 417.994 341.77 328.596 312.236 286.664 245.261 234.183 403.129 333.379 287.295 229.241 219.755 212.202 206.422 154.812 139.924 138.801 109.665 99.244 97.5884 96.6535 69.8162 61.9716 58.1215 52.6332 29.0951 1.66079 1.62279 0.215835
threshold=0.95078757405281078 1.0000000180025095e-35 -1.1553592681884763 1.0000000180025095e-35 0.8534093201160432 1.0004870891571047 -0.82474246621131886 0.91847079992294323 1.097261965274811 -0.84393927454948414 1.0000000180025095e-35 1.2149274349212649 -0.678931564092636 0.96731284260749828 -1.0361999273300169 1.0387305617332461 0.96107941865921032 1.0000000180025095e-35 1.0000000180025095e-35 -1.2574262619018552 1.1554080843925478 0.94435948133468639 -0.84954014420509327 -1.2492873668670652 -1.0729641318321226 0.98040559887886058 -1.0507816076278684 1.0000000180025095e-35 1.0727275013923647 -0.6508982479572295 0.96674481034278881 -0.8301873207092284 -0.6779101788997649 0.56757631897926342 0.87365260720253002 -0.11294705420732497 1.1192509531974795 -0.80686783790588368 0.99828150868415844 -1.3416281938552854 1.2354787588119509 -1.0916942954063413 1.0601250529289248 1.0172766447067263 -1.4395397901535032 1.0356840491294863 0.83548393845558178 -0.10474907979369162 -0.86314105987548817 -1.0546590685844419 -1.1595019698143003 -0.73516559600830067 1.0526955723762514 0.99798843264579784 -1.767091631889343 -0.7222267985343932 0.96844491362571727
decision_type=2 2 2 2 2 2 2 2 2 2 2 2 2 2 2 2 2 2 2 2 2 2 2 2 2 2 2 2 2 2 2 2 2 2 2 2 2 2 2 2 2 2 2 2 2 2 2 2 2 2 2 2 2 2 2 2 2
left_child=1 2 3 27 22 8 7 -7 10 -10 -4 12 13 14 -3 -8 33 18 19 20 -18 41 -5 -6 50 -21 39 28 -1 46 31 -28 -23 34 42 37 -37 -36 -26 -19 55 -14 48 -44 -42 -32 -13 -15 -2 -41 -20 -48 -29 -35 -55 -31 -56
right_child=16 11 5 4 23 6 15 -9 9 -11 -12 29 21 47 -16 -17 17 26 24 25 -22 32 -24 -25 38 -27 30 52 -30 40 45 -33 -34 53 35 36 -38 -39 -40 49 44 -43 43 -45 -46 -47 51 -49 -50 -51 -52 -53 -54 54 56 -57 -58
leaf_value=0.21917975305999887 0.087471073299967242 0.10558773514443959 0.0082611210669373807 0.10492231349809636 0.10647533344151767 0.039472735104356865 -0.095934040201749227 0.10028656923498697 0.078772218038268865 0.13778353385716655 0.10237500709646524 0.28051597170746589 0.10180134422275761 -0.12470782214501837 -0.083156299730087549 0.021901662756728012 -0.019362266856613644 0.22698698378089183 0.1704837031267796 0.078322997347573239 0.087827396816326286 0.045987199619342556 -0.090250252075530502 0.21578411883781251 0.16477738219750088 0.14887137308030746 0.13767156363030497 0.35784225775951323 0.1250731001402223 -0.16850648389074846 0.18750566224219295 0.014496760838445494 -0.099402629711007662 0.10973908171268276 0.053731736001279631 -0.13291338046466081 0.10816941033382142 -0.16597193791784723 -0.1506770542915957 -0.15171418936393921 0.13421414178908495 -0.093514103620697883 -0.08292731734945448 0.14405948546751254 -0.086035792418271931 0.045300573748663614 0.18474990580411665 -0.040808324292660417 -0.16212934821628766 0.01452846801071851 0.23067452740182964 0.074044360521965974 0.21771148330033852 -0.19319806238145895 -0.14101144821517927 -0.11041881828162942 -0.12587949931862519
leaf_weight=634.72719395905733 420.36690776795149 1952.2466203086078 3206.4844715874642 163.65339159220457 5917.1458374671638 8511.0498137250543 528.83142288774252 6265.0059547070414 25346.279045116156 5581.9467566274107 1766.3586738668382 85.626765444874763 56.612966053187847 254.59911349788308 329.27775629237294 2846.6174041070044 2723.7144469507039 27.493990130722523 519.66279516369104 4020.854887098074 3405.5993199571967 693.74985040724277 484.94871371239424 415.04432784020901 36.347281947731972 1033.9954548180103 792.8432030826807 27.553597271442413 1840.8477435968816 5.1938856393098822 1200.3990909680724 277.94260776042938 168.56543804332614 5.2708445005118838 193.16900952160358 57.573099091649055 15469.933972094208 86.024134740233421 62.906036220490932 67.696276463568211 143.75730537623167 1224.1748675368726 27.407381929457188 2979.7039718925953 35.723016545176506 56.795523151755333 178.37200540304184 304.38336076587439 16.108616195619106 40.301536992192268 254.98485231399536 64.599005833268166 984.68256535753608 4.9789797216653815 15.651556603610514 64.97710232436657 23.698293119668961
leaf_count=381 711 4355 12716 349 11419 36162 5677 15572 74170 8321 3621 34 199 1394 1630 11142 9558 36 549 9559 6320 2118 3288 365 41 1199 1087 13 2568 23 1121 877 839 6 409 237 22627 365 299 321 273 8707 123 4065 319 126 107 1285 82 123 117 109 280 22 81 968 179
internal_value=0 0.0762866 0.0811432 0.1229 0.0992716 0.073056 0.0537621 0.0652576 0.082811 0.0894226 0.0416905 0.0199468 0.00822964 0.0473788 0.0783475 0.00344035 0.0979831 0.0823976 0.071251 0.0639498 0.040195 -0.0436594 -0.0410049 0.11364 0.164691 0.092754 0.136958 0.170192 0.149202 0.120931 0.146408 0.105699 0.0175664 0.10971 0.110282 0.105134 0.107276 -0.0139627 -0.0351554 -0.0254199 0.0327293 -0.0848808 0.133913 0.141991 0.0903765 0.181081 0.187941 -0.0790219 0.0782593 -0.0896774 0.190296 0.155316 0.221526 -0.112374 -0.138783 -0.114718 -0.131898
internal_weight=0 70083 64521.2 10468.6 6980.79 54052.6 18151.5 14776.1 35901.1 30928.2 4972.84 5561.86 4983.61 2840.51 2281.52 3375.45 33821.4 14521.5 12058.1 11184.2 6129.31 2143.1 648.602 6332.19 873.901 5054.85 2463.47 3487.81 2475.57 578.249 2327.98 1070.79 862.315 19299.9 19250.3 15806.7 15527.5 279.193 99.2533 135.492 249.651 1280.79 3443.59 3007.11 179.48 1257.19 328.598 558.982 436.476 107.998 774.648 242.971 1012.24 49.5997 44.3288 70.171 39.3498
internal_count=268644 208404 186044 18663 15421 167381 68553 51734 98828 82491 16337 22360 20527 8664 5985 16819 60240 31333 27642 26636 15878 11863 3637 11784 1006 10758 3691 3242 2949 1833 3211 1964 2957 28907 28619 23638 22864 774 340 480 1583 8906 4981 4188 592 1247 250 2679 793 444 666 216 293 288 282 991 260
is_linear=0
shrinkage=0.1


Tree=9
num_leaves=63
num_cat=0
split_feature=38 132 112 133 32 133 27 31 46 31 82 38 112 113 81 107 112 134 40 53 130 54 33 136 74 37 50 74 100 53 69 25 134 25 91 35 33 113 68 103 35 101 104 79 91 71 85 12 104 56 27 127 39 32 45 38 25 61 31 104 73 45
split_gain=961.226 1346.4 1725.25 1228.33 1184.66 1118.71 1024.83 811.008 689.072 621.203 909.765 1061.26 899.476 559.947 534.131 504.449 488.523 362.946 346.761 345.067 333.292 406.126 378.963 478.203 407.818 695.569 328.145 320.131 268.489 221.63 210.808 275.748 230.938 226.382 206.264 205.918 204.217 180.975 164.773 159.892 132.931 130.419 119.145 98.292 89.7559 77.3825 71.479 164.133 162.503 64.9201 62.8409 78.9358 62.3496 60.3801 38.5924 37.5894 34.9033 17.2441 13.3399 8.10996 37.1495 1.30457
threshold=0.98923704028129589 1.0000000180025095e-35 -1.1192072629928587 1.0000000180025095e-35 0.9013999104499818 1.0000000180025095e-35 1.1760208606719973 0.99873721599578869 1.115756690502167 0.96967610716819774 -0.678931564092636 0.98001426458358776 -1.0361999273300169 -1.0670968294143675 -0.98568841814994801 -0.99837148189544667 -1.2899211645126341 1.0000000180025095e-35 1.0196423530578616 1.016615688800812 1.0000000180025095e-35 1.0583537220954897 0.944097399711609 1.0000000180025095e-35 -0.92635560035705555 0.98161616921424877 1.0686390995979311 -0.83713060617446888 -0.81583556532859791 1.1596127152442934 -0.096450291574001298 1.2180781960487368 1.0000000180025095e-35 1.2276445627212527 -1.0984728336334226 0.94889780879020702 0.88370671868324291 -0.97655048966407765 0.10219459608197214 -0.82723936438560475 0.92555174231529247 -0.74455106258392323 -0.97051072120666493 -0.91222310066223133 -0.98335325717926014 -0.41989372670650477 -0.99023020267486561 0.86818677186965953 -0.87730544805526722 0.97382208704948436 1.1666433811187746 -2.0189458131790157 1.0325085520744326 0.92601943016052257 1.1437013149261477 1.013158977031708 1.2669693231582644 0.69221809506416332 0.97197479009628307 -0.92824569344520558 -0.69117698073387135 1.0443915128707888
decision_type=2 2 2 2 2 2 2 2 2 2 2 2 2 2 2 2 2 2 2 2 2 2 2 2 2 2 2 2 2 2 2 2 2 2 2 2 2 2 2 2 2 2 2 2 2 2 2 2 2 2 2 2 2 2 2 2 2 2 2 2 2 2
left_child=1 2 3 17 18 6 8 -8 -4 10 12 29 15 14 -7 -3 -13 26 -5 -6 22 28 30 24 38 -26 -1 35 49 -12 32 36 33 -2 -14 37 -32 -23 -24 -33 43 -37 -15 -29 -34 56 47 48 -11 54 -30 -52 -47 -19 -22 -42 -25 -51 -49 60 -48 -61
right_child=20 9 5 4 19 13 7 -9 -10 46 11 16 34 42 -16 -17 -18 53 -20 -21 21 27 23 45 25 -27 -28 40 50 -31 31 39 44 -35 -36 41 -38 -39 -40 -41 55 -43 -44 -45 -46 52 59 58 -50 57 51 -53 -54 -55 -56 -57 -58 -59 -60 61 -62 -63
leaf_value=0.19158602618514481 -0.077781084799835642 -0.014003968486288723 -0.075659079137158719 -0.04446482067815917 0.061016597614335658 0.050556451025931141 0.083931243753504692 0.059571186431437273 0.039939077164709465 0.13929072858682454 -0.081729084029899146 0.087858263558071387 0.072255363719180371 0.16681096342544874 -0.065164167092416417 0.11497968978546436 -0.024419528254595192 0.20080889774385935 0.11869200612456531 0.11053544508487068 -0.14835449437808393 0.093716688874803056 0.072073549378028665 -0.16446157354922966 -0.014749428638099036 0.075350021595641914 0.11363159333987168 0.061509527055089566 -0.14754450699195507 0.13123996004566837 0.11511072466416024 -0.02641628629966683 0.19952388950930586 0.098285538233770856 -0.12097036599106128 0.16387790676054079 0.086138320709150729 0.014815347935581058 0.14921903219717514 0.14186960468188925 -0.17289771954783806 -0.056791794528132183 -0.069897540954912615 -0.17267668811310719 -0.1463936037270602 0.16947395076751073 -0.14371701260563655 -0.042987430197708676 -0.12977596014225712 0.24022106249079758 -0.14919039624198635 0.038877611085310265 0.105899128558993 0.10738067231742941 0.17913789788354326 -0.059763543728589358 0.14303406544443556 0.12513320649794199 -0.13005214552432204 -0.12909842627296672 0.17136413909280901 -0.1495503518152885
leaf_weight=695.37549283355474 85.207533672451973 356.33794432505965 575.90648348070681 836.47094158828259 1909.2874827645719 2541.4683440178633 30702.557246085256 24631.045906869695 4929.189999550581 64.362534388899803 1250.2009592913091 1064.7987668700516 70.068144097924232 21.886535108089447 473.11778027936816 2033.8256544992328 609.25556088611484 1156.2308988794684 154.29015308618546 5351.4660025164485 12.29513316601515 946.36670339107513 443.5175321623683 11.285994917154314 1111.8511305078864 3735.6989273950458 2416.5092941708863 151.38062261044979 137.44622249156237 50.852391868829727 5208.587783113122 57.734570950269699 8.4001011848449689 510.88098927587271 261.13921029120684 398.30194918811321 4565.3301108106971 419.5945652872324 736.82144020497799 2554.879209280014 46.448975205421448 28.713556453585625 747.84136805310845 20.329211540520191 70.078667230904102 600.11246632039547 19.073420360684398 20.180702775716782 34.465922527015209 21.07600374519825 38.643121033906937 52.825622342526913 207.63868978619576 73.574948221445084 5.0871139615774146 79.86313346773386 5.485586315393447 34.056726843118668 137.51686169207096 41.664160043001175 4.6553827077150336 124.04758828133345
leaf_count=412 282 1192 6416 4512 4847 6952 74031 81752 11458 124 9143 2739 194 44 2186 3839 2512 319 223 8631 61 1551 882 49 3602 7214 3286 281 652 192 5653 161 2 770 1531 357 7588 1007 762 2908 192 85 4003 89 280 450 95 115 224 8 183 140 307 92 6 277 7 44 862 252 3 613
internal_value=0 0.0687265 0.0723109 0.106172 0.0835173 0.0657124 0.0689939 0.0730877 0.027846 0.0236661 0.0325641 -0.00565703 0.074349 0.0129577 0.0323949 0.0957501 0.0469959 0.149227 -0.0190566 0.097514 0.0920982 0.0568322 0.0963351 0.0772896 0.0675194 0.0546845 0.131051 0.0724755 -0.051684 -0.0734051 0.106327 0.109292 0.0518875 0.0731178 -0.0800927 0.0884278 0.101578 0.0694799 0.120231 0.138151 -0.0234978 0.14904 -0.0631669 0.0337836 -0.109368 0.148717 -0.0899914 -0.0555874 0.0454551 0.116001 -0.104803 -0.0405761 0.153132 0.195219 -0.0525101 -0.101367 -0.063887 0.169129 -0.11891 -0.136579 -0.0819009 -0.144408
internal_weight=0 83358.7 77216.2 12593.2 8251.51 64623 60838.7 55333.6 5505.1 6142.45 5696.48 2975.11 2721.37 3784.31 3014.59 2390.16 1674.05 4341.69 990.761 7260.75 22305.9 2392.43 19913.5 6852.41 6027.89 4847.55 3111.88 2091 301.43 1301.05 13061.1 12386.5 674.567 596.089 331.207 1792.98 9773.92 1365.96 1180.34 2612.61 298.022 427.016 769.728 171.71 78.4788 824.523 445.967 256.526 98.8285 72.515 228.915 91.4687 807.751 1229.81 17.3822 126.312 16.7716 55.1327 157.698 189.441 23.7288 165.712
internal_count=268644 232794 209164 22322 18213 186842 173657 155783 17874 23630 21342 14586 6756 13185 9138 5031 5251 4109 4735 13478 35850 4933 30917 13273 12460 10816 3698 3839 1094 9335 17644 16310 1334 1052 1725 3000 13241 2558 1644 3069 839 442 4047 370 282 813 2288 1325 348 119 975 323 757 411 67 469 56 52 977 963 98 865
is_linear=0
shrinkage=0.1


Tree=10
num_leaves=62
num_cat=0
split_feature=45 102 113 74 4 103 135 45 136 31 113 113 73 45 103 124 134 31 30 130 44 16 32 73 33 124 93 33 134 43 58 58 32 30 25 136 100 2 37 69 0 52 56 38 32 134 53 56 48 60 124 118 70 100 29 105 36 22 0 98 6
split_gain=934.172 1691.65 1030.01 1479.93 1065.04 1062.08 1048.56 1043.56 978.927 879.303 790.068 786.134 719.617 816.284 1912.2 1012.25 978.94 704.136 607.549 547.084 521.756 604.357 518.617 485.037 568.101 425.398 1377.1 704.289 651.664 563.738 401.634 398.016 388.016 465.378 351.758 328.47 393.741 251.812 237.119 224.681 220.229 204.206 237.601 313.69 194.032 247.036 177.302 167.578 158.14 155.908 127.948 127.484 115.585 114.082 109.271 98.9151 85.4754 75.5843 53.0027 47.5233 17.7115
threshold=1.0775425434112551 -0.85712510347366322 -0.97729408740997303 -1.0101756453514097 0.70193475484848034 -0.91876181960105885 1.0000000180025095e-35 1.056981682777405 1.0000000180025095e-35 0.9704708755016328 -1.111837565898895 -0.94787746667861927 -0.82046353816986073 1.1210116744041445 -0.82623755931854237 -1.4974614977836607 1.0000000180025095e-35 0.96361383795738231 1.0578377842903139 1.0000000180025095e-35 1.0420365333557131 1.1297928690910342 0.94287326931953441 -0.84803122282028187 0.91363605856895458 -1.5768570303916929 -0.93952658772468556 0.91818955540657055 1.0000000180025095e-35 1.1229832768440249 0.80872395634651195 0.81586235761642467 0.95898208022117626 1.0382642745971682 1.3345755338668825 1.0000000180025095e-35 -0.8861880600452422 0.47404731810092932 0.81741997599601757 -0.15552043914794919 0.31344687938690191 1.0602390170097353 0.93559238314628612 0.95175543427467357 0.93141502141952526 1.0000000180025095e-35 1.0679400563240053 0.81649550795555126 1.0709394216537478 0.64870157837867748 -1.5851237177848814 -1.1090226769447324 -0.45256951451301569 -0.87645837664604176 1.097261965274811 -0.90063226222991932 0.86411243677139293 1.4596073627471926 0.29247200489044195 -0.95469740033149708 0.64234930276870739
decision_type=2 2 2 2 2 2 2 2 2 2 2 2 2 2 2 2 2 2 2 2 2 2 2 2 2 2 2 2 2 2 2 2 2 2 2 2 2 2 2 2 2 2 2 2 2 2 2 2 2 2 2 2 2 2 2 2 2 2 2 2 2
left_child=1 2 6 4 18 -6 8 11 10 -10 -1 -5 32 14 19 22 -17 52 -4 34 44 23 -16 24 -22 26 50 -28 29 -27 -9 -25 33 46 -14 40 -37 -21 -19 -30 -35 59 53 -44 45 48 54 -46 -3 55 -15 -51 -8 -43 -2 -23 -47 -48 -49 -34 -61
right_child=12 20 3 7 5 -7 17 30 9 -11 -12 -13 13 25 15 16 -18 38 -20 37 21 49 -24 31 -26 28 27 -29 39 -31 -32 -33 41 35 -36 36 -38 -39 -40 -41 -42 42 43 -45 47 56 57 58 -50 51 -52 -53 -54 -55 -56 -57 -58 -59 -60 60 -62
leaf_value=0.086151156682851296 -0.14433195438184607 -0.059884109248791374 -0.0045086277851686413 0.022486238278477198 0.060248641848573148 -0.087427418734938422 0.1648472722082702 0.1483307567053922 -0.002651320956859971 0.20218857120351652 0.021874743403580255 -0.055908522397727173 0.074064652057026642 -0.16479841290263775 0.0075608433893916294 0.01676781213235352 0.1097701665998036 0.038822737699556395 0.10019374606380071 0.043271216716276248 0.13544524499445246 0.10480673944856891 -0.0875905466086776 0.024086655051915477 -0.039850422485373189 0.070022323656088667 0.080480014553807044 0.042095490418212908 -0.17310401421824889 0.11230887103275243 0.042773783679271746 -0.055175899743779469 0.090794294253287375 -0.096568823560643224 0.11728530626654543 0.14360785311705623 -0.12219139726852722 -0.092910767693772073 0.11017880241584983 0.14131727299891042 0.12273114704442983 0.17250371396810488 -0.092380565097294212 0.061659593088887868 0.21934321017766933 0.03261553976693489 0.067177060646588752 0.25470928415606414 0.025238155556806502 -0.14429375766818039 -0.052286778648096388 0.13997071675555364 0.23294618539542267 -0.069542597266122372 0.052332605258675315 0.26698027554022696 0.38361614043005354 -0.18487077260437423 -0.10400306574362282 -0.0096798757381785245 -0.1414211231221173
leaf_weight=3443.3700086995959 68.758506286889315 618.79046753980219 609.92484982311726 2814.0211614184082 1430.35751998052 738.4274180624634 1168.9658593460917 553.34362170100212 279.89075835049152 833.98114775121212 4300.8665997423232 2345.1917699091136 8150.060119394213 228.38049393892288 1138.4711666963995 5301.0007558837533 1439.0394324176013 621.01852881908417 6066.1610749363899 299.73499376326799 543.60264936834574 53.369951628148556 1152.8888057470322 1374.9355574604124 280.15774998813868 13217.326090298593 17334.042244084179 6600.2249225303531 22.968137562274933 4140.1443351954222 1034.0794435366988 1174.8677563481033 11.946304962038992 46.126014783978462 2448.8482039868832 101.86954879760742 123.05298836529255 248.2281946465373 1862.0114420577884 2165.3229034841061 6339.9541803859174 202.24289241433144 161.08547662571073 737.25270562618971 16.739051833748817 10.720218002796175 1339.5791526138783 4.1481318622827521 337.17356131225824 23.854462563991547 181.32002490758896 46.58850909024477 316.78614091873169 21.547102764248848 47.957553088665009 127.36297146230936 19.663759633898735 12.004399105906485 589.07519340887666 11.914254687726496 71.131617952138186
leaf_count=7026 309 5811 1492 10528 5488 6068 1026 667 707 695 14290 12975 17196 996 4581 18361 3900 1836 14402 789 942 84 7031 6715 1342 25241 33942 14181 95 5305 2725 7094 17 171 3475 79 512 1300 4179 2028 8339 158 829 2172 13 53 2087 2 1618 124 602 102 215 108 82 92 9 49 5871 61 457
internal_value=0 0.0515984 0.0612103 0.0439425 0.0708501 0.00996793 0.0821999 0.00866653 0.063062 0.150717 0.0504544 -0.0131492 0.0717239 0.0679512 0.0513041 0.0171043 0.0366244 0.124915 0.0906282 0.0790134 -0.000719672 0.0202589 -0.0403142 0.00911713 0.0758279 0.0756047 0.0667831 0.0698949 0.0865919 0.0801086 0.0795688 -0.012435 0.0977237 0.105653 0.0840507 0.116964 -0.0018084 -0.0184194 0.0923323 0.138017 0.121147 0.0450872 0.0570048 0.0340379 -0.0483556 -0.020939 0.0547269 -0.0926901 -0.029861 0.169904 -0.115004 0.0437088 0.179367 0.149199 -0.0635243 0.219091 0.259774 0.0649384 -0.101495 -0.095694 -0.122521
internal_weight=0 33639.4 28418.4 15591.5 8844.87 2168.78 12826.9 6746.64 8858.11 1113.87 7744.24 5159.21 73364.4 64068 20178.3 9031.4 6740.04 3968.78 6676.09 11146.9 5221.05 3624.74 2291.36 3373.56 823.76 43889.7 24344 23934.3 19545.8 17357.5 1587.42 2549.8 9296.42 8079.3 10598.9 6611 224.923 547.963 2483.03 2188.29 6386.08 1217.12 1122.13 898.338 1596.31 986.348 1468.3 609.962 955.964 251.176 409.701 70.443 1485.75 223.79 116.716 180.733 30.384 1351.58 593.223 94.9922 83.0459
internal_count=268644 114191 84319 54345 27450 11556 29974 26895 22718 1402 21316 23503 154453 139023 56633 33873 22261 7256 15894 22760 29872 16495 11612 16093 2284 82390 49721 48123 32669 30546 3392 13809 15430 11628 20671 9101 591 2089 6015 2123 8510 3802 3267 3001 13377 7491 2527 5886 7429 402 1598 226 1241 266 391 176 62 2136 5873 535 518
is_linear=0
shrinkage=0.1


Tree=11
num_leaves=63
num_cat=0
split_feature=37 32 132 38 104 30 131 119 30 123 114 75 134 32 105 37 124 74 43 81 40 75 33 103 32 102 123 0 115 36 112 103 37 130 129 31 32 45 104 41 136 13 77 36 53 37 99 100 52 1 59 117 33 0 127 133 108 2 106 104 29 123
split_gain=870.148 1293.83 1535.27 1002.17 1454.31 931.66 777.914 774.664 631.225 602.993 569.746 664.459 488.505 476.729 852.849 884.12 864.668 532.912 525.003 488.92 560.463 451.978 517.607 409.043 382.794 379.241 377.279 565.735 494.239 370.298 328.663 328.504 567.02 310.481 294.181 288.614 284.061 235.901 1272.94 277.787 230.321 247.269 216.057 201.492 199.316 191.418 278.63 187.762 175.225 174.712 166.508 161.139 156.88 155.345 125.094 118.752 114.498 111.595 61.3929 61.3691 25.4086 16.675
threshold=0.93982776999473583 0.9536738693714143 1.0000000180025095e-35 0.9118088185787202 -0.89553180336952198 1.0958476066589358 1.0000000180025095e-35 -1.4760673642158506 1.0578377842903139 -1.3173613548278806 -1.3239450454711912 -1.1024584174156187 1.0000000180025095e-35 0.96038565039634716 -0.8286861479282378 0.96982821822166454 -1.3083783984184263 -0.92016485333442677 1.1253301501274111 -1.1859142184257505 1.0425242781639101 -1.0447913408279417 0.91818955540657055 -0.85442534089088429 0.91826617717742931 -0.77349886298179615 -1.4722255468368528 0.32150129973888403 -1.0741481781005857 0.90839216113090526 -0.86745992302894581 -0.82574200630187977 0.91847079992294323 1.0000000180025095e-35 1.0000000180025095e-35 1.0033953785896303 0.94558134675025951 1.21228563785553 -0.75741919875144947 1.1123113632202151 1.0000000180025095e-35 0.87649717926979076 -1.3248539566993711 0.93639642000198375 1.1596127152442934 0.92987570166587841 -0.85064327716827381 -0.8704925775527953 1.0921104550361636 0.2132067680358887 0.81468093395233165 -1.0300523638725279 0.93488439917564403 0.3628352582454682 -1.7584545612335203 1.0000000180025095e-35 -1.0841927528381345 0.38049651682376867 -0.83221784234046925 -0.94681757688522328 1.1505476832389834 -1.3194475173950193
decision_type=2 2 2 2 2 2 2 2 2 2 2 2 2 2 2 2 2 2 2 2 2 2 2 2 2 2 2 2 2 2 2 2 2 2 2 2 2 2 2 2 2 2 2 2 2 2 2 2 2 2 2 2 2 2 2 2 2 2 2 2 2 2
left_child=1 2 3 4 5 -1 -6 44 24 23 55 -12 31 21 19 16 25 54 -19 33 52 30 37 40 -9 -16 28 -28 -24 47 36 32 -11 34 -15 -33 57 38 -23 -39 41 -3 48 -18 56 61 -47 -14 -32 -22 -38 -31 -21 -35 -17 -5 -4 -2 -46 -10 -42 -25
right_child=13 9 7 10 6 -7 -8 8 59 12 11 -13 29 14 15 17 43 18 -20 20 49 22 26 45 -26 -27 27 -29 -30 51 42 35 -34 53 -36 -37 50 39 -40 -41 60 -43 -44 -45 58 46 -48 -49 -50 -51 -52 -53 -54 -55 -56 -57 -58 -59 -60 -61 -62 -63
leaf_value=0.075082937699508551 0.15578447308069257 0.051782456248527647 0.020073511557932262 0.17684047683298859 0.003344089278918281 -0.0047648766967261814 0.076833023541225481 0.057607950254125441 -0.021344069815748004 -0.014887922947254007 0.10056507679135472 0.062375523748293894 0.15816802380294623 0.10978975738474339 -0.0079936312106279831 0.091378050370435115 0.047925123656829396 0.0018539140110649178 0.066628767390068941 0.013732687201766179 -0.067390906641644141 0.083034015845441816 0.035871566948588812 -0.11916006865962048 -0.085053181616950704 -0.12994544092817559 0.10534630466220807 0.027072460643205017 -0.10041272916167582 -0.064756815415482408 -0.02877888317782484 0.0032198354276959935 0.061199344247521076 0.058862540285388093 0.022553744028346298 -0.11064032552082158 0.13064643222062652 0.12099098572229337 -0.057381868480239531 0.063095942623091997 0.11569180571760934 -0.11363123133040554 -0.1884096209155027 0.15211628255251969 0.12855509521130754 0.01036376372527217 -0.091856272776076109 -0.080879632709891611 0.082199489743772836 0.094041282982807839 0.097642452970557903 0.22038492786922748 -0.098865648064485778 -0.077532418244399201 0.1563391766455729 0.063844431553247469 -0.10398479849712106 0.045265460422856799 -0.11891293517242148 -0.12098558580065417 0.22231868318601078 -0.014558442928176344
leaf_weight=13169.849164228886 100.63950563967228 362.61382769793272 81.375026844441891 646.47065046429634 8024.1389044895768 1643.6461774371564 1755.5544770695269 1886.6521654315293 78.957810737192631 1518.8892228156328 6165.03235854581 17455.660722386092 50.362737018615007 4876.3973800800741 3207.4906246513128 1835.2252226918936 363.34488240256906 1948.7151467725635 3496.0920220464468 209.86489794403315 73.427001662552357 8351.4270455390215 3453.9051953852177 430.23293835297227 208.91176284477115 277.02299990877509 2062.2649059444666 1672.0263603888452 288.31304734945297 21.44372851960361 215.60411941260099 888.17852878943086 2757.6754722595215 214.6249036192894 419.84838357940316 297.09253576025367 2521.3969802111387 2524.3654649071395 699.71014505252242 1233.8310959041119 36.31043878942728 120.36855983734131 42.516993798315525 379.43296828866005 55.68276983872056 569.63642356544733 501.35346962511539 94.53329573571682 418.29226696491241 770.86114524304867 3882.3444982469082 261.56737788021564 301.51354763656855 136.68025270849466 353.54058417677879 108.63608799874783 867.33212392404675 991.16790369153023 12.226014543324707 284.63833403587341 58.120559692382812 15.799786821007727
leaf_count=30644 67 794 324 227 37698 7686 6672 4888 303 6186 9622 40281 170 6917 11217 2641 1306 5537 5938 584 284 13349 7391 3796 985 1179 2563 4196 1037 163 714 3549 7376 540 1082 2560 2728 2588 2763 1841 49 548 183 513 107 1876 3189 1142 523 1219 5111 280 1238 650 297 248 7367 1701 141 1730 14 132
internal_value=0 0.0504396 0.0561488 0.0607072 0.0464648 0.0662233 0.0165361 -0.00807194 0.0222821 0.0129377 0.0750765 0.072343 0.0293257 0.0685468 0.056219 0.0398806 0.00319209 0.0601978 0.0434456 0.0838902 0.029961 0.0767187 0.0687199 -0.0331469 0.0433857 -0.0176889 0.0478117 0.0702992 0.0253718 0.132218 0.0965747 0.0212647 0.0341758 0.0968356 0.102874 -0.0253196 0.102599 0.0809236 0.072179 0.101984 0.0384846 0.0105582 0.029816 0.101149 -0.0814972 -0.0604114 -0.0374876 0.00220818 0.044453 0.0800017 0.110637 0.19878 -0.0526564 0.00579615 0.101871 0.160584 -0.0933437 0.0554528 0.084002 -0.0993476 0.181319 -0.115455
internal_weight=0 60428.9 52444.8 48969 24593.2 14813.5 9779.69 3475.78 2459.16 7984.18 24375.8 23620.7 5889.74 47321.9 18864.1 11860.9 4227.29 7633.57 5444.81 7003.22 1355.67 28457.8 20285.8 2094.44 2095.56 3484.51 7476.51 3734.29 3742.22 427.907 8171.96 5461.84 4276.56 5647.55 5296.25 1185.27 7495.55 12809.3 9051.14 3758.2 577.413 482.982 676.413 742.778 1016.62 1517.02 1070.99 144.896 633.896 844.288 6403.74 283.011 511.378 351.305 2188.77 755.107 948.707 1091.81 67.9088 363.596 94.431 446.033
internal_count=268644 180747 148923 133078 82700 38330 44370 15845 7906 31824 50378 49903 21426 87897 41142 28628 14215 14413 11475 12514 3325 46755 35728 10398 5873 12396 15187 6759 8428 1755 11027 19671 13562 9189 7999 6109 9607 20541 16112 4429 1405 1342 1420 1819 7939 8993 5065 1312 1237 1503 7839 443 1822 1190 2938 475 7691 1768 248 2033 63 3928
is_linear=0
shrinkage=0.1


Tree=12
num_leaves=62
num_cat=0
split_feature=37 132 113 123 32 134 113 53 103 104 112 128 2 31 107 43 32 136 134 85 37 53 102 32 106 88 58 38 76 53 134 130 133 106 82 130 3 31 73 82 33 75 27 66 25 24 91 12 23 111 45 121 114 108 120 101 102 42 103 20 0
split_gain=738.498 1082.09 1208.37 1015.86 1097.86 915.779 728.667 1277.51 674.283 613.709 582.594 578.231 559.905 545.419 533.419 498.409 416.546 648.058 703.122 627.96 844.465 415.009 371.622 309.214 326.024 294.8 282.075 349.049 353.022 742.054 399.197 291.371 270.107 261.788 211.361 179.234 178.18 165.431 160.617 153.675 152.125 142.901 268.014 176.329 272.577 149.249 135.61 134.44 128.701 118.494 104.742 98.9346 144.918 97.3997 70.3506 59.847 51.2787 48.1927 30.104 33.5204 16.8548
threshold=0.94393262267112743 1.0000000180025095e-35 -1.127200126647949 -1.3351823091506956 0.94799456000328075 1.0000000180025095e-35 -0.99064764380455006 1.0157743096351626 -0.79755300283431996 -0.84718784689903248 -1.0361999273300169 1.0000000180025095e-35 0.62224426865577709 0.96731284260749828 -0.9960552155971526 1.0971336960792544 0.96107941865921032 1.0000000180025095e-35 1.0000000180025095e-35 -1.3789098858833311 0.98161616921424877 1.1450979709625246 -0.81845334172248829 0.96620878577232372 -0.84706521034240712 -1.0496303439140318 0.87232977151870739 0.98923704028129589 -1.0817773342132566 1.0920087695121767 1.0000000180025095e-35 1.0000000180025095e-35 1.0000000180025095e-35 -0.95331007242202748 -1.0747141838073728 1.0000000180025095e-35 0.51547345519065868 0.99828150868415844 -0.7877187430858611 -1.362672686576843 0.91688427329063427 -1.1073925495147703 1.1760208606719973 0.29844972491264349 1.2298876643180849 1.1554250717163088 -1.1222596168518064 0.76365792751312267 1.2954134941101076 -0.95620545744895924 1.2204763889312746 -1.7529258131980894 -1.4029383063316343 -1.0916942954063413 -1.1467865109443662 -0.85173788666725148 -1.0085375905036924 1.0528912544250491 -0.88183942437171925 1.3083317279815676 -0.2581952810287475
decision_type=2 2 2 2 2 2 2 2 2 2 2 2 2 2 2 2 2 2 2 2 2 2 2 2 2 2 2 2 2 2 2 2 2 2 2 2 2 2 2 2 2 2 2 2 2 2 2 2 2 2 2 2 2 2 2 2 2 2 2 2 2
left_child=1 2 5 4 11 9 12 -8 10 32 13 -4 -5 14 -3 -11 26 18 19 35 -21 50 -6 24 36 54 41 28 30 -30 -28 33 -1 -29 -15 -18 -19 -27 57 -26 -33 42 47 44 -43 -45 49 -2 -40 -12 53 52 -23 -10 -20 -44 -48 -25 -7 -60 -52
right_child=16 8 3 6 22 58 7 -9 21 15 46 -13 -14 34 -16 -17 17 23 25 20 -22 51 -24 38 39 37 27 31 29 -31 -32 40 -34 -35 -36 -37 -38 -39 48 -41 -42 43 55 45 -46 -47 56 -49 -50 -51 60 -53 -54 -55 -56 -57 -58 -59 59 -61 -62
leaf_value=0.10569111974440581 0.11087547577979416 -0.026992512743938879 0.030390766279336009 0.063379752404174372 -0.0033419124589409589 -0.26186183358732723 0.017604771972366876 0.058973837612025994 0.085319562868036491 -0.052292141113079477 0.25550636628447565 0.14042644730578302 0.13523517653545544 0.053690406325500255 0.09835902872736689 0.060896176953083095 0.07764391269473353 0.090476145679995179 0.11571330755841498 0.0042415225934603956 0.060687480051965816 0.11272469675350005 -0.066926430377393126 0.1548619427041843 0.17318456155705014 0.11881726706890733 0.052180176442378184 -0.050141496529547074 -0.077870639024832503 0.045275113634399171 0.12468236652805838 0.081978185448581431 0.068160427161807036 0.082366477014807704 -0.10341090534596419 0.16232273734495709 -0.076917868320280636 -0.14448855189767215 0.12097980568530237 -0.062777640552515154 -0.0064278857426784408 -0.0054935518290961383 -0.010301739575224199 -0.095898976693767471 0.083149604775315814 0.14309603415499533 0.069538707297260069 -0.092219326222929068 0.31243738590093617 -0.1379106357744124 0.067549514958523085 0.23442571809590299 -0.069275033395299515 -0.094094064396456983 0.17373221303956948 0.15137805332903218 -0.11245948300550442 -0.17152875099435394 0.16201773503832648 0.21290485276705928 0.27205679760534629
leaf_weight=2551.6352355852723 56.499822817742825 448.99867664650083 6579.9448317736387 3816.3021335043013 2395.0573587529361 1.6165020763874043 11750.321534944698 20466.766658358276 31.11277236789465 701.92451132461429 20.450017005205154 514.94099137187004 1514.8696514703333 119.87445016205311 1391.7107262164354 872.71999792195857 1004.2318194098771 1132.7943191155791 748.98318104445934 6814.1864405088127 4337.548928976059 107.89024364203215 1491.6351622864604 5.5751650631427792 30.922866825014353 38.063970401883125 3536.8700279258192 151.24577514082193 579.27473149076104 3151.2060669362545 967.07088509202003 283.74729865044355 7717.6468244045973 10488.679174248129 299.84702013805509 332.79498053342104 67.370171703398228 63.950096786022186 1586.1668982803822 256.90011521056294 619.81439583003521 377.48633811622858 23.583385050296783 27.328496925532818 4280.6628668680787 595.68402037769556 16.199980169534683 77.031381212174892 35.905253022909164 12.23692527413368 8.2475432641804236 30.190564729273319 73.59248049557209 1101.9575332701206 289.87695134431124 783.76925818622112 348.8882396928966 23.989457376301289 821.27173589169979 153.66829298436642 7.8808386325836173
leaf_count=2799 58 1579 18410 8592 8820 7 52639 49774 125 3422 6 586 2182 469 2488 1577 1965 1666 912 19939 7642 228 8648 10 45 41 6231 531 2090 6645 893 409 15369 13438 1537 308 236 324 1707 1072 1469 970 48 135 6935 582 52 318 15 75 71 23 893 8560 150 364 2141 105 277 40 2
internal_value=0 0.0456483 0.0489414 0.041728 0.0149748 0.0762465 0.0495524 0.0438856 -0.00461951 0.0685721 0.0246876 0.0383771 0.0837977 0.0443262 0.0677824 0.0104406 0.0625493 0.0502609 0.0408258 0.0339609 0.0261966 -0.0618653 -0.0277444 0.0912203 0.0581569 0.115973 0.070475 0.0646329 0.0489037 0.0261529 0.0677476 0.0758531 0.0774858 0.0804829 -0.058542 0.098721 0.0810796 -0.0462426 0.121008 -0.0374265 0.0213345 0.0890453 0.12495 0.0826487 0.0759662 0.132612 -0.0869128 -0.0062857 0.125218 0.108224 -0.0855657 0.0668068 0.0389226 -0.0891676 0.131903 0.146655 -0.104384 -0.109979 0.169324 0.170038 0.167478
internal_weight=0 65369.4 61350.3 48529.8 10981.6 12820.5 37548.3 32217.1 4019.08 11843.9 2658.21 7094.89 5331.17 2260.43 1840.71 1574.64 42769.2 16769.3 13629.6 12488.8 11151.7 1360.87 3886.69 3139.62 1487.99 1140.87 26000 19777.9 8234.42 3730.48 4503.94 11543.5 10269.3 10639.9 419.721 1337.03 1200.16 102.014 1651.64 287.823 903.562 6222.05 940.884 5281.16 4658.15 623.013 397.775 133.531 1622.07 32.6869 1149.2 211.673 181.483 1133.07 1038.86 807.353 365.088 29.5646 976.557 974.94 16.1284
internal_count=268644 191391 173142 149651 36464 23491 113187 102413 18249 23167 8347 18996 10774 6073 4067 4999 77253 36137 31281 29854 27581 9902 17468 4856 3019 1427 41116 31706 15859 8735 7124 15847 18168 13969 2006 2273 1902 365 1837 1117 1878 9410 788 8622 7905 717 2274 376 1722 81 8758 1144 1121 8685 1062 412 2193 115 324 317 73
is_linear=0
shrinkage=0.1


Tree=13
num_leaves=60
num_cat=0
split_feature=30 31 44 102 102 44 45 124 46 78 113 75 32 128 111 58 103 1 102 70 59 87 39 31 105 31 76 103 30 94 114 30 24 135 71 8 103 3 56 72 72 100 97 106 103 40 30 34 33 102 116 114 31 132 42 105 102 3 40
split_gain=698.364 600.309 583.177 1083.9 633.562 1093.74 581.183 571.932 550.752 516.379 642.271 710.826 472.621 456.833 494.382 444.519 415.019 411.026 409.123 293.236 283.758 283.013 243.998 241.085 226.998 166.105 162.286 133.107 143.932 133.008 123.379 82.3605 81.0453 161.807 98.1488 60.5071 55.0512 54.0536 53.7523 45.037 76.7903 32.692 31.3144 23.1003 19.0729 68.1688 12.4907 12.4076 49.2327 7.97869 4.76574 1.4802 0.293801 0.249941 0.171035 0.164619 0.155905 0.024722 0.0228695
threshold=1.099421560764313 0.99679696559906017 1.0306446552276614 -0.8891511559486388 -0.86539477109909047 1.0583075881004336 0.70782411098480236 -1.4206962585449217 1.0148628950119021 -1.3086215257644651 -0.95950651168823231 -1.0731639862060545 0.93931990861892711 1.0000000180025095e-35 -0.86537253856658924 0.82651308178901683 -0.93532249331474293 0.55454441905021679 -0.84968155622482289 -0.30282424390316004 0.6574397385120393 -1.2704822421073911 0.79913595318794262 1.0127736926078799 -0.88124805688858021 1.008157014846802 -1.1593366265296934 -0.95933526754379261 1.1106454133987429 -1.05516642332077 -1.0197592973709104 1.1061066985130312 1.467344403266907 1.0000000180025095e-35 -0.5897935926914214 0.99645689129829418 -0.98952472209930409 0.74796852469444286 0.88277548551559459 -0.75073042511939991 -0.74850469827651966 -0.97316440939903248 -1.0085228085517881 -0.94699621200561512 -0.92853751778602589 0.9087323546409608 1.1011465787887575 0.81972655653953563 0.85986828804016124 -0.93319365382194508 -0.99069616198539723 -0.93731218576431263 1.001008212566376 1.0000000180025095e-35 0.99569192528724682 -0.8708081543445586 -1.0699877738952634 0.70063123106956493 0.9023626744747163
decision_type=2 2 2 2 2 2 2 2 2 2 2 2 2 2 2 2 2 2 2 2 2 2 2 2 2 2 2 2 2 2 2 2 2 2 2 2 2 2 2 2 2 2 2 2 2 2 2 2 2 2 2 2 2 2 2 2 2 2 2
left_child=1 6 3 8 15 18 30 -7 20 13 17 -12 -10 21 -15 23 22 -11 -6 24 -3 -8 27 -4 -5 -17 52 28 37 43 35 -31 33 44 42 50 -30 -2 -21 46 -41 -34 -35 -28 45 -18 -29 49 -49 -43 -1 53 -24 -32 -46 -53 -37 -54 -36
right_child=16 2 4 19 5 7 9 -9 12 10 11 -13 -14 14 -16 25 32 -19 -20 38 -22 -23 26 -25 -26 -27 29 39 36 31 51 -33 41 34 58 56 -38 -39 -40 40 -42 47 -44 -45 54 -47 -48 48 -50 -51 -52 55 57 -55 -56 -57 -58 -59 -60
leaf_value=0.085228942422821655 0.18845694746628183 0.025830801084824159 0.10127733466106992 -0.012659784208444791 0.0084258192215463414 0.030205492227079207 0.082327870013962148 0.059392838631589152 0.10666548570936812 0.052029042584064704 0.038434359373302758 -0.0381548337399433 0.0068693077991351719 0.062488620599867539 -0.046213230982953241 0.047242002418655192 -0.11817378367016568 0.082315262940893696 -0.069609150380168433 0.29510322943332795 -0.083522781594283502 0.1436159199328538 -0.15258980443061121 0.026455196925301863 -0.086966541998242039 -0.03747143889800475 0.36212206243444267 -0.039171887502403607 0.092283982443721768 0.13290769051759596 -0.13785685125150279 -0.067616979817271369 0.09401303783239609 0.36204237204953937 -0.13456689445621686 -0.15270286599651176 -0.14116557298574525 -0.030063860776083608 0.030538742201868807 0.27189328578604394 -0.1282235868397357 -0.097444415254977323 0.15237221978898768 0.22774534494922852 -0.12252502011464675 0.41356437706397886 -0.12966594985201541 0.25622085794226113 -0.13155198281794872 -0.12829262241711231 0.15789824293652524 -0.1113244529767855 -0.12639627258112376 -0.11992247906224066 -0.14748073456276786 -0.1049606147002905 -0.12871971652614664 -0.11906958628384323 -0.14416833467043524
leaf_weight=15.763122946023939 54.808262966573238 569.91481643170118 3344.2408052757382 635.1977710723877 1716.3039406724274 14954.514421561733 5627.5117493756115 12182.939702052623 1341.6544756144285 44425.993748275563 7230.1803332641721 1455.7838933169842 734.27178408205509 2167.0120529830456 518.50814563781023 649.64491258561611 10.295214779675005 4983.7304290570319 1104.0341947544366 27.183787763118744 406.57490323483944 869.92090900614858 4.23366650938988 494.28459732979536 1165.3853357173502 359.57375340908766 17.252082392573357 17.86599051207304 13.851299323141573 83.550739005208015 16.790711313486099 27.134600095450878 7.5292382091283789 10.275042682886118 5.7621938362717611 4.5999254286289197 37.31209397315979 14.266279086470602 10.703214809298514 8.5452736392617243 10.934014692902563 116.60174389183521 23.221051596105102 49.494571387767792 68.279899470508099 3.1482184827327719 104.27448864281178 4.3871783316135433 12.905647143721579 298.44299061968923 21.110923483967781 52.383455518633127 11.626281708478929 14.465483814477922 2.8613756895065299 181.44650098867714 6.5988364666700363 7.6264010071754447 4.3562049716711044
leaf_count=30 73 1962 4905 2717 6158 39865 7968 29667 2545 93315 21787 5109 3069 3261 1807 1306 83 10035 8699 21 2249 507 20 1233 8543 1193 13 89 34 169 107 145 30 4 31 22 199 57 68 19 66 776 50 55 475 2 643 8 75 1972 12 607 74 108 15 4470 40 61 21
internal_value=0 0.0477934 0.0380327 0.005699 0.0425762 0.0371489 0.0535258 0.0433087 0.0422338 0.0541585 0.0506754 0.0255979 0.0713668 0.0761941 0.041501 0.0761156 -0.0349096 0.0550839 -0.0221213 -0.0549599 -0.0197001 0.0905335 0.0353898 0.0916425 -0.0607531 0.0170595 0.118285 -0.0282143 0.0491623 0.150983 -0.0823886 0.0837489 -0.0921792 -0.022214 0.13424 0.0650062 -0.0779645 0.143325 0.220363 -0.0939084 0.0473017 -0.112571 0.216689 0.262478 -0.102887 0.00635005 -0.116429 -0.116168 -0.0331743 -0.119626 0.126833 -0.109118 -0.128739 -0.129557 -0.123529 -0.106386 -0.138571 -0.123494 -0.138701
internal_weight=0 107288 39696.4 4890.89 34805.5 29957.8 67591.8 27137.5 3052.42 67278.6 58095.7 8685.96 2075.93 9182.95 2685.52 4847.74 1030.84 49409.7 2820.34 1838.47 976.49 6497.43 462.776 3838.53 1800.58 1009.22 200.918 261.858 120.238 177.432 313.159 110.685 568.066 128.199 43.6145 48.0728 51.1634 69.0745 37.887 141.62 19.4793 439.867 33.4961 66.7467 84.5847 13.4434 122.14 432.338 17.2928 415.045 36.874 265.086 23.4863 31.2562 71.1413 233.83 11.1988 19.2527 10.1184
internal_count=268644 263385 114200 21174 93026 84389 149185 69532 9825 143789 130246 26896 5614 13543 5068 8637 5259 103350 14857 11349 4211 8475 1717 6138 11260 2499 537 1180 363 382 5396 314 3542 681 106 104 233 130 89 817 85 2861 54 68 575 85 732 2831 83 2748 42 5292 155 215 490 5077 62 135 52
is_linear=0
shrinkage=0.1


Tree=14
num_leaves=63
num_cat=0
split_feature=44 102 45 102 29 29 58 53 100 45 57 125 45 29 58 37 132 32 32 58 53 32 75 18 123 123 102 130 58 95 136 53 130 12 58 16 134 134 33 47 56 36 110 107 130 60 31 101 57 113 68 100 13 117 60 100 30 86 6 127 28 55
split_gain=664.273 1087.73 650.888 1307.2 698.596 606.427 535.217 706.98 799.767 525.426 521.888 564.93 1034.14 517.222 520.579 480.447 786.32 596.867 435.313 429.267 622.081 421.158 575.01 745.728 370.276 358.156 355.037 352.873 347.459 340.188 450.931 398.629 320.676 320.783 314.911 362.843 282.751 265.055 254.485 252.188 250.312 299.971 247.141 404.841 373.445 299.257 254.351 246.127 211.589 171.121 136.827 119.997 110.661 108.656 105.129 99.7375 86.3481 84.1867 57.9162 55.6052 32.6119 20.567
threshold=1.0787560343742373 -0.85260719060897816 1.0342112779617312 -0.91072335839271534 1.2195454239845278 1.1358958482742312 0.85385775566101085 1.0628481507301333 -0.83885997533798207 1.0723865628242495 0.84901073575019848 -1.353326618671417 1.056981682777405 1.1922047734260561 0.75321930646896373 0.94393262267112743 1.0000000180025095e-35 0.95726898312568676 0.95059216022491466 0.87232977151870739 1.0834282636642458 0.95407140254974376 -1.0845242142677305 1.1981059312820437 -1.3194475173950193 -1.4090242385864256 -0.94704285264015187 1.0000000180025095e-35 0.83030012249946605 -0.93877020478248585 1.0000000180025095e-35 1.0694388151168825 1.0000000180025095e-35 0.92421627044677745 0.86909630894660961 1.0386009812355044 1.0000000180025095e-35 1.0000000180025095e-35 0.92197510600090038 1.2324470877647402 0.95633223652839672 0.93269771337509166 -0.98765620589256276 -0.95242312550544728 1.0000000180025095e-35 0.64870157837867748 1.0003765225410464 -0.82246887683868397 0.76519215106964122 -0.88630732893943776 0.085431210696697249 -0.95874047279357899 0.8359549641609193 -1.035981237888336 0.69213962554931652 -0.81158828735351551 1.0691363811492922 -1.1900743842124937 0.51601827144622814 -1.5885258913040159 1.2204055786132815 0.99336698651313793
decision_type=2 2 2 2 2 2 2 2 2 2 2 2 2 2 2 2 2 2 2 2 2 2 2 2 2 2 2 2 2 2 2 2 2 2 2 2 2 2 2 2 2 2 2 2 2 2 2 2 2 2 2 2 2 2 2 2 2 2 2 2 2 2
left_child=1 2 3 4 5 -1 27 8 34 42 32 12 -12 14 -5 16 17 -9 -13 25 -21 22 37 -24 60 -17 -6 29 -26 36 31 -31 33 -4 35 -8 47 -11 52 -18 41 -10 43 48 54 -45 -46 -2 -3 61 -42 -34 58 -38 -44 -32 -15 -54 -29 -36 -23 -40
right_child=6 9 10 13 26 -7 7 15 40 21 11 18 -14 56 -16 19 39 -19 -20 20 -22 24 23 -25 28 -27 -28 38 -30 30 55 -33 51 -35 59 -37 53 -39 49 -41 50 -43 44 45 46 -47 -48 -49 -50 -51 -52 -53 57 -55 -56 -57 -58 -59 -60 -61 -62 -63
leaf_value=-0.032593746376851022 0.08573968911223262 0.1123916007218194 0.090999237851756398 0.02395761230206532 0.044356328267407485 0.067555484643627914 0.071765479849188241 0.046989153308885402 -0.077686836261540868 0.060263904271694313 -0.081791811106842 0.086240928955685137 0.039716296105759996 0.037477337422216261 -0.034594422969448223 0.045504813520016847 -0.063720842783995923 -0.047085318560186641 0.022726121178077097 0.020670931288194944 0.055093421055593353 -0.11508160206083713 -0.067363782310500608 0.038406140989951834 0.087539530782675568 0.097802868954849256 -0.055446973430756656 -0.011088487016674918 -0.021269888285490542 0.04197536238376353 0.12843051546294018 0.093963985948068221 0.062819189890318095 -0.11824682398454278 -0.15889413539899391 -0.078516390623068311 0.10099237727854984 0.15683895111418222 -0.12226988024122568 0.058752598519547096 -0.12969539400050123 0.028102860338099084 -0.062789664792038943 0.16256529882212567 0.075307078725503684 -0.056276294773908588 -0.082914449376384869 -0.045629829570129184 -0.045429619366574192 0.27492470887094445 -0.011350662157630146 -0.086639715985032367 0.034283844848193801 0.16915167574651979 -0.12383528272856513 0.24084565746887321 -0.098702709975687197 -0.073842886526233872 0.13257617840464522 -0.011703004449726787 0.16798939676101687 -0.033324525669897513
leaf_weight=648.89709543809295 3053.6896684020758 94.457831557840109 4869.1281237155199 4649.0889637749642 614.80169434100389 8861.085989292711 1563.9515640698373 7583.9105054065585 506.50211843848228 1596.8504113405943 828.56724062934518 3617.7223859503865 4529.5643984302878 50.45226963609457 2254.9574757441878 2107.191293053329 1100.9924085084349 740.25462192296982 1537.7450640238822 6637.2772276550531 25118.826891783625 348.03470361977816 923.99204458482563 2392.7888234592974 364.94567871466279 3459.100660674274 848.17903112620115 35.145413920283318 1498.5407467745245 6184.2759043965489 194.1944859623909 1936.7527725212276 84.343572795391083 74.384183757007122 80.853128030896187 179.05287118628621 395.63770824670792 345.71440199017525 181.66464584320784 198.42918634042144 444.4702196419239 569.30682533979416 877.91029532440007 225.58103191107512 305.52197709679604 86.426451798528433 152.22448725253344 149.60342790558934 843.94526711851358 12.245452687144278 125.2181657999754 147.94814397022128 293.2004759311676 572.06987724453211 415.68383518792689 132.9618716686964 603.74669525027275 95.448740512132645 139.20437637716532 37.601730562746525 4.1180748939514151 30.338646739721298
leaf_count=3339 4683 219 7915 16996 1612 20145 3225 13765 2457 3069 4142 5178 10099 252 11062 4057 8104 2534 3955 15332 40379 3356 4927 6324 1293 4569 5352 86 7239 14528 286 2376 117 245 385 695 579 460 1156 1061 2041 1834 9205 432 1339 521 1286 742 4345 14 405 645 647 262 3105 62 3405 391 180 108 1 121
internal_value=0 0.0328411 0.0414727 0.0287827 0.0508255 0.060722 0.0487357 0.0440165 0.0007059 0.00464756 0.0564611 0.0436644 0.0209266 -0.0032188 0.0048337 0.0472519 0.0273296 0.0386233 0.0672961 0.0523889 0.0478988 0.018839 0.0342453 0.00894065 -0.0177318 0.0780048 -0.0135057 0.0664955 3.93774e-05 0.0705477 0.059011 0.0543739 0.0824551 0.0878507 0.0456051 0.0563275 0.0939149 0.0774512 0.00154049 -0.0450184 -0.050086 -0.021704 -0.030692 0.00326616 -0.0549371 0.101946 0.0226902 0.0796043 -0.0295436 -0.088547 -0.103683 -0.0323722 0.0374233 0.141285 -0.0824061 0.174118 -0.0882004 0.0077289 0.103616 -0.112171 -0.111771 -0.109541
internal_weight=0 44697.3 34220.6 18531.2 10973 9509.98 63859.4 50452.9 3506.96 10476.7 15689.4 10513.6 5358.13 7558.25 6904.05 46946 9623.59 8324.17 5155.47 37322.4 31756.1 7474.98 5259.35 3316.78 2215.64 5566.29 1462.98 13406.4 1863.49 12619.2 8448.19 8121.03 5175.8 4943.51 1861.46 1743 4171 1942.56 787.248 1299.42 1645.5 1075.81 3001.75 1250.41 1751.34 312.007 457.746 3203.29 938.403 224.249 569.688 232.292 562.999 967.708 1293.59 327.156 654.199 388.649 174.35 118.455 352.153 212.003
internal_count=268644 141580 94459 62163 30448 23484 127064 100951 11150 47121 32296 23374 14241 31715 28058 89801 25464 16299 9133 64337 55711 26669 14780 11251 11889 8626 6964 26113 8532 23518 17252 16904 8922 8160 4413 3920 6266 3529 2595 9165 6737 4291 20452 5517 14935 953 2625 5425 4564 1291 2446 762 1304 841 12310 348 3657 1038 266 493 3357 1277
is_linear=0
shrinkage=0.1


Tree=15
num_leaves=63
num_cat=0
split_feature=38 132 113 27 80 103 130 82 31 31 133 33 52 58 104 53 58 32 109 69 26 44 127 58 115 103 126 0 58 104 134 3 62 46 117 32 37 133 28 122 71 40 76 103 19 54 63 70 57 72 25 84 129 106 70 102 61 39 61 31 31 81
split_gain=573.481 900.255 1092.48 863.709 659.815 744.643 542.498 535.372 551.924 526.295 511.404 569.555 501.419 472.712 382.456 365.386 416.459 324.054 301.347 273.274 506.108 459.714 1111.12 676.971 511.473 372.11 298.532 802.838 229.532 226.768 183.973 176.761 167.889 161.505 134.25 158.473 125.055 124.115 143.09 124.056 162.253 115.38 97.0112 93.9596 85.4065 113.519 84.6143 82.0969 80.2095 78.1224 72.418 68.5516 65.518 64.9584 61.0149 198.834 60.4012 49.2525 17.7164 17.2441 1.38858 1.34626
threshold=0.98492863774299633 1.0000000180025095e-35 -1.2177193760871885 1.1768720149993899 -1.3503258824348447 -0.9269161820411681 1.0000000180025095e-35 -0.678931564092636 0.96967610716819774 1.0020743012428286 1.0000000180025095e-35 0.85526114702224743 0.92306149005889904 0.89236336946487438 -0.79771816730499256 1.1181026697158816 0.91419377923011791 0.90832731127738964 -1.1480514407157896 -0.097527634352445589 1.2055129408836367 1.1432809233665469 -1.9760088920593259 0.90884771943092357 -1.0408227443695066 -0.81161913275718678 -1.8593183755874632 0.27481317520141607 0.92594090104103099 -0.97051072120666493 1.0000000180025095e-35 0.39614781737327581 0.62420189380645763 1.2281765937805178 -1.1888493299484251 0.91537854075431835 0.93255588412284862 1.0000000180025095e-35 1.1441044807434084 -1.4093919992446897 -0.40114620327949518 1.0573984980583193 -0.84159722924232472 -0.82833454012870777 1.1596276760101321 1.0454618334770205 0.63787841796875011 -0.24670889228582379 0.93277472257614147 -0.81494599580764759 1.2350432276725771 -0.57414487004280079 1.0000000180025095e-35 -0.90293878316879261 -0.34301595389842982 -0.86052215099334706 0.70269477367401134 1.0222048163414004 0.69309750199317943 0.97340598702430736 1.0012210011482241 -1.3357664942741392
decision_type=2 2 2 2 2 2 2 2 2 2 2 2 2 2 2 2 2 2 2 2 2 2 2 2 2 2 2 2 2 2 2 2 2 2 2 2 2 2 2 2 2 2 2 2 2 2 2 2 2 2 2 2 2 2 2 2 2 2 2 2 2 2
left_child=1 2 10 6 9 -6 13 8 12 -5 34 42 29 -4 -8 18 46 -14 36 25 21 22 24 -24 -21 37 27 -23 -28 -3 41 -13 44 -18 35 -1 -9 38 48 40 -32 43 -12 -22 45 -27 -17 60 -2 -36 -43 -20 -46 57 59 -56 -40 -34 -41 -10 -39 -55
right_child=19 7 3 4 5 -7 14 15 54 -11 11 31 17 -15 -16 16 33 -19 51 20 30 26 23 -25 -26 32 28 -29 -30 -31 39 -33 53 -35 49 -37 -38 47 56 58 -42 50 -44 -45 52 -47 -48 -49 -50 -51 -52 -53 -54 61 55 -57 -58 -59 -60 -61 -62 -63
leaf_value=0.14092228765846454 0.025339821869124507 0.092900398008294319 -0.014826636108050862 0.073658515478792971 0.067545608179082547 0.028562454051083111 -0.058859060943310171 -0.13761573899338292 -0.068191249294194747 0.020350012526537908 0.15564984146216337 0.082382802917140868 0.075248998325268768 -0.11848546372457654 0.069183513403138219 0.14042347518157547 -0.061154609774773078 -0.010213681134507636 -0.05650965316133847 -0.0043927131507865693 -0.028920126066245739 0.057598996297696305 0.053679799612715601 -0.089128048494961976 -0.13128619382066309 -0.17252312805573966 0.09318375332585932 -0.052403220537839648 -0.014429217260588576 -0.10991719019925456 -0.082641988351627546 0.013240157306054113 0.08429273303233778 0.056596787503640368 0.070836146895769156 0.050750553743776489 0.11663616074118427 -0.21752491275829799 0.098229293412559704 0.10955857767550442 0.12222323411428615 0.072847619662388799 -0.097135807899175308 0.086740420116356298 -0.089063193658416875 0.093771973506780626 0.36311517325983489 0.064497057376998845 -0.11618433963732343 -0.10066340190180501 -0.059401288474036321 -0.11073905607984619 0.16975920461962363 -0.22634638683531716 0.12319243079780542 -0.11099054205833232 -0.095181432998981103 -0.20276645822768902 0.1610705751116058 -0.13321881791406781 -0.17756433887500242 -0.18623934887416546
leaf_weight=1587.7950607985258 488.0175444856286 67.508655846118927 2488.190551571548 7358.3685498684645 5406.8016184978187 52272.832712063566 295.7406347617507 23.922818414866924 51.587127506732941 2474.8627938143909 16.134995479136705 2049.1140502840281 1702.3667653687298 534.41951584815979 1104.4811369013041 103.37286607921124 386.8763219602406 600.06347311288118 324.44774724915624 788.40259773284197 72.646263837814331 10682.32499300316 5826.4561430811882 351.99893672764301 531.98161052912474 19.631206527352333 2883.209420800209 707.4126063734293 212.83584672212601 300.59125473350286 55.238010078668594 451.14030074328184 17.140899837017063 166.65750284865499 177.95599976181984 222.17301136255264 101.10013095289469 18.122073501348495 422.76147839426994 76.465572372078896 128.80906524509192 72.372780948877335 256.9258539378643 2118.5467916056514 145.19685180485249 86.738526493310928 20.43515987880528 18.033596158027649 43.626500807702541 31.221344992518425 96.770030602812767 827.9619106631726 10.486798230558632 9.0507855862379056 51.283743694424629 123.7277434617281 16.787905544042587 9.177084267139433 526.36344629526138 194.65606817230582 16.717498362064362 111.14611910283566
leaf_count=800 926 126 10524 12326 9976 149075 1114 148 294 9142 37 3078 3257 1848 2144 221 3641 1637 1260 2061 187 15911 10303 1082 2200 84 3153 1941 452 1601 160 1079 21 909 202 350 268 74 559 75 115 101 1499 2905 540 102 25 25 148 88 269 5672 16 37 86 710 53 38 257 1189 69 454
internal_value=0 0.0338829 0.0365738 0.0334939 0.0362985 0.0322167 -0.00931701 -0.00702926 0.0188692 0.0602416 0.0828037 0.0549305 0.0356498 -0.0331543 0.0421397 -0.0479918 0.0113817 0.0529756 -0.0794738 0.0507948 0.0532164 0.0478472 0.027749 0.0455438 -0.055518 0.00831398 0.0582514 0.0507668 0.085786 -0.0727209 0.0907229 0.0699069 -0.0723722 -0.0257021 0.121088 0.129854 0.0679857 0.0405051 0.048628 0.132597 0.0607371 0.0767631 -0.0821989 0.0829058 -0.0244403 0.0446255 0.17718 -0.1087 0.0137264 0.0452385 -0.00281466 -0.0954714 -0.071629 -0.158102 -0.0875112 -0.0423677 0.0908423 -0.0158048 0.154537 -0.119596 -0.19835 -0.189259
internal_weight=0 81774.7 76728.2 71935.7 67512.9 57679.6 4422.83 5046.56 3091.78 9833.23 4792.46 2773.32 2670.53 3022.61 1400.22 1954.77 677.342 2302.43 1277.43 26564.5 25131.8 21984.6 7498.84 6178.46 1320.38 1432.63 14485.8 11389.7 3096.05 368.1 3147.21 2500.25 408.568 553.534 2019.15 1809.97 125.023 1024.07 971.193 786.876 184.047 2360.34 273.061 2191.19 262.053 106.37 123.808 52.8732 531.644 209.177 169.143 1152.41 155.684 146.515 421.255 175.011 439.549 26.318 602.829 246.243 34.8396 120.197
internal_count=268644 224326 203282 196149 180519 159051 15630 21044 8900 21468 7133 5693 6621 12372 3258 12144 4796 4894 7348 44318 41172 37103 15646 11385 4261 3146 21457 17852 3605 1727 4069 4157 1292 4550 1440 1150 416 1854 1686 607 275 3462 1536 3092 742 186 246 168 1074 290 370 6932 556 550 2279 796 612 59 332 1483 143 491
is_linear=0
shrinkage=0.1


Tree=16
num_leaves=63
num_cat=0
split_feature=44 102 113 123 44 134 28 133 6 103 117 44 58 53 74 44 29 122 101 123 2 134 53 57 129 132 73 53 58 96 127 92 57 53 69 99 57 5 60 130 69 99 30 67 132 113 52 59 62 6 108 112 102 72 7 20 116 96 31 103 112 43
split_gain=578.242 1150.43 553.874 835.186 607.594 911.734 574.594 532.203 562.33 475.137 455.138 484.889 440.718 898.474 444.005 781.909 591.2 366.649 355.269 341.397 572.307 394.325 369.447 481.049 335.791 342.382 303.266 355.191 323.774 292.27 277.284 257.952 218.62 266.07 211.982 203.781 197.995 197.052 184.6 178.778 175.713 167.209 162.067 168.572 152.199 183.075 142.29 140.089 137.179 107.5 99.4676 90.3765 86.0637 83.8854 77.5507 77.3647 62.9153 53.3555 44.3086 29.5559 0.64416 0.562351
threshold=1.0917450785636904 -0.81958258152008046 -1.0793839097023008 -1.2651398777961729 1.0502293705940249 1.0000000180025095e-35 1.1642785072326662 1.0000000180025095e-35 0.53317382931709301 -0.88270074129104603 -0.9954165220260619 1.075496554374695 0.86668428778648388 1.0674232840538027 -0.95167598128318776 1.1161966919898989 1.0926444530487063 -1.3556562066078184 -0.82445514202117909 -1.3865998387336729 0.43743099272251135 1.0000000180025095e-35 1.0782253146171572 0.88786387443542492 1.0000000180025095e-35 1.0000000180025095e-35 -0.826644867658615 1.0509225726127627 0.85385775566101085 -0.9394942820072173 -1.6596354246139524 -1.0068742632865904 0.9181029498577119 1.0613752603530886 -0.24997415393590924 -0.99846571683883656 0.93014127016067516 0.59213423728942882 0.75431218743324291 1.0000000180025095e-35 -0.078682329505681978 -0.86492431163787831 1.0473855137825014 0.14620472490787509 1.0000000180025095e-35 -1.2231568098068235 1.088012218475342 0.82430478930473339 0.62621375918388378 0.60993692278862011 -0.93397709727287281 -1.2687705159187315 -0.80999869108200062 -0.63753151893615712 0.57620102167129528 1.2704345583915713 -1.0473895072937009 -0.99532586336135853 0.99363413453102123 -0.80034741759300221 -0.84807074069976796 1.0822620391845705
decision_type=2 2 2 2 2 2 2 2 2 2 2 2 2 2 2 2 2 2 2 2 2 2 2 2 2 2 2 2 2 2 2 2 2 2 2 2 2 2 2 2 2 2 2 2 2 2 2 2 2 2 2 2 2 2 2 2 2 2 2 2 2 2
left_child=1 2 7 10 5 -5 -6 24 34 -10 11 -4 19 30 18 16 -16 -17 38 20 22 29 23 -2 25 -1 27 54 44 40 32 56 33 -14 -9 -26 -20 -31 -15 52 -21 -12 50 -44 45 -28 -34 49 -24 -32 -22 -46 -29 55 -3 -30 -23 -41 -56 -55 -49 -33
right_child=12 26 3 4 6 -7 -8 8 9 -11 41 -13 13 14 15 17 -18 -19 36 21 42 31 48 -25 35 -27 28 39 53 37 47 61 46 -35 -36 -37 -38 -39 -40 57 -42 -43 43 -45 51 -47 -48 60 -50 -51 -52 -53 -54 59 58 -57 -58 -59 -60 -61 -62 -63
leaf_value=0.099981322298616657 0.07371873300844288 0.4004580812383427 -0.011929202879883959 0.028148413088850213 0.021524823317682799 -0.086137732991755797 0.073543581299584326 -0.15374499244925025 0.035342478617381615 -0.034278496915641964 -0.12116757959321063 0.03735052630238072 -0.11637054781130558 0.060844275116408997 -0.07779357886497483 0.03132699143866035 0.014365058801857537 0.053454923099070739 0.11348416325832589 0.08825500330194852 0.028849847026996084 0.08324345063262005 0.077330522067851903 0.014622973197442863 0.083631172209358742 0.037435393783256825 0.041712580590803371 0.052752499982616143 0.027545301037547945 0.053246066931032593 0.13385655961876528 -0.16761547273698318 -0.13876961296941021 0.04317408051351368 0.082504977204885241 -0.18088112058883052 0.064174971384651489 -0.039853546297563297 -0.036689785834252177 -0.022907963403126258 0.20845503483770877 0.097323671476766405 -0.044012645608768414 0.050798943705753254 0.083607932626613535 -0.027106654558842848 -0.050437492750305027 -0.18816700599554348 0.14288839764281763 -0.052737474385765981 -0.11099849798491629 -0.13967312756354927 -0.08708218083130842 -0.092985963639147726 -0.027726624845562431 -0.14735805674385671 0.15571807165442783 0.12226036221296617 -0.12970412580093321 -0.13824521700585099 -0.15380054878925353 -0.20222862851906448
leaf_weight=3098.0192514657974 2440.4963135384023 3.2350307311862698 6029.0557965710759 19047.974989835173 3299.4447065629065 724.59504518285394 5957.6534265838563 38.754042133688927 3124.4920910932124 1428.3846578299999 387.30733026750386 2985.3358338624239 153.8869120106101 363.90060451626778 898.82184717059135 17750.783020474017 3086.0459058433771 12951.603697374463 1346.5109003782272 1527.2591438144445 63.266331769526005 142.29634815454483 1655.8074646145105 3162.3036028034985 46.032333329319954 1219.8174978122115 481.453897703439 99.306315418332815 93.228860028088093 2858.3133034296334 144.61556433141232 19.743095070123676 367.28556568920612 325.88619788736105 1901.8553160578012 79.299519374966621 2060.3684877753258 246.99056962132454 415.75813756883144 27.25423763692379 132.13968355953693 38.508487496525049 393.59383006766438 358.18204135447741 20.682793065905571 1961.064136730507 362.2023486495018 8.7728591561317462 395.40093544125557 39.25662949681282 259.33291678503156 146.76382340118289 79.049921911209822 417.64125308394432 66.160993173718452 34.703852668404579 756.97506985813379 356.44597044587135 119.67818906344473 220.44955644384027 14.417549483478068 6.1577809303998938
leaf_count=3483 3857 6 25578 60552 8598 5274 10562 215 6907 4894 2145 6789 724 565 3150 37831 6947 20814 1216 1961 202 209 2170 7380 49 3077 1490 192 207 5371 139 86 1654 789 2623 320 2832 882 1050 74 168 82 1446 853 67 12581 1262 36 319 129 1276 954 344 2199 880 180 456 242 852 1363 66 25
