tree
version=v4
num_class=1
num_tree_per_iteration=1
label_index=0
max_feature_idx=136
objective=binary sigmoid:1
feature_names=Column_0 Column_1 Column_2 Column_3 Column_4 Column_5 Column_6 Column_7 Column_8 Column_9 Column_10 Column_11 Column_12 Column_13 Column_14 Column_15 Column_16 Column_17 Column_18 Column_19 Column_20 Column_21 Column_22 Column_23 Column_24 Column_25 Column_26 Column_27 Column_28 Column_29 Column_30 Column_31 Column_32 Column_33 Column_34 Column_35 Column_36 Column_37 Column_38 Column_39 Column_40 Column_41 Column_42 Column_43 Column_44 Column_45 Column_46 Column_47 Column_48 Column_49 Column_50 Column_51 Column_52 Column_53 Column_54 Column_55 Column_56 Column_57 Column_58 Column_59 Column_60 Column_61 Column_62 Column_63 Column_64 Column_65 Column_66 Column_67 Column_68 Column_69 Column_70 Column_71 Column_72 Column_73 Column_74 Column_75 Column_76 Column_77 Column_78 Column_79 Column_80 Column_81 Column_82 Column_83 Column_84 Column_85 Column_86 Column_87 Column_88 Column_89 Column_90 Column_91 Column_92 Column_93 Column_94 Column_95 Column_96 Column_97 Column_98 Column_99 Column_100 Column_101 Column_102 Column_103 Column_104 Column_105 Column_106 Column_107 Column_108 Column_109 Column_110 Column_111 Column_112 Column_113 Column_114 Column_115 Column_116 Column_117 Column_118 Column_119 Column_120 Column_121 Column_122 Column_123 Column_124 Column_125 Column_126 Column_127 Column_128 Column_129 Column_130 Column_131 Column_132 Column_133 Column_134 Column_135 Column_136
feature_infos=[-1.6225472688674927:1.9731968641281128] [-1.5361506938934326:1.9330692291259766] [-1.4574664831161499:1.893924355506897] [-1.3864948749542236:1.8557635545730591] [-1.3232357501983643:1.8185858726501465] [-1.2676888704299927:1.7823913097381592] [-1.2290850877761841:1.7519460916519165] [-1.2009469270706177:1.76683509349823] [-1.1683319807052612:2.0758624076843262] [-1.1265554428100586:2.0974209308624268] [-1.072321891784668:1.9582076072692871] [-1.0030745267868042:1.9951491355895996] [-1.0288742780685425:2.0683317184448242] [-0.82267826795578003:2.1760303974151611] [-0.71658420562744141:2.2759943008422852] [-0.62042820453643799:2.3805651664733887] [-0.63882678747177124:2.4481546878814697] [-0.65620064735412598:2.4998569488525391] [-0.66012513637542725:2.5653238296508789] [-0.66667592525482178:2.5221147537231445] [-0.66607785224914551:2.4413206577301025] [-0.67377018928527832:2.3840618133544922] [-0.78228282928466797:2.2409591674804688] [-0.70636492967605591:2.1797337532043457] [-0.6794590950012207:2.1696581840515137] [-0.94777458906173706:2.0883691310882568] [-1.2671374082565308:1.9448176622390747] [-1.6690099239349365:1.7314887046813965] [-1.9454965591430664:1.5598906278610229] [-2.2033448219299316:1.3455723524093628] [-2.6534385681152344:1.1438356637954712] [-2.9375624656677246:1.0691677331924438] [-2.8964071273803711:1.0182701349258423] [-2.6209216117858887:1.0153312683105469] [-1.9672813415527344:1.0222163200378418] [-1.2877312898635864:1.0987448692321777] [-0.66409575939178467:1.3781088590621948] [-0.67050886154174805:1.4357191324234009] [-0.67336314916610718:1.5244829654693604] [-0.67729061841964722:1.427788257598877] [-0.67356115579605103:1.3506048917770386] [-0.67623704671859741:1.3033223152160645] [-0.67480045557022095:1.4334096908569336] [-0.67815649509429932:1.6771683692932129] [-0.67593681812286377:1.8418123722076416] [-0.67998087406158447:1.9795904159545898] [-0.67735743522644043:1.8671952486038208] [-0.68056988716125488:1.8940913677215576] [-0.67851173877716064:2.0411467552185059] [-0.68057990074157715:2.1347439289093018] [-0.67868822813034058:2.3221406936645508] [-0.68411111831665039:2.3866791725158691] [-0.6882440447807312:2.3278176784515381] [-0.69760811328887939:2.41339111328125] [-0.68820065259933472:2.0181429386138916] [-0.66555494070053101:1.7058380842208862] [-0.63047897815704346:1.5109990835189819] [-0.79989981651306152:1.3468891382217407] [-0.9627259373664856:1.3174220323562622] [-0.83332031965255737:1.3004671335220337] [-0.62303602695465088:1.2900781631469727] [-0.62908732891082764:1.6912268400192261] [-0.65896600484848022:1.8743280172348022] [-0.67422842979431152:1.7138135433197021] [-0.93073725700378418:1.3433690071105957] [-1.1305865049362183:1.0563232898712158] [-1.2528316974639893:0.96944224834442139] [-1.6713657379150391:0.85952615737915039] [-1.8910553455352783:0.72384035587310791] [-2.0949718952178955:0.56993401050567627] [-1.9126988649368286:0.41874155402183533] [-1.7446892261505127:0.28619131445884705] [-1.674402117729187:0.18248416483402252] [-1.5101885795593262:0.10744565725326538] [-1.4517455101013184:0.30397361516952515] [-1.6804615259170532:0.9557119607925415] [-1.8599822521209717:1.4404212236404419] [-1.985605001449585:1.2026444673538208] [-2.0616223812103271:1.1271375417709351] [-2.1171634197235107:0.66064220666885376] [-2.168381929397583:0.36351838707923889] [-2.1978850364685059:0.20271983742713928] [-2.2107267379760742:0.24720261991024017] [-2.208972692489624:0.29146730899810791] [-2.1915850639343262:0.33166038990020752] [-2.1574652194976807:0.36534091830253601] [-2.1063995361328125:0.39211788773536682] [-2.0390708446502686:0.46153005957603455] [-1.9571486711502075:0.67684948444366455] [-1.8642418384552002:0.4375309944152832] [-1.7650643587112427:0.65018975734710693] [-1.8478662967681885:1.0688302516937256] [-1.6520191431045532:1.4164961576461792] [-1.5958865880966187:1.6280827522277832] [-1.5394163131713867:1.664950966835022] [-1.4922878742218018:1.6182941198348999] [-1.4547033309936523:1.5608183145523071] [-1.4384253025054932:1.5597559213638306] [-1.4264529943466187:1.5645072460174561] [-1.5819015502929688:1.5648646354675293] [-2.0638625621795654:1.5687597990036011] [-2.4619696140289307:1.5680602788925171] [-2.648137092590332:1.5700795650482178] [-2.4631106853485107:1.5662518739700317] [-2.0341367721557617:1.5674868822097778] [-1.4475361108779907:1.5623446702957153] [-1.2213733196258545:1.563502311706543] [-1.1123948097229004:1.561995267868042] [-1.1654683351516724:1.5723429918289185] [-1.225186824798584:1.5757462978363037] [-1.2823280096054077:1.5835809707641602] [-1.5990560054779053:1.5861003398895264] [-2.1418814659118652:1.5904537439346313] [-2.4733853340148926:1.5879726409912109] [-2.5047738552093506:1.5883719921112061] [-2.0072333812713623:1.5865405797958374] [-1.6131480932235718:1.5868538618087769] [-1.6272512674331665:1.7016431093215942] [-1.6816561222076416:2.5795986652374268] [-1.7411720752716064:2.8008601665496826] [-1.8167120218276978:2.5472877025604248] [-1.9280952215194702:1.7488086223602295] [-2.1567583084106445:1.6308574676513672] [-2.3918964862823486:1.6220458745956421] [-2.6616356372833252:1.8138364553451538] [-2.9761693477630615:2.1645474433898926] [-3.3342947959899902:3.0688047409057617] [-3.8502705097198486:4.2020993232727051] [0:1] [0:1] [0:1] [0:1] [0:1] [0:1] [0:1] [0:1] [0:1]
tree_sizes=6605 5141 5104 6430 6505 6315 6714 6190 6199 6285 6894 6184 6110 6218 6227 6096 6685 6344 6933 5714 5694 6016 6126 6331 6929 6943 6951 6928 5376 6941 6242 5070 6377 5918 6788 6907 5586 6177 6406 6798 5977 4919 6712 6918 5399 6941 6227 6255 6824 6931 5865 6808 6598 5020 6073 6733 6901 6724 6935 6754 5889 6946 6924 6949 5032 4917 6683 6918 6670 6912 6932 5913 6924 6466 6938 6514 6950 5926 6925 5631 6942 6685 6829 6101 4778 4974 4558 5997 5487 4874 6835 5636 6928 5877 5096 6900 6713 6873 6455 6922 5607 6568 6940 6273 6724 5117 6711 6248 6702 6905 6608 6747 6906 6329 6727 6955 6071 6723 5864 5551 5672 6799 6513 6677 6915 6812 5224 5707 6726 6423 6932 6722 6365 6324 6759 6813 6660 4765 6099 6562 5951 5677 5786 6714 5241 5821 6912 6822 6608 6377 6071 6672 5496 4805 6696 6137 5497 6932 6527 6603 6729 6958 5701 4610 6557 5774 6182 6612 6081 6319 5646 6678 6130 6941 6171 4857 6577 6181 5967 6455 6209 5776 6588 6584 6142 6463 5628 6697 5950 5071 6207 6579 5735 6490 6027 6697 6045 6557 6942 6930

Tree=0
num_leaves=61
num_cat=0
split_feature=54 109 113 134 42 108 41 75 84 130 69 121 53 34 130 32 95 106 133 32 75 108 131 76 73 96 103 41 12 75 107 31 121 30 101 40 70 58 11 129 83 109 36 47 53 45 2 112 1 123 127 129 56 91 112 0 2 0 0 14
split_gain=97304.2 93901.5 57482.3 46306.4 66373.7 45449 45973.9 41747.3 37400.9 24203.8 29428.9 18155.1 14882 14536.9 12852.4 12801.4 12635 10714.4 22935.8 13328.1 9634.71 7182.38 16656.7 8064.99 6774.7 5358.76 4743.45 4465.51 9873.99 3863.68 2964.3 3359.68 2914.75 2570.62 2322.58 2040.4 5441.87 1861.59 1769.37 1582.41 1442.07 1381.77 2648.05 1803.76 1344.59 1235.89 897.352 861.654 1621.33 511.445 737.505 497.372 433.135 107.452 86.9396 7.10543e-15 8.88178e-16 4.44089e-16 4.44089e-16 4.44089e-16
threshold=1.0237770080566408 -1.117761433124542 -0.92272436618804921 1.0000000180025095e-35 1.0478818416595461 -0.91819724440574635 1.0080897808074953 -1.0853819847106931 -1.4030194878578184 1.0000000180025095e-35 -0.0098883830942213518 -0.95875382423400868 1.0166964530944826 0.9079670011997224 1.0000000180025095e-35 0.96646174788475048 -1.0354666113853452 -0.96163699030876149 1.0000000180025095e-35 0.93370062112808239 -1.0564835667610166 -0.83126401901245106 1.0000000180025095e-35 -1.2182059884071348 -0.86570778489112843 -0.87878313660621632 -0.92682951688766468 1.0212351083755495 0.79009002447128307 -1.0235555171966551 -1.0139988660812376 0.98975631594657909 -0.98301607370376576 1.0968778729438784 -0.84874993562698353 1.014244616031647 -0.26091822981834406 0.8234214484691621 0.44714371860027319 1.0000000180025095e-35 -1.4208207130432127 -1.1222085952758787 0.90436118841171276 1.200197756290436 1.053561866283417 1.2031996846199038 0.407210722565651 -0.91562256217002858 0.64876022934913646 -1.0603804588317869 -1.2857934832572935 1.0000000180025095e-35 1.0519306063652041 -1.0026910305023191 -0.91125869750976551 0.11544333770871164 0.74659669399261486 0.07172830775380136 -0.12630746513605115 0.68123590946197521
decision_type=2 2 2 2 2 2 2 2 2 2 2 2 2 2 2 2 2 2 2 2 2 2 2 2 2 2 2 2 2 2 2 2 2 2 2 2 2 2 2 2 2 2 2 2 2 2 2 2 2 2 2 2 2 2 2 2 2 2 2 2
left_child=2 13 5 8 20 17 7 16 29 10 -10 14 -9 41 21 -11 -7 30 26 -20 44 23 -23 -4 32 -22 -19 28 -8 40 33 -32 -16 -1 -26 36 -6 -29 39 45 -3 51 43 -43 -5 -15 -31 48 -13 50 -49 52 -2 -37 -51 -44 -50 59 -41 -40
right_child=1 3 11 4 35 6 27 12 9 15 -12 47 -14 38 24 -17 -18 18 19 -21 25 22 -24 -25 34 -27 -28 37 -30 46 31 -33 -34 -35 -36 53 -38 -39 57 58 -42 42 55 -45 -46 -47 -48 49 56 54 -52 -53 -54 -55 -56 -57 -58 -59 -60 -61
leaf_value=-3.31060395840557 -3.494252943232651 -3.186659868500072 -3.2903201416417125 -0.98672437165710747 -3.4749287400761215 -1.623803252332781 -1.7641355779386332 -1.6993084617981229 -1.7129058175863365 -1.0791583925944388 -1.1657467600505149 -0.65533077888367819 -1.1822924771925236 -0.73626655636378491 -1.2723115614480975 -2.1860322587840826 -2.3405152391968573 -1.9897626658304497 -1.6322934829275739 -2.6036092514426299 -0.74594778775033976 -3.384945939708222 -0.86774029456643742 -2.6024415798068454 -2.2319466677917443 -3.1930780617366894 -2.6245766295233857 -1.681086643201402 -2.944555677775738 -3.5158735534631753 -2.3866276447412211 -3.0284976778604582 -2.4868346071423488 -0.91989233542307058 -3.3040764822108764 -3.3589420966319765 -2.040641517156641 -3.2189895252071969 -3.5158735534631753 -3.5158735534631753 -2.4652839647057112 -1.7434305210329357 -3.5158735534631753 -3.5158735534631753 -3.5158735534631753 -2.6857411176622832 -0.99967996163842354 -3.1375544098687986 -3.5158735534631753 -3.2175810216738472 -0.27824106363624823 -1.8026733373999502 -2.035082438179054 -3.5158735534631753 -3.5158735534631753 -3.5158735534631753 -3.5158735534631753 -3.5158735534631753 -3.5158735534631753 -3.5158735534631753
leaf_weight=118.25762295722961 280.68928349018097 138.25382733345032 255.60419893264771 2.3994921445846584 74.107964992523193 335.17591297626495 112.5921196937561 1067.3667694330215 4145.1499006748199 1596.4195718765259 1288.5552098751068 3.1822668313980085 1163.7613370418549 29.474344253540039 121.72175884246826 111.80469703674316 924.22247767448425 133.21480572223663 620.2123738527298 182.93878591060638 186.22782671451569 46.351364850997925 60.729515671730042 511.57380104064941 68.536431550979614 9.4001833200454694 1011.1086491346359 8.2689079046249372 191.20025706291199 1.6061120033264149 201.52852272987366 136.96904766559601 23.589675068855286 4.6754372119903556 28.65324604511261 58.006282329559326 41.137078404426575 163.52981007099152 0.95748984813690174 0.64862215518951449 34.658673524856567 20.543419957160953 36.940576076507568 7.9687864780426017 16.956836342811584 3.6552442312240592 12.059234261512755 24.061722874641422 4.5094683170318604 10.172352552413939 0.93720853328704734 1.771151304244994 2.0491322278976432 176.05458498001099 247.55745589733124 0.77216923236846824 0.74128246307373036 1.3590178489685056 1.9458664655685414 1.1119236946105955
leaf_count=3594 9029 4036 7718 19 2370 4719 1738 15807 61932 14068 12434 15 11416 162 1300 2182 19418 2347 8783 4309 1041 1442 411 12044 1368 275 24021 121 5134 52 4324 3789 529 34 869 1790 745 4825 31 21 770 313 1196 258 549 89 97 691 146 300 1 28 37 5700 8015 25 24 44 63 36
internal_value=-3.41258 -1.65849 -2.15094 -1.58366 -2.45655 -2.02322 -1.81513 -1.68946 -1.51645 -1.47993 -1.58315 -2.72923 -1.42963 -3.17344 -2.54587 -1.1516 -2.14977 -2.36583 -2.26317 -1.85354 -1.07411 -2.72454 -1.95735 -2.83163 -1.90174 -0.863536 -2.55068 -2.7375 -2.50707 -2.91414 -2.7991 -2.64635 -1.46948 -3.21968 -2.54803 -3.30739 -2.96296 -3.14497 -1.34586 -1.13761 -3.04207 -3.37745 -2.96605 -2.23881 -3.20235 -0.951355 -1.29541 -3.4325 -2.43642 -3.46221 -3.03036 -3.47321 -3.48368 -3.47698 -3.5041 -3.51587 -3.51587 -3.51587 -3.51587 -3.51587
internal_weight=0 8282.68 7782.94 7892.8 564.29 6375.02 3966.12 3490.53 7328.51 7141.93 5433.71 1407.92 2231.13 389.887 1116.76 1708.22 1259.4 2408.91 1947.47 803.151 214.984 874.259 107.081 767.178 242.501 195.628 1144.32 475.591 303.792 186.578 461.431 338.498 145.311 122.933 97.1897 349.306 115.245 171.799 39.1525 35.7241 172.913 350.735 66.225 28.5122 19.3563 33.1296 13.6653 291.162 8.43302 282.729 24.9989 284.51 282.738 234.061 257.73 37.7127 5.25075 3.42843 2.59449 2.06941
internal_count=268644 119392 149252 108060 12489 114379 63178 51360 95571 90616 74366 34873 27223 11332 25681 16250 24137 51201 39460 13092 1884 21615 1853 19762 4066 1316 26368 11818 6872 4955 11741 8113 1829 3628 2237 10605 3115 4946 446 335 4806 10886 1792 571 568 251 149 9192 185 9007 692 9094 9066 7490 8315 1221 170 111 84 67
is_linear=0
shrinkage=1


Tree=1
num_leaves=47
num_cat=0
split_feature=89 4 101 4 135 102 52 75 135 111 5 29 130 104 101 2 24 116 128 71 58 39 42 106 88 82 69 10 59 114 120 46 105 59 7 113 109 108 108 109 121 106 30 45 109 4
split_gain=5647.4 4920.67 7854.45 11137.1 4463.23 4445.68 5148.22 2398.64 1790.08 1554.18 2419.59 883.117 856.332 1043.58 645.562 1004.34 638.783 584.81 511.048 371.943 321.38 244.589 210.176 191.416 182.82 171.58 387.189 131.598 101.235 87.2465 53.2032 76.2427 27.7416 85.9057 1.1947 0.847703 0.296403 0.155594 0.0569261 0.103504 0.0228885 0.00436486 0.00111004 0.000718714 0.0003288 7.10543e-15
threshold=-0.18120709806680677 0.75471457839012157 -0.94764378666877735 0.69614347815513622 1.0000000180025095e-35 -0.91727516055107106 0.97375777363777172 -1.1091759800910947 1.0000000180025095e-35 -0.90835645794868458 0.74419942498207103 1.2051472663879397 1.0000000180025095e-35 -0.917731612920761 -0.96281191706657399 0.72301584482193004 1.6205547451972964 -0.93558496236801136 1.0000000180025095e-35 -0.61599996685981739 0.67618739604949962 0.73634624481201183 0.87492835521698009 -0.83665147423744191 -1.1755518317222593 -0.22903011739253995 0.085745137184858336 0.79176905751228344 0.93118819594383251 -0.9732515513896941 -1.7255833745002744 1.2280654311180117 -0.76616808772087086 0.90048572421073925 -0.25769032537937159 -0.92272436618804921 -1.117761433124542 -0.91819724440574635 -1.0369365215301511 -1.117761433124542 -0.95875382423400868 -0.86085632443428028 1.0744395256042483 1.2244473695755007 -1.1157097220420835 -0.71724110841751088
decision_type=2 2 2 2 2 2 2 2 2 2 2 2 2 2 2 2 2 2 2 2 2 2 2 2 2 2 2 2 2 2 2 2 2 2 2 2 2 2 2 2 2 2 2 2 2 2
left_child=1 2 4 5 7 8 -7 23 -4 11 -11 -6 13 -5 15 16 24 -9 27 -14 35 -20 -22 -1 -3 26 28 -17 34 -18 32 -32 33 36 45 37 -27 -16 39 -34 -37 -36 -24 -33 -40 -2
right_child=25 14 3 12 9 6 -8 17 -10 10 -12 -13 19 -15 20 18 29 -19 21 -21 22 -23 42 -25 -26 30 -28 -29 -30 -31 31 43 38 -35 41 40 -38 -39 44 -41 -42 -43 -44 -45 -46 -47
leaf_value=-0.055637263947232896 -0.10297217848341092 0.34620964515571084 0.36960232185053954 0.13883149322774993 0.16252862184264819 0.032264709801611204 0.28896268926468188 0.41243662536231718 0.58432144693553489 1.4026723808711896 -0.10640466460765206 0.57423995586003806 0.46227971633807857 -0.083556374431650621 -0.11264836770445308 0.39422023076942869 0.38200317926401173 0.26402583912331046 -0.10582138702183207 -0.11978875953186591 0.78649977504551649 0.83663210391360876 -0.11567101350002276 0.24802510945867376 -0.11592151052493452 -0.10472603749900443 0.39899172462802279 -0.093006425589447717 0.27255855903063531 0.6422748499206663 0.32268566710470875 -0.13128209610692851 -0.10300589609404689 0.24923175487469035 -0.12581308135527439 -0.10740074027646425 -0.13116897826555804 -0.11800101529389706 -0.13032259075861405 -0.13116897826555807 -0.10313233740773858 -0.130911578311945 -0.11242125332372935 -0.12940516142209144 -0.13116897826555807 -0.10297217848341092
leaf_weight=149.78822984546423 31.506633520126343 13.113612826913593 1006.1893474254757 275.19014145061374 54.319634102284908 792.39840747788548 55728.161697775126 1166.3812771178782 632.23362317122519 48.226707391440868 13.62686689943075 1274.6302950084209 51.851069040596485 904.76725231856108 111.22768062725663 5.7445826530456534 18.22034765034914 343.7660660520196 3.8659180030226699 13.92674347758293 6.7272235043346864 9.5714737176895124 1.9926682114601133 24.098240628838539 24.654321752488613 5.397732511162757 22.893712788820267 158.40318188816309 7.5177609026432028 43.936814442276955 6.7097200304269782 4.7182984352111799 2.0395503211766481 8.0850239843130094 1.7896788474172378 14.998576093465088 19.746349364519123 106.12022671848536 4.6691332757472983 3.6231833696365348 77.357504703104496 27.185223499312997 2.2243665605783463 3.5942241474986076 270.10832020640373 2.5508039593696585
leaf_count=1600 1124 96 4536 2137 318 7959 222438 2861 1738 65 305 1583 98 9865 1240 1 58 1157 116 123 7 5 19 74 240 172 9 2761 13 34 12 26 72 57 20 234 109 833 30 20 2694 152 29 22 1491 91
internal_value=0 0.289068 0.291801 0.283734 0.447644 0.290071 0.285364 0.338155 0.452458 0.580217 1.07021 0.557412 -0.0121154 -0.031691 0.00361481 0.115285 0.368895 0.378653 -0.0274188 0.339042 -0.0930316 0.56549 0.439536 -0.0135539 0.0445376 -0.0779157 0.0416554 -0.0759552 -0.0743013 0.56598 -0.111909 0.0719327 -0.120713 -0.0343177 -0.115671 -0.111851 -0.125492 -0.115262 -0.13095 -0.121025 -0.103826 -0.130597 -0.113957 -0.130471 -0.131155 -0.102972
internal_weight=0 63077.7 62479.6 59404.7 3074.84 58159 56520.6 1684.03 1638.42 1390.8 61.8536 1328.95 1245.74 1179.96 598.158 277.51 99.9251 1510.15 177.585 65.7778 320.648 13.4374 10.9443 173.886 37.7679 422.135 93.4438 164.148 70.5501 62.1572 328.692 15.0222 313.669 33.2291 63.0323 309.704 25.1441 217.348 280.44 5.66273 92.3561 28.9749 4.21703 8.31252 274.777 34.0574
internal_count=268644 265224 256857 248894 7963 236671 230397 5692 6274 2271 370 1901 12223 12002 8367 3311 428 4018 2883 221 5056 121 55 1674 336 3420 1409 2762 1400 92 2011 60 1951 338 1387 5001 281 2073 1613 92 2928 172 48 48 1521 1215
is_linear=0
shrinkage=0.1


Tree=2
num_leaves=47
num_cat=0
split_feature=110 2 123 31 131 69 76 128 106 101 44 58 113 54 33 36 35 54 77 1 3 129 38 36 103 30 84 100 100 28 41 4 55 46 56 36 59 109 84 109 13 89 69 31 120 115
split_gain=4137.21 2868.49 2839.6 2548.64 2507.17 4779.52 4693.81 2259.48 2169.61 1004.39 733.703 830.729 425.814 384.347 379.68 653.147 339.514 220.67 212.132 164.038 160.669 148.478 114.728 183.433 100.136 130.583 99.406 91.3583 60.6196 210.164 40.7938 36.4822 29.2893 24.1971 103.422 20.7286 15.0394 8.19101 8.17494 3.93547 0.781339 0.71169 0.0228181 0.00835446 0.00252908 0.000385957
threshold=-1.1774477958679197 0.7107864022254945 -2.2682263851165767 1.0066279768943789 1.0000000180025095e-35 -0.12901247292757032 -1.1931611299514768 1.0000000180025095e-35 -0.8297845423221587 -0.85544419288635243 1.1867547035217287 0.93866640329360973 -1.3496814370155332 0.87134829163551342 0.85900363326072704 0.89559531211853038 0.92790949344635021 1.1200671195983889 -0.36637245118618006 0.11542694643139841 0.72723379731178295 1.0000000180025095e-35 0.9859418272972108 0.97552871704101574 -0.97048610448837269 1.0479322075843813 -1.2255983948707578 -0.82528808712959278 -0.51009580492973317 0.95298331975936901 1.098925828933716 0.76298236846923839 0.82167801260948192 1.2159072756767275 1.0260255932807925 0.90181863307952892 0.90048572421073925 -1.117761433124542 -1.224242568016052 -1.117761433124542 0.42978830635547643 -0.18120709806680677 -0.59652450680732716 0.99259400367736828 -1.7255833745002744 -1.4050948023796079
decision_type=2 2 2 2 2 2 2 2 2 2 2 2 2 2 2 2 2 2 2 2 2 2 2 2 2 2 2 2 2 2 2 2 2 2 2 2 2 2 2 2 2 2 2 2 2 2
left_child=10 2 17 4 6 -6 -4 8 -5 -9 11 12 28 20 15 -14 -16 41 30 21 -3 33 35 27 25 -22 42 -24 39 -30 -19 -26 -28 34 -12 36 -13 -35 -34 -1 -25 -2 -15 -44 -43 -20
right_child=1 13 3 7 5 -7 -8 9 -10 -11 19 22 14 26 16 -17 -18 18 45 -21 24 -23 23 40 31 -27 32 -29 29 -31 -32 -33 38 37 -36 -37 -38 -39 -40 -41 -42 44 43 -45 -46 -47
leaf_value=-0.10709366082747328 -0.14161189800824944 0.51766775606217208 0.13107380049764722 0.11785314421249769 0.19997771799812669 0.39802915493222868 0.22886418865114827 0.48201491541841651 0.40476165971005318 0.1871950713070564 -0.11845612568116948 0.19831840761700473 -0.12550314518344163 -0.12854839313182451 -0.10926053086911347 0.27954556636238753 0.23064691098562129 0.28155637750865925 -0.12731066374044439 0.46710187559512778 -0.11399142167655414 0.39270241623168944 0.25440441409799125 0.24776040202221808 0.039300559600603219 0.14188677023949745 0.43800826628757056 -0.15911944931435196 -0.082329478094450681 0.37560363580668293 0.074266501393068785 -0.10059956404207906 0.33298264725386356 -0.10450832956170036 0.32468040096506401 0.35858838981977836 0.3250403337231571 -0.1380705067917439 0.18604323447332671 -0.140566146718234 0.23040079883922512 -0.12737363203695182 -0.11866046598842935 -0.10918097218664716 -0.12981352066215884 -0.128434286444396
leaf_weight=121.24562936462462 43.367492899298668 4.7450924217700949 5364.1336343344301 4626.9263306893408 2541.4314317312092 2340.8387420549989 57763.109808238223 283.47824123315513 279.48960167914629 195.07272616401315 27.326681945472956 18.046329129487276 53.605985496193171 1.683370754122733 123.92132621631026 154.69262798316777 38.520062737166882 28.594151854515076 28.643484801054001 5.1053690910339347 35.015557730570436 5.9091883637011042 7.2590296603739288 59.004002809524536 19.836654171347618 46.337312603369355 15.992377176880838 20.235586673021317 62.135368246585131 11.949311740696428 14.212599128484724 308.97359436936677 6.3759388923645011 136.69395343028009 6.5240648835897437 60.858948405832052 19.469229552894831 155.36898701265454 9.3218513336032611 49.451660517603159 46.250966768711805 187.73158800601959 2.146818190813065 1.6398888751864431 4.3467468023300162 3.4222592562437049
leaf_count=2967 209 3 29974 25733 12807 3466 172329 1174 462 1007 462 48 573 11 2731 536 40 20 170 1 532 23 2 17 231 287 5 109 572 21 43 6158 1 3579 5 15 6 793 42 245 28 1113 19 30 25 20
internal_value=0 0.217834 0.219374 0.220651 0.225894 0.294935 0.220555 0.154427 0.134197 0.361837 0.0293847 0.0790531 0.0183544 -0.0332947 0.0859382 0.175306 -0.0286576 -0.0824877 0.0670504 -0.095424 -0.0608893 -0.104079 0.240704 0.180053 -0.0675825 0.0317528 0.274809 -0.0499424 -0.0840063 -0.00846825 0.212732 -0.0921596 0.342761 -0.113086 -0.0330503 0.322548 0.264083 -0.122362 0.245725 -0.116791 0.240132 -0.130041 -0.118862 -0.114555 -0.127429 -0.127431
internal_weight=0 74156.9 73704.8 73394.5 68009.5 4882.27 63127.2 5384.97 4906.42 478.551 1183.57 846.646 615.522 452.068 370.74 208.299 162.441 310.318 74.8725 336.928 414.908 331.823 231.124 132.75 410.163 81.3529 37.1602 27.4946 244.782 74.0847 42.8068 328.81 31.6902 325.914 33.8507 98.3745 37.5156 292.063 15.6978 170.697 105.255 235.446 5.47008 3.78671 192.078 32.0657
internal_count=268644 255871 248552 246952 218576 16273 202303 28376 26195 2181 12773 7910 7685 7319 3880 1109 2771 1600 253 4863 7211 4862 225 156 7208 819 108 111 3805 593 63 6389 48 4839 467 69 54 4372 43 3212 45 1347 60 49 1138 190
is_linear=0
shrinkage=0.1


Tree=3
num_leaves=59
num_cat=0
split_feature=107 135 89 4 32 53 101 53 103 110 50 70 32 70 69 54 50 116 103 104 2 31 32 68 122 32 105 36 70 74 35 74 104 128 105 54 77 40 8 59 40 105 68 0 106 58 30 113 7 54 133 109 123 108 41 111 89 70
split_gain=2690.22 3140.57 2458.67 2050.17 2417.8 3721.29 2274.91 1889.73 8525.07 1952.87 1534.76 1272.26 1256.86 1201.57 1015.98 1301.72 982.327 763.344 751.197 700.603 691.234 664.669 623.114 581.465 556.617 462.131 415.276 404.055 229.827 232.514 229.134 190.684 305.407 160.631 145.114 122.05 166.105 137.699 97.7325 80.7748 87.7535 67.0733 108.05 58.2843 205.388 21.0757 18.2113 1.45443 1.44095 0.494296 0.3678 0.134772 0.0364322 0.0343577 0.00393847 0.00695885 0.00212085 7.10543e-15
threshold=-0.98014438152313221 1.0000000180025095e-35 -0.18120709806680677 0.74802315235137951 0.91846236586570751 1.0002811551094057 -0.82572966814041127 0.95050200819969188 -0.92249277234077443 -1.1752776503562925 1.1188196539878847 -0.29021300375461573 0.93527108430862438 -0.23604150861501691 -0.11555077135562895 1.0227890610694887 1.0777910351753237 -1.4491757750511167 -0.93510380387306202 -0.93033668398857106 0.72301584482193004 0.99093148112297069 0.88195839524269115 -0.16827405989170072 -1.8098071217536924 0.84948208928108226 -0.91196674108505238 0.89804634451866161 -0.24218203872442243 -0.62334522604942311 0.874830722808838 -0.77732926607131947 -0.88163438439369191 1.0000000180025095e-35 -0.97474187612533558 1.1200671195983889 -0.36637245118618006 1.0598655343055727 0.45187216997146612 0.61928287148475658 0.83926671743392955 -0.76616808772087086 0.21541077643632892 0.21540588885545733 -0.94838997721672047 0.84120664000511181 1.0363145470619204 -0.92272436618804921 -0.25769032537937159 1.0242783427238467 1.0000000180025095e-35 -1.117761433124542 -2.2682263851165767 -1.0270789861679075 1.1095333099365237 -1.247933506965637 1.0000000180025095e-35 -0.67276406288146962
decision_type=2 2 2 2 2 2 2 2 2 2 2 2 2 2 2 2 2 2 2 2 2 2 2 2 2 2 2 2 2 2 2 2 2 2 2 2 2 2 2 2 2 2 2 2 2 2 2 2 2 2 2 2 2 2 2 2 2 2
left_child=1 10 3 4 7 12 -7 8 -2 -9 11 16 -6 43 19 45 21 30 20 23 25 -1 -19 34 50 -5 -18 -26 38 -30 -15 49 -33 -22 -3 41 37 -37 -17 47 -41 42 51 46 -45 -16 -12 -20 57 -21 -13 -4 -50 -39 56 -56 -38 -43
right_child=2 14 35 18 5 6 -8 9 -10 -11 13 24 -14 17 15 28 26 22 39 31 33 -23 -24 -25 27 -27 -28 -29 29 -31 -32 32 -34 -35 -36 36 54 53 -40 40 -42 48 -44 44 -46 -47 -48 -49 52 -51 -52 -53 -54 -55 55 -57 -58 -59
leaf_value=0.16981544808193078 0.26279171786564925 0.28563646300536394 -0.10452261310046936 0.25535217527427867 0.10994508230098109 0.19599213208296007 0.15468984181168643 0.070095760702664128 4.6677615756431751e-05 0.23350547036878841 -0.12870760164405851 -0.10992940403020546 -0.031580743901989339 0.096385533411124089 0.77799114896917576 -0.12970480716949126 -0.070610323275740752 0.24565725588837561 -0.11829616533917142 -0.11162413445490034 -0.079663559411970328 0.013744803056609807 0.063719575257899036 0.79639212769632906 0.34690171321959878 -0.069083488542399582 0.087016679127602498 0.15727557022765873 0.38498758263377486 0.24745340798931298 -0.10350009695364226 0.27544058170410007 -0.040084677692436954 0.26447681670516959 -0.11490217078498309 0.24499350157968444 -0.1243600882037323 -0.12253074876721809 0.32609818236900717 0.4658391654687023 -0.1119481904250125 -0.10327494489326459 0.2136768629243255 -0.13007417910109717 0.12397638003800288 0.91768023795944209 -0.086241910397477195 -0.10425152491465657 -0.12420442463464079 -0.13021770254219048 -0.13016128920902034 -0.12499657946448561 -0.13010288329042094 -0.13551389242454892 -0.12396085769869838 -0.13027588011024632 -0.12200552300148713 -0.10327494489326459
leaf_weight=1223.3039096854627 3032.7659884672612 39.837317284196615 3.8619664013385799 233.26827527582645 1533.782094584778 25810.993151068687 27591.231102112681 768.29986356198788 2083.0914699658751 15200.814230579883 369.06707698106766 17.632976524531841 1061.9802635703236 71.367554353550076 17.051361594349146 16.076594017446045 418.2280989177525 239.31509353220463 173.63447337597609 43.895647425204515 172.57190349511802 351.21863752789795 882.1093331463635 23.331091336905956 353.57866123318672 54.083739183843136 278.39357468485832 164.71523351222277 300.35830238834023 208.07755085453391 291.96301978640258 53.102444797754288 72.640734013170004 14.71994638442993 11.702264767140148 37.892671808600426 27.929747261106968 2.5356222148984662 6.6500766128301612 5.1257429271936399 5.3956782259047031 34.758493609726429 16.489301731809974 94.753595590591431 47.914449259638786 29.464624315500259 139.02876477688551 128.15758430399001 214.32214480638504 21.204064384102821 18.321929976344109 19.195528388023376 11.009376736357806 10.391988426446913 4.127149797976017 3.0231764521449795 4.4326342493295661 2.5485467929393044
leaf_count=6224 5004 29 131 450 8355 75051 76171 3545 15329 29298 2485 243 8322 1080 38 96 3534 570 1603 486 2177 3754 3878 38 1007 444 1028 1122 195 188 6425 216 507 39 118 20 181 27 8 5 73 1132 32 550 166 12 768 4430 1400 119 121 121 79 55 32 18 32 83
internal_value=0 0.106379 0.176939 0.178197 0.179837 0.168969 0.174653 0.208699 0.155806 0.225644 0.0760501 0.124406 0.0520439 0.0120725 0.28478 0.359217 0.0912566 0.0617326 0.0176089 0.122948 0.0968614 0.135002 0.102546 0.382193 0.260243 0.194289 -0.00761724 0.286638 0.314795 0.328702 -0.0642374 0.0212417 0.0931644 -0.0526163 0.194693 -0.0727093 0.0292795 0.148848 0.00366822 -0.102836 0.169534 -0.103197 0.018215 -0.10123 -0.0447524 0.866474 -0.117088 -0.112332 -0.121479 -0.11768 -0.120239 -0.121567 -0.124493 -0.132967 -0.124507 -0.126631 -0.124038 -0.103275
internal_weight=0 5804.3 78262.4 77869.9 77083 55998 53402.2 21085 5115.86 15969.1 4960.91 2825.39 2595.76 2135.52 843.392 577.679 2271.14 1484.76 786.957 265.714 474.644 1574.52 1121.42 74.8707 554.249 287.352 696.622 518.294 531.163 508.436 363.331 190.843 125.743 187.292 51.5396 392.518 90.333 50.8203 22.7267 312.313 10.5214 302.185 39.5468 650.764 142.668 46.516 508.096 301.792 262.639 65.0997 35.9549 23.0575 225.332 12.9276 39.5127 7.15033 32.3624 37.307
internal_count=268644 35005 233639 230296 221075 167899 151222 53176 20333 32843 32955 17033 16677 15922 2050 537 14540 11953 9221 1513 3110 9978 4448 185 2493 894 4562 2129 487 383 7505 1328 723 2216 147 3343 365 102 104 6111 78 2978 284 3969 716 50 3253 6033 2694 605 364 252 1479 82 263 50 213 1215
is_linear=0
shrinkage=0.1


Tree=4
num_leaves=60
num_cat=0
split_feature=107 135 122 74 31 76 131 136 90 89 50 70 41 71 130 69 50 106 70 62 29 42 62 30 95 53 113 33 70 74 70 43 123 105 50 106 94 54 95 9 5 76 96 10 54 116 52 106 36 34 110 55 106 89 95 54 81 76 10
split_gain=1945.55 2020.93 1835.75 1735.49 1557.07 1415.75 3602.76 1296.69 1256.35 1172.76 960.811 1127.86 959.784 978.435 764.871 748.097 964.678 649.461 606.93 528.604 504.009 385.868 371.22 342.26 324.618 314.602 305.461 286.432 230.841 226.945 180.92 426.693 163.71 161.444 140.792 131.328 120.556 103.619 129.677 92.3118 72.9382 68.3407 58.8176 100.115 56.1501 47.0755 118.923 45.2978 31.5595 12.1714 11.0919 62.2756 6.72909 2.95047 2.50953 0.511613 0.280974 0.0526586 0.000500027
threshold=-0.97793811559677113 1.0000000180025095e-35 -2.065158367156982 -1.0488023757934568 1.0066279768943789 -1.1602888107299802 1.0000000180025095e-35 1.0000000180025095e-35 -1.1204686164855955 -1.2255249619483946 1.1161016821861269 -0.21977804601192472 1.076904356479645 -0.19140003621578214 1.0000000180025095e-35 -0.16245463490486142 1.0756065249443056 -0.92546689510345448 -0.24537436664104459 0.45917636156082159 1.1694346070289614 1.05107718706131 0.60841697454452526 1.0487434267997744 -0.93390104174613942 1.0404357910156252 -0.86495673656463612 0.94042399525642406 -0.44276845455169672 -0.77732926607131947 -0.28052739799022669 1.085054397583008 -1.0688914060592649 -0.92097416520118702 1.1427696347236636 -0.98672577738761891 -1.0040689110755918 1.1200671195983889 -0.22788329422473905 0.67503857612609874 0.6239134967327119 -0.66245827078819264 -0.66841739416122425 0.38214939832687383 1.0223034620285036 -1.5073500871658323 1.1568313837051394 -0.92864325642585743 0.92291545867919933 0.8166504204273225 -1.1774477958679197 1.0651806592941286 -0.83381450176239003 -0.18120709806680677 -1.0744056701660154 1.0237770080566408 -0.25577317178249354 -0.39059537649154658 1.0000000180025095e-35
decision_type=2 2 2 2 2 2 2 2 2 2 2 2 2 2 2 2 2 2 2 2 2 2 2 2 2 2 2 2 2 2 2 2 2 2 2 2 2 2 2 2 2 2 2 2 2 2 2 2 2 2 2 2 2 2 2 2 2 2 2
left_child=1 10 37 14 5 6 -5 9 -7 -6 15 30 17 -14 24 16 19 -13 20 -1 29 23 -23 -17 54 -9 32 -18 35 55 47 -32 -16 -31 41 -22 -26 45 49 -30 -28 44 48 -44 -20 46 56 -12 -36 -39 51 -47 -51 -52 -4 -3 -2 -40 -59
right_child=2 18 3 4 7 8 -8 25 -10 -11 11 12 13 -15 26 21 27 -19 34 -21 28 22 -24 -25 36 -27 40 -29 39 33 31 -33 -34 -35 42 -37 -38 38 57 -41 -42 -43 43 -45 -46 50 -48 -49 -50 52 53 -53 -54 -55 -56 -57 -58 58 -60
leaf_value=0.053883331585109988 -0.14318291560608409 -0.11163061361708215 -0.10796827029857876 0.11076599033185096 0.22397084378946369 0.18953913478245188 0.22045691087149566 -0.10277884877998847 0.15359732192405273 0.098422993064969683 -0.12780792307317193 0.061059993645476734 -0.075212849419956679 0.18317458916972085 0.24122161971133058 0.24674683429171301 -0.032024280617355627 0.23948041757785499 0.42005535963470264 0.16385746551687852 0.24807011637304111 -0.010224210848166278 0.43364055471735335 -0.048858500141264791 0.38867134520818064 0.029468412374475422 0.20926969919452906 0.98804830796038812 0.71752277008535215 0.21259236779621485 0.14631253683167297 -0.07603526666103072 -0.027313309873195121 0.017398661485415391 0.30229479570467344 -0.11383692088038205 0.017604696822861657 0.22901063532442031 -0.13412925779746096 0.38540637660401472 -0.11155678328139318 0.21583765781159517 0.21836564558141869 -0.0084902724549709863 0.31498010031125823 -0.12483956359428475 0.21295844168058228 0.034646108389645325 0.20253745785239807 0.1819531195295119 -0.1503553866019863 0.15017853052667693 0.068509739971363101 -0.12131424133423725 -0.12382121519306116 -0.12945278218917555 -0.12145733738925131 -0.12124490067318093 -0.12265885117843954
leaf_weight=786.14169143326581 16.239181946963072 44.398681931197643 221.42621194757521 16489.045014409348 886.45992078073323 12498.715390844271 3658.6810185480863 287.86626666411757 43832.147267632186 4630.6055519357324 364.16578729823232 421.09564156271517 566.75914056785405 197.66204276122153 148.46712071448565 566.94938980601728 644.15742401406169 395.7538093496114 66.307808190584183 984.31483635678887 41.388678632676601 136.43390350416303 21.861298322677612 42.074720147997141 17.429785769432783 479.53317299485207 8.2770045995712263 2.7645174637436858 10.941019617021082 70.318000566214323 109.08000738546252 413.41683879680932 26.800708470866084 106.62398384697735 114.90534824132919 13.232518307864664 17.593185368925333 15.291971042752264 3.7472756654024151 35.601669568568468 49.255455488339067 53.051317930221558 171.34946620836854 21.944944970309734 218.25270766764879 48.779898906126618 15.890217075124381 18.012892879545689 43.802475661039352 8.5801290124654752 45.119580611586571 9.9057165384292585 13.386526584625246 155.72555035352707 181.87483144178987 25.277539223432541 9.3977968096733111 21.854035079479221 2.8242854326963416
leaf_count=5952 84 503 5802 59787 3185 22892 7841 1904 103159 19222 2294 2662 7880 382 230 1494 4382 902 29 4161 33 1089 66 331 8 2035 12 6 14 243 372 2782 196 623 37 139 61 5 21 62 1276 38 121 121 66 363 18 68 62 8 205 19 36 1076 1876 147 91 152 19
internal_value=0 0.0912546 0.147223 0.148205 0.149503 0.153435 0.130685 0.101654 0.161572 0.118596 0.067778 0.0211882 0.072136 -0.0083997 -0.011956 0.104146 0.0768395 0.147503 0.219583 0.115025 0.111875 0.190172 0.0510756 0.226325 -0.0897573 -0.0201401 0.134531 -0.0276652 0.299835 0.0347731 -0.0678627 -0.0296164 0.200159 0.09497 0.273901 0.160395 0.202272 -0.0760174 0.0377804 0.463479 -0.0654005 0.320038 0.22965 0.19261 0.339465 -0.100846 -0.00199024 -0.120151 0.274762 0.160508 -0.116663 -0.0784185 0.11282 -0.127838 -0.115117 -0.118096 -0.135219 -0.123084 -0.121407
internal_weight=0 6708.04 83800.9 83434.2 82763.1 76478.6 20147.7 6284.46 56330.9 5517.07 5670.64 2485.95 1581.27 764.421 671.124 3184.7 2417.38 816.849 1037.4 1770.46 347.782 767.319 158.295 609.024 438.324 767.399 232.8 646.922 101.164 246.618 904.676 522.497 175.268 176.942 689.614 54.6212 35.023 366.742 65.6842 46.5427 57.5325 337.612 352.002 193.294 284.561 301.058 41.5272 382.179 158.708 37.2586 259.531 58.6856 21.9667 200.845 403.301 69.6762 25.637 28.4256 24.6783
internal_count=268644 37061 231583 229486 220025 193679 67628 26346 126051 22407 34823 17342 11826 8262 9461 17481 14501 3564 2238 10113 1764 2980 1155 1825 7747 3939 1714 4388 248 1516 5516 3154 426 866 474 172 69 2097 241 76 1288 133 341 242 95 1856 193 2362 99 49 1663 382 44 1281 7678 650 175 192 171
is_linear=0
shrinkage=0.1


Tree=5
num_leaves=58
num_cat=0
split_feature=110 3 102 101 4 135 32 71 131 27 130 74 2 30 72 28 44 58 27 128 107 113 39 91 37 35 12 5 102 130 101 32 131 132 108 93 136 113 100 100 46 56 110 33 35 35 109 45 109 113 89 109 109 46 33 32 56
split_gain=1481.59 1322.55 4774.15 1508.06 2950.09 1262.07 1220.18 1284.42 1234.19 1152.52 990.118 901.686 753.139 675.931 650.206 647.826 525.241 509.172 506.514 348.69 317.718 312.791 310.156 279.424 266.931 449.881 198.011 175.998 328.473 210.411 173.943 158.714 139.399 105.595 85.4328 77.3506 61.1516 96.7508 57.1924 185.658 25.4326 68.9215 21.3366 29.1404 19.0869 44.1483 8.60265 7.58873 5.29981 4.71269 1.30303 1.17177 0.402646 0.0552266 0.0440854 0.0241436 0.0107726
threshold=-1.1774477958679197 0.68264490365982067 -0.9408966302871703 -0.93392038345336903 0.67391496896743786 1.0000000180025095e-35 0.96727934479713451 -0.40717691183090204 1.0000000180025095e-35 1.4309349656105044 1.0000000180025095e-35 -1.0083583593368528 0.72301584482193004 1.0773512125015261 -0.66401395201683033 1.2585156559944155 1.1867547035217287 0.93866640329360973 1.4648582339286806 1.0000000180025095e-35 -0.89373230934143055 -1.353674530982971 0.68090766668319713 -1.1562416553497312 0.93093112111091625 0.874830722808838 1.074056148529053 0.7551143765449525 -0.93859621882438649 1.0000000180025095e-35 -0.95835208892822255 0.8672967553138734 1.0000000180025095e-35 1.0000000180025095e-35 -1.0580930113792417 -1.1037678718566892 1.0000000180025095e-35 -1.3149282336235044 -0.91162765026092518 -0.91046565771102894 1.2159072756767275 1.0260255932807925 -1.1849862933158872 0.92970404028892528 0.86271801590919506 0.86194938421249401 -1.117761433124542 1.2008112072944643 -1.117761433124542 -0.92272436618804921 -0.18120709806680677 -1.1222085952758787 -1.117761433124542 1.2135040163993838 0.91374465823173534 0.87657874822616588 1.0519306063652041
decision_type=2 2 2 2 2 2 2 2 2 2 2 2 2 2 2 2 2 2 2 2 2 2 2 2 2 2 2 2 2 2 2 2 2 2 2 2 2 2 2 2 2 2 2 2 2 2 2 2 2 2 2 2 2 2 2 2 2
left_child=16 3 9 5 6 11 7 -5 -8 19 14 20 30 18 -6 -12 17 21 -7 26 -2 44 -13 -15 51 -26 -3 28 31 -30 -11 -4 -14 34 53 -21 42 -38 49 -40 41 52 43 -19 45 -1 56 -44 -46 -29 -48 -23 -35 -18 -39 -55 -42
right_child=1 2 27 4 10 13 8 -9 -10 12 15 22 32 23 -16 -17 33 36 -20 35 -22 24 -24 -25 25 -27 -28 38 29 -31 -32 -33 -34 40 -36 -37 37 54 39 -41 46 -43 47 -45 48 -47 50 -49 -50 -51 -52 -53 -54 55 -56 -57 -58
leaf_value=-0.11890761042319904 -0.065293450510995554 0.031645600438322728 0.24454775221163022 0.11912209183036311 -0.060009355927667388 -0.13925070495347391 0.046511234300865976 0.14671370775694234 0.1735886008633746 0.23792711058444974 -0.079816913143505433 -0.14976761931008251 -0.087464528937746866 0.38318473534904141 0.23968799605048841 0.35292776753133859 -0.13273249603986556 0.027047465503392723 0.21542058185477991 -0.12576058967402554 0.083203999288692432 -0.10604016846375282 0.17442822492152621 0.24377870262508516 0.21002351465714242 -0.012859235344425183 -0.12022709898454249 -0.12671419243797963 -0.08425782967061253 0.20992003823625269 0.1603178344115575 -0.14055095186907487 0.42764819434886592 -0.10315947124490021 0.24519124525530175 0.25000717383686316 0.17211544488968988 -0.15441223162028764 0.29535157034895115 -0.11201632666278426 -0.10364061194995655 0.2368958352266084 0.23922575288355119 0.17929641803276333 -0.10628947450241043 0.13680083724165462 -0.14486346952830698 0.18602954246014825 -0.14443447238978577 -0.1085322539294906 -0.12223754619102467 -0.13053214736971669 -0.13048041809070748 -0.12122994396143597 -0.16669856115038975 -0.11042673082340025 -0.11086033313745419
leaf_weight=20.510919390246272 179.60314042679965 265.31552664004266 53.444515313953161 54999.972774855793 1289.6100338231772 78.795215357095003 3525.0960393212736 24336.981994830072 975.83765695989132 1085.4425907600671 50.169469323009253 29.873627878725529 99.208596875891089 156.82595438696444 76.696441285312176 111.42411691695452 1.8967999145388628 14.686931170523165 82.347393065690994 5.9602064639329901 728.46318826824427 36.549431700259447 2422.6538283899426 1728.4707786738873 160.10277784056962 208.49828028865159 126.91299853101373 536.72026630118489 465.20352356880903 25.654395382851362 393.47409708239138 13.381791967898605 5.5473359134048215 11.320747822523121 15.479350600391625 67.714610759168863 24.190003231167793 4.2978695109486571 14.220409562811254 52.459157088771462 112.66511773504317 7.4277311302721492 74.33730910718441 87.280859459191561 92.597826605662704 10.065151723101737 119.57973830401897 41.950148824602365 60.041365265846252 194.11542248912156 32.336145296692848 41.959699442610145 10.304108619689941 3.0972341299056989 9.1125536859035474 6.2294221185147762 2.1053394004702559
leaf_count=311 1010 1312 42 160132 9601 444 11901 43152 1832 578 273 148 915 95 479 133 19 62 84 98 2822 824 3453 1441 358 2996 2120 3794 3650 55 659 86 14 388 21 57 9 25 50 870 3445 2 21 35 2602 33 561 34 284 4571 222 277 64 25 39 78 38
internal_value=0 0.123152 0.0619637 0.125447 0.122203 0.176661 0.124712 0.127586 0.0740626 0.158252 -0.0155018 0.13896 0.198925 0.238573 -0.0431861 0.218575 0.0117256 0.0514903 0.0419941 0.0199983 0.0538332 0.00319711 0.170479 0.255375 0.0482911 0.0839504 -0.0174957 -0.0836607 -0.0405655 -0.0688828 0.217279 0.167433 -0.0601868 -0.0975617 0.0928839 0.219608 0.170465 0.0526797 -0.113796 -0.0251391 -0.114757 -0.0259092 0.190757 0.157367 -0.106848 -0.0347325 -0.124436 0.220035 -0.121294 -0.121885 -0.140047 -0.11913 -0.116178 -0.117178 -0.162761 -0.114014 -0.103773
internal_weight=0 94177.6 3404.78 90772.8 85365.8 5407.03 83837.9 79337 4500.93 2049.58 1527.9 3360.59 1583.67 2046.44 1366.31 161.594 1208.62 886.181 161.143 465.903 908.066 630.325 2452.53 1885.3 447.11 368.601 392.229 1355.2 557.684 490.858 1478.92 66.8263 104.756 322.442 26.7028 73.6748 255.856 37.6004 797.515 66.6796 295.739 29.0526 218.255 101.968 183.215 30.5761 266.686 116.287 152.639 730.836 151.916 78.5091 21.6249 11.2235 13.4104 9.32666 114.77
internal_count=268644 255871 18871 237000 227503 9497 217017 203284 13733 5753 10486 7433 2166 2064 10080 406 12773 7910 528 3587 3832 7685 3601 1536 4455 3354 3432 13118 3833 3705 1237 128 929 4863 143 155 225 73 9285 920 4720 454 152 97 3230 344 4266 55 2886 8365 783 1101 452 122 64 103 3483
is_linear=0
shrinkage=0.1


Tree=6
num_leaves=62
num_cat=0
split_feature=107 135 89 68 120 76 117 109 50 70 41 38 31 128 69 106 105 57 107 71 19 70 49 70 90 69 113 114 113 50 70 78 54 77 45 47 112 116 42 117 105 59 106 33 54 70 38 114 40 123 7 122 54 121 54 106 109 85 53 42 72
split_gain=1428.56 1377.28 1313.02 1644.44 1498.51 1141.58 3399.6 1527.79 630.42 893.78 611.001 752.271 552.254 529.673 437.399 399.96 386.802 383.92 365.187 336.789 281.748 151.041 320.668 143.063 129.442 379.147 121.494 104.329 147.262 100.074 136.966 97.9178 83.6436 107.881 95.7037 72.0774 68.5169 112.231 67.769 57.4129 53.0278 65.8213 38.6685 36.8433 34.7532 25.3211 11.5251 6.6294 4.14603 1.39803 1.22419 1.01247 0.859221 0.185082 0.179838 0.0908314 0.0560912 0.0154538 0.00882102 0.00385196 7.10543e-15
threshold=-0.97793811559677113 1.0000000180025095e-35 -0.18120709806680677 0.20518521219491961 -1.7202597260475156 -1.158852696418762 -1.0073515176773069 -0.91419193148612965 1.1161016821861269 -0.21977804601192472 1.076904356479645 1.0260494351387026 0.99093148112297069 1.0000000180025095e-35 -0.11555077135562895 -0.92546689510345448 -0.92097416520118702 0.98076769709587108 -1.0189744234085081 -0.48985776305198664 1.1909264326095583 -0.28052739799022669 1.1415244340896609 -0.069870855659246431 -0.22239645570516584 0.07272674143314363 -1.2335795164108274 -1.2644993066787718 -1.2335795164108274 1.1427696347236636 -0.23604150861501691 -1.010599613189697 1.1200671195983889 -0.36637245118618006 1.2244473695755007 1.2489238977432253 -1.2924645543098447 -1.4952291846275327 1.0832951664924624 -1.1429296135902403 -0.76616808772087086 0.90048572421073925 -0.92864325642585743 0.88395413756370556 1.0227890610694887 -0.28590512275695795 0.99365916848182689 -1.3231579065322874 1.0485678911209109 -2.2682263851165767 -0.25769032537937159 -2.065158367156982 1.0237770080566408 -1.8660312891006468 1.0272213220596316 -0.8439856469631194 -1.117761433124542 -0.12387732416391371 1.1697282791137698 1.153191924095154 -0.67881596088409413
decision_type=2 2 2 2 2 2 2 2 2 2 2 2 2 2 2 2 2 2 2 2 2 2 2 2 2 2 2 2 2 2 2 2 2 2 2 2 2 2 2 2 2 2 2 2 2 2 2 2 2 2 2 2 2 2 2 2 2 2 2 2 2
left_child=1 8 3 4 36 6 -6 -7 12 21 15 -12 18 20 16 -11 26 23 45 -20 -14 42 -23 -5 35 -26 54 28 -18 44 38 -28 40 34 -34 -19 37 -2 -31 -15 41 56 -10 -32 46 -1 -16 -46 -43 -38 60 -25 -29 -52 -3 -36 -4 58 -35 -59 -42
right_child=2 14 32 17 5 7 -8 -9 9 10 11 -13 13 39 29 -17 27 24 19 -21 -22 22 -24 51 25 -27 31 52 -30 30 43 -33 33 57 55 -37 49 -39 -40 -41 50 48 -44 -45 47 -47 -48 -49 -50 -51 53 -53 -54 -55 -56 -57 -58 59 -60 -61 -62
leaf_value=-0.1085983174372758 -0.12384153434576967 -0.11624421739108409 -0.10368534106830236 0.17931920327884787 -0.025849348789591248 0.10259634411140908 0.10153689253440952 0.13486933960375347 -0.12757684733315725 0.039065700302753373 -0.07350366222352174 0.15817611417215824 0.96681425499831808 0.27879351753727216 0.25945047252690379 0.17128311223722101 0.0027517114958865037 0.20189622927638459 0.052656831062008053 0.12351972392877789 -0.035219893471077582 0.062876072885902537 -0.095928103367454179 -0.14704575510104625 -0.12053505138379622 0.18012249821720949 -0.11566626015472792 -0.11280545309817316 0.66848259776158869 0.1948472164499328 0.030991851970669948 0.18082138039369475 0.17145037784626682 -0.12419687392146239 -0.12160728347863417 0.1217635212011728 -0.14763119523904375 0.021667303092797449 -0.14168414215202021 0.62948544154136399 -0.10387966174682904 0.20424666763846516 0.017557502729169758 0.19118818593619499 0.19169510624735756 0.00087766041984963785 0.3265101869326239 0.22889878703294064 0.10645707763850848 -0.17935776342159376 -0.12148028428652516 -0.17771411810138238 -0.13264183995690604 -0.13326733543369818 -0.14147289564242924 -0.14216735284417303 -0.12011836396480367 -0.12138231349949109 -0.12987525505770645 -0.12524382941272547 -0.10387966174682904
leaf_weight=90.448129426687956 157.06482497602701 12.133659619837998 2.3644053358584669 17.207584206014872 2290.1821359954774 36972.392207676545 24580.730854663998 24315.354940544814 362.00481694191694 456.48727772384882 567.27940671145916 186.13907793164253 2.8191453218460074 7.5574660077691105 59.196851909160614 458.68310011550784 23.546282298862938 2323.6345242299139 1084.0846930146217 1758.7962053269148 604.25938222743571 199.53399888239801 350.5367144048214 22.512089168652892 50.876115623861551 238.8872061111033 11.77229557558894 34.899981673806906 3.8686491996049872 8.4952303245663661 14.973651241511105 207.08320362865925 41.331630207598209 7.9428639411926252 2.7026792131364337 117.94584931433201 16.731531843543053 80.008875258266926 20.241402212530375 12.211261473596094 4.0986148416995993 7.5825624465942409 19.338322892785072 348.42480590939522 59.586665436625481 27.566390736028552 45.194925107061863 244.13283023238182 10.124743856489657 81.752793442457914 194.69769116863608 20.628683371469378 58.336439892649651 14.299919798970221 3.6831467114388934 10.484073504805563 17.094478622078896 22.779158994555477 4.172980472445488 2.9136725906282654 39.583990707993507
leaf_count=1380 1402 130 98 14 8230 94642 82803 39217 2294 2662 8061 201 8 28 37 902 158 582 4905 5357 5405 888 2266 107 188 122 114 353 6 8 61 568 22 55 28 127 78 309 107 16 114 1 68 236 23 382 15 78 50 340 1393 88 318 86 26 52 126 161 25 22 1101
internal_value=0 0.062833 0.108672 0.109447 0.107063 0.107866 0.0906799 0.1154 0.0441176 0.00662268 0.0504278 -0.016265 0.0712898 -0.0139788 0.163048 0.105333 0.0707187 0.185013 0.0893419 0.0964974 -0.0305667 -0.0718524 -0.0383231 -0.0644701 0.190526 0.127334 0.14553 -0.0747927 0.0966961 0.204044 0.167968 0.164873 -0.0762965 0.00659409 0.0966126 0.198025 -0.103859 -0.0747344 -0.0421975 0.495418 -0.1027 0.00882654 -0.120217 0.184587 0.238708 -0.0830264 0.288483 0.2216 0.148332 -0.173968 -0.119105 -0.16171 -0.125217 -0.122287 -0.122119 -0.137953 -0.118122 -0.123209 -0.126153 -0.12182 -0.10388
internal_weight=0 7343.32 91668.1 91285.9 88494.2 88158.7 26870.9 61287.7 6187.75 2600 1668.59 753.418 3587.74 626.847 1155.57 915.17 355.324 2791.69 2960.9 2842.88 607.079 931.414 550.071 60.3484 2731.34 289.763 234.672 120.651 27.4149 800.246 392.135 218.855 382.173 92.3271 54.5184 2441.58 335.558 237.074 28.7366 19.7687 289.846 37.1662 381.343 363.398 408.111 118.015 104.392 303.719 17.7073 98.4843 252.68 43.1408 93.2364 208.998 15.8168 13.1868 19.4589 37.8087 12.1158 25.6928 43.6826
internal_count=268644 37061 231583 228249 227021 224892 91033 133859 34823 17342 11826 8262 17481 5457 2238 3564 1673 1228 12024 10262 5413 5516 3154 209 1019 310 838 835 164 565 412 682 3334 365 102 709 2129 1711 115 44 2969 275 2362 297 153 1762 52 101 51 418 2694 195 671 1479 156 80 224 263 80 183 1215
is_linear=0
shrinkage=0.1


Tree=7
num_leaves=57
num_cat=0
split_feature=130 74 100 6 70 41 131 27 103 5 104 31 111 79 73 132 4 90 31 74 105 54 40 42 47 108 66 30 100 135 106 51 32 95 125 53 74 33 76 112 117 94 76 117 73 27 93 15 26 25 113 87 4 113 59 99
split_gain=1333.14 1725.57 1430.71 4067.5 1370.34 4913.96 2289.62 1343.36 922.8 1038.87 817.629 877.397 873.135 749.28 812.246 609.124 552.913 464.689 387.199 527.588 446.456 349.111 461.269 461.091 343.566 319.91 309.305 291.967 333.557 315.734 253.507 245.58 242.655 220.338 218.898 187.739 146.713 122.397 92.4372 82.5561 57.8248 36.1886 54.449 33.1412 30.0669 261.579 29.6368 74.1892 26.8716 58.3673 3.70932 2.33985 0.92545 0.732357 0.605775 0.106475
threshold=1.0000000180025095e-35 -1.045434236526489 -0.95512840151786793 0.73630842566490184 -0.29113395512104029 0.99792504310607921 1.0000000180025095e-35 1.2847673296928408 -0.91616469621658314 0.73741459846496593 -0.79424074292182911 1.0029713511466982 -1.0137441754341123 -1.2566846609115598 -0.83024233579635609 1.0000000180025095e-35 0.65243074297904979 -1.1840903162956236 1.0012521743774416 -0.91473153233528126 -0.89861702919006337 1.0546965599060061 1.0648761987686159 1.0705192089080813 1.050913453102112 -0.93064469099044789 -0.015547907445579765 1.1032702326774599 -0.96883228421211232 1.0000000180025095e-35 -0.89942991733551014 1.1098349690437319 0.96727934479713451 -0.93390104174613942 -2.4522362947463985 0.95306697487831127 -1.045434236526489 0.94801023602485668 -1.1307920813560484 -0.89983582496643055 -0.93431606888771046 -0.94247281551361073 -1.0041488409042356 -0.90609928965568531 -0.88192623853683461 1.219549357891083 -1.1526347398757932 1.2778092026710512 1.4757641553878786 1.5180262923240664 -0.92117279767990101 -1.3665561079978941 0.75471457839012157 -1.0107592940330503 0.71584805846214306 -1.0384436845779417
decision_type=2 2 2 2 2 2 2 2 2 2 2 2 2 2 2 2 2 2 2 2 2 2 2 2 2 2 2 2 2 2 2 2 2 2 2 2 2 2 2 2 2 2 2 2 2 2 2 2 2 2 2 2 2 2 2 2
left_child=1 33 15 4 5 -4 -6 10 9 -5 11 12 34 14 -13 27 -14 36 20 24 26 23 32 31 -20 -22 -19 29 -29 -3 -15 -12 -23 44 -2 -10 39 -24 -25 43 -38 52 -43 -9 48 51 -35 -48 50 -50 -1 -46 -17 -42 -41 -49
right_child=7 2 3 8 6 -7 -8 17 35 -11 21 13 16 30 -16 41 -18 18 19 -21 25 22 37 38 -26 -27 -28 28 -30 -31 -32 -33 -34 46 -36 -37 40 -39 -40 54 53 42 -44 -45 45 -47 47 55 49 -51 -52 -53 -54 -55 -56 -57
leaf_value=-0.13381264925116082 0.23054159764761747 0.11790907005939791 0.093422102052262923 0.11393835382126148 0.092299078172970422 -0.0039642031161738894 0.16976381115515757 0.27541013931590513 -0.11175931832133575 -0.064292794312870674 -0.026608463184230241 0.094295493813462708 0.13963968098887888 -0.140537132453672 -0.032526392976942785 -0.14584496049236001 -0.14273148504927374 0.15984691569912379 -0.10599762723733859 0.54158679528994813 0.47052189297693686 0.097375892821881888 -0.11410389635246597 -0.17826371413989139 0.14971792589911245 0.23659074861553428 -0.10460907721444315 0.14072008549862361 -0.063218834894264483 0.16992551877312789 0.13010170041307723 0.1259945347999902 -0.12998180989683611 0.248330476420209 0.014894856125124912 0.020323841949028559 0.083985133555396371 0.025572807780452341 -0.025149800688302366 -0.11999428803381762 -0.20114456560116409 0.24034985090845584 -0.13751706986913623 0.093095274535980654 -0.10721400986779184 0.85028715390934717 0.19754751833499554 -0.16297687662130386 0.21602157404892128 -0.12105468749748888 -0.11297540545616643 -0.18529474954927122 -0.11721712473057644 -0.15305335378419149 -0.1772959046631698 -0.14177914352672677
leaf_weight=112.76092720031738 50.273908831179142 1954.4041686579585 23724.954120777547 619.62292091920972 39045.103638676926 6628.953605113551 4228.766277294606 20.619657889008522 1159.9176511783153 692.56927633658051 209.36193905770779 1043.5525905452669 10316.30726281926 35.383414771407843 978.57183627039194 13.174134708940981 69.81439496576786 246.31356578320265 94.331323474645615 22.898282706737518 61.271752312779427 1984.1821064576507 139.07215167582035 141.00587724149227 118.59652368724346 1273.4871946498752 53.905146382749081 182.5952122323215 143.01282421313226 2896.0913144592196 1584.8166357204318 212.47995740175247 48.080404661595821 14.596523284912108 738.88847723789513 118.61640059575438 12.559739567339419 114.2977120578289 54.734418012201786 7.5666233170777542 3.4012981206178656 7.3720455169677734 7.8997983410954458 19.306233659386635 15.992840571329001 3.1563735082745543 16.666660234332088 4.9043095484375954 7.7563714571297195 15.211820108816026 352.47468389198184 5.0498083345592031 79.045348007231951 45.887947872281075 2.4397985078394413 4.5847162604331952
leaf_count=662 10 3430 72123 1705 98948 27951 4838 8 9370 4666 1565 2486 11333 226 3303 65 755 359 509 21 62 2511 440 649 225 1169 260 417 707 3129 2449 264 272 2 1601 667 28 259 143 106 14 1 49 36 372 6 17 23 7 199 7253 38 665 232 11 28
internal_value=0 0.0864036 0.0875982 0.0841098 0.0884432 0.072154 0.099869 0.11537 -0.0390428 0.0198687 0.106637 0.116145 0.130037 0.0735211 0.0329223 0.13792 0.137742 0.193434 0.205268 0.0854805 0.222546 0.0581093 0.0761348 -0.00860173 0.0364308 0.247329 0.112363 0.142813 0.0511465 0.148967 0.124191 0.050257 0.0919969 -0.0896211 0.0286327 -0.0995053 -0.00462476 -0.0510943 -0.135449 0.12288 -0.107562 -0.0976947 0.0448874 0.187251 -0.10742 0.00138288 0.134175 0.0704685 -0.112813 -0.00722384 -0.118026 -0.125952 -0.121307 -0.156372 -0.133966 -0.152735
internal_weight=0 82055.3 81502.1 76218.5 73627.8 30353.9 43273.9 19703.4 2590.73 1312.19 17720.8 14817.6 11175.3 3642.32 2022.12 5283.59 10386.1 1982.59 1870.8 235.826 1634.98 2903.21 2285.63 617.582 212.928 1334.76 300.219 5176.1 325.608 4850.5 1620.2 421.842 2032.26 553.155 789.162 1278.53 111.781 253.37 195.74 49.9323 61.849 107.491 15.2718 39.9259 512.403 24.199 40.7522 26.1557 488.204 22.9682 465.236 21.0426 92.2195 49.2892 10.0064 9.48903
internal_count=268644 237338 228731 220268 203860 100074 103786 31306 16408 6371 28266 22163 13699 8464 5789 8463 12088 3040 2605 755 1850 6103 3482 2621 734 1231 619 7683 1124 6559 2675 1829 2783 8607 1611 10037 435 699 792 161 274 780 50 44 8537 416 70 68 8121 206 7915 410 730 246 117 51
is_linear=0
shrinkage=0.1


Tree=8
num_leaves=57
num_cat=0
split_feature=130 74 101 4 70 41 100 84 75 87 31 30 4 132 107 87 76 78 135 20 74 33 101 102 5 31 30 55 32 53 95 103 80 107 95 0 69 106 3 109 30 1 109 73 27 95 61 26 72 94 76 121 95 87 4 26
split_gain=1136.32 1382.85 1224.06 3386.98 1225.82 3693.47 1626.9 992.212 1127.62 1028.77 777.976 952.443 680.503 604.35 511.243 471.952 376.819 356.992 350.127 334.789 323.109 318.505 313.059 308.407 316.907 255.922 294.58 252.052 242.622 205.399 205.364 195.92 289.232 231.11 190.623 183.707 173.732 160.212 155.798 151.659 148.201 94.2696 73.9063 27.6015 122.366 26.4985 63.5633 24.8217 48.416 20.846 57.0926 6.87548 2.6564 1.69069 0.840509 0.0594755
threshold=1.0000000180025095e-35 -1.045434236526489 -0.9521307349205016 0.70796227455139171 -0.29463970661163325 0.98939621448516857 -0.84168288111686695 -1.2898388504981992 -1.1316183805465696 -1.0327319502830503 1.0054140686988833 1.0592180490493777 0.65066945552825939 1.0000000180025095e-35 -0.8819555640220641 -1.3272397518157957 -1.2672014832496641 -1.276445686817169 1.0000000180025095e-35 1.2236452102661135 -1.0083583593368528 0.91067916154861461 -0.86322203278541554 -0.93859621882438649 0.75886595249176036 0.99996933341026317 1.0412268638610842 0.99741628766059887 0.93158400058746349 1.07544881105423 -0.99100059270858754 -0.81165030598640431 -1.3161017298698423 -0.86357545852661122 -0.93390104174613942 -0.16384142637252805 -0.17355021089315412 -0.80969133973121632 0.7356909215450288 -0.9656182825565337 1.0218847990036013 0.77819925546646129 -0.88688340783119191 -0.88192623853683461 1.219549357891083 -0.93286454677581776 0.68589752912521373 1.4757641553878786 -0.81971219182014454 -0.94247281551361073 -1.0041488409042356 -0.98301607370376576 -1.0707089900970457 -1.3665561079978941 0.75471457839012157 1.2648781538009646
decision_type=2 2 2 2 2 2 2 2 2 2 2 2 2 2 2 2 2 2 2 2 2 2 2 2 2 2 2 2 2 2 2 2 2 2 2 2 2 2 2 2 2 2 2 2 2 2 2 2 2 2 2 2 2 2 2 2
left_child=1 34 13 4 5 -4 -6 8 12 10 11 17 15 18 19 16 -2 -9 20 -12 -3 36 -16 24 -5 26 29 -13 -25 -10 -17 33 -33 -27 43 -23 41 -28 -20 -38 -37 -11 -14 47 53 -36 55 52 -49 54 -51 -44 -1 -45 -15 -47
right_child=7 2 3 23 6 -7 -8 9 25 21 14 27 42 49 22 30 -18 -19 38 -21 -22 35 -24 28 -26 31 37 -29 -30 -31 -32 32 -34 -35 45 40 39 -39 -40 -41 -42 -43 51 44 -46 46 -48 48 -50 50 -52 -53 -54 -55 -56 -57
leaf_value=-0.10937893321485744 0.12360993388136612 0.029553839462182853 0.082460055668748505 0.11447552142180875 0.12505985981011961 0.0052584751818920729 0.077975071602976162 -0.18056890368483788 -0.14476487281505027 -0.17285824068150513 0.26955934833704859 0.18010949888136385 0.16192722464653361 -0.14360658932447448 0.12646207216467611 0.15501336697295232 -0.028319885400521039 0.11484544682956484 0.16484143278480043 0.077540537579605981 0.12419173592187216 0.18017214945665228 -0.065371602597759565 -0.10472917361263534 -0.093673781818515545 -0.10449724525629862 0.089012035588645511 0.034625194003314534 0.19224089975053127 0.018561154241957329 -0.16794773609982222 -0.1574035120488953 0.063109024317883483 0.041194985290325975 0.29921319569595906 -0.194769986956212 0.10306282212353378 -0.18153900278364687 0.0032904649640894874 -0.063883563455420386 -0.041239366975969569 0.21036239243188795 -0.16410543798860383 -0.10649888508694452 0.40170453217722796 -0.13649742354724209 0.16336867488800749 -0.11843685362363564 0.19140379408052027 0.21036449421759704 -0.13537974756186283 -0.11420159168666322 -0.12527773106502027 -0.17477336912385028 -0.11543724361116832 -0.15288043565611614
leaf_weight=239.23369111306965 348.46528663486242 455.48815137706697 23236.060358500108 155.59786904603243 9195.623503446579 8450.8376174159348 36333.843280889094 41.104198802262545 84.482325607910752 42.301117595285177 101.4374362975359 3424.4345569014549 8.684768579900263 12.158544346690176 107.37851812690496 1790.0902176387608 307.13112816214561 8517.2703684456646 2218.6288890019059 865.81234128028154 1734.6696795709431 29.975881576538086 409.47281946986914 1168.84039747715 138.03093995526433 138.86528266221285 932.63394873961806 123.37548385560513 28.174088535830379 869.32951126992702 19.907949462532997 195.60679604113102 85.47215486317873 504.22790607064962 6.7828491255640975 82.585827451199293 418.84510380215943 22.41353651881218 61.34607919305563 62.539311274886131 263.39835840091109 7.5674347877502433 59.587228793650866 14.563128314912323 5.7517982125282279 3.9578436110168678 25.609172508120537 14.053968384861948 7.8659875616431227 7.5674276351928738 12.947954989969729 51.442315524443984 187.42217296734452 4.8299049362540254 82.224880184978247 5.0347219631075859
leaf_count=6080 1123 1274 70774 253 17547 33245 89775 183 372 217 119 3272 7 61 234 1832 1299 8671 1283 2062 2375 4 1468 9919 902 684 1614 202 122 1809 113 938 185 1494 2 343 488 104 364 163 751 1 268 372 6 26 18 202 4 1 85 1286 1835 38 751 24
internal_value=0 0.0760071 0.0770173 0.0740914 0.0769736 0.0618705 0.0874848 0.102581 0.0660702 0.116226 0.123109 0.131486 0.113825 0.127244 0.0547742 0.12513 0.0524345 0.113427 0.133065 0.0976779 0.10451 0.0131227 -0.0255172 -0.0752113 0.0166273 0.0224911 0.0434041 0.17505 -0.0977394 0.00409482 0.151461 -0.0207045 -0.0903488 0.00973517 -0.0873358 -0.0573114 0.062968 0.0826626 0.160495 0.0813739 -0.0778869 -0.114705 -0.119009 -0.105316 -0.00336341 0.118482 0.0830534 -0.111031 -0.00725038 -0.0992076 -0.00784644 -0.140984 -0.116363 -0.123503 -0.119066 -0.14567
internal_weight=0 83807.1 83292 78707 77216.4 31686.9 45529.5 19915.8 5418.34 14497.5 13590.3 12106.2 2585.31 4585.03 1484.1 2465.59 655.596 8558.37 4470.13 967.25 2190.16 907.213 516.851 1490.64 293.629 2833.03 1908.86 3547.81 1197.01 953.812 1810 924.172 281.079 643.093 515.105 375.96 531.253 955.047 2279.97 481.384 345.984 49.8686 119.714 473.721 25.1448 41.3846 34.6017 448.576 21.92 114.899 20.5154 111.03 426.656 19.393 94.3834 8.99257
internal_count=268644 237338 228731 222537 211341 104019 107322 31306 13128 18178 16211 12328 5928 6194 3883 4367 2422 8854 5296 2181 3649 1967 1702 11196 1155 7200 3899 3474 10041 2181 1945 3301 1123 2178 8607 1098 869 1718 1647 651 1094 218 1561 8537 416 70 68 8121 206 898 86 1554 7915 410 812 50
is_linear=0
shrinkage=0.1


Tree=9
num_leaves=58
num_cat=0
split_feature=68 120 124 130 74 100 54 84 81 75 31 4 91 35 31 57 95 110 44 70 70 28 54 95 22 106 56 112 116 121 106 41 119 108 73 105 29 69 93 109 124 89 110 111 123 89 122 109 122 77 44 94 123 50 122 111 40
split_gain=1076.89 1570.72 1384.9 1072.71 1098.6 1122.99 3168.45 793.948 938.424 900.129 634.86 594.825 540.415 383.803 251.143 244.409 166.212 133.959 150.314 112.945 95.1143 289.212 94.6609 92.4268 59.1956 58.6037 57.4578 48.4164 68.1318 113.943 37.2063 31.1664 45.3888 26.8712 25.896 21.9861 42.9048 21.9785 20.3887 12.7969 5.54001 3.753 1.49431 0.962827 0.695769 0.624853 0.492206 0.487304 0.380185 0.217365 0.205609 0.186919 0.114626 0.102879 0.0593921 0.0568816 0.00782481
threshold=0.20518521219491961 -1.7202597260475156 -2.5051798820495601 1.0000000180025095e-35 -1.045434236526489 -0.95063099265098561 0.93003705143928539 -1.2898388504981992 -1.1203569173812864 -1.1410119533538816 1.0054140686988833 0.72547054290771495 -1.2094256877899168 0.90660294890403759 1.0020954608917239 0.98076769709587108 -0.93390104174613942 -1.1799422502517698 1.1845238208770754 -0.069870855659246431 -0.078677959740161882 0.91015321016311657 1.1200671195983889 -0.22788329422473905 1.0347583293914797 -0.85715311765670765 1.0260255932807925 -1.2924645543098447 -1.4952291846275327 -1.8505250811576841 -0.98207223415374745 1.100402355194092 -1.6137631535530088 -1.0427173376083372 -0.88192623853683461 -0.78562963008880604 0.88904649019241344 0.050103329122066505 -1.1526347398757932 -1.117761433124542 -2.5051798820495601 -0.18120709806680677 -1.1774477958679197 -1.2421826124191282 -2.2682263851165767 -0.18120709806680677 -2.065158367156982 -1.117761433124542 -2.065158367156982 -0.36637245118618006 1.1867547035217287 -0.2460454776883125 -2.2682263851165767 1.1951425671577456 -2.065158367156982 -1.247933506965637 1.065985441207886
decision_type=2 2 2 2 2 2 2 2 2 2 2 2 2 2 2 2 2 2 2 2 2 2 2 2 2 2 2 2 2 2 2 2 2 2 2 2 2 2 2 2 2 2 2 2 2 2 2 2 2 2 2 2 2 2 2 2 2
left_child=1 27 22 4 16 11 -7 9 10 12 -9 -6 -5 -10 -11 19 34 18 24 -4 21 -19 25 31 -17 26 51 28 35 33 -22 -24 -33 -30 -3 39 -37 -31 -18 -1 45 44 50 55 -27 53 -45 -20 -44 -25 -42 -2 -43 -29 -47 -21 -51
right_child=2 3 15 7 5 6 -8 8 13 14 -12 -13 -14 -15 -16 17 38 20 47 43 30 -23 23 49 -26 41 -28 40 29 37 -32 32 -34 -35 -36 36 -38 -39 -40 -41 42 52 48 46 -46 54 -48 -49 -50 56 -52 -53 -54 -55 -56 -57 -58
leaf_value=-0.1056696506719097 -0.14581455149212821 -0.10944048149265971 0.14534308959745221 -0.041458907239311713 0.12587320018326784 -0.018416275671179583 0.068564806527792233 0.11841610147505739 0.063228107780999798 0.041665644108271567 0.049402879327439309 0.055584074979327075 0.12660836205277554 -0.064827251780217574 -0.023630628083467956 0.14840950432012087 0.19827661029369101 -0.1318975462194667 -0.11751208450646569 -0.11721213943354195 -0.19790483862050937 0.14916118816164553 0.13461981841885168 -0.14865215153970154 0.0054556824733668057 -0.15823601643554314 0.15934989202948552 -0.14439529139114826 -0.0066685987112370922 0.017889124104334807 0.16572484774426788 -0.15766604555509764 0.15905111327787527 -0.14651585584062685 -0.0045009306246916181 -0.12854232321311354 0.14418686334859859 0.17083762418965887 0.052759015620663152 -0.15354981381490346 -0.16019584973296674 -0.12280216336085006 -0.1593898966640398 -0.1558571233705166 -0.20111295102808402 -0.12283454072951577 -0.18302212865984704 -0.14315621923080005 -0.18523143330208591 -0.12282068426216664 -0.137099757142778 -0.11819072898043824 -0.14072520951931755 -0.1622952818368576 -0.13462590553953821 -0.13720411704934365 -0.12813587820188263
leaf_weight=114.90617012232542 7.995803551748395 411.5659591704607 17.436362441629171 212.50556070078164 4613.8626762367785 4453.1536178402603 70310.238435609266 12032.429743345827 544.76107868924737 2536.7825080621988 1499.0076887756586 1629.0556408558041 1919.1133339833468 410.36036157421768 767.17913376167417 111.54638897255063 15.169732093811033 44.018889486789703 12.769172064960005 2.0765854902565479 2.8170705065131179 217.58058630675077 41.044356226921082 3.9081942588090923 39.127273395657539 13.733069196343424 15.046602502465248 10.560573533177374 19.718041418120265 15.397506542503832 2445.0322448387742 10.54752726852894 7.9244325160980216 45.317472025752068 24.940473548136652 15.971708279103041 9.0291118919849396 24.101421073079109 26.359171010553837 108.55580538511276 7.6389760039746744 169.10117252729833 6.2506426870822898 10.423442527651789 5.2242985069751731 24.49989515542984 18.523026552051306 17.656210333108902 63.840834930539131 24.082184668630365 7.7801812291145325 3.5314000714570284 3.6451974064111701 4.6135728657245627 5.1737765073776272 4.5230063274502745 3.129665855318307
leaf_count=3307 42 8121 20 2125 5967 26062 183195 12159 915 5294 3834 5212 2754 1234 2955 51 2 150 193 40 14 94 23 19 82 60 9 50 174 74 655 52 3 266 416 204 7 12 68 501 35 1144 27 46 21 163 77 92 258 161 40 55 18 20 28 24 20
internal_value=0 0.0701226 0.128575 0.0709798 0.0658943 0.0667863 0.0633839 0.0917805 0.104009 0.0591902 0.110771 0.107532 0.109853 0.00821014 0.0265039 0.149714 -0.0852568 0.153616 0.0703476 -0.0631231 0.159181 0.101868 -0.072853 0.0130523 0.111287 -0.108524 0.0306464 -0.109716 -0.0904832 -0.0227518 0.165306 0.0860737 -0.021795 -0.104116 -0.103445 -0.11898 -0.0300455 0.111215 0.105914 -0.128929 -0.161797 -0.127815 -0.176727 -0.165382 -0.170052 -0.133331 -0.17324 -0.132394 -0.182927 -0.126599 -0.148542 -0.137352 -0.12318 -0.149838 -0.12489 -0.130914 -0.123432
internal_weight=0 101890 3252.44 101406 81484.3 81006.3 74763.4 19922.1 14486.6 5435.58 13531.4 6242.92 2131.62 955.121 3303.96 2943.53 478.035 2890.55 181.099 52.9824 2709.45 261.599 308.914 90.6364 150.674 218.278 26.5738 483.356 352.997 104.534 2447.85 59.5163 18.472 65.0355 436.506 248.463 25.0008 39.4989 41.5289 223.462 130.358 191.704 85.5106 35.5461 18.9574 44.8478 28.9465 30.4254 70.0915 31.12 15.4192 11.5272 172.746 15.1741 29.6737 6.59959 27.2119
internal_count=268644 265479 3165 260313 229043 220436 209257 31270 18142 13128 15993 11179 4879 2149 8249 1538 8607 1331 418 207 913 244 1627 278 133 1349 106 5166 4545 526 669 78 55 440 8537 4019 211 86 70 3808 621 1243 360 187 81 261 123 285 285 200 75 97 1162 70 191 64 181
is_linear=0
shrinkage=0.1


Tree=10
num_leaves=63
num_cat=0
split_feature=107 135 75 118 32 92 134 97 123 136 75 118 102 5 55 53 76 118 122 52 36 121 132 52 129 133 128 130 72 41 71 125 32 38 69 102 33 101 32 37 52 51 115 111 100 116 75 32 53 101 48 69 38 60 69 110 108 32 3 70 102 41
split_gain=1036.64 1214 1099.55 2091.7 1326.72 1222.91 1731.54 1770.78 1574.95 1151.59 1462.44 1390.12 1066.37 1141.28 1050.29 966.219 922.424 800.197 715.413 680.5 581.687 534.012 518.508 502.254 431.769 427.266 346.001 340.498 335.345 390.814 460.658 302.722 257.663 253.781 233.574 194.579 192.225 226.292 187.94 176.009 134.237 134.14 115.249 94.9646 79.4631 72.6906 67.7492 67.2684 60.6691 69.4758 48.2329 216.231 25.5179 21.4673 19.9104 16.8821 11.0019 7.69209 0.886084 0.689752 0.115074 0.0492148
threshold=-0.98478195071220387 1.0000000180025095e-35 -1.0672582387924192 -1.0213503241538999 0.96621865034103405 -1.037137985229492 1.0000000180025095e-35 -0.87276133894920338 -1.3661271333694456 1.0000000180025095e-35 -1.1018320918083189 -0.99268370866775502 -0.80959370732307423 0.75138050317764293 1.0203832387924197 1.0670287013053896 -1.1683125495910642 -1.0405349135398863 -1.2012082338333128 1.0912013053894045 0.96191033720970165 -1.3989517688751218 1.0000000180025095e-35 1.1271643638610842 1.0000000180025095e-35 1.0000000180025095e-35 1.0000000180025095e-35 1.0000000180025095e-35 -0.67493644356727589 0.91297951340675365 -0.48886720836162562 -1.7125727534294126 0.95883846282958995 0.82768124341964733 -0.10767490044236182 -0.89400038123130787 0.8754977583885194 -0.89014077186584462 0.93908119201660167 0.92642956972122203 1.0799602270126345 1.1040018200874331 -0.93624839186668385 -0.92498821020126332 -0.71345186233520497 -0.99639305472373951 -0.89825189113616932 0.88075116276741039 1.1488295793533327 -0.87344366312026966 1.1701875925064089 -0.05052507854998111 1.0260494351387026 0.80786633491516124 -0.29337522387504572 -1.1680229306221006 -1.0548204183578489 0.92989230155944835 0.67597526311874401 -0.24218203872442243 -0.9408966302871703 0.97110384702682506
decision_type=2 2 2 2 2 2 2 2 2 2 2 2 2 2 2 2 2 2 2 2 2 2 2 2 2 2 2 2 2 2 2 2 2 2 2 2 2 2 2 2 2 2 2 2 2 2 2 2 2 2 2 2 2 2 2 2 2 2 2 2 2 2
left_child=1 19 3 16 5 22 8 -8 -7 12 42 -12 13 -5 21 -14 38 27 -19 28 36 44 25 31 -23 -4 -25 -18 32 33 -31 -16 46 -30 35 47 39 -38 43 -21 61 -42 -11 -2 -6 -40 -1 60 49 -22 55 59 -50 -53 -49 57 -57 -36 -24 -52 -3 -37
right_child=2 34 4 9 14 6 7 -9 -10 10 11 -13 15 -15 23 -17 17 18 -20 20 48 24 58 26 -26 -27 -28 -29 29 30 -32 -33 -34 -35 50 40 37 -39 45 -41 41 -43 -44 -45 -46 -47 -48 54 52 -51 51 53 -54 -55 -56 56 -58 -59 -60 -61 -62 -63
leaf_value=-0.11048351602327305 -0.15102527593017712 -0.14742627093791857 0.10339738573102042 0.081103846321203085 0.19011892337286038 0.083153478265754741 0.06223481615896051 -0.063465897685674719 0.010917929763271939 -0.13878945764875397 -0.081984301735690573 0.076267167759981977 -0.059822609271458417 -0.018424947268377064 0.13083402386444637 0.049578211404149253 -0.12990326153342782 0.0637235027301985 -0.11806249126675894 -0.10672724766053819 0.20527830133641367 -0.010851511718528647 -0.14054639338450797 -0.06622684986414322 -0.12763529218426142 -0.048845673309094721 0.1144360098426291 0.049030497850568747 -0.058769620042659822 -0.035916893265169905 0.054160218359197349 0.057024586334808239 0.398380920795396 0.22314436656863645 0.084066285714224837 -0.12226532273848562 0.18068577876164826 -0.11444990244871765 -0.15442403449235609 0.0042266488470743902 0.28671311441617464 0.014342359171324814 -0.067343400634408052 0.24473295795783212 0.43539023387025666 -0.089678044509256538 0.003729843375110925 0.13787903965904016 0.025203087345399156 -0.15882247683086634 -0.13561102697096364 0.080803864244947718 0.13358022476455667 0.16571256587566971 0.22683652076729871 0.19703299591986137 0.16135942394434979 0.15787763297500201 -0.11568742382427527 -0.17929515091163661 -0.12101579815764008 -0.11560833668487087
leaf_weight=238.87969990447164 8.5810757428407687 2.5391159951686859 17641.078777164221 22517.112562673166 35.381784945726395 33016.01004070323 2795.3444868028164 1870.6950072720647 3322.0144353490323 325.72133492678404 692.84974987059832 2791.5837059356272 1085.4854937968776 1214.2391343079507 963.47420310229063 3150.087282627821 495.96814406663179 1588.3890313580632 250.65159865841269 210.0686096791178 7.5808262825012234 1980.6736534312367 17.083492003381252 401.71394490450621 376.80938727408648 186.28801441565156 144.0114413946867 135.37614142894745 39.184303076937795 772.9146776124835 2138.7491276208311 1312.8414825797081 11.408779621124266 172.53009631484747 24.335125483572483 14.003204260021446 26.894990526139736 762.9563598446548 457.38390850275755 447.61639163270593 21.061550669372082 127.79932024329901 735.81451428402215 20.663783967494965 21.07814884185791 279.28092546015978 66.365016099065542 47.405295372009277 24.804825011640787 16.977378360927105 4.4979016073048141 35.467020362615585 175.0048952549696 185.58465508371592 53.617763087153435 251.93837787210941 131.61533373594284 33.630791306495667 89.241888072341681 18.402889274060726 4.7102055251598349 53.669107422232628
leaf_count=1937 45 13 25529 58172 50 57940 6106 13222 12781 1765 2682 6390 5727 8767 1160 7792 2419 2890 1187 1372 1 6529 100 1281 1575 867 145 228 275 4253 8771 2642 2 639 44 109 29 5173 2364 5943 23 459 5517 11 4 1128 364 74 58 110 24 82 132 62 28 47 60 7 885 93 38 522
internal_value=0 0.0242063 0.0665972 0.0525426 0.0744267 0.0787123 0.069186 0.0118393 0.0765497 0.0601741 0.0134942 0.0448002 0.0677619 0.0760114 0.0261864 0.0215412 -0.0241265 0.00560028 0.038947 0.00441012 -0.0479254 -0.0222389 0.100493 0.067609 -0.0295177 0.101807 -0.0185517 -0.0915353 0.0298459 0.0397873 0.0302488 0.0882652 -0.0682124 0.170967 0.124374 0.0545224 -0.0711477 -0.1044 -0.120008 -0.0312127 -0.000208448 0.0528787 -0.0892659 0.128609 0.281686 -0.129878 -0.0856517 0.163978 0.101896 -0.0464289 0.157472 0.121786 0.120126 0.152089 0.185093 0.17719 0.184792 0.12689 -0.119682 -0.170715 -0.130266 -0.116986
internal_weight=0 6122.21 99922.9 35749.2 64173.7 58937.8 41004.1 4666.04 36338 32512.9 4545.97 3484.43 27966.9 23731.4 5235.98 4235.57 3236.29 2470.38 1839.04 5111.94 1671.9 2413.94 17933.7 2822.04 2357.48 17827.4 545.725 631.344 3440.03 3123.38 2911.66 2276.32 316.653 211.714 1010.28 324.806 1447.54 789.851 765.91 657.685 216.533 148.861 1061.54 29.2449 56.4599 736.665 305.245 108.272 224.368 24.5582 685.472 243.952 199.81 221.052 101.023 441.52 383.554 57.9659 106.325 22.9008 7.24932 67.6723
internal_count=268644 30744 237900 107084 130816 117430 90049 19328 70721 96812 16354 9072 80458 66939 13386 13519 10272 6724 4077 29059 12818 8158 27381 5228 8104 26396 1426 2647 16241 13938 13024 3802 2303 914 1685 1266 12517 5202 3548 7315 1113 482 7282 56 54 3492 2301 153 301 111 419 261 190 144 102 158 107 51 985 117 51 631
is_linear=0
shrinkage=0.1


Tree=11
num_leaves=57
num_cat=0
split_feature=68 115 124 130 74 101 3 84 81 74 31 135 91 88 35 57 95 110 47 70 70 24 54 95 106 56 22 79 38 38 58 106 37 71 73 109 111 107 110 37 110 89 110 111 110 123 33 121 123 109 77 94 123 20 52 40
split_gain=971.289 1355.97 1178.67 921.617 879.317 1007.93 2341.28 682.536 793.607 677.179 490.018 481.823 419.832 357.929 313.171 209.453 137.153 112.378 128.185 93.1358 83.9764 243.597 78.6974 77.3759 48.4026 48.7283 47.3055 41.9272 31.6938 90.9563 51.2335 31.2523 27.4063 43.8487 23.9083 20.1306 17.8318 30.6623 9.32131 7.28913 4.51937 2.94005 0.856533 0.728518 0.60358 0.482894 0.47214 0.366733 0.363963 0.352728 0.180345 0.155312 0.0952525 0.0445887 0.0164571 0.00682511
threshold=0.20518521219491961 -1.4479606151580808 -2.5051798820495601 1.0000000180025095e-35 -1.045434236526489 -0.9521307349205016 0.67909133434295665 -1.2828221917152403 -1.1203569173812864 -0.9888378083705901 1.0059850215911867 1.0000000180025095e-35 -1.2094256877899168 -1.2137181162834165 0.90660294890403759 0.98076769709587108 -0.93390104174613942 -1.1799422502517698 1.2223090529441836 -0.069870855659246431 -0.078677959740161882 1.0013405084609988 1.1200671195983889 -0.22788329422473905 -0.85715311765670765 1.0260255932807925 1.0347583293914797 -1.2277082204818723 0.97093102335929882 0.96847379207611095 0.91433131694793712 -0.98207223415374745 0.92868858575820934 -0.17763844132423398 -0.88192623853683461 -1.117761433124542 -1.2338557243347166 -0.95803669095039357 -1.1774477958679197 0.93178689479827892 -1.1774477958679197 -0.18120709806680677 -1.187501788139343 -1.2421826124191282 -1.1849862933158872 -2.2682263851165767 0.9009339213371278 -1.8763573765754697 -2.2682263851165767 -1.117761433124542 -0.36637245118618006 -0.2460454776883125 -2.2682263851165767 0.90421447157859813 1.1943440437316897 1.065985441207886
decision_type=2 2 2 2 2 2 2 2 2 2 2 2 2 2 2 2 2 2 2 2 2 2 2 2 2 2 2 2 2 2 2 2 2 2 2 2 2 2 2 2 2 2 2 2 2 2 2 2 2 2 2 2 2 2 2 2
left_child=1 28 22 4 16 11 -7 9 10 12 -9 -6 -5 -11 -10 19 34 18 26 -4 21 -19 24 32 25 51 -17 -18 29 40 44 -22 -24 -34 -3 46 38 -38 -37 -32 42 45 -1 53 -31 -26 54 -42 -45 -20 -25 -2 -43 -21 -30 -52
right_child=2 3 15 7 5 6 -8 8 14 13 -12 -13 -14 -15 -16 17 27 20 49 43 31 -23 23 50 41 -27 -28 -29 35 30 39 -33 33 -35 -36 36 37 -39 -40 -41 47 52 -44 48 -46 -47 -48 -49 -50 -51 55 -53 -54 -55 -56 -57
leaf_value=-0.10764889803906158 -0.14310955803462383 -0.10887383828121062 0.12387061441182741 -0.048386253819691354 0.06653668476949573 0.052383044652453636 -0.075609315331194846 0.10160715406364451 0.050205335522133132 -0.030716984354104221 0.035695033956752845 0.13163868671717577 0.088880840185217455 0.041537026666353748 -0.065833067509898383 0.13245771752919247 -0.14726725838524327 -0.19154985213543527 -0.11882415193018203 -0.11901808913407391 -0.18758921750527158 0.1212897994912108 0.11767414268954797 -0.1457517206055377 -0.15410156523530966 0.14303604785585974 0.0022552431732575022 0.13054577151337224 -0.10394888358411683 -0.10851920361359796 0.071342289635060313 0.14772259690863149 -0.1652325101987856 0.15859528179103119 -0.0088857645725648991 -0.147160314873194 0.051480599083573789 -0.19481391038192736 -0.19747590724725142 0.17724933095828099 -0.15403018647158817 -0.1219203983712315 -0.13845553700189814 -0.14263842167984361 -0.15777404469268624 -0.1899731735089657 -0.14142044823327402 -0.18728800189755568 -0.17229912951802018 -0.1409050983953852 -0.12191080152112546 -0.11761535561935853 -0.13846474677281664 -0.13623638310589936 -0.11934518952356113 -0.12693986320995479
leaf_weight=18.95651320554316 7.8010725136846304 394.95078528858721 17.25171609967947 240.09276822488755 2321.3423514384776 76748.149456866086 1456.2921734582633 11383.137263148092 540.12987068854272 1141.6248174719512 1251.984652608633 2227.9349000565708 3096.0369315613061 1716.3739447966218 408.47357250191271 103.39067525416613 6.4257647395133963 27.988441720604897 12.590292016044261 2.4330590777099124 2.7829191461205474 224.8469654917717 39.982692211866379 3.8124735504388836 13.439446523785593 14.272667087614536 38.219707269221544 35.14012698084116 162.56627975590527 4.7114817481487972 11.473114375025036 2337.441272854805 10.237078413367273 7.068802833557128 25.455340377055109 119.88088266551495 10.821855753660204 9.4849360734224302 53.139753438532352 14.988738331943749 4.132281273603442 164.89346279576421 17.226857654750347 5.0231175720691708 5.271649606525898 5.2066179364919654 3.4455817081034175 16.776605360209942 23.454063976183534 17.006376393139362 23.440927321091298 3.4447697233408689 3.5550097972154608 3.9386565163731575 0.69723290577530761 3.0496680382639161
leaf_count=379 42 8121 20 2222 4479 201619 11244 11562 907 3683 3217 1645 5358 3068 1228 55 36 115 191 42 14 129 28 19 60 9 81 34 5024 102 44 655 49 1 416 571 15 41 220 4 19 1144 98 24 24 21 18 74 99 91 161 55 18 22 7 20
internal_value=0 0.0557453 0.112406 0.0565051 0.0518934 0.0526614 0.0499996 0.0759087 0.0884532 0.0483986 0.0950761 0.0984193 0.0790021 0.0126752 0.000238596 0.132484 -0.0856868 0.136228 0.0577591 -0.0661564 0.141409 0.086659 -0.0759559 0.00381324 -0.108819 0.020375 0.0973169 0.087598 -0.116778 -0.0649165 0.0585059 0.147324 0.0721699 -0.032961 -0.10282 -0.130251 -0.152209 -0.0635591 -0.162614 0.131331 -0.143703 -0.12644 -0.122316 -0.160228 -0.134529 -0.164118 -0.104788 -0.180715 -0.167067 -0.131512 -0.125416 -0.1353 -0.12227 -0.129662 -0.104015 -0.12249
internal_weight=0 103447 3116.57 102994 83215.7 82753.7 78204.4 19777.9 13583.7 6194.13 12635.1 4549.28 3336.13 2858 948.603 2816.37 461.972 2764.27 171.207 52.1006 2593.06 252.835 300.205 87.5916 212.613 25.5185 141.61 41.5659 453.574 93.5372 36.445 2340.22 57.2886 17.3059 420.406 360.037 193.327 20.3068 173.021 26.4619 57.0923 187.095 36.1834 34.8489 9.98313 18.6461 166.709 20.9089 28.4772 29.5967 30.3031 11.2458 168.448 6.37172 163.264 26.4906
internal_count=268644 265479 3165 258839 227594 218987 212863 31245 16914 14331 14779 6124 7580 6751 2135 1538 8607 1331 418 207 913 244 1627 278 1349 106 136 70 6640 744 174 669 78 50 8537 5896 847 56 791 48 570 1243 477 187 126 81 5049 93 123 282 200 97 1162 64 5031 181
is_linear=0
shrinkage=0.1


Tree=12
num_leaves=56
num_cat=0
split_feature=68 118 124 130 70 41 131 107 75 103 106 111 31 52 31 103 107 47 57 42 59 35 96 29 111 47 70 54 95 48 110 41 106 36 115 37 71 107 66 116 89 110 106 122 89 120 111 123 122 77 79 123 112 20 40
split_gain=903.083 1156.43 994.432 786.277 872.234 3042.94 1594.86 2840.55 2272.61 1011.2 622.66 710.782 834.482 398.223 493.056 385.18 303.088 206.675 177.522 141.012 368.382 110.345 102.26 116.219 92.4796 104.337 78.825 70.1234 67.0271 62.1228 58.0503 52.901 43.1557 42.1421 27.6431 22.7796 37.4749 18.6728 44.1433 42.1208 4.39078 3.81472 3.27194 2.72951 1.94086 0.731088 0.459424 0.286771 0.235736 0.124832 0.0970363 0.0648647 0.0543269 0.0294245 0.00489692
threshold=0.20518521219491961 -1.5690728425979612 -2.5051798820495601 1.0000000180025095e-35 -0.29554240405559534 1.0131179094314577 1.0000000180025095e-35 -0.87324681878089894 -1.1025590300559995 -0.9173656404018401 -0.84972479939460743 -1.0137441754341123 1.0059850215911867 1.1282017827033999 1.0024179816246035 -0.88324302434921254 -0.92591315507888783 1.2125300168991091 0.98076769709587108 1.125869154930115 0.88070556521415722 0.86052545905113231 -0.67932558059692372 0.98733761906623851 -1.2421826124191282 1.2176326513290407 -0.069870855659246431 1.1200671195983889 -0.22788329422473905 1.2490189075469973 -1.1799422502517698 1.0778589844703677 -0.85715311765670765 0.88894829154014599 -1.4479606151580808 0.92868858575820934 -0.17763844132423398 -0.95951649546623219 0.44665332138538366 -1.4810335636138914 -0.18120709806680677 -1.1774477958679197 -0.98207223415374745 -2.065158367156982 -0.18120709806680677 -1.7309825420379636 -1.2421826124191282 -2.2682263851165767 -2.065158367156982 -0.36637245118618006 -0.31218685209751124 -2.2682263851165767 -1.2895500063896177 0.90421447157859813 1.065985441207886
decision_type=2 2 2 2 2 2 2 2 2 2 2 2 2 2 2 2 2 2 2 2 2 2 2 2 2 2 2 2 2 2 2 2 2 2 2 2 2 2 2 2 2 2 2 2 2 2 2 2 2 2 2 2 2 2 2
left_child=1 19 27 4 5 9 8 -8 -6 -3 11 16 -13 14 -12 -7 -5 -15 26 20 30 45 23 -20 25 -24 -4 32 35 -26 31 -1 33 -2 -23 -29 -37 38 39 -21 41 -39 -25 -32 47 -22 53 -34 -48 -30 -35 -46 -42 -28 -51
right_child=2 3 18 10 6 15 7 -9 -10 -11 13 12 -14 17 -16 -17 -18 -19 22 37 21 34 24 42 29 -27 46 28 49 -31 43 -33 44 50 -36 36 -38 40 -40 -41 52 -43 -44 -45 51 -47 48 -49 -50 54 -52 -53 -54 -55 -56
leaf_value=0.0041102999647676672 0.13564824254137259 0.073856793372522253 0.11330362377556823 -0.078617615088933723 -0.067344376784640989 0.080964996248862484 -0.089910187240076267 0.14248770709492517 0.054721583455555389 0.034059145332934145 0.067993570479451287 0.10696285585817018 0.025103474105481402 -0.00095548357738496181 0.0032198958876488398 -0.086182174944831089 0.041145705368583023 -0.21211442040458431 0.11949307771954115 -0.12727652741139536 -0.12680111773584388 0.053724862896367145 0.11743363843048067 -0.17387008727712194 0.13687747236769326 -0.143292251679382 -0.11714512871047121 0.10903590769569603 -0.1398888976154139 0.066586619719652393 -0.14038806251802835 -0.12285341053941728 -0.14650864352319412 -0.13765258680190159 0.1613665163784655 -0.15665370089907235 0.15000179263390817 -0.14734062866487682 0.10751449506186539 0.089154028327581042 -0.1198737527871384 -0.18821293316244911 -0.25892896116150593 -0.18070984521938652 -0.11941634872823358 -0.17261299885899217 -0.14435884868925905 -0.17455459404319018 -0.16378930029827127 -0.11940043177573297 -0.11761379787252482 -0.13352604281975231 -0.12905535407536259 -0.13169184478234461 -0.12382722286897532
leaf_weight=56.34999748505652 13.609337812289597 8161.3807996846735 16.987992081791162 296.77066688798368 1589.7521686004475 147.25510049052536 605.48755567893386 4003.4356523007154 37579.621955608949 29323.556398876011 6819.0221588779241 7943.9699605349451 1476.8290288019925 887.70367358624935 1419.8600898385048 2162.9425543360412 733.79950571805239 48.905779838562012 23.335601709783077 193.98180782608688 12.493089796975257 33.319916389882565 37.635905236005783 8.7023491188883799 2420.0344278570265 25.918787591159344 2.2349178809672585 38.892310097813606 3.5866580009460476 132.62479085475206 21.695956446230412 78.583145635202527 12.757368177175524 6.8200193643569946 84.010287556797266 9.743326738476755 6.743051052093505 45.962529957294464 9.1306780707091075 9.4291495606303197 19.249711355194453 45.381897464394569 9.4151933789253217 74.217009991407394 152.16866169404238 4.8303362466394892 9.6495219618082064 5.104617401957511 17.691961475647986 21.633112507872287 3.7426498243585211 3.329453006386756 9.6874547600746137 3.6804038472473621 2.8252230733633033
leaf_count=562 10 19848 20 1046 9112 366 2027 3468 83796 96685 11269 8012 3993 1677 3840 11322 1228 205 16 4195 93 85 22 39 814 255 42 28 19 145 115 1460 60 35 24 49 1 252 39 14 166 186 40 313 1144 23 46 21 77 161 61 18 58 22 20
internal_value=0 0.0499365 0.10569 0.0508044 0.0465744 0.0358593 0.0563146 0.111957 0.0497673 0.0427241 0.0688161 0.085505 0.0941304 0.0498066 0.0568307 -0.075528 0.00665777 -0.0119813 0.124269 -0.0783161 -0.0354352 0.096014 0.12779 -0.0280437 0.130259 0.0111048 -0.0619454 -0.0733844 0.0034909 0.133225 -0.11211 -0.0698316 -0.105851 0.0193241 0.130798 0.0672786 -0.0312293 -0.125407 -0.107588 -0.117244 -0.156893 -0.167647 -0.218073 -0.171589 -0.123305 -0.139575 -0.151465 -0.154524 -0.156932 -0.122467 -0.130552 -0.119718 -0.122948 -0.126196 -0.119912
internal_weight=0 103899 2988.87 103200 83573.4 39795.1 43778.3 4608.92 39169.4 37484.9 19626.9 10451.4 9420.8 9175.49 8238.88 2310.2 1030.57 936.609 2707.91 698.323 365.5 134.654 2657.67 41.4531 2616.21 63.5547 50.2448 280.956 83.4237 2552.66 230.846 134.933 197.532 24.172 117.33 55.3787 16.4864 332.823 212.542 203.411 120.282 91.3444 18.1175 95.913 173.36 17.3234 33.2568 17.862 27.3415 28.045 10.5627 155.498 28.9372 5.91532 24.4583
internal_count=268644 265479 3165 257894 226624 128221 98403 5495 92908 116533 31270 14279 12005 16991 15109 11688 2274 1882 1538 7585 2675 225 1331 95 1236 277 207 1627 278 959 2450 2022 1349 106 109 78 50 4910 4248 4209 662 438 79 428 1243 116 187 81 123 200 96 1162 224 64 181
is_linear=0
shrinkage=0.1


Tree=13
num_leaves=57
num_cat=0
split_feature=68 120 28 107 135 32 75 118 91 22 131 52 60 60 54 102 69 99 87 69 99 96 38 83 70 47 113 116 121 106 108 105 105 36 69 109 89 78 110 122 79 120 77 44 54 76 50 122 110 127 126 110 111 46 110 75
split_gain=839.521 962.635 854.181 751.685 1023.51 863.138 983.452 1466.29 1198.61 932.904 1275.22 720.671 279.149 216.277 210.431 210.375 207.116 143.796 97.0969 212.235 93.3538 102.47 71.2894 58.7103 67.2861 47.4487 43.3484 64.7104 66.3926 37.3865 20.247 16.0178 29.5853 15.7873 13.9523 5.38372 3.83129 1.26403 0.842405 0.598177 0.431146 0.358417 0.204701 0.133703 0.133619 0.106523 0.0945509 0.060464 0.0604211 0.0552131 0.0333227 0.0321029 0.0311157 0.0187942 0.0105649 0.0082387
threshold=0.20518521219491961 -1.7202597260475156 0.87573176622390758 -0.98478195071220387 1.0000000180025095e-35 0.96525639295578014 -1.0672582387924192 -1.0345887541770933 -1.0512549281120298 1.2546011805534365 1.0000000180025095e-35 1.0912013053894045 0.7256738841533662 0.74236160516738903 1.084357023239136 -0.88780227303504933 -0.10767490044236182 -0.8582049012184142 -0.20201344788074491 0.07272674143314363 -0.6622275412082671 -0.70713376998901356 0.96750560402870189 -0.20603833347558972 -0.05717791244387626 1.2489238977432253 -1.3460289835929868 -1.4952291846275327 -1.8505250811576841 -0.93593806028366078 -1.0427173376083372 -0.78562963008880604 -0.78409641981124867 0.89015731215477001 0.050103329122066505 -1.117761433124542 -0.18120709806680677 -0.3682017028331756 -1.1774477958679197 -2.065158367156982 -0.38745237886905665 -1.7255833745002744 -0.36637245118618006 1.1867547035217287 1.1200671195983889 -0.4560654461383819 1.2387821674346926 -2.065158367156982 -1.1774477958679197 -3.4196536540985103 -3.031712412834167 -1.187501788139343 -1.2365463376045225 1.2253854274749758 -1.1774477958679197 -0.40446297824382776
decision_type=2 2 2 2 2 2 2 2 2 2 2 2 2 2 2 2 2 2 2 2 2 2 2 2 2 2 2 2 2 2 2 2 2 2 2 2 2 2 2 2 2 2 2 2 2 2 2 2 2 2 2 2 2 2 2 2
left_child=1 26 23 4 11 6 7 -5 -8 10 -7 12 -3 -11 40 -13 17 -6 20 22 21 -16 -20 24 37 -22 27 31 30 -18 -29 35 -33 -21 -30 -1 38 -2 43 -40 45 46 -43 -28 -39 -4 51 54 55 -48 -50 -25 -47 -49 -38 -42
right_child=2 3 14 5 16 9 8 -9 -10 13 -12 15 -14 -15 18 -17 29 -19 19 33 25 -23 -24 41 -26 -27 36 28 34 -31 -32 32 -34 -35 -36 -37 47 44 39 -41 48 42 -44 -45 -46 52 49 53 50 -51 -52 -53 -54 -55 -56 -57
leaf_value=-0.1044315519778182 -0.19762122693755224 0.010028504194234416 -0.16846592877281868 -0.073052968241817659 0.13247590534414133 0.013176255838950997 0.075322584241490992 0.04118959367786023 0.045483575913937702 -0.092034553013612394 0.1216061110647734 0.099140137942205775 0.13476225228871838 -0.011820906577414927 -0.20524533876663587 -0.076516502001874348 0.14186478303748173 -0.007512972709210081 0.068466247973484703 0.13942141002878705 0.13294732214531904 0.074959343986182994 -0.16793522942532382 -0.10938876219006628 0.089568397448274439 0.069767716115626335 -0.15167757917539187 -0.0032894656568343882 0.014632214948155892 0.035330365687941144 -0.13882974026431147 0.10419632992332123 -0.12764506424027577 0.066895300600656044 0.13926713796205023 -0.13847271609037912 -0.11641185516701168 -0.1241528306121914 -0.14863302064092193 -0.17106305920217538 -0.12709657306684308 -0.15641867997413558 -0.12325943692875935 -0.1375419623262068 -0.15059261231871254 -0.14297948852946291 -0.12081127453613696 -0.12505862649410465 -0.13219752836121743 -0.13985654663929603 -0.14319391143589452 -0.11764016801976161 -0.15477050612361237 -0.13499789220798225 -0.12149557197668313 -0.11936029178958159
leaf_weight=88.659502259455621 7.1480216383934003 3424.8150577954948 4.4040814042091361 1162.9580258578062 110.20908189564943 6334.1417218483984 24525.82233369723 33090.146267632023 29842.196911301464 786.81374584138393 1308.7471342012286 71.824914123862982 189.33811099454761 586.83983235061169 14.42876476049423 1343.9588742889464 627.31889426335692 219.56062392890453 17.823343619704247 105.85263399779797 2119.6621871050447 136.68968172743917 44.8703125230968 4.8674352783709756 31.952695337124169 125.93172762170434 16.833684962242845 17.610815448686481 14.832008544355629 34.766471777111292 29.453483931720257 9.2668070644140261 13.55614475533366 41.891716646961868 22.772070303559303 97.608010530471802 4.9663396831601885 3.2950165271759033 14.947534710168837 58.119317248463631 2.8038227409124374 3.8277849555015564 3.6245696675032368 11.105851028114555 4.5519368220120668 4.0437922179698935 3.1275539845228195 3.4158516414463511 8.2009480893611926 2.9655025973916045 4.1504092663526491 150.62932089716196 5.0120857357978847 4.2940151244401932 23.112022675573826 2.7042094543576267
leaf_count=3307 31 15718 19 4403 165 15056 37779 96717 70976 4211 1081 110 493 1674 62 10417 348 1101 34 23 685 192 262 122 35 132 90 155 69 64 188 35 179 70 12 514 43 23 69 241 19 19 28 58 24 20 23 23 45 18 20 1203 22 23 160 34
internal_value=0 0.044849 0.0998194 0.0454688 0.0111795 0.0475836 0.0505826 0.0373108 0.0589442 0.0181068 0.0317435 -0.0071279 0.0165631 -0.0577664 0.115471 -0.0676052 0.104021 0.0392713 0.118566 0.0534384 0.124284 0.0482054 -0.100728 -0.0913738 0.00755687 0.129404 -0.104368 -0.0827149 -0.00895876 0.136271 -0.0881124 -0.112581 -0.0335105 0.118857 0.0901079 -0.12227 -0.150866 -0.167201 -0.160827 -0.166474 -0.142194 -0.11885 -0.140291 -0.146059 -0.13949 -0.155709 -0.117861 -0.12275 -0.132008 -0.130081 -0.135893 -0.117382 -0.149505 -0.130594 -0.120596 -0.123298
internal_weight=0 104090 2854.46 103659 6021.79 97637.7 88621.1 34253.1 54368 9016.54 7642.89 5029.94 3614.15 1373.65 2638.47 1415.78 991.855 329.77 2607.15 210.438 2396.71 151.118 62.6937 215.99 46.9477 2245.59 430.553 293.759 84.6684 662.085 47.0643 209.09 22.823 147.744 37.6041 186.268 136.795 14.995 101.006 73.0669 31.3193 169.042 7.45235 27.9395 7.84695 13.46 161.59 35.7882 17.8594 6.09306 12.3514 155.497 9.05588 7.70987 28.0784 5.50803
internal_count=268644 265479 3165 260313 28416 231897 209875 101120 108755 22022 16137 26738 16211 5885 1639 10527 1678 1266 1460 389 1071 254 296 1526 113 817 5166 4459 424 412 343 4035 214 93 81 3821 707 78 458 310 179 1413 47 148 47 61 1366 249 118 41 65 1325 42 46 203 53
is_linear=0
shrinkage=0.1


Tree=14
num_leaves=57
num_cat=0
split_feature=66 87 48 130 71 101 40 53 41 75 79 32 111 63 116 103 57 98 114 107 69 82 77 48 70 52 54 97 67 37 8 117 45 103 99 28 111 27 38 110 120 68 28 70 72 5 134 76 67 134 109 106 5 109 77 68
split_gain=798.911 961.425 905.675 792.75 786.265 2404.24 1679.08 2435.33 1315.09 990.62 643.395 588.208 544.522 544.039 477.448 351.617 267.197 266.472 230.688 226.31 197.288 281.615 180.154 150.007 255.479 154.307 139.93 131.244 131.354 104.545 91.1937 139.032 138.599 88.0849 76.5502 47.9061 46.7708 45.643 38.0869 34.308 33.976 31.8111 30.8292 20.2947 19.2619 10.322 10.2139 8.96726 6.34639 5.04963 3.38791 2.04462 1.07548 0.474628 0.256941 0.000714495
threshold=0.42791825532913214 -0.20201344788074491 1.2247698307037356 1.0000000180025095e-35 -0.48599921166896815 -0.86400005221366871 0.97293999791145336 1.0376586914062502 0.98162114620208751 -1.1109067201614378 -1.2638859152793882 0.96251058578491222 -1.0137441754341123 0.45128683745861059 -1.0330916643142698 -0.73919886350631703 0.92530161142349254 -0.76602277159690846 -1.4127146601676939 -0.92740294337272633 0.07272674143314363 -0.22903011739253995 -0.96700894832611073 1.2490189075469973 -0.078677959740161882 1.1472467184066775 1.1263006925582888 -0.69447717070579518 0.2336695268750191 0.93481233716011058 0.16117639839649203 -1.4858058691024778 1.2147781252861025 -0.7530938684940337 -0.6622275412082671 1.1147412657737734 -1.2421826124191282 0.9295276701450349 0.97903555631637584 -1.1774477958679197 -1.7076351046562193 0.22933921217918399 0.87573176622390758 -0.069870855659246431 -0.2882725447416305 -0.035968877375125878 1.0000000180025095e-35 -0.41302214562892908 0.27041360735893255 1.0000000180025095e-35 -1.1077131032943723 -0.84799093008041371 1.0000000180025095e-35 -1.117761433124542 -0.36637245118618006 0.048690976575016982
decision_type=2 2 2 2 2 2 2 2 2 2 2 2 2 2 2 2 2 2 2 2 2 2 2 2 2 2 2 2 2 2 2 2 2 2 2 2 2 2 2 2 2 2 2 2 2 2 2 2 2 2 2 2 2 2 2 2
left_child=2 18 3 4 5 9 13 -8 -7 -1 11 14 19 -6 -5 22 -13 -14 41 -12 40 29 26 25 33 36 38 35 -29 51 31 39 -33 -25 -27 -24 -20 -31 -4 -17 43 50 54 47 -45 -26 48 -3 -32 -28 53 -22 -52 -2 -23 -48
right_child=1 20 15 10 6 8 7 -9 -10 -11 12 16 17 -15 -16 30 -18 -19 23 -21 21 42 27 24 45 34 49 28 -30 37 46 32 -34 -35 -36 -37 -38 -39 -40 -41 -42 -43 -44 44 -46 -47 55 -49 -50 -51 52 -53 -54 -55 -56 -57
leaf_value=-0.010487628684107086 -0.10483025682891607 -0.16716235734092735 0.13106545911218667 -0.26429275801995938 0.0455608482792631 0.00089124207538404481 -0.051075831158803667 0.042791124757770409 -0.099648219717728345 0.045951648177700671 -0.076644282240935835 -0.095124122074066994 0.085189086207062378 0.10584961143412673 0.052112153456812575 -0.12168384748249705 0.005907940043121996 -0.16792122811203128 0.10793581496744152 0.033801535262874542 0.13658666840936418 -0.13742700815301007 0.10958729619053918 0.13401567639589537 0.061737772254888572 0.048018090110781703 -0.21234756113977418 -0.18572374980266892 0.026948133565721701 -0.18378304338568757 -0.18677020152655618 0.09586789883732677 -0.22469101717920972 -0.22499335311037491 0.11994399406046639 -0.054954638316186945 -0.15348561546487463 0.12126972119346047 -0.07224144166220392 -0.23494931113590356 0.081003340216516478 0.077000130260471589 0.095879506349409296 0.097974419877482621 -0.12227051396448585 0.12496909152221927 -0.11046366610770052 -0.12095256565050734 -0.229113853859372 -0.11199111416156129 -0.22054349015608171 0.11266322637657207 -0.16249957497246784 -0.13235188995840927 -0.11608443299091294 -0.11269276047577702
leaf_weight=3669.7218379545957 9.4926336128264648 72.865978769958019 19.865089133381844 47.98658362030983 2104.4974016835913 3635.4751956285909 2952.61495523341 43260.529997596517 2026.0800995081663 20385.171875646338 251.73908500000834 365.76602353528142 9094.6903143711388 5183.2488384135067 7751.3047712827101 66.429038446396589 920.62830600887537 41.785197541117668 9.071319127455352 705.36260155588388 74.96599306166172 5.9359460026025763 149.35669557750225 8.1090154945850355 41.394239857792854 155.84170736372471 63.196347903460264 43.286324128508568 88.253037113696337 17.597390531562272 65.334291316568851 51.884812451899052 18.225833274424076 43.473744384944439 2929.7483641691506 20.072466723620892 27.869286026805639 6.8002247828990212 17.186485141515732 44.762419365346432 7.9150417298078528 7.7980859726667395 7.2035642890259615 7.234900714829565 8.8017025031149387 68.602399796247482 1.6799521893262852 99.119299345649779 77.243123209103942 5.4458881840109816 5.0078141391277304 68.246725015342236 8.8047010749578458 18.436184614896778 113.43813579529524 9.9818565100431424
leaf_count=21796 341 398 7 206 6884 11823 12609 103447 9585 55899 925 1520 10012 6946 14859 1362 2021 146 16 1193 16 37 136 5 42 256 278 188 187 102 300 43 80 204 1393 54 136 5 55 196 7 11 31 9 114 33 20 951 388 57 22 38 42 105 1008 100
internal_value=0 0.0865597 0.040011 0.0408088 0.0365847 0.0235422 0.0438289 0.0367938 -0.0350884 0.0373415 0.0591368 0.0398319 0.076514 0.0884399 0.0501654 -0.0700559 -0.0228189 0.0840315 0.105786 0.00475182 -0.0442134 0.00756429 -0.00753439 0.109017 0.015065 0.113879 -0.11985 0.0319086 -0.0430369 0.0925886 -0.145829 -0.0977448 0.012536 -0.168556 0.116311 0.0900938 -0.0892897 -0.0987572 0.0367609 -0.167281 -0.121955 -0.108397 -0.105022 -0.130498 -0.0229072 0.101174 -0.202351 -0.140531 -0.20971 -0.204386 -0.143033 0.125186 -0.183544 -0.122998 -0.117146 -0.112372
internal_weight=0 3823.77 103139 102397 83217.3 29716.4 53500.9 46213.1 5661.56 24054.9 19179.3 9085.69 10093.6 7287.75 7799.29 742.204 1286.39 9136.48 3333.65 957.102 490.125 294.188 406.662 3284.11 161.579 3122.53 105.694 300.969 131.539 167.61 335.541 181.302 70.1106 51.5828 3085.59 169.429 36.9406 24.3976 37.0516 111.191 195.937 49.5394 126.578 188.022 16.0366 109.997 154.239 171.985 142.577 68.6422 41.7413 143.213 13.8125 27.9288 119.374 11.6618
internal_count=268644 5322 263322 259871 228989 99103 129886 116056 21408 77695 30882 18606 12276 13830 15065 3451 3541 10158 2606 2118 2716 1237 962 2085 284 1801 397 565 375 161 2489 1681 123 209 1649 190 152 107 62 1558 1479 521 1076 1472 123 75 808 1349 688 335 510 54 64 446 1045 120
is_linear=0
shrinkage=0.1


Tree=15
num_leaves=56
num_cat=0
split_feature=67 115 87 32 53 103 4 100 5 124 130 124 100 59 95 37 124 131 39 69 82 55 118 39 78 126 36 95 119 114 127 66 40 27 120 70 98 28 109 119 110 70 71 110 90 106 110 119 89 55 35 109 120 76 37
split_gain=744.812 812.467 764.301 624.63 648.385 2034.24 828.959 768.253 2958.05 832.831 751.019 572.979 611.288 422.178 284.329 243.578 228.237 198.425 169.581 150.533 245.413 142.367 141.629 124.261 217.895 119.18 85.7943 83.9088 67.361 115.232 62.2014 48.1336 41.2624 38.3048 36.9326 36.458 34.2097 27.4547 22.568 22.9975 20.0075 18.1485 16.7064 6.91723 6.4908 5.0761 3.96334 3.29625 0.990877 0.30085 0.225461 0.20246 0.192988 0.114312 0.0328626
threshold=0.32554949820041662 -1.439166724681854 -0.20201344788074491 0.96932920813560497 0.98159125447273265 -0.90764573216438282 0.70796227455139171 -0.85233864188194264 0.61458683013916027 -1.2250922322273252 1.0000000180025095e-35 -1.5760915279388426 -0.81749677658081044 0.8207225799560548 -0.87417659163475026 0.93747091293334972 -1.6263537406921384 1.0000000180025095e-35 1.0047691464424136 0.07272674143314363 -0.22903011739253995 1.0570046901702883 -1.578835606575012 1.0333110690116885 -0.48022264242172236 -1.8445208072662351 0.89455875754356395 -0.68611174821853627 -1.5871904492378233 -1.3428400754928587 -3.3585443496704097 0.42791825532913214 1.0714331269264223 0.9295276701450349 -1.7076351046562193 -0.069870855659246431 -0.45966246724128718 0.87573176622390758 -1.117761433124542 -1.6379724740982053 -1.1705042123794553 -0.069870855659246431 -0.19140003621578214 -1.1774477958679197 -0.19045653939247129 -0.87444883584976185 -1.1849862933158872 -1.6424508690834043 -0.32732284069061274 1.0490612983703616 0.92494735121727001 -1.1222085952758787 -1.7255833745002744 -0.43021082878112787 0.93788278102874767
decision_type=2 2 2 2 2 2 2 2 2 2 2 2 2 2 2 2 2 2 2 2 2 2 2 2 2 2 2 2 2 2 2 2 2 2 2 2 2 2 2 2 2 2 2 2 2 2 2 2 2 2 2 2 2 2 2
left_child=1 15 21 4 5 6 -3 9 -9 -6 -7 14 13 -13 25 18 -16 -14 46 34 26 35 31 28 27 -5 47 -25 30 -30 -23 -20 -26 -28 41 45 -24 52 50 40 -40 44 -43 -41 -4 -2 51 -21 -48 53 54 -1 -22 -37 -17
right_child=2 3 19 11 7 10 -8 8 -10 -11 -12 12 17 -15 16 38 -18 -19 22 20 37 23 36 24 32 -27 33 -29 29 -31 -32 -33 -34 -35 -36 49 -38 -39 39 43 -42 42 -44 -45 -46 -47 48 -49 -50 -51 -52 -53 -54 -55 -56
leaf_value=-0.10645940322860106 0.095800447369237082 0.07635261992678459 -0.16174793689149389 0.11197857310412623 0.059483201578942185 -0.044748511694991083 0.011264520871840053 0.037054117038377896 -0.13428370894370512 0.013813754799361989 0.073647447882801045 -0.054615968080641841 -0.12004850586896934 0.088384127524775286 0.047736195512499767 -0.11827510520945815 -0.095380438514935217 0.04847295580019069 -0.13251754290236162 0.12918519464374476 -0.1142869468021281 0.085655098643275626 -0.018283872295025622 -0.10338937293254256 0.075773253696920423 0.37985349536687746 -0.17668408850692741 0.097799707057901669 0.10427179138827927 -0.21196702740319395 0.1276677358036474 0.046537806822949106 -0.18591836749029456 0.10910159703022942 0.10953897262651985 -0.1405778684624783 0.13764817807367372 0.088543312059239904 -0.14131158697240867 -0.16207957238711301 -0.017646500175470176 0.087764942870834556 -0.12581116317449786 -0.21571995403659605 -0.11783804511335944 -0.0072036652999366126 -0.17469798379964685 0.096650694191924347 -0.14285465583886142 -0.16518645053882169 -0.12877403184818001 -0.12787379093989887 -0.13239851866393568 -0.12703897918864657 -0.10343615880963625
leaf_weight=23.567480668425564 8.8791088778525609 4663.99218721129 58.524952040985227 314.72258338704705 28629.353302527219 4631.5887273289263 3370.9843131424859 52904.652778100222 1027.1904862746596 4640.2511493545026 605.85182642471045 421.97081452235579 784.78551847487688 404.22531932964921 420.44663052260876 1.5082546249032009 151.61255137622356 76.697484761476517 42.727458653971553 88.566590949892998 103.39961993694305 437.58200070261955 16.472319049760699 22.284005686640739 7.0923703238368025 17.534161612391472 15.946485794149341 297.25418638810515 37.221460171043873 16.688565514981747 1810.3817909117788 23.146127645857632 40.045470386743546 6.6440619789063922 7.0084348767995825 12.796141589060429 96.451801780611277 7.0297494297847143 90.167511597275734 44.76361259073019 15.303121522068976 7.2977721225470304 7.3524082358926517 51.930759787559509 79.251461735926569 10.374346911907194 20.147495336830616 48.02807879447937 18.975537911057472 3.5255538504570714 3.645491423085331 5.4327072463929644 6.23820019327104 12.164990229532123 142.29152582306415
leaf_count=495 20 9803 319 428 59940 24855 14385 116857 4974 16516 1764 1764 3017 606 971 38 490 111 545 22 1000 317 87 69 8 7 98 220 23 74 542 85 333 6 4 66 82 31 480 199 38 14 96 217 786 20 95 36 102 19 30 47 45 77 5371
internal_value=0 0.036105 0.0854522 0.0367785 0.0380289 0.0174379 0.0490456 0.0411629 0.0337908 0.0531135 -0.0310528 -0.0116904 -0.046107 0.0153484 0.0525394 -0.0802629 0.00980607 -0.105045 -0.0042276 -0.0375656 0.00714188 0.105166 0.046926 0.108228 0.0541613 0.126115 0.0878902 0.0837692 0.116841 0.00637586 0.11949 -0.0696025 -0.146544 -0.0926322 -0.114918 -0.0659983 0.114902 -0.103034 -0.133965 -0.155663 -0.123369 -0.125238 -0.0194214 -0.190888 -0.13649 0.0402987 -0.138487 0.117746 -0.159253 -0.137842 -0.104214 -0.110471 -0.115317 -0.13398 -0.103592
internal_weight=0 103662 3151.58 103066 100474 13272.4 8034.98 87201.4 53931.8 33269.6 5237.44 2592 1687.68 826.196 904.316 596.531 572.059 861.483 246.921 435.288 275.853 2716.29 178.798 2668.55 366.676 332.257 159.185 319.538 2301.87 53.91 2247.96 65.8736 47.1378 22.5905 159.435 47.7401 112.924 116.668 349.61 202.165 105.471 152.427 14.6502 96.6944 137.776 19.2535 68.1232 136.595 39.123 28.4867 147.445 29.0002 109.638 24.9611 143.8
internal_count=268644 264399 4245 256488 249094 50807 24188 198287 121831 76456 26619 7394 5498 2370 1896 7911 1461 3128 1538 2457 1238 1788 799 1586 630 435 162 289 956 97 859 630 341 104 1219 202 169 1076 6373 934 518 1215 110 416 1105 40 739 58 197 162 5439 542 1045 143 5409
is_linear=0
shrinkage=0.1


Tree=16
num_leaves=61
num_cat=0
split_feature=71 56 130 109 79 76 131 40 110 112 31 30 39 38 12 85 102 106 75 29 32 49 52 128 43 54 101 39 25 59 111 34 74 28 103 25 3 60 34 61 32 113 98 40 71 60 44 102 3 98 114 41 88 110 130 86 109 32 106 9
split_gain=724.625 1232.88 802.343 813.744 2154.54 1554.25 2011.76 1350.09 731.904 728.344 599.902 638.005 537.79 664.054 497.423 444.2 509.464 408.868 395.932 370.841 500.832 368.594 366.42 488.609 364.029 327.902 315.669 275.432 363.236 250.036 234.727 222.795 323.4 221.276 209.646 238.287 197.713 166.712 165.895 134.779 133.704 107.873 106.249 104.302 92.8727 93.3675 133.895 89.6212 73.1911 59.3786 47.5637 41.6607 33.522 24.9123 15.6821 6.16036 4.76237 2.11882 0.396866 0.115885
threshold=-0.36455875635147089 1.0021095871925356 1.0000000180025095e-35 -0.91321679949760426 -1.2566846609115598 -1.1573590636253355 1.0000000180025095e-35 0.99526184797286998 -1.1729103922843931 -0.92254516482353199 1.0029713511466982 1.0492276549339297 1.032355844974518 0.9655955731868745 0.68367871642112743 -1.2310700416564939 -0.82314106822013844 -0.91318702697753895 -1.0165330767631529 1.0737257003784182 0.96727934479713451 1.1710487604141238 1.1351356506347658 1.0000000180025095e-35 1.1662461757659914 1.039735019207001 -0.77694463729858387 1.0405651926994326 1.2523621916770937 0.8929058611392976 -0.94835194945335377 0.86172169446945202 -0.4524358063936233 1.1572952866554262 -0.76814076304435719 1.2413719892501833 0.58844807744026195 0.80608114600181591 0.89517280459404003 0.71762397885322582 0.93044009804725658 -1.3090375661849973 -0.81864619255065907 1.0572991967201235 -0.36673863232135767 0.80608114600181591 1.1479551792144778 -0.55703827738761891 1.0000000180025095e-35 -0.8351706564426421 -1.3831616044044492 1.0893838405609133 -1.2148439288139341 -1.1774477958679197 1.0000000180025095e-35 -0.20243642479181287 -1.117761433124542 0.96646174788475048 -0.92546689510345448 0.28145506978034979
decision_type=2 2 2 2 2 2 2 2 2 2 2 2 2 2 2 2 2 2 2 2 2 2 2 2 2 2 2 2 2 2 2 2 2 2 2 2 2 2 2 2 2 2 2 2 2 2 2 2 2 2 2 2 2 2 2 2 2 2 2 2
left_child=1 2 3 4 30 6 -5 -6 24 -7 11 25 13 34 22 16 -12 -13 44 20 -15 33 37 -24 29 -4 42 28 -23 31 -1 32 -2 49 35 -10 -17 -14 53 -21 -33 -36 -16 -28 45 46 -3 50 -40 -20 -31 -49 -46 56 -47 -55 -26 -29 -35 -50
right_child=8 18 10 5 7 9 -8 -9 12 -11 15 17 14 19 26 36 -18 -19 21 39 -22 27 23 -25 38 -27 43 57 -30 47 -32 40 -34 58 41 -37 -38 -39 48 -41 -42 -43 -44 -45 52 54 -48 51 59 -51 -52 -53 -54 55 -56 -57 -58 -59 -60 -61
leaf_value=-0.16853070102581716 0.06240324077072959 -0.14294775850584265 -0.0064357670658709374 0.002804606549860757 0.033354426078009057 0.066802869297163739 0.069854016622288073 -0.012089441623012363 0.093714366255063741 -0.058609987335174876 0.011475391290783609 -0.16855259930085209 0.040355055505694237 0.07704654827990258 -0.064778767934910414 0.063681166468130837 -0.11013550011729097 0.085975479209731448 0.1764472259022587 0.072338969410318615 -0.089213841332029531 0.0030581730112846676 -0.020414384262033635 0.090317543140156373 -0.10344549748890926 0.050538798248462302 -0.026734322093732294 -0.19402220949237736 -0.11995341310752677 0.12238429561788502 -0.071770599306630892 -0.086041622916051622 -0.087143695811118055 -0.16190914677161428 -0.018479125938363452 -0.16636573922019127 -0.14958264164289642 0.088770881121625234 0.19711946952195791 0.14593836691493542 0.11778754157844125 -0.12663157389241986 0.20215264806964817 -0.19058178493857084 -0.17048445059149397 -0.17555847946391356 -0.0093440558172866745 0.082495718548087085 -0.11625642006782073 0.076520631195825667 0.046623813823083136 -0.1384103939581775 0.08070676112682787 -0.2114656799719235 -0.24815153562524112 -0.1417959089405792 -0.13675157524559259 -0.1610829921190074 -0.19548280825669945 -0.14178156925211027
leaf_weight=581.10131856426597 535.20850687567145 238.85320806503296 1253.0208678813651 16404.361571252346 23425.765336888842 14366.258121300489 6153.5529768457636 9068.1793287917972 195.30419817473739 478.50002415198833 1935.2986407931894 63.719088569283485 1384.8187458682805 7238.5772808603942 23.963274389505386 1579.4438938908279 419.08032464236021 6624.4877570997924 89.200056746602058 323.41937126591802 185.83331383764744 971.00665730237961 1473.5395635068417 546.19522908329964 77.854973751120269 5211.3492193948478 50.707382537424564 93.055594999343157 318.87926518172026 234.84171802550554 440.95342918112874 387.93423736933619 198.14049784839153 4.1610593795776394 181.18765082210302 42.980294838547707 44.701354891061783 1462.0763911567628 22.781395494937897 1078.6288340985775 35.093097731471062 187.82364356517792 39.477177500724792 166.17911723256111 6.4594180285930625 108.64991414546967 109.35408761352301 12.794495090842245 8.2558922953903657 178.39301651716232 128.0558167770505 25.656179310753942 29.928364858031273 49.735370460897684 40.983891621232033 17.039931491017342 95.707319848239422 24.715036943554878 22.883375912904739 2.2670772299170485
leaf_count=2721 2129 919 4169 56091 64799 21724 15948 31510 366 4259 4778 325 2248 8885 69 2581 1716 7561 37 554 624 2464 3121 513 3297 7007 127 406 1298 137 1521 5271 1728 19 796 201 233 1348 11 607 29 871 21 695 29 490 226 18 109 241 204 223 35 224 178 109 602 109 94 19
internal_value=0 0.0303208 0.0321832 0.0274915 0.0161756 0.0376316 0.021095 0.0206723 0.0531633 0.0627604 0.0516057 0.0618977 0.0606475 0.0748331 0.0346468 0.0175811 -0.0101714 0.0835506 -0.0429998 0.0817924 0.072885 -0.0194293 0.042108 0.00953076 -0.00642311 0.0394951 -0.0948829 -0.0407182 -0.0273521 0.0122633 -0.126785 -0.0113397 0.0219978 0.0822802 -0.0263138 0.0468027 0.0578115 0.0652199 -0.112797 0.128961 -0.0691326 -0.0735278 0.101325 -0.152275 -0.118106 -0.129379 -0.10099 0.0802689 0.0963665 0.10983 0.0956507 -0.0649037 0.0361163 -0.141781 -0.195441 -0.193687 -0.121811 -0.18711 -0.190317 -0.121756
internal_weight=0 90286.3 88049.8 70918.7 33516 37402.7 22557.9 32493.9 16412.1 14844.8 17131.1 13152.6 14580.7 9433.75 5146.96 3978.52 2354.38 6688.21 2236.52 8826.46 7424.41 1702.29 4866.63 2019.73 1831.37 6464.37 280.327 1407.66 1289.89 1557.72 1022.05 1156.38 733.349 294.638 607.296 238.284 1624.15 2846.9 273.642 1402.05 423.027 369.011 63.4405 216.886 534.229 497.841 348.207 401.348 33.3044 267.593 362.898 38.4507 36.3878 240.338 149.634 66.7753 173.562 117.771 27.0444 10.523
internal_count=268644 233488 226943 198573 100551 98022 72039 96309 35156 25983 28370 19062 21046 12904 8142 9308 6494 7886 6545 10670 9509 4668 7230 3634 14110 11176 912 4277 3762 9739 4242 9157 3857 391 2234 567 2814 3596 4371 1161 5300 1667 90 822 1877 1813 1145 582 139 278 341 241 64 4232 668 333 3899 515 113 128
is_linear=0
shrinkage=0.1


Tree=17
num_leaves=58
num_cat=0
split_feature=66 87 48 31 130 76 131 108 136 104 128 108 111 103 124 102 53 32 114 73 36 69 28 70 16 49 97 58 32 40 13 104 8 117 69 30 111 83 39 84 113 111 69 84 70 71 44 110 134 77 69 110 15 52 109 120 69
split_gain=681.516 678.876 664.236 621.226 701.832 753.479 2673.47 1211.07 701.761 549.849 536.274 571.443 382.226 289.779 272.73 214.515 205.781 217.807 158.516 147.998 179.433 143.107 202.802 134.761 264.29 115.974 106.22 105.243 83.9753 82.2395 68.5062 75.5728 67.8215 104.564 112.359 66.8986 52.6834 36.7647 29.9318 33.2849 25.3825 23.2663 22.6275 19.896 15.3019 14.4529 12.5103 10.1091 6.64114 5.25854 3.93783 2.3138 1.21885 0.740922 0.288137 0.153551 0.000921828
threshold=0.42791825532913214 -0.20201344788074491 1.2247698307037356 1.0066279768943789 1.0000000180025095e-35 -1.187070310115814 1.0000000180025095e-35 -0.8823537528514861 1.0000000180025095e-35 -0.79424074292182911 1.0000000180025095e-35 -0.91603264212608326 -1.0137441754341123 -0.73919886350631703 -1.6016277074813841 -0.83570864796638478 1.0404357910156252 0.96569797396659862 -1.4127146601676939 -0.58941176533699025 0.91384458541870128 0.07272674143314363 0.87573176622390758 -0.096949450671672807 0.6394823193550111 1.1990776658058169 -0.68565288186073292 0.96462622284889232 0.94919458031654369 1.0684995651245119 0.57531070709228527 -0.79686352610588063 0.16117639839649203 -1.4858058691024778 0.017357624135911468 1.0228350758552553 -1.2421826124191282 -0.20603833347558972 1.0170736312866213 -0.22176738083362577 -1.3090375661849973 -1.2338557243347166 0.085745137184858336 -0.1871981546282768 -0.069870855659246431 -0.19140003621578214 1.1867547035217287 -1.1774477958679197 1.0000000180025095e-35 -0.39358760416507715 -0.0098883830942213518 -1.1774477958679197 0.52830633521080028 1.174714267253876 -1.117761433124542 -1.7255833745002744 -0.10867290571331976
decision_type=2 2 2 2 2 2 2 2 2 2 2 2 2 2 2 2 2 2 2 2 2 2 2 2 2 2 2 2 2 2 2 2 2 2 2 2 2 2 2 2 2 2 2 2 2 2 2 2 2 2 2 2 2 2 2 2 2
left_child=2 18 3 4 5 6 -1 -7 10 12 11 -5 -6 19 -11 -12 28 -18 42 20 26 40 37 24 47 36 -4 -26 -10 -27 31 -21 33 41 -35 -22 -25 43 53 -40 44 -15 51 -23 49 -46 -32 -20 50 -3 -34 54 -53 -24 -2 -39 -50
right_child=1 21 13 8 9 7 -8 -9 16 14 15 -13 -14 32 -16 -17 17 -19 23 30 35 22 38 25 27 29 -28 -29 -30 -31 46 -33 48 34 -36 -37 -38 55 39 -41 -42 -43 -44 -45 45 -47 -48 -49 56 -51 -52 52 -54 -55 -56 -57 -58
leaf_value=-0.036470514866877544 -0.10418345145747453 -0.16170330832759874 0.071290216901925968 -0.047596075531416565 -0.011443899315262945 0.024097501036331823 0.073764687573609364 0.055180170621906381 -0.054180875890016682 0.059076160322484354 0.11431597477370477 0.020986125757337614 0.062077256424218463 -0.12343131753034364 -0.011987029765651677 0.0025718354574061149 0.002785346155768378 -0.12358389244389685 -0.14668805033310725 -0.12262345122838909 -0.19217253846124283 -0.05689002226558422 0.10534417083114207 0.078725723137817255 0.10458638858860841 0.11168716744092747 -0.17410270275624723 -0.11415795975359891 -0.16372097209889838 0.067502119803392352 0.16265644373885424 0.10503309747591555 -0.17412714156704995 -0.21202683477462295 0.079973427407084505 -0.038333455257917953 -0.14871326785285002 -0.11278777609788888 0.083343745242652964 -0.17783895989047072 0.056914204375757754 -0.2250380986861624 0.0551522151367414 0.11862974004217253 0.080834007252612236 -0.1243961718522632 0.087254927453039588 -0.2529424094940313 -0.10915120411237991 -0.12086558307022946 -0.20782439332131819 -0.21847284695729163 -0.14426693462505744 0.12235893816220744 -0.12793601616283001 -0.12968041892156312 -0.11173955535062
leaf_weight=6306.1609042109922 7.1029337458312503 45.846105493605137 102.0612256936729 1606.3930854070932 745.94759535603225 50419.619422446005 3378.8642283724621 16682.9286746094 94.371773059479892 759.06078505143523 681.14448090363294 4985.4953301362693 13586.461906405166 61.88805893342942 1871.8742676470429 229.73742893338203 399.15104246884584 207.18996772915125 13.729422787204383 30.647622378543019 84.201542727649212 14.907078688964248 44.261774333193898 16.441195081919432 144.20347056537867 2141.9938820339739 21.324902564287186 25.953344659879804 270.82809519767761 524.35944236908108 44.455779574811459 27.815945468842983 62.610639788210392 17.999129116535187 49.194997362792492 42.552528657019138 26.763210754841566 94.039273752830923 12.765157803893091 7.8983585424721232 8.1319760456681234 35.442436330020428 7.5004513636231414 11.394819334149361 6.7682117279618979 6.9601355958729965 43.570627711713314 25.742917574942112 1.6190775558352459 100.9856975171715 77.735957504250109 4.3433788642287237 4.5137658193707466 60.678244486451149 18.176086023449901 5.7074981750920406 9.163063704967497
leaf_count=29261 341 269 124 7492 1728 139551 8343 28272 440 852 1396 14763 18477 1405 4994 790 1099 936 101 130 400 53 29 23 100 918 95 81 1477 608 13 26 284 80 43 130 143 1004 9 76 16 153 19 5 13 109 44 111 22 1072 404 19 23 16 119 45 98
internal_value=0 0.0747414 0.0291143 0.0297848 0.0321286 0.0280619 0.0019878 0.0318252 0.0038561 0.0505371 0.0142114 0.00427316 0.0582508 -0.0671193 0.00851567 0.0861325 -0.0761131 -0.0403957 0.0916247 -0.0102184 -0.0569647 -0.0441816 0.00359057 0.0943881 0.0171423 0.100364 0.0288788 0.0712222 -0.135415 0.102998 0.0696037 -0.0143084 -0.138617 -0.0941915 0.00175602 -0.140527 -0.0621626 -0.0860218 0.0935205 -0.0164899 -0.115447 -0.160431 -0.102117 0.0191507 -0.124177 -0.0232157 0.125335 -0.215985 -0.186981 -0.133617 -0.192792 -0.136673 -0.180656 0.115182 -0.121262 -0.113754 -0.111351
internal_weight=0 3381.17 102938 102225 93750.9 76787.6 9685.03 67102.5 8474.31 16963.3 7502.77 6591.89 14332.4 712.284 2630.94 910.882 971.541 606.341 2960.82 396.63 250.14 420.344 251.652 2919.19 209.629 2709.56 123.386 170.157 365.2 2666.35 146.49 58.4636 315.653 164.525 67.1941 126.754 43.2044 126.049 125.604 20.6635 168.692 97.3305 41.6366 26.3019 160.56 13.7283 88.0264 39.4723 151.129 146.832 140.347 34.1362 8.85714 104.94 25.279 99.7468 10.7821
