tree
version=v4
num_class=1
num_tree_per_iteration=1
label_index=0
max_feature_idx=136
objective=binary sigmoid:1
feature_names=Column_0 Column_1 Column_2 Column_3 Column_4 Column_5 Column_6 Column_7 Column_8 Column_9 Column_10 Column_11 Column_12 Column_13 Column_14 Column_15 Column_16 Column_17 Column_18 Column_19 Column_20 Column_21 Column_22 Column_23 Column_24 Column_25 Column_26 Column_27 Column_28 Column_29 Column_30 Column_31 Column_32 Column_33 Column_34 Column_35 Column_36 Column_37 Column_38 Column_39 Column_40 Column_41 Column_42 Column_43 Column_44 Column_45 Column_46 Column_47 Column_48 Column_49 Column_50 Column_51 Column_52 Column_53 Column_54 Column_55 Column_56 Column_57 Column_58 Column_59 Column_60 Column_61 Column_62 Column_63 Column_64 Column_65 Column_66 Column_67 Column_68 Column_69 Column_70 Column_71 Column_72 Column_73 Column_74 Column_75 Column_76 Column_77 Column_78 Column_79 Column_80 Column_81 Column_82 Column_83 Column_84 Column_85 Column_86 Column_87 Column_88 Column_89 Column_90 Column_91 Column_92 Column_93 Column_94 Column_95 Column_96 Column_97 Column_98 Column_99 Column_100 Column_101 Column_102 Column_103 Column_104 Column_105 Column_106 Column_107 Column_108 Column_109 Column_110 Column_111 Column_112 Column_113 Column_114 Column_115 Column_116 Column_117 Column_118 Column_119 Column_120 Column_121 Column_122 Column_123 Column_124 Column_125 Column_126 Column_127 Column_128 Column_129 Column_130 Column_131 Column_132 Column_133 Column_134 Column_135 Column_136
feature_infos=[-1.8014661073684692:2.1475074291229248] [-1.7160434722900391:2.0597634315490723] [-1.6382262706756592:1.9801409244537354] [-1.5680137872695923:1.9086390733718872] [-1.5054070949554443:1.8452587127685547] [-1.4504051208496094:1.7899996042251587] [-1.4123568534851074:1.7937201261520386] [-1.3844102621078491:1.9274762868881226] [-1.3517893552780151:1.9831451177597046] [-1.3099035024642944:2.0064544677734375] [-1.2559221982955933:2.0118343830108643] [-1.1870334148406982:2.0267508029937744] [-1.1039742231369019:2.0742456912994385] [-1.0067610740661621:2.1771299839019775] [-0.90047705173492432:2.2825961112976074] [-0.78966546058654785:2.4052433967590332] [-0.67814630270004272:2.5269482135772705] [-0.65620064735412598:2.5277442932128906] [-0.66012513637542725:2.5302853584289551] [-0.66667592525482178:2.4445860385894775] [-0.66607785224914551:2.3619022369384766] [-0.67332524061203003:2.2948129177093506] [-0.78228282928466797:2.1489822864532471] [-0.70636492967605591:2.1797337532043457] [-0.68053698539733887:2.1696581840515137] [-0.92955285310745239:2.0883691310882568] [-1.274228572845459:1.9448176622390747] [-1.700652003288269:1.7314887046813965] [-1.9454965591430664:1.5598906278610229] [-2.2033448219299316:1.3473584651947021] [-2.6534385681152344:1.1459542512893677] [-2.9375624656677246:1.0691677331924438] [-2.8964071273803711:1.0182701349258423] [-2.6209216117858887:1.0153312683105469] [-1.9672813415527344:1.0222163200378418] [-1.2877312898635864:1.0559519529342651] [-0.6631239652633667:1.2523990869522095] [-0.67050886154174805:1.4357191324234009] [-0.67336314916610718:1.5244829654693604] [-0.67729061841964722:1.427788257598877] [-0.67391806840896606:1.3506048917770386] [-0.67713803052902222:1.3033223152160645] [-0.67526406049728394:1.4334096908569336] [-0.67822211980819702:1.6771683692932129] [-0.67593681812286377:1.8418123722076416] [-0.67998087406158447:1.9795904159545898] [-0.67735743522644043:1.8671952486038208] [-0.68056988716125488:1.8940913677215576] [-0.67851173877716064:2.0411467552185059] [-0.68057990074157715:2.1347439289093018] [-0.67868822813034058:2.1180493831634521] [-0.68411111831665039:2.0443711280822754] [-0.68785721063613892:2.3278176784515381] [-0.6967010498046875:2.41339111328125] [-0.68777680397033691:2.0181429386138916] [-0.66555494070053101:1.7058380842208862] [-0.63047897815704346:1.5109990835189819] [-0.79989981651306152:1.3641012907028198] [-0.9627259373664856:1.3483799695968628] [-0.83332031965255737:1.3266682624816895] [-0.62303602695465088:1.3006186485290527] [-0.62908732891082764:1.4134206771850586] [-0.65896600484848022:1.5951554775238037] [-0.67422842979431152:1.4128085374832153] [-0.89532732963562012:1.1385354995727539] [-1.1747497320175171:1.0728911161422729] [-1.3727543354034424:0.99044626951217651] [-1.6710461378097534:0.88485002517700195] [-1.7223098278045654:0.75389385223388672] [-1.8893227577209473:0.60495084524154663] [-1.6767393350601196:0.45876148343086243] [-1.6314905881881714:0.33052113652229309] [-1.5802557468414307:0.23037496209144592] [-1.5674382448196411:0.15855956077575684] [-1.3156384229660034:0.30397361516952515] [-1.5821062326431274:0.9557119607925415] [-1.8401819467544556:1.3625956773757935] [-2.0371255874633789:0.97979003190994263] [-2.1728529930114746:0.91490870714187622] [-2.2573421001434326:0.5285990834236145] [-2.3058340549468994:0.2406151294708252] [-2.3315773010253906:0.28676301240921021] [-2.3403120040893555:0.33890664577484131] [-2.3343968391418457:0.39074629545211792] [-2.3124566078186035:0.43792322278022766] [-2.2730567455291748:0.47703936696052551] [-2.2140905857086182:0.50853937864303589] [-2.1362462043762207:0.53271615505218506] [-2.0426793098449707:0.67684948444366455] [-1.9374580383300781:0.56802195310592651] [-1.8240519762039185:0.64909452199935913] [-1.7103197574615479:1.0685811042785645] [-1.6500253677368164:1.4172115325927734] [-1.5946441888809204:1.6290324926376343] [-1.530011773109436:1.6649528741836548] [-1.4861346483230591:1.6171708106994629] [-1.4531639814376831:1.5605852603912354] [-1.4315723180770874:1.5597559213638306] [-1.414076566696167:1.5645072460174561] [-1.5819015502929688:1.5648646354675293] [-2.0638625621795654:1.5687597990036011] [-2.4619696140289307:1.5680602788925171] [-2.648137092590332:1.5700795650482178] [-2.5047333240509033:1.5662518739700317] [-2.1062953472137451:1.5674868822097778] [-1.4475361108779907:1.5623446702957153] [-1.2213733196258545:1.563502311706543] [-1.1215335130691528:1.5613243579864502] [-1.168958306312561:1.5694600343704224] [-1.225764274597168:1.5734660625457764] [-1.3317182064056396:1.5835809707641602] [-1.6010570526123047:1.5861003398895264] [-2.1418814659118652:1.5904401540756226] [-2.465855598449707:1.5896482467651367] [-2.5047738552093506:1.5896980762481689] [-2.0072333812713623:1.5865405797958374] [-1.5755596160888672:1.5868538618087769] [-1.6282110214233398:1.611059308052063] [-1.6828017234802246:2.4495923519134521] [-1.7428308725357056:2.6529664993286133] [-1.8188323974609375:2.5047237873077393] [-1.9280952215194702:1.7488086223602295] [-2.1567583084106445:1.6308574676513672] [-2.3918964862823486:1.6220458745956421] [-2.6616356372833252:1.6080794334411621] [-2.9659750461578369:2.1645474433898926] [-3.3559722900390625:3.0688047409057617] [-3.8750591278076172:4.2020993232727051] [0:1] [0:1] [0:1] [0:1] [0:1] [0:1] [0:1] [0:1] [0:1]
tree_sizes=6256 6532 6037 6341 6025 5255 5906 6921 6892 6701 6892 5946 6904 6649 6591 6634 5791 6923 6569 6912 6058 6685 6953 6722 6401 6728 6656 5512 6892 5211 6926 5362 6755 6085 6744 5094 4860 6307 6326 6480 6280 6733 6578 4654 6388 5582 6898 5196 6412 6640 5699 6873 6480 6952 5054 5969 6254 6911 6361 5485 6423 6952 6959 6945 6403 6715 5162 6597 6785 5504 4752 6933 6938 6577 6764 6164 6813 5787 5984 5656 6608 6950 6709 5879 6798 6930 6645 5978 6391 4677 6932 6803 6451 6632 5717 6658 6939 5491 5366 6937 5308 5617 6233 6924 6948 5129 6889 6465 5824 6818 6665 6808 6149 6186 6477 6722 6921 6715 5081 6814 6427 6809 6962 6810 6795 5882 6490 6481 6925 6569 6505 6793 5238 6594 6894 6903 6942 6602 5796 6706 6664 6477 6236 6951 6681 6586 6812 6454 6690 6682 6322 6780 6831 6935 6373 6371 6906 6606 6799 5553 6852 5005 6938 6690 6867 6744 6322 5284 6519 6469 5880 6922 5853 6672 6796 6799 5032 4972 6800 5473 6488 6256 6340 6574 5877 6703 6639 6453 6890 5834 6686 6961 6881 6960 5074 6603 6903 6604 6642

Tree=0
num_leaves=58
num_cat=0
split_feature=130 62 110 69 102 53 4 77 41 85 41 70 122 31 75 74 68 103 4 118 33 84 110 76 85 74 32 45 119 6 126 82 52 77 109 41 77 100 104 88 124 21 52 23 123 100 34 54 128 111 36 71 71 0 0 2 1
split_gain=95999.3 66480.4 74690.9 63912.4 53407.1 41776.2 39125.9 34292.4 31301.5 30532.2 29957.5 46743.5 26450.5 25102.7 23555 16775.6 15300.1 12035.8 14868.1 10492.9 10145.4 10046.2 8808.41 8267.52 5947.3 6234.83 5912.23 5691.41 5000.47 3762.3 3670.72 3603.5 3429.04 3143.92 2926.85 5549.21 2337.04 2953.38 2110.4 2023.35 2369.1 1904.15 1851.9 977.517 826.763 757.99 546.823 542.035 435.709 1482.66 401.008 242.271 611.042 7.10543e-15 3.55271e-15 3.55271e-15 1.77636e-15
threshold=1.0000000180025095e-35 0.53238970041275036 -1.1800646781921384 -0.0098947677761316282 -0.93458211421966542 0.95065379142761242 0.75470072031021129 -1.244237422943115 0.97984135150909435 -1.3855882287025449 0.99504181742668163 -0.29112185537815088 -2.065658330917358 1.0033099651336672 -1.0872446298599241 -1.0455153584480283 0.20578390359878543 -0.91624313592910755 0.70179250836372387 -1.0329038500785825 0.92362162470817577 -1.2911161780357359 -0.9876803159713744 -1.2394357919692991 -1.2309571504592893 -1.0061898231506345 0.96676325798034679 1.0884509682655337 -1.154762268066406 0.65885117650032055 -1.3412674665451048 -1.2997464537620542 1.0788777470588686 -1.2666093111038206 -1.1221345067024229 1.0831283926963808 -1.118091285228729 -0.9656945765018462 -0.8740522265434264 -1.3259835243225095 -1.2517108917236326 1.2270830273628237 0.95614701509475719 1.5391510725021365 -1.1595733761787412 -0.82594421505928028 0.81855279207229625 1.1203954815864565 1.0000000180025095e-35 -1.2513512372970579 0.92165061831474315 -0.44646947085857386 -0.44730374217033381 0.49288079142570501 0.36410698294639593 0.4760748445987702 0.44537849724292761
decision_type=2 2 2 2 2 2 2 2 2 2 2 2 2 2 2 2 2 2 2 2 2 2 2 2 2 2 2 2 2 2 2 2 2 2 2 2 2 2 2 2 2 2 2 2 2 2 2 2 2 2 2 2 2 2 2 2 2
left_child=1 4 20 10 6 17 15 33 -9 39 14 -12 47 21 -4 43 -14 18 -6 -17 34 23 38 30 25 27 -24 -15 56 -30 -11 -27 -25 -7 45 -36 46 -38 -23 53 51 50 -19 -1 -43 -3 -8 -5 49 -22 -42 52 -41 55 -53 -2 -26
right_child=9 2 3 12 5 7 36 8 -10 13 11 -13 16 24 -16 19 -18 42 -20 -21 48 22 26 32 28 31 -28 -29 29 -31 -32 -33 -34 -35 35 -37 37 -39 -40 40 41 44 -44 -45 -46 -47 -48 -49 -50 -51 -52 54 -54 -55 -56 -57 -58
leaf_value=-3.5158735534631753 -3.5158735534631749 -0.88513407012629619 -2.1688252547300788 -3.3867528029951499 -1.8449253889270043 -3.4093120068036953 -3.4777860821841662 -1.990614508899869 -2.9990055875022406 -0.92265887061438612 -2.5512985691754366 -1.8516719929999343 -1.2643345615299011 -2.0597738619238095 -1.146038944453053 -2.6390040398617174 -0.48806635998693526 -3.4581517600730134 -3.2820065382754011 -1.0562746667286005 -0.38153668701934773 -3.1951854714472376 -0.89911356620617688 -2.336341203053796 -3.5158735534631753 -2.9644766941123342 -2.0550991604045548 -0.42772099063687774 -1.2790646149709146 -3.2263713079153735 -3.5158735534631753 -2.1304343631997602 -1.6193261266903562 -2.8660481719637758 -1.5825332223509798 -3.3145992209730126 -2.0558666625584388 -3.4088975899672418 -1.6508996974095407 -3.5158735534631753 -0.51816651422064819 -0.88513407012630019 -3.0658545348328667 -2.211967555127103 -2.9168817418557564 -3.4537094260373595 -1.6024682831766341 -2.5590774413418025 -0.32036569671223125 -3.5158735534631753 -1.817482297752913 -3.5158735534631753 -0.56954031586153908 -3.5158735534631753 -3.5158735534631753 -3.5158735534631753 -3.5158735534631753
leaf_weight=32.585541605949402 0.8648295402526881 1.1534159183502186 310.85632073879242 46.999987006187439 145.27496957778931 199.324786901474 79.667583465576172 1995.3592921495438 363.97860538959503 188.38711178302765 1189.1033128499985 4849.9749501943588 857.11960124969482 66.684154987335205 816.89535176753998 44.985459923744202 360.77635633945465 420.54643404483795 142.72087383270264 608.19999921321869 4.8404765129089364 9.461956858634947 1389.1742080450058 92.609689474105835 10.96480309963226 93.55099630355835 45.698644399642944 31.442351222038269 185.84695994853973 10.481220245361326 5.6213920116424552 116.07860624790192 238.38907289505005 228.80377912521362 26.681140780448914 60.30250871181488 37.409455180168152 28.364659667015076 136.66909599304199 2.2238473892211914 7.0855348110198992 2.3068318367004421 168.56714224815369 6.981339454650878 15.19722008705139 292.87020564079285 1.5858306884765614 9.5140545368194562 9.4956324100494385 2.1929606199264526 3.573189377784729 1.9458664655685449 1.0298688411712675 33.079729914665222 17.420137882232666 16.030233263969421 0.67950892448425371
leaf_count=1055 28 8 6015 1463 2356 6248 2550 35171 9965 1375 27407 78971 9088 1220 7727 1075 1117 13381 4298 5225 10 277 9823 1942 355 2530 834 79 1997 310 182 2203 3346 5970 365 1835 683 889 1960 72 24 16 4724 138 404 9306 22 220 14 71 57 63 4 1071 564 519 22
internal_value=-3.41258 -2.00748 -1.84813 -1.78505 -2.32015 -2.48499 -1.60085 -2.29559 -2.14618 -1.35589 -1.90108 -1.98943 -1.13252 -1.29024 -1.42796 -1.28639 -1.03438 -3.0869 -2.55709 -1.16528 -3.18766 -1.13712 -1.01126 -1.51613 -1.91554 -2.19469 -0.93593 -1.53682 -1.50244 -1.38302 -0.997797 -2.50264 -1.81994 -3.11898 -3.29288 -2.78331 -3.08248 -2.63935 -1.75089 -3.06414 -2.6196 -2.00747 -3.3459 -3.28581 -2.64912 -3.44363 -3.44119 -3.24741 -0.762237 -1.35879 -0.953744 -3.38173 -2.5833 -3.51587 -3.51587 -3.51587 -3.51587
internal_weight=0 13343.1 8838.78 8441.24 4504.36 3664.58 839.78 2787.47 2359.34 2722.5 7166.83 6039.08 1274.41 2621.74 1127.75 692.752 1217.9 877.109 287.996 653.185 397.536 2106.01 1581 525.007 515.729 307.756 1434.87 98.1265 207.972 196.328 194.009 209.63 330.999 428.129 381.007 86.9836 147.028 65.7741 146.131 100.757 50.7825 28.1628 589.114 39.5669 17.5041 294.024 81.2534 56.514 16.5291 7.03344 10.6587 22.6197 3.25372 49.9748 19.366 16.8951 11.6443
internal_count=268644 237367 143617 132008 93750 82113 11637 57354 45136 31277 120120 106378 11888 28455 13742 7493 10205 24759 6654 6300 11609 19739 12894 6845 8716 6032 10657 1299 2684 2307 1557 4733 5288 12218 11514 2200 4144 1572 2237 2822 1204 501 18105 1193 420 9314 2572 1683 95 81 81 703 76 1618 627 547 377
is_linear=0
shrinkage=1


Tree=1
num_leaves=60
num_cat=0
split_feature=131 105 85 122 107 135 106 41 134 62 28 53 76 73 32 108 31 37 101 84 109 105 70 49 75 49 106 99 75 103 75 90 110 53 103 53 27 34 32 68 56 52 30 50 107 74 30 56 30 100 130 88 130 69 62 50 65 66 18
split_gain=6821.72 11816.5 7574.44 4395.24 4226.88 6504.16 3413.19 3129.13 15185.3 6247.68 3854.72 3808.55 3047.25 2670.34 3003.77 1702.54 1444.76 1338.58 1315.2 1195.34 1220.23 1140.63 1045.86 973.888 1441.85 892.688 815.987 646.601 827.716 632.459 629.214 650.544 504.103 608.961 444.871 418.631 392.043 386.899 382.562 357.996 306.636 298.526 296.776 296.071 271.92 235.263 226.472 102.355 297.679 86.0014 50.6894 0.908424 0.270038 0.251289 0.110134 0.10493 0.0330165 0.00826434 0.000166512
threshold=1.0000000180025095e-35 -0.82379409670829762 -1.3687511086463926 -1.044820189476013 -0.98602637648582447 1.0000000180025095e-35 -0.88738510012626637 1.0274836421012881 1.0000000180025095e-35 0.56906917691230785 1.1731922030448916 1.061885714530945 -1.1871296763420103 -0.88795039057731617 0.9634377956390382 -1.0567337870597837 0.98930987715721141 0.99149885773658764 -0.85995036363601673 -1.406924784183502 -0.83583906292915333 -0.83434167504310597 -0.24413277953863141 1.0785946249961855 -1.152986943721771 1.1633380055427553 -0.83299893140792836 -0.92031693458557118 -1.0804964900016782 -0.93020600080490101 -1.152986943721771 -1.1932108402252195 -0.85556682944297779 1.0519663691520693 -0.83379402756690968 1.0644140839576723 1.2080404162406924 0.94679078459739696 0.95678168535232555 -0.19720918685197827 0.98622843623161327 1.0819906592369082 1.0610112547874453 1.0465360283851626 -0.79443156719207753 -0.96591818332672108 1.0617035627365115 0.94629672169685375 1.0533187985420229 -0.91798481345176686 1.0000000180025095e-35 -1.3197308778762815 1.0000000180025095e-35 -0.0098947677761316282 0.53238970041275036 1.0577063560485842 0.24784714728593829 0.23977191001176837 1.7193300127983095
decision_type=2 2 2 2 2 2 2 2 2 2 2 2 2 2 2 2 2 2 2 2 2 2 2 2 2 2 2 2 2 2 2 2 2 2 2 2 2 2 2 2 2 2 2 2 2 2 2 2 2 2 2 2 2 2 2 2 2 2 2
left_child=2 6 19 23 5 15 27 9 11 10 -6 -9 -11 30 18 17 -17 -4 -15 35 32 -16 29 51 41 -24 -26 28 39 -7 54 -32 43 -34 -10 42 45 49 -30 -2 44 -25 50 -21 -37 -22 -44 55 57 -29 -1 -3 -38 -42 -8 58 -57 -49 -5
right_child=1 3 4 47 7 22 13 8 34 12 -12 -13 -14 14 21 16 -18 -19 -20 20 36 -23 25 24 26 -27 -28 37 38 -31 31 -33 33 -35 -36 40 52 -39 -40 -41 53 -43 46 -45 -46 -47 -48 48 -50 -51 -52 -53 -54 -55 -56 56 -58 -59 -60
leaf_value=-0.11255877364148725 -0.12302123569206205 0.9748001658844001 -0.047090407960086872 -0.10314560654274091 0.13442096919767857 0.70423736512396828 -0.10339518485111399 0.11764570079970649 0.32867827180501535 0.25290674701617405 0.29946409527453238 0.29396961595015353 0.42777690611912161 0.51286330743625663 -0.036346392211935488 0.21501972016046444 0.016065595747305886 0.29563082344969088 0.31433937266244011 0.94008438017063733 0.22211802557536756 0.35144264815033988 0.70904990652429678 -0.11160706198784963 0.35131286825127767 0.38295382623524687 0.6600373425793068 0.22728414497629187 0.25628713308711898 0.19232423177983249 0.32950754164052076 0.017383247531174928 -0.09010041081905111 0.21194121972740085 -0.078763638977643269 -0.0055704848297836815 -0.11113295703050073 0.41320665867732675 0.73780006966376277 0.11955266113237809 -0.1158705862091936 0.53104165216172339 0.79385665281231077 -0.078868216538306335 0.1827198478940516 0.35961901131965995 -0.10773223713057281 -0.10794304423883477 1.2482993845070869 -0.097735824231376403 -0.014296017227076786 0.95468676097187855 -0.13137533587883757 -0.12805418085241826 -0.11042674788134117 -0.13092009218832165 -0.11066887997520646 -0.11569745119878834 -0.10480713403386864
leaf_weight=326.70442024618387 92.386950448155403 41.901801824569702 751.1414561457932 61.969860449433327 1522.0234806556255 29.667297752574086 75.740885633975267 1298.0094192773104 27.38472518697381 1208.1050140745938 20150.877163812518 21779.806612441316 5689.2505948282778 1048.5967581309378 196.87745641171932 1623.8560248296708 470.82651515863836 134.34483620524406 489.48215957731009 2.8863974735140792 389.8337062522769 123.38496222347021 239.16382430866361 31.122641183435917 90.979765981435776 129.35028262622654 1451.4190758168697 8.4870902821421605 220.37118539586663 129.41370527073741 140.48027356341481 127.27567405439913 93.875444911420345 231.01668948680162 1250.8661051094532 129.38270915299654 11.271679356694221 16.886493235826492 17.835497666150331 178.17439056932926 47.51284309476614 9.4149236381053907 6.7061004079878312 236.47568987682462 188.35616672039032 182.7772409170866 4.7663114964962006 2.3065700307488433 2.2375507205724716 199.72458193637431 62.548334434628487 48.384619876742363 15.867558941245079 26.298867166042328 31.555054634809494 0.84101363271475094 18.832231149077415 3.4007876589894295 0.60908572748303313
leaf_count=4538 1039 15 12159 2096 9463 59 2416 7991 142 4833 90818 58159 16021 5594 1946 10839 4778 168 3243 4 997 523 168 367 378 231 1630 23 636 1144 881 905 905 781 10921 1125 179 27 54 1327 512 38 20 1932 940 472 99 34 4 2374 1713 27 138 159 378 5 229 29 18
internal_value=0 0.402906 0.278053 0.60792 0.284758 0.178452 0.281068 0.291804 0.265469 0.314254 0.287874 0.284052 0.397148 0.342548 0.39167 0.121158 0.1703 0.00490681 0.449685 0.0846065 0.149096 0.113054 0.502083 0.644575 0.626355 0.594589 0.641827 0.0939672 0.156403 0.287792 0.099149 0.181142 0.0435385 0.124668 -0.0700348 -0.0101414 0.248407 -0.0471512 0.29234 0.0367224 0.0633958 0.0376493 -0.081995 -0.066581 0.106048 0.266008 0.419284 -0.0720568 0.270701 -0.0844874 -0.0967691 0.964021 -0.122968 -0.120212 -0.105463 -0.105164 -0.111535 -0.112564 -0.103162
internal_weight=0 4730.68 58390.4 1763.42 56434.1 3507.76 2967.26 52926.3 24356.1 28570.3 21672.9 23077.8 6897.36 2233.39 1858.34 2980.17 2094.68 885.486 1538.08 1956.28 1164 320.262 527.595 1673.22 1582.94 368.514 1542.4 733.866 508.768 159.081 375.052 267.756 564.254 324.892 1278.25 792.276 599.75 225.098 238.207 270.561 391.551 40.5376 400.725 239.362 317.739 572.611 11.4724 90.1971 7.94491 208.212 389.253 90.2864 27.1392 73.8117 107.296 82.2522 19.6732 5.70736 62.5789
internal_count=268644 26236 242408 4870 227894 29546 21366 198348 77213 121135 100281 66150 20854 15886 11306 27944 15617 12327 8837 14514 5408 2469 1602 2455 2413 399 2008 5480 3056 1203 4580 1786 3622 1686 11063 9106 1786 2424 690 2366 2736 405 6370 1936 2065 1469 119 2415 67 2397 6251 42 317 671 2794 2348 234 63 2114
is_linear=0
shrinkage=0.1


Tree=2
num_leaves=55
num_cat=0
split_feature=84 109 75 134 107 135 76 131 73 117 76 130 112 42 32 99 55 134 112 41 76 29 92 74 103 50 130 65 32 111 10 94 30 55 54 108 116 106 30 30 1 122 55 22 4 69 76 41 130 56 88 2 86 130
split_gain=3910.33 3551.52 3688.44 3038.5 3219.77 2871.23 2541.75 3684.27 3610.87 2803.46 2804.04 2561.85 2668.11 2198.4 1564.33 1494.24 2419.09 2095.26 1416.78 1272.04 1047.63 897.474 792.916 758.417 543.855 510.639 475.439 468.904 431.916 392.786 270.507 193.032 168.319 267.058 425.878 243.276 151.145 140.459 219.939 95.6801 44.9101 69.0913 42.2782 18.2772 1.51254 0.158108 0.219563 0.126801 0.0466167 0.0356544 0.0169887 0.00714579 0.000195219 3.24144e-05
threshold=-1.4121547937393186 -0.92926716804504383 -0.97556695342063893 1.0000000180025095e-35 -0.98488998413085926 1.0000000180025095e-35 -1.1571823954582212 1.0000000180025095e-35 -0.86664766073226918 -1.0068179965019224 -1.1900773644447324 1.0000000180025095e-35 -0.92183604836463917 1.1260495185852053 0.96676325798034679 -0.8327772021293639 0.95280078053474437 1.0000000180025095e-35 -0.94597327709197987 1.0256385207176211 -1.1629408597946165 1.1400860548019411 -1.1130793690681455 -1.0399137735366819 -0.83379402756690968 1.1584129333496096 1.0000000180025095e-35 0.36911045014858251 0.96941670775413524 -0.92392069101333607 0.71599033474922191 -0.91226813197135914 1.0286213755607607 1.0159868597984316 1.0527557730674746 -0.80433726310729969 -0.92111429572105397 -0.79978942871093739 1.04575651884079 1.0471131801605227 0.45093084871768957 -1.0162734389305113 1.0061445236206057 1.287173390388489 0.79916211962699901 -0.0098947677761316282 -1.1287584900856016 0.99728342890739452 1.0000000180025095e-35 0.98622843623161327 -1.1684920191764829 0.44417338073253637 -1.405557334423065 1.0000000180025095e-35
decision_type=2 2 2 2 2 2 2 2 2 2 2 2 2 2 2 2 2 2 2 2 2 2 2 2 2 2 2 2 2 2 2 2 2 2 2 2 2 2 2 2 2 2 2 2 2 2 2 2 2 2 2 2 2 2
left_child=29 2 15 4 5 -4 7 9 23 20 -11 12 14 -6 -8 16 21 26 -10 -18 -3 -2 -14 -9 27 28 -17 -5 -13 36 -27 -19 44 37 35 -35 47 38 -34 -26 43 -42 -39 -38 45 46 -31 51 -36 -47 -43 -1 53 -46
right_child=1 6 3 24 13 -7 11 8 18 10 -12 25 22 -15 -16 17 19 31 -20 -21 -22 -23 -24 -25 39 30 -28 -29 -30 32 -32 -33 33 34 48 -37 40 42 -40 -41 41 50 -44 -45 52 49 -48 -49 -50 -51 -52 -53 -54 -55
leaf_value=-0.1335902236793321 -0.10826011144215925 -0.00051166169593910187 0.10244245249986933 -0.11702447802614879 0.26736667427539734 0.31964378216039058 0.29054011126486434 -0.078420156891437914 0.039932336771195863 0.15003916695645675 0.24006909574052263 0.21757981081675207 0.26347402240020629 0.1845138328082814 0.19102587824243369 0.060062923832340215 0.25929725357507005 -0.012402858223604587 0.35312895445078263 0.099911129191461875 0.14915171191779128 0.10872197816884235 -0.080257253345962842 0.15331927443434623 -0.1151883550275036 0.10112145835233631 0.17613661406995701 0.51882945228646771 -0.066517825489490173 -0.11533543747912248 0.32458239699361902 -0.11439446641076244 0.20877760369630824 -0.11629422334559043 -0.11639727441874259 0.43663542545633227 0.2030248016865297 -0.099599657634225694 -0.046459304834662513 0.058557954361605005 0.22812864229229901 -0.13217453121528153 -0.016768844920477567 0.31127193273028253 -0.10280111184508932 -0.13265732113263845 -0.13416741263063278 -0.11178085437545185 -0.10335965325341144 -0.12479100417354774 -0.14155869223508216 -0.13896588368644536 -0.10475173530662635 -0.10292999176560713
leaf_weight=3.7337792813777906 206.09522547572851 966.92637595906854 3408.9374642968178 19.569211039692163 10038.606687050313 740.88911641761661 16506.895567644387 196.5333509016782 151.45353980362415 5987.3255267459899 8193.9540077783167 7327.3070627078414 89.421096961945295 4702.7990061547607 1746.7985431365669 569.16719685122371 2236.2848855406046 319.50722810253501 3116.2891874425113 645.19162708520889 905.90184958651662 2539.0829014219344 268.97638894431293 501.81666546314955 326.35955578833818 576.3033389300108 928.61568918824196 28.47069875895977 53.907301630824804 46.847459489479661 59.792464584112167 442.65881025791168 53.432361466810107 9.7323581501841527 31.445362120866776 43.625107400119305 25.454467304050922 194.56876558065414 91.703127030283213 35.104181684553623 15.799506783485411 3.8195674847811452 90.183413138613105 40.283980753272772 79.294093541800976 8.2073034457862395 7.1338593661785117 2.397359460592269 3.0045265182852736 19.338890373706818 3.8978699333965814 7.3218703456223011 0.53285476937889953 25.885632544755936
leaf_count=22 1958 5509 28803 191 30913 1662 42817 4241 1121 31041 28938 8198 130 8837 5714 3130 7488 2457 6519 3465 3040 14481 4048 3650 2934 1244 1439 27 368 483 69 4317 232 103 269 92 29 2072 1156 285 13 26 733 24 2992 46 48 28 108 123 20 39 16 936
internal_value=0 0.218373 0.189644 0.213189 0.219031 0.14122 0.235115 0.208195 0.294503 0.186872 0.202059 0.255355 0.275712 0.240935 0.281017 0.132023 0.159609 0.0633415 0.338613 0.223609 0.0718817 0.092432 0.00550459 0.0881019 -0.0563019 0.208096 0.132028 0.259812 0.215505 -0.00286516 0.122127 -0.0716386 -0.0294844 -9.7525e-05 0.158822 0.335782 0.179835 -0.0325579 0.0475074 -0.0983147 0.226931 0.108334 -0.0733664 0.269358 -0.110736 -0.12097 -0.117824 -0.132629 -0.11526 -0.127135 -0.136914 -0.13715 -0.102843 -0.102833
internal_weight=0 73836.9 27187.3 19300.7 18891.2 4149.83 46649.6 20020.2 3966.09 16054.1 14181.3 26629.4 18612.1 14741.4 18253.7 7886.6 5626.65 2259.95 3267.74 2881.48 1872.83 2745.18 358.397 698.35 409.504 8017.31 1497.78 48.0399 7381.21 807.644 636.096 762.166 704.935 517.695 87.8074 53.3575 102.708 429.888 145.135 361.464 89.2554 23.5169 284.752 65.7384 187.24 81.5275 53.9813 13.453 34.4499 27.5462 7.71744 11.0556 105.713 105.18
internal_count=268644 259034 112387 73652 70215 30465 146647 84059 15531 68528 59979 62588 52709 39750 48531 38735 27392 11343 7640 10953 8549 16439 4178 7891 3437 9879 4569 218 8566 9610 1313 6774 9409 4765 572 195 201 4193 1388 3219 112 59 2805 53 4644 700 531 89 377 169 46 61 3944 3928
is_linear=0
shrinkage=0.1


Tree=3
num_leaves=58
num_cat=0
split_feature=80 108 75 110 106 134 76 115 136 75 112 92 54 128 52 130 31 31 30 43 54 94 31 32 118 116 97 132 45 114 78 110 2 130 10 123 53 129 117 35 122 125 34 82 109 83 3 103 28 85 62 67 75 126 69 68 57
split_gain=2523.96 2200.93 2934.98 2013.53 1630.71 1872.44 1553.73 2663.57 2127.73 1945.96 1453.89 1328.23 2326.23 1263.11 1188.12 1118.11 1025.41 1006.94 1122.64 837.682 788.432 649.656 634.471 517.57 446.393 384.468 350.619 339.045 308.498 269.779 252.082 430.212 243.416 178.555 150.2 157.647 158.462 150.627 144.231 117.016 105.124 92.8029 153.266 53.248 66.8037 42.1449 56.7868 10.3797 148.578 0.878942 0.524456 0.499733 0.0451258 0.0402798 0.0215407 0.0175902 0.00760517
threshold=-1.4226499795913694 -0.91573056578636158 -0.96132495999336232 -1.1731657385826109 -0.95368751883506764 1.0000000180025095e-35 -1.1579017043113706 -0.98682537674903859 1.0000000180025095e-35 -1.1032708287239072 -0.92183604836463917 -1.037638187408447 1.0148995518684389 1.0000000180025095e-35 0.93770989775657665 1.0000000180025095e-35 0.96185374259948742 1.0011527538299563 1.0489811897277834 1.1663079857826235 1.0756879448890688 -1.0656118392944334 0.99096420407295238 0.95354124903678905 -1.1350994706153867 -1.01620477437973 -0.91533657908439625 1.0000000180025095e-35 1.137816905975342 -0.97674280405044545 -1.3991318345069883 -0.83514192700386036 0.67382320761680614 1.0000000180025095e-35 0.64031860232353222 -1.2096335887908933 1.0716409683227541 1.0000000180025095e-35 -0.9083767533302306 0.95571777224540722 -1.0756869316101072 -1.4112837314605711 0.92475858330726635 -1.4267107248306272 -0.82851994037628163 -1.431158661842346 0.55059537291526806 -0.77185463905334462 1.1304761767387392 -1.3855882287025449 0.53238970041275036 -0.002432264387607574 -1.0942378044128416 -1.4514856934547422 -0.0098947677761316282 0.13109150528907779 0.94438666105270397
decision_type=2 2 2 2 2 2 2 2 2 2 2 2 2 2 2 2 2 2 2 2 2 2 2 2 2 2 2 2 2 2 2 2 2 2 2 2 2 2 2 2 2 2 2 2 2 2 2 2 2 2 2 2 2 2 2 2 2
left_child=30 2 13 19 22 -6 7 15 14 -10 11 16 -13 17 -9 29 -8 18 -2 20 -4 32 -5 26 -19 -17 -15 -21 -25 -3 41 33 -12 43 52 36 -36 -37 49 -23 -40 42 -1 51 -45 47 -47 50 -49 -35 -43 -32 54 -48 -33 56 -44
right_child=1 6 3 4 5 -7 10 8 9 -11 21 12 -14 23 -16 25 -18 24 -20 27 -22 39 -24 28 -26 -27 -28 -29 -30 -31 31 34 -34 38 35 37 -38 -39 40 -41 -42 45 55 44 -46 46 53 48 -50 -51 -52 -53 -54 -55 -56 -57 -58
leaf_value=0.36121741822626169 0.025272866834600862 -0.097453071458362225 0.0017865529455670011 0.13653488514413845 0.19896002425693757 -0.061877422575227041 0.18071393626347154 -0.063435700845928256 -0.056059051157009279 0.1386255680406345 0.25162308209611639 0.051930122668778382 0.19283445573952676 0.24891985621635879 0.19095569694349829 -0.14910231628875231 0.23631084805445221 -0.096655732686237283 0.13881240935211103 0.28651458241678235 0.15338367254134175 -0.10915739437508205 0.020291567169622021 0.46176537845234411 0.047457388630015251 0.16018976865904566 -0.026637305853126549 -0.12427391451492951 0.034228157525145443 0.030382947016936807 -0.14565469666749384 -0.11507231609716351 -0.057102555339488631 -0.11260054987757635 -0.11870409007240257 0.1645336318419249 0.40829792941155346 -0.11749744884637991 0.27039411644767547 0.31224952601159162 -0.12457503871021865 -0.10256017555583521 -0.11741024217521333 -0.11736838579963778 0.31717009621772185 0.28077455678164748 -0.12939027169996739 -0.11190975007197466 0.4317466219394856 -0.15575774635226711 -0.11280713684447614 -0.11665696551330207 -0.13114631391969392 -0.10670175093615722 -0.12249718687367069 -0.12425628087770818 -0.11195934789569362
leaf_weight=12.432377755641939 1123.8085877392441 488.55137789621949 531.30894794873893 1777.8248128928244 15104.360391192138 280.32022621482611 4502.5512042213231 185.56087952107191 642.033312946558 2562.8901278562844 104.40777565538883 1274.8095135390759 14481.084539979696 181.77772852405906 17303.287654995918 43.73387822508812 12603.202994911 242.87623474001884 3869.0565690584481 21.850348271429539 968.32179997488856 228.66633275896311 638.06305249780416 140.6821353957057 1868.4137006029487 496.03531411290169 61.899261474609375 249.66062037274241 19.178105279803276 249.33246043697 6.1780678145587435 8.0839780382812023 33.808862658217549 8.9275551438331622 6.6602913234382859 123.28517817147076 39.804761469364166 22.373540624976158 35.322589991614223 6.7848626673221579 8.3273697979748231 76.981822494417429 7.7133906297385675 7.6348200365900993 6.5930077731609327 7.0078114252537471 0.87918849661946286 55.351165829226375 5.5291156545281401 10.010541990399359 142.23356143012643 156.23734821006656 3.552082620561122 7.113948741927743 7.5627992209047088 2.9479482322931281 3.8308308497071266
leaf_count=26 6286 3842 6297 10828 34799 2467 8504 2285 5796 9034 89 5437 28683 473 59124 220 24649 2096 16911 129 4250 3975 5205 301 10156 947 424 4229 95 1291 33 97 193 245 58 821 73 208 42 6 108 3168 65 67 2 5 8 1115 16 44 1750 1380 23 152 53 19 45
internal_value=0 0.175057 0.151706 0.172096 0.182213 0.194207 0.186511 0.165878 0.17453 0.0996249 0.200152 0.202382 0.181434 0.0985506 0.188257 0.0257531 0.221677 0.0887747 0.113257 0.0704111 0.0996738 0.004011 0.105834 0.270651 0.0308791 0.13513 0.178922 -0.0912149 0.410475 -0.054257 -0.00653616 0.0417552 0.176106 -0.0500848 0.145724 0.172375 0.332758 0.121213 0.0950528 -0.097014 0.195043 -0.0741027 0.103621 -0.10151 0.0839916 -0.0903182 0.0729811 -0.099064 -0.0625352 -0.135413 -0.109209 -0.11776 -0.120971 -0.109197 -0.118661 -0.117362 -0.115601
internal_weight=0 82286.1 27079.4 19571.7 17800.6 15384.7 55206.7 21971.4 20693.8 3204.92 33235.3 32861.6 15755.9 7507.69 17488.8 1277.65 17105.8 7104.16 4992.87 1771.14 1499.63 373.668 2415.89 403.537 2111.29 539.769 243.677 271.511 159.86 737.884 772.575 450.554 138.217 239.231 211.323 192.124 46.4651 145.659 62.5881 235.451 43.65 322.021 26.9245 176.643 14.2278 295.097 15.0009 280.096 60.8803 18.9381 219.215 162.415 19.1989 7.99314 15.6468 14.4922 11.5442
internal_count=268644 259021 104946 68204 53299 37266 154075 82539 76239 14830 71536 67273 34120 36742 61409 6300 33153 35449 23197 14905 10547 4263 16033 1293 12252 1167 897 4358 396 5133 9623 3254 282 1921 1333 1160 131 1029 439 3981 150 6369 155 1482 69 6214 165 6049 1131 289 4918 1413 173 160 150 129 110
is_linear=0
shrinkage=0.1


Tree=4
num_leaves=55
num_cat=0
split_feature=84 107 132 72 31 136 51 5 102 102 134 68 94 49 69 28 108 54 1 32 102 111 56 106 68 37 38 114 111 78 80 58 76 116 127 126 33 33 113 1 42 3 110 62 75 40 131 25 19 69 74 69 106 80
split_gain=1801.55 1494.21 2098.49 1521.52 1357.19 1392.73 1646.41 1377.45 2923.14 1288.98 4616.67 2290.94 1118.2 759.953 1105.35 740.969 439.481 338.804 327.781 297 288.864 245.544 239.92 502.497 281.419 233.993 188.843 162.029 147.39 310.581 169.637 114.291 107.071 104.459 88.9219 103.315 83.5925 38.6759 284.373 25.3687 58.3314 9.88005 2.47113 0.398516 0.151174 0.0925599 0.0714947 0.0613068 0.0430197 0.0418424 0.0347977 0.0214557 0.0179049 0.0129226
threshold=-1.4121547937393186 -0.99050459265708912 1.0000000180025095e-35 -0.51355427503585804 1.0066061019897463 1.0000000180025095e-35 1.0464307665824892 0.7508789896965028 -0.94327664375305165 -0.8156587779521941 1.0000000180025095e-35 -0.01349217491224408 -0.98476672172546376 1.0950120091438296 -0.20976358652114865 1.3438633084297182 -1.0705524682998655 1.0165449380874636 0.41833357512950903 0.96625229716300975 -0.90707439184188832 -0.92392069101333607 0.96053552627563488 -0.94616717100143422 0.094404850155115141 0.94149675965309154 1.0086101293563845 -1.0887141823768614 -0.84927880764007557 -1.3991318345069883 -1.427972078323364 0.81180045008659374 -1.2797980308532713 -0.92111429572105397 -1.5846295952796934 -1.4589772224426267 0.8725193738937379 0.86326399445533764 -1.3090282678604124 0.45093084871768957 0.98943528532981884 0.49918155372142797 -1.1800646781921384 0.53238970041275036 -1.0886129736900327 0.99705147743225109 1.0000000180025095e-35 1.1908180117607119 1.2250947356224062 -0.0098947677761316282 -1.0111374258995054 -0.0098947677761316282 -0.82961183786392201 -1.4137054085731504
decision_type=2 2 2 2 2 2 2 2 2 2 2 2 2 2 2 2 2 2 2 2 2 2 2 2 2 2 2 2 2 2 2 2 2 2 2 2 2 2 2 2 2 2 2 2 2 2 2 2 2 2 2 2 2 2
left_child=21 2 3 13 7 6 20 9 15 11 -11 -3 -8 14 -2 -9 26 31 -15 -19 -6 33 23 36 -25 -18 -5 -10 44 34 32 -7 -31 45 35 -30 -4 38 -24 41 52 -35 -39 -36 46 53 49 -32 51 -23 -48 -46 -41 -1
right_child=1 4 22 16 5 17 12 8 27 10 -12 -13 -14 18 -16 -17 25 19 -20 -21 -22 28 37 24 -26 -27 -28 -29 29 30 47 -33 -34 39 43 -37 -38 42 -40 40 -42 -43 -44 -45 48 -47 50 -49 -50 -51 -52 -53 -54 -55
leaf_value=-0.13140271151676083 0.061518100003199433 0.14957888468727853 -0.015995712379588536 -0.066094463316640484 0.063422069961688629 0.0026233149863378988 0.17618940565393354 0.031122043958584696 0.16439474595997533 0.15024462934557017 0.0050316111696421294 0.20040633987494211 0.065790110473383331 -0.024456978076477801 0.28226600937623497 0.19165422124410272 0.13737578203696429 0.10417856558201111 1.140887159099562 -0.069651018075961454 -0.05205003069111544 -0.1136248782502535 -0.10617443123620887 0.097023189828987888 0.50217216631064687 0.27173253983407208 0.14615608908776309 -0.11004648290714399 -0.037137430598910753 0.34238781347828678 -0.13846182902154075 -0.12609820655184995 0.096209882308884304 0.14831948223264668 -0.10231160664226871 0.24755918904235574 -0.1181660127565767 -0.1039582344694991 0.43560639630373388 -0.13256638828102654 0.18725930955262471 0.22342147729464801 -0.12379185915360845 -0.11119191974672989 -0.11684558326431448 -0.11712705560175118 -0.11430421540417729 -0.11370057947905528 -0.13348076617515567 -0.12197545012839875 -0.12788802914141886 -0.12471213932822256 -0.14215971401547242 -0.13921262658823294
leaf_weight=2.9932782873511306 920.50850832462311 25771.937485953793 149.67484142631292 57.657241247594357 376.09793580695987 93.197501489892602 3324.487195705995 386.12677499093115 22.257261272519827 34510.221618609503 2337.6668376773596 13519.836006803438 1267.1603876054287 619.05911731347442 301.0095026679337 1125.9586972631514 156.82496096007526 264.6546790599823 2.4231042563915244 156.36081957817078 510.96984581835568 117.51427278481424 90.139687061309814 137.20564506016672 19.592640370130539 747.32640482485294 153.561816919595 643.09568609669805 73.66132483817637 19.691667057573795 1.029137473553418 265.42996374517679 171.86170091480017 28.143565274775028 88.158106477931142 15.414133554324506 172.21975485607982 84.557818418368697 10.854836940765379 3.1324313282966614 16.396841388195753 46.391351841390133 244.35022212564945 118.41112250834703 5.5400734171271333 3.0666798390448085 2.7920786719769239 35.215919679030776 3.978995580226182 6.3233326300978652 5.8102576881647092 9.2663513422012329 5.1344343051314372 7.2507178261876097
leaf_count=18 6001 80375 1492 642 2326 601 12146 2046 298 72711 14336 26730 5989 4683 1656 1442 543 841 10 850 3728 1253 2527 720 133 649 311 7646 647 114 7 1582 1015 34 3998 30 1690 2671 13 20 11 19 1646 1629 52 32 30 467 26 45 36 60 28 39
internal_value=0 0.145865 0.0850776 0.125903 0.148644 0.103832 0.121628 0.152225 0.0738025 0.154468 0.141032 0.167068 0.145722 0.0701122 0.115915 0.150661 0.218089 -0.0212214 -0.0199134 0.03962 -0.00309231 -0.00608871 -0.0478484 0.000848833 0.147648 0.248428 0.0882173 -0.100866 -0.0288962 -0.00377352 0.0839796 -0.092647 0.121517 0.130678 -0.0713885 0.0121281 -0.0706588 -0.102072 -0.0479441 0.165974 0.0780619 0.195064 -0.118693 -0.107402 -0.115854 -0.132368 -0.114664 -0.114404 -0.124249 -0.114051 -0.123479 -0.121769 -0.138525 -0.136931
internal_weight=0 88442.4 3866.97 2958.37 84575.5 6258.36 5478.72 78317.1 2177.44 76139.7 36847.9 39291.8 4591.65 1843 1221.52 1512.09 1115.37 779.643 621.482 421.015 887.068 787.178 908.595 478.693 156.798 904.151 211.219 665.353 674.668 523.443 227.798 358.627 191.553 112.509 295.645 89.0755 321.895 429.903 100.995 99.1986 24.6637 74.5349 328.908 206.569 151.225 13.3107 132.44 36.2451 18.7854 123.838 8.60234 14.8064 8.26687 10.244
internal_count=268644 259034 25387 14495 233647 28063 24189 205584 11432 194152 87047 107105 18135 12350 7657 3488 2145 3874 4693 1691 6054 9610 10892 4035 853 1192 953 7944 9409 7907 1603 2183 1129 201 6304 677 3182 6857 2540 112 59 53 4317 5627 1502 89 1364 474 138 1298 66 112 48 57
is_linear=0
shrinkage=0.1


Tree=5
num_leaves=48
num_cat=0
split_feature=95 107 76 115 131 73 31 135 76 134 5 102 91 108 31 50 128 37 130 116 41 72 69 104 57 131 107 50 63 104 124 124 0 98 29 33 75 74 74 99 101 33 92 89 31 52 71
split_gain=1330.41 1166.42 1206.87 2691.61 1915.68 1439.33 1287.13 1195.35 1144.25 1026.49 986.269 2419 1231.08 789.434 827.855 757.791 666.705 629.904 564.17 432.631 411.897 375.234 361.123 279.236 369.413 211.492 134.707 93.6693 187.99 80.8576 73.3829 175.008 67.8824 56.7059 70.1075 13.3173 2.51208 0.634829 0.569348 0.59787 0.309563 0.122703 0.121994 0.107533 0.0249149 0.0112524 0.00641945
threshold=-1.079441964626312 -0.98141938447952259 -1.1714527606964109 -0.97348159551620472 1.0000000180025095e-35 -0.85775542259216297 1.0062697529792788 1.0000000180025095e-35 -1.1964809894561765 1.0000000180025095e-35 0.7508789896965028 -0.94327664375305165 -1.0984751582145689 -1.0584452152252195 0.99073782563209545 1.1014870405197146 1.0000000180025095e-35 0.99149885773658764 1.0000000180025095e-35 -0.99686932563781727 1.0249796509742739 -0.52078258991241444 -0.11557613313198088 -0.8809216022491454 0.88363787531852733 1.0000000180025095e-35 -0.99835133552551258 1.1440879106521609 0.54367902874946605 -0.85218724608421315 -1.1786206960678098 -1.1819869875907896 -0.19887571036815641 -0.96926444768905629 1.120942294597626 0.91143453121185314 -1.1368656158447263 -1.0573570728302 -1.0455153584480283 -0.99037575721740712 -0.94959020614624012 0.8968317210674287 -1.2248967885971067 -1.2021704912185667 1.0081589818000796 1.0392974615097048 -0.47655053436756128
decision_type=2 2 2 2 2 2 2 2 2 2 2 2 2 2 2 2 2 2 2 2 2 2 2 2 2 2 2 2 2 2 2 2 2 2 2 2 2 2 2 2 2 2 2 2 2 2 2
left_child=30 7 3 18 8 -6 10 13 -5 16 12 -12 -4 17 15 -15 -8 26 25 -20 -11 -16 23 24 -9 -3 -2 35 -29 -25 31 44 -19 36 41 -24 37 42 43 -40 -39 -35 -32 -38 -1 -46 -43
right_child=1 2 6 4 5 -7 9 22 -10 20 11 -13 -14 14 21 -17 -18 32 19 -21 -22 -23 27 29 -26 -27 -28 28 -30 -31 33 -33 -34 34 -36 -37 38 40 39 -41 -42 46 -44 -45 45 -47 -48
leaf_value=-0.12603270521149298 -0.080230308123271685 -0.12909881185511224 0.16537157185011259 0.065171945551360563 0.060748361122060071 0.19868011455265344 0.048471518972150567 0.073066518263557104 0.12395343808646278 0.21880098321857117 0.13499347642983792 -0.10508782112843723 0.13133021753067275 0.14578870592153279 -0.041209557859158759 0.051187236292555997 0.18668427884680036 0.31006328711971576 -0.14329534614512535 0.13769653692662101 -0.11824356841643838 0.28959034267107114 0.19916424071001448 -0.12476364793697044 0.39620553235488298 -0.0044494202421151837 0.032696186621302033 -0.14332407811037659 0.18933178218375227 0.075095367702189553 -0.1021760453312564 0.73733026553098757 0.13354489001562619 -0.14273750144733935 0.34220141197110321 0.24732814140819445 -0.14522155876480863 -0.13035835015141226 -0.15965999733170022 -0.11755620384537112 -0.11318994887102907 -0.10747823183582346 -0.10761535590027844 -0.1059924176836415 -0.10953841260476981 -0.12037331763619241 -0.11536851126982897
leaf_weight=3.2664359733462334 625.39951452799141 562.80252913013101 13599.537680530921 6710.5992408432066 959.65408279933035 3574.4103569090366 3518.4888804741204 148.61535087227821 6538.080945359543 604.03947928920388 1533.2128861378878 577.85493527166545 48547.870931871235 1723.6467782594264 624.48410780541599 1664.376625277102 387.4413647018373 26.644230376929045 73.59215372055769 214.50544720515609 38.574380278587341 36.282547295093536 66.73483382165432 63.106596980243921 46.43093977868557 179.54008154571056 127.1003525480628 18.104095008224249 275.59213617444038 29.80291935801506 79.841799732297659 3.5683885458856803 119.48120572790504 1.3567128721624593 6.2988275811076164 410.75781897455454 0.83634158223867405 12.648008743301032 14.827181747183207 4.365600332617757 61.910607635974884 4.4274748973548403 85.271184954792261 4.247553342953327 2.2275214511901145 1.6824861466884611 1.3441783376038081
leaf_count=25 9199 3613 24621 29511 6389 4614 15014 719 20301 1264 3067 7185 108675 7581 5076 7253 1116 12 408 445 367 73 62 456 94 809 2538 90 297 133 3931 17 195 9 3 93 11 186 88 45 948 74 1888 84 32 18 15
internal_value=0 0.123798 0.12672 0.104276 0.113381 0.169486 0.132857 0.0811678 0.09418 0.08145 0.136496 0.0692769 0.138779 0.0605271 0.079346 0.0993155 0.0621813 -0.0242624 -0.0528558 0.0659195 0.198569 -0.0230454 0.177583 0.0820253 0.14999 -0.0989516 -0.0611566 0.213264 0.168826 -0.0606542 -0.0914176 0.164998 0.165731 -0.10135 0.0991183 0.240597 -0.111548 -0.108444 -0.142201 -0.150083 -0.116102 -0.115677 -0.104985 -0.112446 -0.119586 -0.114201 -0.109316
internal_weight=0 93626.8 87620.2 18813.2 17782.7 4534.06 68807 6006.56 13248.7 4548.54 64258.5 2111.07 62147.4 4947.42 4048.79 3388.02 3905.93 898.625 1030.44 288.098 642.614 660.767 1059.14 287.956 195.046 742.343 752.5 771.189 293.696 92.9095 288.12 10.7448 146.125 277.375 13.4272 477.493 263.948 239.672 24.2767 19.1928 74.5586 7.12837 165.113 5.08389 7.17644 3.91001 5.77165
internal_count=268644 261270 227399 66090 60815 11003 161309 33871 49812 17761 143548 10252 133296 31927 19983 14834 16130 11944 5275 853 1631 5149 1944 1402 813 4422 11737 542 387 589 7374 92 207 7282 101 155 7181 6953 228 133 1134 98 5819 95 75 50 89
is_linear=0
shrinkage=0.1


Tree=6
num_leaves=54
num_cat=0
split_feature=84 54 40 42 134 70 11 101 123 53 112 8 19 32 6 49 55 43 87 42 41 70 107 29 102 38 71 46 71 111 39 111 78 80 31 125 29 116 83 116 98 98 37 75 131 110 40 25 66 74 69 69 80
split_gain=1133.86 1103.65 4536.28 2078.3 4360.65 2406.73 1707.34 1868.23 1413.3 1407.03 1209.84 1145.35 1101.95 1045.64 989.91 925.083 694.534 848.692 615.241 607.779 705.824 621.185 357.316 348.648 322.464 310.366 1020.46 230.328 230.071 168.179 148.697 130.89 224.16 121.27 85.9305 84.7393 100.416 81.9096 35.8134 19.8154 34.2599 32.4501 7.27114 0.149685 0.113687 0.104987 0.0931874 0.0613644 0.0591803 0.0425523 0.0348169 0.0232009 0.0160229
threshold=-1.4121547937393186 1.0241953730583193 0.98688220977783214 1.0510962605476382 1.0000000180025095e-35 -0.33776946365833277 0.75595837831497203 -0.84246316552162159 -1.7278044223785398 1.001530706882477 -1.3024480938911436 0.63593304157257091 1.2392144799232485 0.96625229716300975 0.6404077708721162 1.0818300843238833 0.97946077585220348 1.0641549229621889 -0.59436607360839833 1.0382505655288699 0.99428460001945507 -0.29556396603584284 -1.019187808036804 1.1318168044090273 -0.8495495319366454 0.96895378828048717 -0.42437155544757837 1.1077196002006533 -0.51027557253837574 -0.92392069101333607 0.99091079831123363 -0.84927880764007557 -1.3991318345069883 -1.427972078323364 0.99073782563209545 -1.4112837314605711 1.0737730264663699 -0.92111429572105397 -1.431158661842346 -0.90469118952751149 -0.90077930688858021 -0.89676168560981739 0.94731211662292492 -1.0886129736900327 1.0000000180025095e-35 -1.1800646781921384 0.99705147743225109 1.1908180117607119 0.24375400692224505 -1.0111374258995054 -0.0098947677761316282 -0.0098947677761316282 -1.4137054085731504
decision_type=2 2 2 2 2 2 2 2 2 2 2 2 2 2 2 2 2 2 2 2 2 2 2 2 2 2 2 2 2 2 2 2 2 2 2 2 2 2 2 2 2 2 2 2 2 2 2 2 2 2 2 2 2
left_child=29 2 6 5 10 11 12 9 22 -8 30 28 18 -12 -9 -14 24 -18 -2 20 -7 -21 45 -13 -10 26 -6 -24 -3 37 -5 43 35 34 -34 36 -33 46 -37 -39 -41 -42 -27 44 50 -4 52 -35 -45 -46 -31 -50 -1
right_child=1 3 8 4 25 19 7 14 16 -11 13 23 15 -15 -16 -17 17 -19 -20 21 -22 -23 27 -25 -26 42 -28 -29 -30 31 -32 32 33 47 -36 38 -38 39 -40 40 41 -43 -44 48 49 -47 -48 -49 51 -51 -52 -53 -54
leaf_value=-0.13138698619379696 0.21491978128302036 -0.14205627775724697 -0.10435381907303419 0.47037298640218161 -0.11931665894929432 0.10173029428904948 0.082262882419489411 0.048141107116477747 0.064424862635401273 0.12618436785170106 0.12060599687568839 0.11269212540074554 0.18688274090172241 0.073676496204792372 -0.11575102516494501 0.089645455479638647 0.075659179806935317 -0.038578235746310342 -0.11976158234768315 0.087934261979033687 0.21480046549388576 0.16766327365060349 0.27624941783233403 -0.071471766165528805 -0.068076536499531756 -0.090229776329058431 0.16613965435323663 0.12195017819916149 -0.012288774597955052 -0.11301273428007948 -0.066726043435522506 -0.11683952313130574 -0.12041097645884175 -0.13822011396408573 0.10762446721751023 -0.09713203554738159 0.27526135484619146 0.17529132784697521 0.072271665785341097 -0.14627211450398614 0.2009489088920399 0.035300673610439461 -0.11780310964984086 -0.13320309665478822 -0.1151122032343273 -0.11486356368038549 -0.11787609510469102 -0.11319960344133898 -0.1146544649640477 -0.12987565437068091 -0.12077172994394632 -0.1233926044817177 -0.14004477302994675
leaf_weight=3.0218562185764304 2390.9264207482338 239.61056303232908 11.924932239577172 5.2219567950814954 342.60985504463315 640.33705870248377 14662.001454737037 1169.5887542590499 204.18033250421286 14513.563203703612 33559.695832356811 1419.5297566838562 1495.3926213309169 5530.1286668032408 538.08526078239083 2829.9817929491401 1414.5627521835268 1203.7325907982886 56.218026656657457 1239.8709233086556 4005.4380673542619 4612.8471339344978 111.42379348352551 110.82160283438861 1828.5016995891929 111.83932096883655 197.38067727722228 734.24593497812748 317.87816479802132 113.33400713279843 399.61488644778728 11.810750292614104 18.047315107658505 1.0098796635866154 195.9142447039485 238.30590135417879 14.611961804330347 48.879092779010534 13.169235561043022 5.626729328185319 22.718823909759518 24.66560431569815 660.13232007808983 4.9488976821303394 2.883724769577384 46.838889639824629 3.155633255839347 33.3761604744941 4.60050879046321 6.0444248095154745 6.0943424105644217 8.9496545791625941 7.3050353676080695
leaf_count=18 3217 1313 361 87 2833 938 56899 3640 1115 38390 61299 2298 4216 14436 3415 9143 4133 5497 1327 3721 5499 6476 238 564 9818 933 784 2250 1207 1253 7028 108 178 7 951 6033 19 24 144 32 3 53 5469 34 30 490 32 467 44 36 45 60 39
internal_value=0 0.107569 0.0956879 0.117185 0.106228 0.152709 0.108133 0.0981615 0.0113332 0.104112 0.112186 0.054652 0.153604 0.113967 -0.00350103 0.123263 -0.0109089 0.0231398 0.207231 0.17221 0.199216 0.150773 0.125711 0.0993558 -0.0547669 -0.0731295 -0.0149749 0.14228 -0.0680633 -0.0128375 -0.059798 -0.0319582 -0.00866309 0.0603763 0.08839 -0.0703612 0.0999953 0.0987152 -0.0882607 0.129365 0.0870194 0.114722 -0.113808 -0.115434 -0.114222 -0.112731 -0.132916 -0.113934 -0.123844 -0.125107 -0.113409 -0.120426 -0.137511
internal_weight=0 96604.1 43211.2 53393 40806.6 12586.3 37655.8 30883.2 5555.41 29175.6 39494.7 2087.84 6772.52 39089.8 1707.67 4325.37 4650.98 2618.3 2447.14 10498.5 4645.78 5852.72 904.434 1530.35 2032.68 1311.96 539.991 845.67 557.489 788.474 404.837 673.101 526.245 248.348 213.962 277.898 26.4227 115.373 251.475 101.89 53.0112 47.3844 771.972 146.856 128.356 58.7638 13.4825 34.386 18.4991 8.92815 119.428 13.5502 10.3269
internal_count=268644 259034 144149 114885 92869 22016 120247 102344 23902 95289 82850 5382 17903 75735 7055 13359 20563 9630 4544 16634 6437 10197 3339 2862 10933 10019 3617 2488 2520 9610 7115 9409 7907 1603 1129 6304 127 201 6177 112 88 56 6402 1502 1364 851 89 474 138 66 1298 104 57
is_linear=0
shrinkage=0.1


Tree=7
num_leaves=63
num_cat=0
split_feature=106 76 115 136 109 75 112 82 32 56 132 134 109 76 77 96 31 113 93 76 130 109 116 113 107 24 72 8 40 50 70 63 128 131 76 131 75 135 87 69 76 40 53 54 33 34 51 112 107 69 84 107 108 53 54 110 110 107 70 70 111 103
split_gain=1008.89 1243.05 1851.26 1314.39 1176.55 1858.54 1109.44 1106.16 1014.65 993.476 983.16 891.777 887.512 1502.83 822.453 771.465 751.625 729.606 680.624 461.004 440.559 425.436 333.035 307.799 305.862 399.313 266.689 333.344 265.592 264.687 621.05 569.328 238.398 234.494 217.061 185.173 437.936 154.627 139.687 127.463 118.624 104.72 95.8339 54.9565 38.9702 198.229 243.373 157.682 22.7805 1.05757 0.853776 0.591457 0.395686 0.502873 0.239014 0.240495 0.23442 0.160166 0.234509 0.135337 0.0363853 0.028825
threshold=-0.94860592484474171 -1.1714527606964109 -0.97348159551620472 1.0000000180025095e-35 -0.92926716804504383 -0.96132495999336232 -1.3024480938911436 -1.4267107248306272 0.96984460949897777 1.0102061629295351 1.0000000180025095e-35 1.0000000180025095e-35 -0.88751438260078419 -1.1964809894561765 -1.1770357489585874 -0.9557376205921172 0.98981198668479931 -0.92585104703903187 -0.92643269896507252 -1.1114373207092283 1.0000000180025095e-35 -0.91093963384628285 -0.99686932563781727 -0.99271991848945607 -1.0142863392829893 1.2885588407516482 -0.52958568930625904 0.61217996478080761 1.0079740285873415 1.0785843729972842 -0.30628196895122523 0.42980954051017767 1.0000000180025095e-35 1.0000000180025095e-35 -1.181606590747833 1.0000000180025095e-35 -1.0818067193031309 1.0000000180025095e-35 -0.79879957437515248 0.073821995407342925 -1.1763290762901304 1.0331023931503298 1.0248742103576662 1.0320648550987246 0.8725193738937379 0.84924340248107921 1.0817345380783083 -1.2453330159187315 -0.98028993606567372 -0.0098947677761316282 -1.2911161780357359 -1.0073267817497251 -1.0567337870597837 0.95065379142761242 1.0815589427948 -1.1800646781921384 -1.1800646781921384 -0.98827761411666859 -0.29112185537815088 -0.24526250362396237 -1.2287991642951963 -0.88506284356117237
decision_type=2 2 2 2 2 2 2 2 2 2 2 2 2 2 2 2 2 2 2 2 2 2 2 2 2 2 2 2 2 2 2 2 2 2 2 2 2 2 2 2 2 2 2 2 2 2 2 2 2 2 2 2 2 2 2 2 2 2 2 2 2 2
left_child=10 2 20 7 5 14 39 41 9 17 16 -8 40 -14 42 -9 24 -6 -16 33 35 -11 50 -21 25 28 27 48 -1 31 -31 -26 -29 -10 -24 49 -37 -27 43 -7 -5 -4 -3 -28 45 52 47 -47 -18 -2 -22 54 60 -54 55 -46 -48 58 -53 -40 -12 -59
right_child=1 4 3 12 8 6 11 15 19 21 44 -13 13 -15 18 -17 26 -19 -20 23 22 -23 34 -25 29 37 38 32 -30 30 -32 -33 -34 -35 -36 36 -38 -39 59 -41 -42 -43 -44 -45 51 46 56 -49 -50 -51 -52 57 53 -55 -56 -57 -58 61 -60 -61 -62 -63
leaf_value=0.39136981570554175 -0.12730923971282956 -0.13272454735215608 -0.013861363511427572 -0.13270118025695829 0.118083828519015 -0.094340110838792568 0.11072716980626572 0.11010299015154378 -0.068239706699742261 0.095499528116913424 -0.10541974940761792 -0.066242979837519173 -0.072992187281515505 0.10688702972041511 0.070706929656650638 0.062031251550407722 -0.11874408363343834 -0.0011703555552007737 0.0026859475216233692 0.035121326545204223 -0.1324592572522951 -0.045660756127152868 -0.15074801034727847 0.22017938404863974 0.10940753523485199 -0.10515584551936448 0.28629632124605253 0.0085630085501547798 0.071076907123620012 -0.042301851049969509 0.12557987218504049 0.29627417400575151 0.31223256420857276 0.090542510231952034 0.14201623797359994 -0.13266651495864093 0.18338833293262793 0.11861295010871648 -0.12184118210674642 0.074264266171367235 -0.033008854915518485 -0.12356560354674317 -0.03958157625613723 0.096521338086391087 -0.10297325994670606 0.49649180551386857 -0.10329263093760362 0.091006135490408716 -0.019691024322787201 -0.15370637113107055 -0.15439446725328121 -0.11608760407809482 -0.11943814025179483 -0.13215783585436514 -0.15371121476359137 -0.11579470472500074 -0.11958458911996578 -0.13774832603164808 -0.12679370365734624 -0.1429986880730349 -0.11597566518795194 -0.12959278166411226
leaf_weight=29.31798155605793 530.3567505069077 185.03284758701921 640.67978877108544 362.20554152131081 41243.261725563556 305.30006299726665 19214.66038059257 11502.906452044845 514.87405301630497 352.68418378382921 3.7563202343881157 289.02808299101889 712.58613183349371 1333.8720849370584 8972.1389413140714 4703.4153790324926 240.99968850240111 519.49026991799474 1759.5114511474967 266.32875646650791 40.37506065517664 541.03308843076229 29.031208530068398 135.65805169939995 1264.8190217930824 205.63227149471641 49.672239240258932 973.15996359661222 221.37675084359944 342.05391848087311 619.32847739756107 187.16886526532471 26.557860843837261 113.51562710851431 198.36119593679905 115.36000632122159 70.716775268316269 36.337624687701464 8.0126408040523511 52.556828996166587 178.01976684480906 100.68773566372693 274.09943410009146 22.026038620620966 17.145454075187445 14.719633609056471 13.487109167501329 27.521095810458064 25.693440936505795 15.62442924082279 31.657398980110884 31.755462881177664 48.888985104858875 85.333369821310043 1.5287920460104931 99.699994906783104 25.586897879838943 8.2802729457616824 57.517097622156143 4.855388317257165 24.984629791229963 9.0927245654165727
leaf_count=80 3544 1249 8011 2230 72340 6512 38120 34710 2168 516 100 2490 6007 3451 30508 12184 2404 5172 7649 701 235 1509 164 108 4558 1869 46 5518 810 2023 1551 329 57 295 281 734 75 161 67 231 670 847 1465 43 618 44 471 136 119 69 173 305 512 498 13 945 209 46 354 29 251 60
internal_value=0 0.0954305 0.0736591 0.0805534 0.101421 0.0865394 0.104903 0.0906873 0.111999 0.114368 0.0480967 0.108105 0.0141568 0.0442523 0.0539471 0.0961516 0.0632401 0.1166 0.0595545 0.0139425 -0.0569067 0.0100448 0.0452813 0.0975727 0.0918899 0.0200859 0.00161259 -0.00986869 0.108534 0.106548 0.0658486 0.133496 0.0166301 -0.0395564 0.104639 -0.0987035 -0.0125528 -0.0715516 0.173549 -0.0695779 -0.0998497 -0.0287607 -0.0771187 0.227997 -0.0892692 -0.0616119 0.0659148 0.232306 -0.109201 -0.128065 -0.1421 -0.119294 -0.125245 -0.127525 -0.114427 -0.113913 -0.113961 -0.124695 -0.122985 -0.129824 -0.114596 -0.13348
internal_weight=0 95305 20565.9 19534.4 74739.2 31052.3 19861.5 16947.7 43686.8 42656.5 4726.31 19503.7 2586.68 2046.46 11190.8 16206.3 4257.01 41762.8 10731.7 1030.38 1031.48 893.717 299.425 401.987 2906.03 492.665 1350.98 1266.41 250.695 2413.37 961.382 1451.99 999.718 628.39 227.392 732.058 186.077 241.97 84.5663 357.857 540.225 741.368 459.132 71.6983 469.298 244.278 81.3147 42.2407 266.693 545.981 72.0325 225.02 162.963 134.222 118.374 116.845 39.074 106.646 89.2726 12.868 28.741 17.373
internal_count=268644 244418 73385 68110 171033 88224 47353 55752 82809 79537 24226 40610 12358 9458 40871 46894 19664 77512 38157 3272 5275 2025 853 809 11381 2920 8283 8098 890 8461 3574 4887 5575 2463 445 4422 809 2030 185 6743 2900 8858 2714 89 4562 2221 860 180 2523 3613 408 2341 1361 1010 1576 1563 680 765 659 96 351 106
is_linear=0
shrinkage=0.1


Tree=8
num_leaves=63
num_cat=0
split_feature=54 40 101 71 12 29 53 32 53 125 110 98 69 131 71 42 1 7 54 134 42 130 68 50 32 43 41 134 54 40 98 40 134 71 107 75 22 27 52 135 29 16 72 16 72 46 118 59 100 118 0 103 119 27 29 23 50 106 54 41 30 130
split_gain=977.089 3361.94 1380.44 2011.53 1256.01 1780.02 1219 2929.33 1093.09 993.525 1000.45 986.166 931.836 868.682 854.508 1051.69 826.218 824.256 748.341 700.559 693.632 1361.62 782.898 645.779 627.503 626.977 572.285 564.394 553.293 537.852 516.136 507.461 468.391 451.533 442.98 442.527 434.743 408.385 398.318 390.648 363.819 358.709 336.822 327.909 296.57 372.146 266.267 338.564 250.837 247.505 194.787 152.444 127.774 120.82 104.668 103.494 97.9408 71.8509 65.7038 61.7769 59.9249 8.72006
threshold=1.02468878030777 0.98628047108650219 -0.81657806038856495 -0.4233966320753097 0.81368252635002147 1.1240142583847048 1.001530706882477 0.91182115674018871 1.0206858515739443 -1.5713847875595091 -1.1731657385826109 -0.69589820504188526 -0.24071720987558362 1.0000000180025095e-35 -0.49476370215415949 1.0388684272766116 0.46858136355876928 0.59496885538101207 1.0315838456153872 1.0000000180025095e-35 1.0491442680358889 1.0000000180025095e-35 -0.03790758550167083 1.1081132888793948 0.96761170029640209 1.1621696949005129 1.0371402502059939 1.0000000180025095e-35 1.0207014679908755 0.96768200397491466 -0.86051788926124562 0.99526923894882213 1.0000000180025095e-35 -0.42628984153270716 -1.0165536403656004 -1.0560310482978819 1.2555876374244692 1.2452688217163088 1.0855239033699038 1.0000000180025095e-35 1.1323410868644717 1.0622625946998598 -0.61603364348411549 1.0573186278343203 -0.54093876481056202 1.105880916118622 -1.4068014025688169 0.78499346971511852 -0.86248731613159169 -1.3593831062316892 0.35395503044128424 -0.75813817977905262 -1.1805974245071409 1.3017263412475588 1.0472820401191714 1.4410400390625002 1.1182469725608828 -0.95238348841667164 0.9753837287425996 1.0750564336776736 1.0382540822029116 1.0000000180025095e-35
decision_type=2 2 2 2 2 2 2 2 2 2 2 2 2 2 2 2 2 2 2 2 2 2 2 2 2 2 2 2 2 2 2 2 2 2 2 2 2 2 2 2 2 2 2 2 2 2 2 2 2 2 2 2 2 2 2 2 2 2 2 2 2 2
left_child=1 4 14 20 12 8 7 -7 37 10 25 28 50 24 17 32 -8 59 23 -12 22 33 43 -17 -11 -5 -20 34 44 -10 -29 41 39 -22 -14 -34 -33 -6 -23 -16 48 -30 -24 -4 45 -3 47 54 -19 -46 55 -49 -42 -52 -13 -1 58 -58 -48 61 -15 -2
right_child=2 11 3 9 5 6 16 -9 29 13 19 46 27 60 15 18 -18 40 26 -21 21 38 42 -25 -26 -27 -28 30 31 -31 -32 36 35 -35 -36 -37 -38 -39 -40 -41 52 -43 -44 -45 49 -47 56 51 -50 -51 53 -53 -54 -55 -56 -57 57 -59 -60 -61 -62 -63
leaf_value=-0.12733779485504235 -0.13802900572707141 -0.015436867167209664 -0.17030834963369978 0.055874204915379477 -0.11994612701688337 0.092094362783084999 0.048754159516222202 -0.0018322227527538652 0.088470909315981061 0.032288056284905185 0.10298927545887933 -0.13186786072183482 -0.114824268712206 0.063271270192329906 0.14523144880365546 0.10598916110300126 0.11588785322962128 0.092193307367812588 0.13552156957597447 0.006867726578904697 -0.082454188532381539 -0.14733258028151194 0.028808032678660656 -0.01160420543945891 -0.12190913255799918 -0.082804808821610718 0.085970909834388765 0.18286222408415459 0.12959844697388398 -0.00072100951364368476 -0.035484295107922836 0.095393577556351195 -0.084983557495874718 0.046866986224065668 0.11261030854516443 0.26431871511152161 -0.045577437136499171 0.017404561678581107 0.070865546035693075 0.34562839028330217 0.38387683450040083 -0.13807777332327831 0.14624982009533988 0.020677047371219892 -0.062058630819499319 -0.083406475047089659 0.42394239947705192 0.19578317127053774 -0.14892965158884322 0.10597520265478177 -0.13149714712473978 -0.13843599579320337 -0.092437632769911057 0.268836382960844 0.031591402231324769 -0.0079769362214198395 0.25109620837837848 -0.14243819654280895 0.21636019937264936 0.14382105714440249 0.19782583168152451 -0.19366439756259218
leaf_weight=159.46497890725732 158.48519305512309 2417.0443715304136 136.82393436133862 1427.5616522748023 722.96596223022789 10797.126616464928 2204.1026658527553 4795.0025999266654 1301.191255832091 2304.6425088066608 26267.278344709426 61.925605479627848 87.099794970825315 37.077383622527122 3125.4488730672747 967.1544390078634 10894.382926302031 1924.5250623058528 6598.5097046643496 780.7717515155673 1557.7303249537945 87.806542951613665 329.84262176416814 903.04842944815755 298.04459904134274 422.49299679137766 3603.8670495152473 1942.0837030485272 606.16184562258422 1407.37540108338 114.65214525163174 309.48343894444406 38.517126686871052 326.59922558814287 5105.7706576064229 621.42363676428795 746.28462820313871 308.99735663458705 1772.4060409609228 100.40023809671402 5.8584202975034705 54.570805191993713 940.5842309333384 262.12365329638124 128.78790978714824 1208.1891976296902 16.572054892778397 166.52013219334185 44.13273636624217 274.47724816948175 10.193684112280605 14.865684170275925 145.66042219288647 28.94373669475317 106.62186827883124 133.42041373997927 7.308849178254607 12.702881030738352 190.83292459696531 7.5423275493085375 308.44394533336163 34.262376207858324
leaf_count=2004 1050 10532 714 8497 8145 34429 6040 22419 2634 7682 40085 571 1048 66 4570 1829 25704 3266 9304 4589 9230 406 808 3228 1477 5432 7461 1864 1197 5895 573 834 153 1079 12190 254 3294 1409 2701 102 2 333 1413 735 773 7035 19 155 265 637 65 105 751 14 541 473 2 67 219 6 102 167
internal_value=0 0.0715018 0.0911691 0.0801268 0.0822091 0.0736427 0.0821019 0.0632094 0.00875914 0.0897068 0.0953485 0.00373768 0.118853 0.0344081 0.113678 0.121923 0.104591 0.0569773 0.107359 0.100215 0.0237741 -0.000125225 0.0773823 0.0492079 0.0146303 0.0242044 0.118018 0.126355 -0.00878249 0.0421267 0.170691 0.03876 0.167172 -0.0600397 0.108796 0.243932 -0.00425378 -0.0788197 0.0605661 0.151469 0.0752956 0.107491 0.115758 -0.0448237 -0.0290399 -0.0380892 0.128321 0.0735747 0.0867879 0.0523114 -0.0449653 0.168392 -0.0740211 0.164566 -0.0284648 -0.0729644 0.212562 0.00129168 0.232946 -0.136933 0.183387 -0.147919
internal_weight=0 46335.1 55539.1 37260.2 40012.8 32431.1 28690.6 15592.1 3740.53 31846.3 28898.1 6322.35 7581.63 2948.21 18278.8 15958.4 13098.5 2320.47 12072.6 27048.1 5413.92 3744.54 1669.37 1870.2 2602.69 1850.05 10202.4 7249.61 5745 2708.57 2056.74 1716.5 3885.79 1884.33 5192.87 659.941 1055.77 1031.96 1860.21 3225.85 2120.18 660.733 1270.43 398.948 4028.5 3625.23 577.35 349.933 1968.66 403.265 332.023 181.386 151.519 39.1374 168.547 292.885 227.417 20.0117 207.405 200.29 345.521 192.748
internal_count=268644 151220 117424 85016 124906 106675 88592 56848 18083 67930 58603 26314 18231 9327 32408 26901 31744 5507 21822 44674 17086 13416 3670 5057 9159 13929 16765 15675 24635 8529 2437 5658 5079 10309 13238 407 4128 9554 3107 4672 4284 1530 2221 1449 18977 17567 1679 1372 3531 1410 2556 260 753 79 1112 2477 307 69 238 1223 168 1217
is_linear=0
shrinkage=0.1


Tree=9
num_leaves=61
num_cat=0
split_feature=107 75 118 136 32 56 5 96 108 111 135 89 56 115 130 74 117 73 130 108 70 31 0 133 69 52 104 107 70 69 102 128 30 41 122 103 32 39 106 118 3 123 72 58 49 9 31 108 102 74 38 82 31 62 39 121 62 110 110 48
split_gain=821.287 1054.36 1890.53 1337.48 1294.73 1195.9 972.321 957.114 949.128 1961.68 826.204 817.653 782.565 610.041 601.248 576.751 853.453 538.697 507.497 401.338 534.351 525.747 583.086 650.919 435.743 359.133 337.491 557.877 332.143 315.676 288.767 239.053 224.985 200.421 267.911 197.166 196.77 194.306 366.491 177.599 169.256 413.328 222.625 162.384 208.235 110.729 102.464 90.0691 89.4876 77.377 72.8667 63.1922 61.942 168.765 26.9231 31.2857 19.064 5.31864 2.93526 1.28929
threshold=-0.98028993606567372 -1.0858381390571592 -0.99894669651985157 1.0000000180025095e-35 0.96625229716300975 0.97890070080757152 0.7508789896965028 -0.9557376205921172 -0.91573056578636158 -1.0579873919486997 1.0000000180025095e-35 -0.21255258470773694 1.0102061629295351 -0.92663711309432972 1.0000000180025095e-35 -0.98110148310661305 -0.96628299355506886 -0.70513299107551564 1.0000000180025095e-35 -1.0551241636276243 -0.078432422131299959 0.98059621453285228 0.21732313930988315 1.0000000180025095e-35 -0.099250134080648408 1.1349411606788637 -0.78457254171371449 -0.84548017382621754 -0.24307476729154584 -0.078538317233324037 -0.94635349512100209 1.0000000180025095e-35 1.0614728927612307 0.94973179697990429 -1.1666533946990965 -0.93020600080490101 0.95918622612953197 1.0129364728927615 -0.91792589426040638 -1.0207526087760923 0.52634084224700939 -1.5443492531776426 -0.52078258991241444 0.81774994730949413 1.1455618739128115 0.72082853317260753 0.99953347444534313 -1.0584452152252195 -0.90370035171508778 -0.85515376925468434 1.017254173755646 -0.89039155840873707 0.95025122165679943 0.70509067177772533 1.0334435105323794 -1.686024487018585 0.65856996178627025 -1.1800646781921384 -1.1800646781921384 1.1280333399772646
decision_type=2 2 2 2 2 2 2 2 2 2 2 2 2 2 2 2 2 2 2 2 2 2 2 2 2 2 2 2 2 2 2 2 2 2 2 2 2 2 2 2 2 2 2 2 2 2 2 2 2 2 2 2 2 2 2 2 2 2 2 2
left_child=10 2 18 6 8 26 7 -4 9 11 19 -3 13 -10 -11 32 -17 -14 33 20 37 22 24 -24 -21 29 27 -6 35 -7 -8 -27 -5 34 -2 45 39 38 -1 -20 42 -42 -23 48 -45 -12 -35 50 -37 -28 -22 -47 53 58 56 -56 -54 -39 -30 -38
right_child=1 4 3 15 5 25 30 -9 12 14 28 -13 17 -15 -16 16 -18 -19 36 21 47 40 23 -25 -26 31 49 -29 52 -31 -32 -33 -34 46 -36 43 59 57 -40 -41 41 -43 -44 44 -46 51 -48 -49 -50 -51 -52 -53 54 -55 55 -57 -58 -59 -60 -61
leaf_value=-0.037067619370719944 0.17970437967473249 0.099395240579742028 0.086443419884693617 -0.12599045878448817 -0.026660367132252782 -0.090122461175128482 0.034372492719612319 0.016329497840237944 0.09698670873330105 0.026130067943293214 0.27896240723175558 -0.023397038982346546 -0.059601910144491545 -0.12847081802852953 0.082205722095358646 -0.1381767289063579 0.083047262786455855 0.071846985452694842 -0.15198984742496602 -0.063848473785762846 -0.12978832280457051 -0.051780707961054287 -0.024615318748519049 0.13446624208574018 0.053198119405995538 -0.10107135188028063 -0.12767494078084676 0.11587341797987208 -0.11070381656862377 0.089893609016329465 -0.11046732695451936 0.13778620334161182 -0.028918164898436974 -0.14041800975125823 -0.14232854816819368 0.078841567752221411 -0.12233867873186588 -0.10470463428598271 0.34423962244021128 0.098408412406497545 0.16173271779831003 -0.016330650176353084 0.10248896894194051 0.15352599465189509 -0.047727465061854907 -0.14736855107638286 -0.073436254062245895 0.35401668726596464 -0.12507167716303055 0.0051694427801766271 0.13498649443108154 0.22131950661967648 0.16716592912705638 0.15138655059035389 0.1634312292957526 0.015429834326635326 0.21860553773126157 -0.13074962909848881 -0.18261354014497619 -0.15505804171588891
leaf_weight=729.8152444884181 64.168229445815086 13490.422107283026 15327.984262344427 371.22701282892376 1671.286581940949 100.8158444724977 225.22891043871641 2230.2351968176663 41755.186637390405 8760.7702077273279 48.845231540501118 564.99576107412577 534.75098459795117 120.35936584230512 2445.9059696756303 216.50631887465715 896.4138406580314 747.66746994107962 31.096797619014978 458.63228137046099 11.230456478893755 846.47424308769405 319.14689524658024 1325.3307804726064 1037.7331480681896 178.52900096029043 306.70747127011418 328.59093354642391 9.8232354559004325 2886.3573677241802 353.98704978544265 54.749897599220276 669.10826961323619 322.86722380667925 43.243642125278711 27.793796762824059 23.153358548879623 159.39960116147995 26.108256807550788 317.85142451524734 177.43919309228659 491.3239440061152 105.16498429328203 117.80992363765836 91.221287336200476 11.862052857875826 780.3768620826304 17.650475408881903 95.365407358855009 51.159048683941364 139.52196728438139 7.6449968069791785 508.88513166457415 85.783349994570017 35.460762858390808 23.915460661053658 83.930216923356056 154.30887283012271 13.446404382586477 25.097659423947334
leaf_count=6911 88 23643 44352 3410 6795 439 1205 7573 69605 35770 16 2968 1687 2435 3665 1209 2672 1010 183 2145 276 5354 1654 3358 2743 666 1432 643 117 5135 5761 51 4196 1840 223 82 188 5141 281 475 697 2956 211 272 380 62 4167 8 773 129 173 2 160 38 6 48 22 971 55 117
internal_value=0 0.0754901 0.0562151 0.0644861 0.0811943 0.0348683 0.0733323 0.0775376 0.0849712 0.0695766 0.0403829 0.0944593 0.0939822 0.0963387 0.0383688 -0.0100275 0.0400106 0.0170346 -0.048163 0.0254354 -0.025287 0.0386244 0.0624924 0.103593 0.0173236 0.0744861 -0.0192458 -0.00324128 0.117569 0.0838181 -0.0541462 -0.0450122 -0.0635569 -0.0803431 0.0500551 0.0438575 0.0499213 -0.0513548 -0.0238979 0.076094 -0.00763928 0.0309139 -0.0347325 0.012032 0.0656989 0.198529 -0.0930386 0.140286 -0.0790538 -0.108684 0.115262 -0.00287622 0.156354 0.0865953 0.168019 0.103819 0.174449 -0.117516 -0.152257 -0.139358
internal_weight=0 95896.8 21898.5 20290.7 73998.3 5578.2 18137.4 17558.2 68420.1 25262.1 7161.07 14055.4 43158 41875.5 11206.7 2153.26 1112.92 1282.42 1607.86 5999.28 1238.03 4761.25 3140.84 1644.48 1496.37 3220.45 2357.74 1999.88 1161.79 2987.17 579.216 233.279 1040.34 1210.66 107.412 400.543 397.199 1069.63 755.924 348.948 1620.4 668.763 951.639 332.19 209.031 68.3523 1103.24 168.403 123.159 357.867 150.752 19.507 761.245 109.053 652.192 59.3762 592.815 313.708 23.2696 48.251
internal_count=268644 233732 77659 70378 156073 15290 58891 51925 140783 66046 34912 26611 74737 72040 39435 11487 3881 2697 7281 32879 13761 19118 9900 5012 4888 6291 8999 7438 2033 5574 6966 717 7606 6318 311 1587 963 13304 7192 658 9218 3653 5565 1507 652 80 6007 457 855 1561 449 64 446 210 236 54 182 6112 172 305
is_linear=0
shrinkage=0.1


Tree=10
num_leaves=63
num_cat=0
split_feature=54 40 42 134 70 123 131 107 124 11 102 28 53 32 8 52 32 19 40 81 41 54 71 72 68 30 74 136 71 106 0 42 99 102 38 71 57 61 29 19 52 71 43 60 70 43 59 109 45 108 46 108 69 37 69 41 62 113 106 109 84 126
split_gain=802.73 2669.64 1008.71 2790.39 1344.27 978.883 961.381 1860.68 1760.46 912.396 1248.63 873.94 987.381 850.276 761.933 753.216 696.664 620.852 581.449 487.928 487.092 669.286 535.562 469.777 460.376 454.878 440.914 514.063 430.233 379.201 306.354 298.345 284.713 234.916 229.656 741.267 416.982 228.811 218.31 212.659 201.205 200.48 195.367 273.755 192.928 294.484 185.946 183.71 177.043 157.025 110.176 93.6029 51.7437 7.67835 49.1974 5.6522 4.45309 3.67546 2.29895 1.70077 1.14568 1.12903
threshold=1.0231813788414004 0.98628047108650219 1.0504757761955263 1.0000000180025095e-35 -0.33776946365833277 -1.7278044223785398 1.0000000180025095e-35 -0.87324997782707203 -1.4394881725311277 0.75595837831497203 -0.83625611662864674 1.1641724705696108 1.0106819868087771 0.96402952075004589 0.63593304157257091 1.0530217289924624 0.96732884645462047 1.2392144799232485 0.97588685154914867 -0.69006612896919239 1.0180492401123049 1.0133008956909182 -0.47121635079383845 -0.65001124143600453 -0.10814412683248519 1.0740414857864382 -0.94604679942131031 1.0000000180025095e-35 -0.4661856591701507 -0.83375021815299977 0.43427614867687231 1.0420652627944949 -0.8709728717803954 -0.8495495319366454 0.96895378828048717 -0.42437155544757837 0.91645416617393505 0.62788552045822155 1.1328372955322268 1.2095976471900942 1.0653522014617922 -0.3945330530405044 1.0712701082229616 0.72330152988433849 -0.36397023499011988 1.0264747738838198 0.86103603243827831 -0.89329665899276722 1.1032667160034182 -1.0428059697151182 1.107059180736542 -0.9913383126258849 -0.12046607956290244 0.94731211662292492 -0.071678884327411638 0.99504181742668163 0.53238970041275036 -0.85588061809539784 -0.92689430713653553 -0.92926716804504383 -1.1778295636177061 -2.5990839004516597
decision_type=2 2 2 2 2 2 2 2 2 2 2 2 2 2 2 2 2 2 2 2 2 2 2 2 2 2 2 2 2 2 2 2 2 2 2 2 2 2 2 2 2 2 2 2 2 2 2 2 2 2 2 2 2 2 2 2 2 2 2 2 2 2
left_child=1 9 4 6 14 37 8 46 16 17 11 40 -13 -10 44 30 -4 29 24 26 21 33 -23 -9 -19 32 27 -6 -17 41 -12 -28 -22 -7 35 60 -37 49 39 -16 -11 -1 52 -44 56 -46 -8 -20 -27 -3 -51 -40 -39 54 -36 58 -2 -31 -21 -55 -5 -57
right_child=2 5 3 34 19 20 7 23 13 10 15 12 -14 -15 38 28 -18 18 47 55 25 22 -24 -25 -26 48 31 -29 -30 57 -32 -33 -34 -35 53 36 -38 42 51 -41 -42 -43 43 -45 45 -47 -48 -49 -50 50 -52 -53 -54 59 -56 61 -58 -59 -60 -61 -62 -63
leaf_value=0.14818326594712072 -0.13550531394965715 -0.1217153309776664 0.079147622479278756 -0.12680744134362923 0.099768217223714623 0.060931544976564049 -0.097354300689573944 -0.15635596214873412 0.036624888083209982 -0.13696096141086056 0.015754448094211001 0.04929683192154094 0.08553219887508226 -0.052181827701064221 -0.17855333953834418 -0.015352478385821265 0.028966139500494134 -0.007347547244968217 -0.031273095365966744 -0.15461469581769827 -0.002802398363891723 -0.089814208800215151 0.077857095190340286 0.15356760258131796 0.10069338583632668 -0.11651979472513783 0.14532605902866153 -0.0058170921078346018 0.12497051174906156 -0.15638495423443985 -0.1074556620932158 0.10250757280082207 -0.08853299247273981 -0.073281091157078634 -0.11684841050456939 -0.13065902533710419 0.17994732274337144 0.22721165666215157 0.29289274122227987 0.074617134147557482 0.016523670007602183 -0.048018492428963049 0.012788306997347948 0.14465051196802389 0.13986149407097989 -0.077715700966584089 0.063529238179595188 0.19761528120217664 0.40512646331312441 0.17669668161107421 -0.053130401992883859 -0.087951499897064786 0.11195642870384781 -0.11535288992072618 0.074447437420562645 -0.16818998657596262 -0.16632634594090573 -0.10301688752798129 -0.23820494510975476 -0.12919419608828356 -0.11551494031972398 -0.13343308810754942
leaf_weight=2320.0084785651416 77.469418749213219 83.764667658135295 29802.699004810303 171.9735944122076 4432.9810630679131 150.82782949134707 374.72073141112924 49.718813762068748 4388.5411412958056 261.55207915045321 269.62701013311744 18406.965878482908 12714.407716868445 1429.2407394926995 33.889628160744905 481.51307941041887 3049.6263385415077 442.12443607859313 556.44161881692708 4.1789174228906658 506.17547013051808 229.28422986157238 1126.1541304960847 3000.2610019147396 3653.6886404398829 8.436090372502802 4037.2271592244506 514.64874746650457 400.01200180314481 26.253619909286499 802.27022543549538 2726.0164982005954 1650.5675232931972 963.60569909960032 91.543869346380234 56.659222006797791 182.23548769950867 131.72325495257974 6.8227968215942374 1581.4660096745938 126.82446887157857 53.275184657424688 324.60319727286696 305.73123439773917 78.921606168150902 293.70807725936174 88.878795608878136 37.424393430352211 28.440492857247591 45.674654074013233 38.390545893460512 119.22428854182363 55.308024778962135 529.65292841382325 15.758349869400261 24.22291399165988 118.71238227933645 25.380031954497099 15.470500215888022 106.65070967376232 188.11996334418654 15.217210145667194
leaf_count=2605 511 889 56103 1123 7932 650 1983 255 11949 4266 831 64732 29029 5926 177 1804 7864 1781 2878 21 1973 1264 2706 2045 8345 90 4178 1614 449 128 5309 4103 9045 5032 832 338 484 89 1 2495 416 218 1467 454 59 1423 218 15 44 68 208 602 100 4886 104 106 614 1184 64 613 1854 98
internal_value=0 0.0553784 0.0730702 0.065544 0.096336 -0.00903132 0.070061 0.120144 0.0655105 0.0643446 0.0574305 0.0622401 0.0641005 0.014808 0.026593 -0.020151 0.0744894 0.096865 0.075623 0.110025 -0.0281649 0.00229251 0.049494 0.148515 0.0890309 -0.062458 0.111471 0.0887853 0.0483223 0.137946 -0.0764632 0.128067 -0.0684125 -0.0551167 -0.0763803 -0.0302985 0.10628 0.081539 0.0594152 0.0693057 -0.0868405 0.143779 0.103377 0.0767455 -0.0738912 -0.0316336 -0.0665106 -0.016849 0.285792 -0.0248144 0.0717402 -0.0673368 0.193129 -0.1135 -0.0887548 -0.17661 -0.154156 -0.130152 -0.220427 -0.117673 -0.120908 -0.15478
internal_weight=0 46226.5 57606.5 43526.3 14080.2 5648.69 42183.7 3513.58 38670.1 40577.8 33463.2 31509.8 31121.4 5817.78 2310.21 1953.42 32852.3 7114.6 4689.68 11770 4663.49 2469.87 1355.44 3049.98 4095.81 2193.62 11710.9 4947.63 881.525 2424.92 1071.9 6763.24 2156.74 1114.43 1342.59 598.988 238.895 985.196 1741.4 1615.36 388.377 2373.28 817.366 630.334 568.811 372.63 463.6 593.866 36.8766 167.83 84.0652 126.047 187.031 743.606 107.302 59.0895 196.182 51.6337 19.6494 636.304 360.094 39.4401
internal_count=268644 148069 120575 96577 23998 24079 86343 4501 81842 123990 106836 98443 93761 17875 5882 8393 63967 17154 13019 18116 20804 9652 3970 2300 10126 11152 17827 9546 2253 4135 6140 8281 11018 5682 10234 3799 822 3275 3275 2672 4682 2823 2110 1921 2607 1482 2201 2893 134 1165 276 603 189 6435 936 289 1125 1312 85 5499 2977 204
is_linear=0
shrinkage=0.1


Tree=11
num_leaves=54
num_cat=0
split_feature=95 107 76 115 136 109 79 55 135 135 30 81 78 128 132 39 31 106 1 130 70 117 107 110 31 78 111 7 55 31 62 49 110 75 74 74 101 102 74 105 130 52 119 90 130 109 63 83 117 73 78 86 87
split_gain=729.334 728.404 775.777 1524.31 902.487 858.778 1891.2 838.25 732.217 727.686 673.748 655.852 547.311 510.942 355.731 575.073 573.732 573.596 424.13 273.613 237.637 228.972 223.843 190.438 137.979 124.716 86.6401 47.3756 174.716 44.0694 134.453 16.8332 12.59 3.68057 0.911523 0.826732 0.763588 0.689073 0.488505 0.391178 0.383741 0.373941 0.240756 0.195879 0.406832 0.143978 0.128827 0.0892664 0.0491526 0.0455638 0.00951788 0.000713841 0.00027163
threshold=-1.079441964626312 -0.98141938447952259 -1.1629408597946165 -0.98420739173889149 1.0000000180025095e-35 -0.91430580615997303 -1.2566276788711546 1.0461789369583132 1.0000000180025095e-35 1.0000000180025095e-35 1.0528607964515688 -1.4265128970146177 -1.2488015890121458 1.0000000180025095e-35 1.0000000180025095e-35 1.0171443223953249 0.98059621453285228 -0.92482841014862049 0.27983319759368902 1.0000000180025095e-35 -0.23957923054695127 -1.0181232690811155 -1.0059277415275572 -0.93204742670059193 0.95713865756988536 -0.97237649559974659 -0.90073612332344044 0.69958591461181652 0.95747897028923046 0.95025122165679943 0.70509067177772533 1.1633380055427553 -1.1800646781921384 -1.1350284814834593 -1.0573570728302 -1.0455153584480283 -0.94959020614624012 -0.93458211421966542 -1.0455153584480283 -0.88747638463973988 1.0000000180025095e-35 0.92379048466682445 -0.90003105998039235 -1.2959505915641782 1.0000000180025095e-35 -0.88269153237342823 0.44742231070995336 -1.4205189347267149 -0.88592371344566334 -0.88795039057731617 -1.3991318345069883 -1.4291406869888303 -1.1674020290374754
decision_type=2 2 2 2 2 2 2 2 2 2 2 2 2 2 2 2 2 2 2 2 2 2 2 2 2 2 2 2 2 2 2 2 2 2 2 2 2 2 2 2 2 2 2 2 2 2 2 2 2 2 2 2 2
left_child=27 9 3 19 11 6 23 12 -8 14 -6 -5 -7 -9 16 17 18 -16 -2 26 24 -21 -18 -4 39 -26 -3 28 -1 30 -22 -31 -17 34 43 45 38 41 -36 -11 -38 -37 46 51 -45 52 -30 50 -48 -49 -44 -29 -35
right_child=1 2 5 4 10 7 8 13 -10 20 -12 -13 -14 -15 15 32 22 -19 -20 21 29 -23 -24 -25 25 -27 -28 33 42 31 -32 -33 -34 35 36 37 40 -39 -40 -41 -42 -43 47 44 -46 -47 48 49 -50 -51 -52 -53 -54
leaf_value=0.2958626329127782 0.010638556735871309 -0.1207113887104847 -0.12094002584066893 -0.033279882147492487 -0.09625979244998159 0.065280263127537291 0.0653741767031885 -0.050892910763861703 0.024258933460054179 -0.13523218622543459 0.023350225714711972 0.062124626101189517 0.095065357195660269 0.091910617210712461 -0.030703909616925908 -0.1044799240940345 -0.083613172504814676 0.1135436283269603 0.096537509827130163 -0.10688951120474269 -0.14745671186135681 0.062880005846461404 0.004673388347865251 0.00056536865578292396 -0.13364464876391013 0.077082028167176408 0.20597469511944491 -0.10121628912391972 -0.1168422070419169 0.1565404688318674 0.1350123164107101 0.11582246840242907 -0.1417931601333727 -0.10685621108492072 -0.12403685613857512 -0.13084837864611806 -0.11117894062717598 -0.1209004797069696 -0.15942405638860607 -0.1584687795692476 -0.1312430851383177 -0.1770113139548915 -0.10728661542909651 -0.10686403758080461 -0.12692445569857794 -0.1466751452895616 -0.14819435321270666 -0.11629476361386369 -0.13220119238215705 -0.12764085355327268 -0.11313013816972538 -0.10313728326249248 -0.10855292981819067
leaf_weight=13.714336562901734 969.74500277265906 616.45979163423181 624.55750607326627 746.06408403161913 554.45026775915176 9830.2607807070017 37298.356990005821 760.27550824731588 4900.5570343360305 27.718227427452803 3126.5600009150803 21074.967785224319 16565.595656823367 373.70396187901497 1065.549326017499 138.04371253214777 371.1596963070333 371.87961977347732 1411.4086234457791 131.24214232712984 21.216492351144552 201.2919185385108 1269.2211140412837 162.56798899918795 30.58861431479454 343.22898980230093 8.2264960389584285 44.701560085639358 3.3345050849020428 467.09572707861662 81.899046465754509 129.7280114069581 262.15746723860502 2.3246307987719774 8.845403026789425 2.0167969968169972 49.833185880444944 3.3330869227647755 6.9788072537630788 9.8085613027214986 11.78694114089012 13.505346722900866 7.8259140942245686 89.409849165007472 11.398468232713638 1.2377647012472177 3.9311381243169308 8.5960544981062394 3.759355291724205 6.0167395323515001 4.3293099533766526 2.0219100480899206 1.5881416127085688
leaf_count=16 3886 3993 2905 5860 2405 16657 83695 2031 16713 197 11112 53414 26731 471 7181 4636 3018 1266 3904 537 161 395 6726 471 196 1097 9 3813 37 101 37 110 1310 41 139 33 759 33 62 45 75 57 145 1727 93 11 19 90 22 42 56 82 22
internal_value=0 0.0588432 0.0610875 0.0464862 0.0511363 0.0665663 0.0577348 0.0803561 0.0605995 0.0276196 0.00533403 0.0588627 0.0839729 -0.00383188 0.0135482 -0.0229028 0.0302045 0.00661461 0.0615544 -0.0774017 0.10181 -0.0041234 -0.0153027 -0.0958451 0.0414884 0.0598388 -0.116409 -0.0971751 -0.00987556 0.13726 0.076893 0.14769 -0.128922 -0.115235 -0.111263 -0.152456 -0.120049 -0.162155 -0.139643 -0.141306 -0.115017 -0.171013 -0.120822 -0.106652 -0.109132 -0.116949 -0.133258 -0.1157 -0.140376 -0.120966 -0.109368 -0.101299 -0.107545
internal_weight=0 103946 96975.1 26459.3 25502 70515.9 42986 27529.8 42198.9 6970.45 3681.01 21821 26395.9 1133.98 5859.16 1837.63 4021.53 1437.43 2381.15 957.22 1111.28 332.534 1640.38 787.125 411.344 373.818 624.686 300.489 51.5074 699.939 103.116 596.824 400.201 248.982 224.976 24.0058 77.4443 18.8552 15.8242 37.5268 61.6201 15.5221 37.793 147.532 100.808 5.15054 11.025 26.768 7.69049 14.6128 12.1552 46.7235 3.91277
internal_count=268644 261270 227399 77725 72791 149674 103784 45890 100408 33871 13517 59274 43388 2502 31927 14393 17534 8447 7790 4934 1944 932 9744 3376 1535 1293 4002 7374 427 409 198 211 5946 6947 6750 197 1035 123 201 242 834 90 411 5715 1820 74 78 333 41 132 201 3895 63
is_linear=0
shrinkage=0.1


Tree=12
num_leaves=63
num_cat=0
split_feature=54 40 101 71 76 17 27 132 123 131 55 104 39 93 123 108 27 52 106 25 101 55 108 135 41 136 54 42 16 59 70 13 136 72 30 71 70 103 7 101 71 38 130 60 102 134 74 107 34 14 31 74 97 59 42 46 71 32 124 33 55 110
split_gain=701.737 2010.52 886.473 1475.05 843.5 1134.25 1033.31 829.218 698.521 694.894 925.472 1544.13 729.349 678.837 625.076 619.399 619.292 568.795 632.037 527.899 596.737 673.829 545.508 507.329 494.218 679.033 442.834 601.157 440.684 409.402 401.505 457.734 385.673 379.906 371.522 361.99 359.927 332.167 318.5 315.252 320.675 254.368 214.999 219.306 206.667 196.585 158.513 156.631 153.414 124.913 121.897 120.293 117.865 115.641 137.805 120.668 106.427 77.9123 44.0694 17.421 0.0768426 0.0546045
threshold=1.02468878030777 0.98688220977783214 -0.81657806038856495 -0.4233966320753097 -1.1976472139358518 1.1399605274200442 1.227633059024811 1.0000000180025095e-35 -1.7278044223785398 1.0000000180025095e-35 1.019661068916321 -0.78763595223426808 1.0304840207099917 -1.0912073850631712 -1.0814674496650694 -0.89516225457191456 1.2443341016769411 1.0603480339050295 -0.86118963360786427 1.2682679891586306 -0.80362874269485463 1.0025715231895449 -1.0194392204284666 1.0000000180025095e-35 1.0371402502059939 1.0000000180025095e-35 1.0110912919044497 1.0433123111724856 1.0110838413238528 0.80451735854148876 -0.31197358667850489 0.84314173460006725 1.0000000180025095e-35 -0.63259792327880848 1.0540200471878054 -0.42250235378742212 -0.36107680201530451 -0.86368608474731434 0.58075344562530529 -0.85086077451705922 -0.39978508651256556 0.96799990534782421 1.0000000180025095e-35 0.71014526486396801 -0.83689627051353443 1.0000000180025095e-35 -0.96671754121780384 -1.019187808036804 0.94529029726982128 0.88081035017967235 0.99576470255851757 -0.99011489748954762 -0.96309679746627797 0.75056695938110363 1.0491442680358889 1.107059180736542 -0.42628984153270716 0.9347364902496339 -1.4800451993942259 0.90933781862258922 0.98429995775222789 -1.1800646781921384
decision_type=2 2 2 2 2 2 2 2 2 2 2 2 2 2 2 2 2 2 2 2 2 2 2 2 2 2 2 2 2 2 2 2 2 2 2 2 2 2 2 2 2 2 2 2 2 2 2 2 2 2 2 2 2 2 2 2 2 2 2 2 2 2
left_child=1 4 16 19 13 17 35 -8 47 10 11 -5 -12 14 32 48 24 18 -6 20 21 -4 44 42 30 28 39 33 -26 -29 31 -2 -1 -28 -32 -7 -24 57 -27 41 -41 -10 46 -44 -21 -19 -18 60 -11 -39 51 -15 -16 55 -55 -49 -22 -25 -17 -52 61 -3
right_child=2 8 3 9 5 6 7 -9 26 15 12 -13 -14 50 52 58 23 45 -20 22 56 -23 36 37 25 38 27 29 -30 -31 34 -33 -34 -35 -36 -37 -38 49 -40 40 -42 -43 43 -45 -46 -47 -48 53 -50 -51 59 -53 -54 54 -56 -57 -58 -59 -60 -61 -62 -63
leaf_value=0.051909014279677868 -0.1224760129360809 -0.10375083107911885 -0.12671406685887787 0.050588487130558385 0.10659024366654102 -0.10406831547128768 0.05466074318190986 -0.040604992120141951 -0.011992304416862739 -0.15232626081253464 0.078653274934813291 -0.052830680089603489 0.039147734755579679 -0.072768403593797937 -0.10781480076612007 0.17905945186867245 -0.14574943743313901 0.10501734381418622 -0.023900085184249163 0.59159417749534893 -0.1129374842716447 0.044443651592676429 -0.1623474278493007 0.12516056835318967 0.094819977259113022 0.00078272114578798737 -0.031225817626559401 -0.073911010883637815 0.020127761705888408 0.064789881097375948 0.081332505072752193 0.066044216729183911 -0.053367495809603177 0.057287644900195771 0.11803324203878995 0.14363367308861774 0.049969880811689016 0.32493277143939503 -0.16330649791090934 -0.1121906938307784 0.077310373378562558 0.27971977749623617 0.084312995168847354 -0.13926805521482066 -0.10865945629977235 0.15520136619373348 -0.029452232993755892 0.074282169159683123 0.081646268420813919 -0.1524534437843294 -0.096429111945830301 0.12611847910495663 0.31759022497972011 0.1495852089760292 0.061515338096796629 -0.12783483713091928 -0.032905488879884058 0.3164889045303001 0.1366006624487105 -0.13645584086288778 -0.13475662557202472 -0.11216731964403426
leaf_weight=2809.1605212744325 135.51726534962654 9.7735926741734129 291.0925206951797 6736.0235594268888 874.25667143799365 558.87489054724574 31603.983472665772 940.8834191635251 207.23030216246843 83.320489890873432 15885.859848914668 1837.5619690269232 6620.9988676160574 98.807595642283559 354.02105259802192 602.6228418648243 162.08166202157736 1926.6116924677044 645.04790702462196 4.2759565114974967 725.93977709114552 1096.2487680278718 82.276610262691975 29.173125945031643 2136.7355139665306 350.40426117181778 731.13247473910451 1391.5334078278393 1253.1864244472235 251.23055396415293 5568.0234371162951 2596.26786355488 397.182582128793 1439.8507063388824 5465.957148719579 65.96127362549305 2700.8089699186385 6.566913664340972 178.57362650334835 1026.3161744177341 97.808078862726688 34.930514620617032 239.12903010845184 53.728345908224583 293.93660897575319 1312.2538705281913 423.2414625454694 65.036950916051865 42.227184887975454 33.150021821260452 201.97082033380866 43.932241875678301 6.6350173614919177 252.72580067440867 598.23485443927348 54.117163890972733 215.48096508905292 78.702153235673904 411.30412076413631 235.54900014400482 1.3313637543469656 36.481128767132759
leaf_count=9946 790 364 1459 16093 1870 3051 82993 5509 1036 415 28748 7516 14693 572 8223 173 869 3376 3156 4 3892 2373 404 49 3320 925 3289 6961 3268 749 9057 4682 3020 3304 6350 133 6472 4 800 6451 320 24 310 191 1702 933 1589 190 67 179 1327 108 6 342 1599 407 780 25 225 1464 11 486
internal_value=0 0.0434961 0.0599254 0.0510804 0.0513287 0.0560107 0.049461 0.0519066 -0.00967784 0.0591933 0.0563814 0.0284228 0.0670317 0.00851052 0.0248283 0.135892 0.0777143 0.10167 0.0511882 0.0027637 -0.0331681 0.00853127 0.02992 0.00217395 0.0820959 0.0507645 -0.0245583 -0.00705789 0.0672078 -0.0526993 0.0910154 0.0566922 0.038868 0.0274785 0.0995131 -0.0779195 0.0436931 0.17372 -0.0546109 -0.0734078 -0.0957025 0.0300857 -0.026657 0.0432943 -0.0986188 0.12535 -0.0616561 0.0660629 -0.073631 -0.073521 -0.0917991 -0.0115553 -0.0999886 0.0747517 0.0876711 -0.0175149 -0.094619 0.264747 0.161836 -0.117978 -0.111071 -0.110389
internal_weight=0 48272.9 56340.4 37630 42075.1 37927.9 33169.7 32544.9 6197.73 32219.9 31080.4 8573.59 22506.9 4147.26 3567 1139.47 18710.4 4758.17 1519.3 5410.06 2328.76 1387.34 3081.3 1025.77 17684.7 3918.9 5180.03 3813.75 3389.92 1642.76 13765.8 2731.79 3206.34 2170.98 11034 624.836 2783.09 147.592 528.978 1366.29 1124.12 242.161 878.181 292.857 298.213 3238.87 585.323 1017.7 125.548 39.7169 580.26 142.74 360.656 970.115 850.961 119.154 941.421 107.875 1013.93 437.52 47.5861 46.2547
internal_count=268644 151220 117424 85016 125687 101021 91686 88502 25533 67930 67050 23609 43441 24666 21195 880 32408 9335 5026 17086 8504 3832 8582 3216 29192 8313 22134 14303 6588 7710 20879 5472 12966 6593 15407 3184 6876 257 1725 7831 6771 1060 2959 501 1706 4309 2458 3399 482 183 3471 680 8229 2538 1941 597 4672 74 398 2791 861 850
is_linear=0
shrinkage=0.1


Tree=13
num_leaves=61
num_cat=0
split_feature=31 128 107 75 93 136 128 130 89 67 48 135 134 105 42 70 107 31 90 69 102 7 75 70 23 37 39 56 74 73 107 30 20 20 29 50 99 53 39 28 105 76 55 100 46 7 59 91 0 0 32 105 107 54 39 77 106 62 1 61
split_gain=684.139 692.415 690.244 877.711 1314.05 791.116 803.838 789.26 649.764 768.656 1113.86 625.163 567.411 509.33 452.396 843.622 481.868 569.297 426.713 387.732 370.277 320.807 316.944 315.816 424.806 290.953 344.002 282.609 278.513 269.995 239.573 224.148 213.984 210.336 182.686 179.13 170.063 158.05 150.395 146.83 135.989 143.825 134.78 105.104 99.3468 98.3101 80.52 75.8223 73.3457 137.158 70.6479 93.4038 40.2793 1.02232 0.981902 0.471282 0.371945 0.390719 0.370826 0.0539637
threshold=1.0067798495292666 1.0000000180025095e-35 -0.97447729110717762 -1.0899584293365476 -1.057313024997711 1.0000000180025095e-35 1.0000000180025095e-35 1.0000000180025095e-35 -0.21255258470773694 0.32622952759265905 1.2250861525535586 1.0000000180025095e-35 1.0000000180025095e-35 -0.82198214530944813 1.1158607006073 -0.078432422131299959 -0.99264705181121815 0.99096420407295238 -1.1905251145362852 -0.10445981472730635 -0.83561429381370533 0.57012006640434276 -1.1269120573997495 -0.06954582035541533 0.95031303167343151 0.84357482194900524 0.88182035088539135 0.89155003428459179 -0.85750412940978993 -0.79963389039039601 -0.87643340229988087 1.0617035627365115 1.3235579133033755 1.1322993636131289 1.1047466993331911 1.2398536801338198 -0.94113430380821217 1.030984163284302 1.0177406668663027 1.1620962023735049 -0.9201810061931609 -0.95144689083099354 0.9898379147052766 -0.76352816820144642 1.1942396163940432 0.82688510417938244 0.78499346971511852 -1.1822788119316099 0.34822133183479315 0.24425505846738818 0.90945756435394298 -0.88679751753807057 -0.98141938447952259 1.0236954689025881 0.94212573766708385 -1.2421225905418394 -0.8989976942539214 0.53238970041275036 0.29945586621761328 0.60462802648544323
decision_type=2 2 2 2 2 2 2 2 2 2 2 2 2 2 2 2 2 2 2 2 2 2 2 2 2 2 2 2 2 2 2 2 2 2 2 2 2 2 2 2 2 2 2 2 2 2 2 2 2 2 2 2 2 2 2 2 2 2 2 2
left_child=2 12 11 4 5 6 -4 33 9 10 -5 14 13 25 16 44 28 -18 -7 40 22 48 56 38 -25 45 -27 54 -1 42 31 -29 39 -6 -9 -11 -34 -32 -10 -24 41 -13 -15 -17 -16 -2 -42 -23 49 -22 51 -21 -52 -49 55 -14 -3 -58 -31 -56
right_child=1 20 3 8 7 18 -8 34 23 35 -12 19 27 29 15 43 17 -19 -20 50 21 47 32 24 -26 26 -28 30 -30 58 37 -33 36 -35 -36 -37 -38 -39 -40 -41 46 -43 -44 -45 -46 -47 -48 53 -50 -51 52 -53 -54 -55 59 -57 57 -59 -60 -61
leaf_value=-0.12754802074089011 -0.13009521739087795 -0.16340999315061544 0.058508629414773687 0.057276449680507414 0.15924433388009071 0.013328847633402939 -0.019031071693201299 -0.033304433958282587 -0.071846700758623858 0.11697104375532104 -0.067645308209796709 -0.085037431933191826 -0.11640546659660932 -0.073185347116784719 -0.015579743325700847 -0.22657954321367546 0.057376445327025939 -0.050791483012386757 -0.094327538571476133 0.112343550505406 0.19760280649578205 0.16446439364504906 -0.14996202857824059 -0.13118462302421155 0.10924258203555103 0.18950496245181744 -0.0068187205224119786 -0.070811948465705585 -0.0023559808582748944 -0.18629134994332364 -0.109591699466226 0.17543314196015236 0.11573539013680688 -0.08787084758232809 0.084032282584646609 -0.069430053516673404 -0.15319493058421418 0.1120749244770326 -0.22616233361736132 0.20820729335261007 -0.1056028077969472 0.10262442237091707 0.15431974060919618 0.14711860404941898 -0.14018812991790922 0.21806955273335127 0.016146866803204554 -0.13097094184086283 0.3150766520362201 -0.15015914361158172 0.12686304704943743 -0.18548042387508185 0.18962282743018966 -0.1508129484936539 -0.11164865888503801 -0.1494734080785412 -0.11450505318298049 -0.13510809860536832 -0.1472924293108252 -0.1298534658004715
leaf_weight=189.69497748836875 225.1799355763942 2.7515617273747912 12235.677838622592 66571.859815129545 35.28601099550724 1074.6929764845408 1500.9738310631365 186.11571890115738 196.44989740476012 2397.1118156015873 721.50130349956453 51.022979483008385 5.1288647800683966 28.295127600431442 73.921452252194285 7.8868151269853106 3532.2547457013279 564.29735991358757 560.03989110887051 30.684251539409161 36.49050897359848 8.926462382078169 11.765874616801737 114.75802233442664 204.35405088216066 90.706632135435939 5563.278265863657 40.657453313469887 2810.7155963508412 2.6284688860177985 66.090267434716225 407.10911779850721 99.805266190320253 1443.6965282009915 462.23621842265129 52.688387855887413 30.761799767613411 62.664075665175915 93.079714987426996 420.43288603425026 104.61933077871799 204.62636546231806 326.73781170882285 164.62830257415771 475.8588489331305 8.4131516367197019 112.98659206926823 67.424177411943674 19.810738608241081 16.455491326749325 646.20609940961003 16.032549876719713 121.48904348909855 42.230835154652596 13.993129666894673 26.991014532744884 17.571438787505031 19.330578804016113 33.678090393543243 1.8427046313881863
leaf_count=1333 1439 24 35609 132794 38 6535 7890 662 2128 1203 2643 238 47 123 556 53 8895 2859 2842 37 6 11 62 901 371 234 21662 256 16483 11 288 485 138 6798 691 120 144 111 710 743 679 576 118 394 6365 27 323 414 6 78 346 82 51 201 187 130 190 109 181 14
internal_value=0 0.0183668 0.0493407 0.0520573 0.0320155 0.0422099 0.050036 -0.0416462 0.0570424 0.0579401 0.0559371 0.023135 0.00819659 -0.000844755 0.0125026 -0.0628947 0.0201762 0.0424764 -0.0235529 0.0876991 0.106818 -0.0143719 0.14531 -0.0458328 0.022781 -0.00818762 -0.00366911 0.0991045 -0.010271 0.109626 0.118507 0.153074 0.164564 -0.0819751 0.0503496 0.112962 0.052375 -0.0017077 -0.121457 0.198457 0.0157147 0.0651705 0.136188 0.130034 -0.123434 -0.117556 -0.0423872 -0.115798 0.150936 0.0895192 0.129529 0.0101345 0.136795 -0.138613 -0.134146 -0.144193 -0.127942 -0.125298 -0.150116 -0.113767
internal_weight=0 7697.15 96957.4 87850.5 17498.7 15371.4 13736.7 2127.33 70351.8 69743.2 67293.4 9106.93 6903.39 6278.92 7819.26 722.295 7096.96 4096.55 1634.73 1287.67 793.758 191.338 602.419 608.642 319.112 5887.58 5653.98 624.477 3000.41 391.339 576.521 447.767 562.766 1478.98 648.352 2449.8 130.567 128.754 289.53 432.199 473.255 255.649 355.033 172.515 549.78 233.593 217.606 118.581 72.7567 52.946 814.412 46.7168 767.695 109.655 47.9557 32.1199 39.6536 36.902 36.3066 15.8358
internal_count=268644 27439 241205 201935 61065 52876 43499 8189 140870 136760 135437 39270 25313 23795 36938 7368 29570 11754 9377 2332 2126 716 1410 4110 1272 23362 21896 1518 17816 433 1140 741 1087 6836 1353 1323 282 399 2838 805 1816 814 241 447 6921 1466 1002 626 90 84 516 119 397 615 378 177 323 299 192 201
is_linear=0
shrinkage=0.1


Tree=14
num_leaves=60
num_cat=0
split_feature=53 102 4 102 135 135 30 26 135 73 41 70 41 45 12 102 130 28 134 103 29 31 62 32 72 28 53 111 20 105 134 114 72 0 105 32 29 130 6 65 100 43 5 5 105 72 43 99 77 103 54 42 7 126 86 98 130 76 31
split_gain=646.758 2512.2 1046.86 1424.23 1022.55 859.548 857.37 700.851 681.506 653.179 1058.26 773.991 917.901 1129.02 600.109 560.09 646.885 554.144 444.496 561.961 430.905 409.416 403.592 377.759 362.847 343.263 868.079 338.934 324.449 321.001 299.876 264.72 263.328 276.989 221.489 212.626 175.468 168.695 191.625 178.241 171.976 148.858 146.257 125.525 125.048 93.6191 80.6675 78.3381 69.4581 52.6891 126.344 52.2114 31.3455 15.4668 13.1141 4.93831 2.27285 3.27497 1.68804
threshold=0.97660502791404735 -0.91727104783058155 0.71439719200134288 -0.94327664375305165 1.0000000180025095e-35 1.0000000180025095e-35 1.0773357152938845 1.3564955592155459 1.0000000180025095e-35 -0.89656683802604664 0.92922818660736095 -0.37792718410491938 0.96444198489189159 1.0480781793594363 0.88091060519218456 -0.91164228320121754 1.0000000180025095e-35 1.3383076786994936 1.0000000180025095e-35 -0.88768577575683583 1.1555823683738711 0.99632075428962719 0.52761042118072521 0.90861338376998912 -0.71076983213424672 1.2731853723526003 0.96055942773818981 -0.99664324522018422 1.502666771411896 -0.91139701008796681 1.0000000180025095e-35 -0.92514485120773304 -0.75261536240577687 0.57387423515319835 -0.92989313602447499 0.94573825597763073 1.2225382328033449 1.0000000180025095e-35 0.69823294878005993 0.13423541933298114 -0.94169074296951283 0.91674911975860607 0.7587781846523286 0.69155651330947887 -0.89754185080528248 -0.63654503226280201 0.93103075027465831 -0.9310464859008788 -1.2653536200523374 -0.90484368801116932 0.93855267763137828 0.89562755823135387 0.70268723368644725 -1.4405187368392942 -1.2220010757446287 -0.93915826082229603 1.0000000180025095e-35 -1.2048819065093992 1.0029701590538027
decision_type=2 2 2 2 2 2 2 2 2 2 2 2 2 2 2 2 2 2 2 2 2 2 2 2 2 2 2 2 2 2 2 2 2 2 2 2 2 2 2 2 2 2 2 2 2 2 2 2 2 2 2 2 2 2 2 2 2 2 2
left_child=1 2 4 8 32 7 29 22 27 35 18 15 14 -14 -13 31 -17 -10 19 20 -11 -8 45 -21 42 49 43 -4 30 -6 -9 -12 36 -34 -26 37 -1 38 44 46 -40 -28 -5 -27 -2 -3 -39 -30 -41 50 -7 -51 54 -54 -20 56 57 -37 -58
right_child=9 5 3 24 6 25 21 28 17 10 11 12 13 -15 -16 16 -18 -19 52 23 -22 -23 -24 -25 34 26 41 -29 47 -31 -32 -33 33 -35 -36 55 -38 39 40 48 -42 -43 -44 -45 -46 -47 -48 -49 -50 51 -52 -53 53 -55 -56 -57 58 -59 -60
leaf_value=-0.0085647693076699172 -0.18104086923077339 -0.11355053413235701 0.084140159422965655 -0.059387145438100732 0.05850192790369594 -0.14186015596781318 0.14912272721506126 0.033588715903600901 -0.13492471149507157 0.052035810152587916 0.066521441057193403 0.10329824894255041 -0.093880357434600437 0.0445411646944157 -0.0062534541570693457 -0.039259537049044411 0.059867959469459636 0.12032903567018874 0.20721889769778296 0.071559805383428696 0.13977995962877388 -0.042202636125513129 0.40398025827941036 -0.040299690926041375 -0.11522682629850574 -0.034539974900501029 0.21554700357245549 -0.089899179139198773 0.027060062503344248 -0.1727807807522376 0.18130791828353726 0.36689803982374952 0.087867074777511323 -0.075138663074523868 0.41623761876261761 -0.11170054188801121 -0.17963024860840621 -0.0093578807426627341 0.016651012498493822 0.02593946905425755 -0.13018707542746785 0.05430923149783029 -0.14155452545015226 -0.1193864661757931 -0.04496946424122459 -0.042660157431328366 -0.22427693008784685 -0.12499725782417498 0.11875450965033565 -0.067315355293360954 0.16308507528312832 -0.15173250540184582 0.24961671494027007 0.19025796932315239 0.089006890547278339 -0.25182461791281469 -0.2109413394508827 -0.14970994607149071 -0.14211008103092279
leaf_weight=605.27256819233298 110.0345364343375 511.62636105623096 163.69321669265628 392.73199975676835 120.15781889110804 44.234253369271755 2484.9845214858651 1588.7852389421314 91.779381543397903 801.92286957427859 774.22551754117012 3998.4397652111948 593.75219010934234 77563.131717412733 571.49317333847284 2643.0409180019051 876.68520484305918 1160.1116037778556 15.796133205294607 902.91006193682551 1852.8529067970812 117.11700664460659 17.045655724592507 453.56028835475445 12.169686589390038 238.77517902851105 94.759673669934273 353.63622454740107 43.865934068337083 119.88018942251801 150.43803911656141 30.495241992175579 625.10799499973655 125.1088814586401 22.048918374814093 93.943121683783829 66.554928589612246 45.32991074770689 657.67150097899139 139.03855925239623 90.769275446422398 144.68121725320816 483.10995895508677 646.39895999804139 174.867222905159 292.96123031154275 28.409498777240515 148.84969989955425 191.92482054233551 82.006971344351768 19.609694197773933 687.4025864303112 168.03037533164024 59.419380947947502 23.120911687612534 3.2230719756335011 4.1711018513888147 29.878272995352745 24.437461007386446
leaf_count=1528 510 5950 588 2533 220 247 2666 5761 515 1295 1275 6962 3096 181237 2391 10377 1325 885 6 1666 2327 449 13 1525 139 1292 43 2995 140 721 213 41 1407 574 93 1376 341 94 2325 421 877 355 5483 5599 950 2050 134 1107 219 439 33 3362 38 54 37 21 42 152 130
internal_value=0 0.020169 0.0584128 0.00942755 0.0891913 -0.0361927 0.12383 -0.000176148 0.0617184 0.0451595 0.046267 0.0438808 0.0460367 0.0434896 0.0895983 0.00263896 -0.0145691 0.101616 0.0948271 0.0865203 0.113275 0.140511 -0.0775372 0.0341576 -0.0922294 -0.0868468 -0.0508048 -0.0348297 0.0327247 -0.0570057 0.046366 0.0779043 0.0199618 0.0606836 0.227225 -0.0183088 -0.0255115 -0.00629173 -0.0277261 0.0484374 -0.00115719 0.11812 -0.10471 -0.0964992 -0.0975229 -0.0877384 -0.0921595 -0.090386 0.0797627 -0.135491 -0.0481961 -0.142735 0.21992 0.23411 0.136988 -0.129332 -0.126742 -0.120872 -0.152146
internal_weight=0 11654.9 6943.46 2679.28 4264.18 4711.44 2842.14 2753.57 1769.22 92922.6 91328.9 87051.3 82726.8 78156.9 4569.93 4324.45 3519.73 1251.89 4277.61 4011.25 2654.78 2602.1 821.633 1356.47 910.061 1957.87 1124.62 517.329 1931.94 240.038 1739.22 804.721 1422.04 750.217 34.2186 1593.7 671.827 1438.05 1033.34 404.703 748.441 239.441 875.842 885.174 284.902 804.588 73.7394 192.716 330.963 833.254 63.8439 769.41 266.367 227.45 38.917 155.653 152.43 123.821 28.6086
internal_count=268644 47741 21137 13231 7906 26604 4056 15234 4983 220903 213652 206704 193686 184333 9353 13018 11702 1400 6948 6813 3622 3115 8013 3191 8248 11370 7289 3583 7221 941 5974 1316 3850 1981 232 7251 1869 5530 4662 868 3202 398 8016 6891 1460 8000 228 1247 640 4081 280 3801 135 92 43 1721 1700 1528 172
is_linear=0
shrinkage=0.1


Tree=15
num_leaves=61
num_cat=0
split_feature=67 115 127 108 77 116 77 76 124 133 83 134 107 91 76 53 37 75 67 101 41 89 72 71 54 23 106 112 113 39 92 41 105 122 125 112 70 73 122 51 97 113 110 110 122 109 110 110 122 41 41 75 111 110 108 110 110 112 107 120
split_gain=562.238 1029.68 842.128 732.665 1265.84 2173.57 1200.3 764.827 674.34 573.9 479.43 477.931 575.689 390.751 465.562 294.696 185.753 206.538 323.344 179.989 143.31 300.145 217.155 149.201 142.475 170.596 120.799 108.301 174.395 99.8649 94.7772 62.126 152.691 69.7315 59.4795 49.1994 48.6727 40.2997 40.2237 32.0159 25.1392 85.6887 42.1793 14.2071 12.0021 11.1836 9.72624 8.225 7.38125 4.24883 2.09529 1.92239 1.27842 0.644154 0.146346 0.0291316 0.0112728 0.00184964 0.00150641 0.000749194
threshold=0.32622952759265905 -1.439187705516815 -3.4205516576766963 -0.91783750057220448 -1.1961959600448606 -1.0269605517387388 -1.0912246108055113 -1.1557503342628477 -1.5441288352012632 1.0000000180025095e-35 -1.115385055541992 1.0000000180025095e-35 -0.96825391054153431 -0.97415348887443531 -1.1177480816841123 1.1163867712020876 0.93735045194625866 -0.46002262830734247 0.2710318267345429 -0.79452088475227345 1.1034924387931826 -0.24064980447292325 -0.29834912717342371 -0.23155906051397321 1.1203954815864565 0.95031303167343151 -0.9002297818660735 -1.2991043925285337 -1.358137249946594 1.0202525258064272 -0.88470876216888417 1.0885066390037539 -0.76611202955245961 -2.065658330917358 -2.7377862930297847 -1.2925156354904173 -0.056204922497272485 -0.37966997921466822 -2.065658330917358 1.1985688209533694 -0.41730551421642298 -1.3499445319175718 -1.1800646781921384 -1.1731657385826109 -2.065658330917358 -1.1221345067024229 -1.1800646781921384 -1.1776986122131345 -2.065658330917358 0.99504181742668163 1.0831283926963808 -0.51592782139778126 -1.2340945601463316 -1.1731657385826109 -1.0443370938301084 -1.1731657385826109 -1.1731657385826109 -1.3024480938911436 -0.91735580563545216 -1.7582394480705259
decision_type=2 2 2 2 2 2 2 2 2 2 2 2 2 2 2 2 2 2 2 2 2 2 2 2 2 2 2 2 2 2 2 2 2 2 2 2 2 2 2 2 2 2 2 2 2 2 2 2 2 2 2 2 2 2 2 2 2 2 2 2
left_child=1 16 24 6 5 8 13 -7 -5 10 -6 12 -8 14 -3 38 17 18 45 -13 27 23 -23 -22 31 44 -20 28 -17 37 -15 32 -2 55 -29 40 -31 -27 56 -34 42 -42 -18 -35 58 -1 50 -40 -48 -11 -19 54 -49 -53 -37 -33 57 -4 -26 -58
right_child=2 3 15 4 9 7 11 -9 -10 49 -12 19 -14 30 -16 20 35 46 26 -21 21 22 -24 -25 25 29 -28 34 -30 36 -32 33 39 43 -36 51 -38 -39 47 -41 41 -43 -44 -45 -46 -47 48 52 -50 -51 -52 53 -54 -55 -56 -57 59 -59 -60 -61
leaf_value=-0.10782369184520982 0.50670135167140662 -0.066815383050952984 -0.11270828140457854 0.027248494127324097 0.062599876870162149 0.029306024129195793 0.020816593385901305 0.059206138112584662 -0.11358865033030181 -0.23330966886418519 -0.096430647515741486 0.022741726428536321 0.052913893915803312 -0.11628779187220926 0.005718432143474202 0.10501705805462956 -0.11366576166086458 -0.15575160272152103 0.4629664085902217 -0.11493125585033133 -0.16949180470481406 -0.26824518690637794 0.039022292972310454 0.098012727395283494 -0.12945452853511374 0.071732318239656812 0.10397216716776431 0.077507847273241462 0.40571454685889208 -0.280127537872017 0.13184773288938245 -0.11138792277805354 -0.11791143719452586 -0.19732220877162798 0.12217758596847426 -0.18278394427194131 0.091101840342779558 0.22697310153875888 -0.24378464792021146 0.13462480644066752 -0.12698316435526502 0.061916967515136347 -0.21348185290729171 -0.31629448877370125 -0.27304540423096663 -0.19449595656000782 -0.11642239615438105 -0.38402677452569273 -0.23795061083562913 -0.18129465449471951 -0.11172548951398574 -0.22385032657108908 -0.4606160428959471 -0.25497300499508613 -0.20677412685882768 -0.11479080174707507 -0.11909167229028116 -0.11631896554760815 -0.13168206488411857 -0.12128301841281536
leaf_weight=29.863357815891504 4.8671764060854903 1066.5236489158124 3.2516141775995493 462.1898432970047 26038.559257446788 31629.75350981066 10853.748182473704 11726.690502219833 1285.683850357309 20.384477578103542 190.95794374030083 142.06979681551456 11517.676637938246 399.84101278148592 5196.4490995854139 45.557574721053243 153.14003073237836 22.176295569166541 10.300019115209578 286.38661351799965 21.533661998808384 42.619391411542892 49.965464171953499 656.91249281913042 3.4032346718013313 33.952800631523132 104.17033011838794 378.69424460083246 33.448317926377058 9.2103728353977186 16.009428601711988 38.269314058125019 37.463189013302326 17.401645481586456 1400.3821550495923 4.6193294376134872 5.7285046130418769 32.950460582971573 3.4742809534072867 5.7969689369201651 113.80601910501719 30.435834340751171 58.509623419493437 23.717149212956429 7.3879377245903006 29.686982300132513 6.5014869719743755 4.0191628634929648 21.60829958319664 68.395524993538857 21.090724421665072 9.4588731639087182 4.761196441948413 22.396297678351406 5.6566533446311933 73.429159082472324 2.6674240007996559 2.5169817358255386 28.131015405058861 3.7585292458534258
leaf_count=652 11 5034 35 750 46782 94249 38140 17641 4946 90 1989 736 22864 2433 17700 46 3932 166 25 2746 77 305 185 584 21 29 156 319 19 47 23 438 320 110 516 21 4 24 26 1 2079 55 244 111 37 130 55 21 90 306 251 41 30 98 23 660 20 21 154 26
internal_value=0 0.0368762 0.0809792 0.0376804 0.0431548 0.0329855 0.0244166 0.0373932 -0.0763471 0.060583 0.0614421 0.0353379 0.0373415 -0.0128661 -0.00663337 0.0995036 -0.0892261 -0.0207972 0.0379576 -0.0692809 0.102717 0.0664738 -0.102421 0.0895222 -0.0718157 0.0140275 0.136274 0.117757 0.232322 0.0959919 -0.106735 -0.123406 -0.0243254 -0.15461 0.112669 -0.131415 -0.137775 0.14819 -0.246073 -0.084071 -0.119319 -0.0871242 -0.141259 -0.265945 -0.15832 -0.151031 -0.164045 -0.374024 -0.209842 -0.193238 -0.134291 -0.233599 -0.425558 -0.245732 -0.19599 -0.113625 -0.117493 -0.114284 -0.131442 -0.120373
internal_weight=0 101545 2975.27 100901 71422.6 45104.3 29478.7 43356.4 1747.87 26318.3 26229.5 22799.9 22371.4 6678.82 6262.97 2653.56 643.42 245.397 174.021 428.456 2629.11 771.031 92.5849 678.446 321.709 120.764 114.47 1858.08 79.0059 81.8421 415.85 200.945 48.1273 152.817 1779.08 398.023 14.9389 66.9033 24.4492 43.2602 355.892 144.242 211.65 41.1188 38.9222 59.5503 71.3768 12.2546 28.1098 88.78 43.267 42.1312 8.78036 31.8552 10.276 111.698 12.1945 5.7686 31.5343 6.42595
internal_count=268644 264447 4197 256429 166753 117586 89676 111890 5696 49167 48771 64486 61004 25190 22734 2230 8018 1525 963 3482 2051 1151 490 661 1967 316 181 900 65 104 2456 1651 332 1319 835 6493 51 53 179 321 6310 2134 4176 221 212 782 562 77 145 396 417 183 51 139 44 1098 102 56 175 46
is_linear=0
shrinkage=0.1


Tree=16
num_leaves=53
num_cat=0
split_feature=69 74 28 108 77 111 77 131 53 46 67 133 80 91 76 116 102 95 127 37 130 75 127 79 71 37 112 110 58 19 122 122 110 84 122 122 68 115 110 41 116 109 41 111 110 54 20 110 22 64 112 69
split_gain=523.633 923.81 641.823 620.305 1048.91 1980.53 950.425 701.396 550.082 507.166 601.039 505.814 431.373 334.421 386.854 291.1 217.36 178.074 124.199 184.227 88.8756 77.3143 61.5234 60.057 139.137 56.5816 53.9548 27.603 42.6746 97.3809 21.9243 15.6602 10.7863 25.1832 9.13362 8.63146 7.63117 6.33329 4.37513 4.12197 3.55649 3.31529 3.23092 1.65601 0.768264 0.690977 0.0869905 0.152846 0.0658674 0.0194884 0.0125652 0.000695916
threshold=0.056754915043711669 -0.45197667181491846 0.8759140968322755 -0.91783750057220448 -1.2005030512809751 -0.9466031789779662 -1.0912246108055113 1.0000000180025095e-35 1.1163867712020876 1.2282149791717532 0.29424123466014868 1.0000000180025095e-35 -1.1039206981658933 -0.97415348887443531 -1.1177480816841123 -1.0089173316955564 -0.79581347107887257 -0.69576355814933766 -3.4205516576766963 0.92737314105033886 1.0000000180025095e-35 -0.49220499396324152 -2.7489762306213374 -0.31305883824825281 -0.1910426467657089 0.92822477221488964 -1.3024480938911436 -1.1800646781921384 0.93884378671646129 0.86255425214767467 -2.065658330917358 -2.065658330917358 -1.1825190782546995 -0.30343562364578242 -2.065658330917358 -2.065658330917358 0.20578390359878543 -1.4053693413734434 -1.1800646781921384 1.0831283926963808 -1.3008788824081419 -1.1119756102561948 0.99504181742668163 -1.2287991642951963 -1.1755014657974241 1.1203954815864565 0.93682909011840831 -1.1776986122131345 0.93121233582496654 0.61497995257377636 -1.3024480938911436 0.073821995407342925
decision_type=2 2 2 2 2 2 2 2 2 2 2 2 2 2 2 2 2 2 2 2 2 2 2 2 2 2 2 2 2 2 2 2 2 2 2 2 2 2 2 2 2 2 2 2 2 2 2 2 2 2 2 2
left_child=1 3 23 6 5 15 13 -7 30 10 -8 12 -6 14 -1 -5 -11 22 19 -19 -15 -3 -10 24 35 -26 -20 32 31 -30 46 -29 39 -34 45 -2 41 -27 51 -23 -24 -32 -13 -37 -38 49 50 -48 -47 -25 -4 -36
right_child=2 21 8 4 11 7 9 -9 17 16 -12 42 -14 20 -16 -17 -18 18 26 -21 -22 27 40 34 25 37 -28 28 29 -31 36 -33 33 -35 38 43 44 -39 -40 -41 -42 -43 -44 -45 -46 48 47 -49 -50 -51 -52 -53
leaf_value=-0.061600338870475536 -0.12345496974822084 0.1875435032220891 -0.11041631772895361 -0.12292085204318853 0.055148185750195512 0.026607522932454761 0.028971060108253507 0.061046478281691102 0.099805709146193161 0.21928037833630204 0.095875461660603456 -0.21305772035924739 -0.11586740488754976 -0.13151560511893062 0.0051426940433015305 -0.010507702288773355 -0.099416163242534786 0.13541331264016729 0.006277754648962546 -0.1312285893206071 -0.028621757576608037 -0.14938195901007406 -0.16566922299856235 -0.12241223619801855 0.27498959159918174 -0.046255320914749459 0.10875668438506431 -0.11569177588933931 -0.19073221774934401 0.032293230720963385 -0.14319782437647116 -0.22371938390634308 0.059914234208917928 -0.13759836887492077 -0.10447709635854639 -0.22260510564200497 -0.27624764211666769 0.078454386054240405 -0.24348706960632394 -0.10721952204199214 -0.29087184164921526 -0.23296783772051147 -0.17003739062543657 -0.30737489732568446 -0.33040521422458796 -0.12725430257732773 -0.14674406644697505 -0.11617368369319143 -0.14022044469056114 -0.11242693610429233 -0.11689296164974361 -0.10748681912501923
leaf_weight=1042.4321542605758 4.9131558984518078 7.5523767471313468 4.3143412694334993 940.62089637294412 28709.608883066103 34024.188519690651 21417.710573566146 7157.8614210849628 6.0106812603771713 22.705270193517208 1432.5560306468979 23.468043155968189 148.25828341487795 278.31956520862877 5202.7589787635952 305.07435683533549 372.42658557090908 49.106616795063019 52.566452330909669 54.858374431729317 120.20207603834569 30.019817328080535 2.6846077479422137 1.9906014390289772 14.288620684295894 9.997520327568056 2268.7022617682815 15.9732124581933 54.068775609135628 30.690677911043167 4.9576783273369065 83.927423596382141 12.00319465249777 13.966795016080139 1.7645533196628087 3.2574573382735261 3.8905901331454507 6.8708252534270278 8.8177835047245008 101.88029617536813 14.647956117987629 24.173324846662585 68.160399802029133 7.8776412187144134 8.0163605362176877 28.994900360703468 2.7721314653754234 3.9888582229614249 4.5299580097198477 108.02207312174141 9.7991288751363754 1.3606546260416506
leaf_count=5034 37 1 59 4241 52180 90102 65322 17317 4 22 1561 103 1780 2166 17699 746 1883 75 356 238 290 279 24 18 7 37 1211 140 259 44 46 347 34 110 44 24 24 11 38 2681 67 101 315 39 38 177 16 34 24 1135 81 23
internal_value=0 0.033224 0.077738 0.0337846 0.0388492 0.0288357 0.0216899 0.0325934 0.0915577 0.0312231 0.0331655 0.0535248 0.0542696 -0.0116654 -0.00599789 -0.0953905 -0.0811031 0.0990011 0.101647 -0.00528348 -0.100481 -0.128941 -0.175877 -0.0934355 0.0053545 0.128569 0.106436 -0.135919 -0.162167 -0.109977 -0.202818 -0.206447 -0.105217 -0.0463091 -0.123429 -0.233862 -0.24526 0.00454152 -0.207454 -0.116815 -0.271479 -0.21769 -0.181056 -0.282576 -0.312709 -0.116438 -0.119381 -0.128708 -0.129006 -0.112608 -0.114913 -0.105787
internal_weight=0 101616 2713.18 101266 71377.2 42427.7 29889.1 41182 2510.49 23245.4 22850.3 28949.5 28857.9 6643.71 6245.19 1245.7 395.132 2448.58 2425.23 103.965 398.522 350.083 23.3432 202.686 47.2052 31.157 2321.27 342.53 184.66 84.7595 61.9124 99.9006 157.87 25.97 155.481 16.0483 41.038 16.8683 11.943 131.9 17.3326 29.131 91.6284 11.1351 11.907 143.538 20.8745 6.76099 33.5249 110.013 14.1135 3.12521
internal_count=268644 264656 3988 260761 166784 112406 93977 107419 2374 68788 66883 54378 53960 25189 22733 4987 1905 1975 1880 313 2456 3895 95 1614 155 55 1567 3894 790 303 399 487 3104 144 1459 100 209 48 105 2960 91 147 418 63 62 1354 190 50 201 1153 140 67
is_linear=0
shrinkage=0.1


Tree=17
num_leaves=63
num_cat=0
split_feature=31 136 52 75 92 109 80 56 32 54 128 136 129 69 41 110 76 115 130 94 30 102 109 128 61 32 122 108 54 111 113 29 70 73 20 54 128 35 97 101 49 41 101 54 32 52 127 125 126 7 129 103 31 77 76 38 40 130 31 62 31 54
split_gain=513.667 685.6 580.335 535.003 1081.97 727.007 1367.13 875.043 728.306 993.674 631.127 746.093 706.941 615.102 814.601 669.493 536.084 461.05 445.772 394.508 393.123 290.962 284.738 352.157 279.404 667.989 277.721 267.343 266.957 232.365 333.96 229.837 229.312 224.941 223.846 211.255 198.353 193.334 192.532 176.741 162.575 158.029 210.167 246.951 204.18 146.253 94.2406 100.554 125.077 87.3386 70.3698 37.624 32.2336 59.3195 26.2782 20.4409 57.8015 18.994 12.9894 8.93109 0.277268 0.142542
threshold=1.0062697529792788 1.0000000180025095e-35 1.031239449977875 -1.0899584293365476 -1.0926345586776731 -0.92317795753478993 -1.2499594092369077 1.0102061629295351 0.96529284119606029 1.0533476471900942 1.0000000180025095e-35 1.0000000180025095e-35 1.0000000180025095e-35 -0.041173739358782761 1.020531237125397 -1.1731657385826109 -1.1976472139358518 -0.92663711309432972 1.0000000180025095e-35 -0.98476672172546376 1.0556450486183169 -0.91164228320121754 -0.91093963384628285 1.0000000180025095e-35 0.67994505167007457 0.9634377956390382 -1.2544952034950254 -0.87431725859642018 1.0533476471900942 -0.93522587418556202 -0.9588608145713805 1.1047466993331911 -0.34017549455165857 -0.7844162881374358 1.1322993636131289 1.0165449380874636 1.0000000180025095e-35 0.86884161829948436 -0.95724862813949574 -0.86895224452018727 1.1922990679740908 1.0449161529541018 -0.82766529917716969 1.0320648550987246 0.96287471055984508 1.0758934020996096 -1.6524814963340757 -1.3971025943756101 -1.5124002099037168 0.56496065855026256 1.0000000180025095e-35 -0.92508646845817555 1.0058225989341738 -1.1738393902778623 -1.1659921407699583 0.93065550923347484 0.96919766068458568 1.0000000180025095e-35 1.0112335681915285 0.53238970041275036 1.0069583654403689 1.0311005115509035
decision_type=2 2 2 2 2 2 2 2 2 2 2 2 2 2 2 2 2 2 2 2 2 2 2 2 2 2 2 2 2 2 2 2 2 2 2 2 2 2 2 2 2 2 2 2 2 2 2 2 2 2 2 2 2 2 2 2 2 2 2 2 2 2
left_child=3 2 21 4 10 6 52 8 17 -10 11 12 -1 14 -8 -15 38 -7 29 24 -13 33 40 -24 25 -4 36 -18 -26 30 -6 49 50 37 -31 46 -21 -2 -12 -34 -9 42 44 -44 -37 -33 55 48 -48 -20 -23 -35 57 -54 -49 59 -57 -5 -28 -3 -43 -62
right_child=1 35 19 5 18 7 13 22 9 -11 16 20 -14 15 -16 -17 27 -19 31 26 -22 32 23 -25 28 -27 58 -29 -30 34 -32 45 39 51 -36 41 -38 -39 -40 -41 -42 60 43 -45 -46 -47 47 54 -50 -51 -52 -53 53 -55 -56 56 -58 -59 -60 -61 61 -63
