tree
version=v4
num_class=1
num_tree_per_iteration=1
label_index=0
max_feature_idx=136
objective=binary sigmoid:1
feature_names=Column_0 Column_1 Column_2 Column_3 Column_4 Column_5 Column_6 Column_7 Column_8 Column_9 Column_10 Column_11 Column_12 Column_13 Column_14 Column_15 Column_16 Column_17 Column_18 Column_19 Column_20 Column_21 Column_22 Column_23 Column_24 Column_25 Column_26 Column_27 Column_28 Column_29 Column_30 Column_31 Column_32 Column_33 Column_34 Column_35 Column_36 Column_37 Column_38 Column_39 Column_40 Column_41 Column_42 Column_43 Column_44 Column_45 Column_46 Column_47 Column_48 Column_49 Column_50 Column_51 Column_52 Column_53 Column_54 Column_55 Column_56 Column_57 Column_58 Column_59 Column_60 Column_61 Column_62 Column_63 Column_64 Column_65 Column_66 Column_67 Column_68 Column_69 Column_70 Column_71 Column_72 Column_73 Column_74 Column_75 Column_76 Column_77 Column_78 Column_79 Column_80 Column_81 Column_82 Column_83 Column_84 Column_85 Column_86 Column_87 Column_88 Column_89 Column_90 Column_91 Column_92 Column_93 Column_94 Column_95 Column_96 Column_97 Column_98 Column_99 Column_100 Column_101 Column_102 Column_103 Column_104 Column_105 Column_106 Column_107 Column_108 Column_109 Column_110 Column_111 Column_112 Column_113 Column_114 Column_115 Column_116 Column_117 Column_118 Column_119 Column_120 Column_121 Column_122 Column_123 Column_124 Column_125 Column_126 Column_127 Column_128 Column_129 Column_130 Column_131 Column_132 Column_133 Column_134 Column_135 Column_136
feature_infos=[-1.8014661073684692:2.1873281002044678] [-1.7160434722900391:2.0962586402893066] [-1.6382262706756592:2.0136351585388184] [-1.5680137872695923:1.9394575357437134] [-1.5054070949554443:1.8737261295318604] [-1.4504051208496094:1.8164401054382324] [-1.4123568534851074:1.7788288593292236] [-1.3844102621078491:1.7939627170562744] [-1.3517893552780151:2.0758624076843262] [-1.3099035024642944:2.0974209308624268] [-1.2559221982955933:2.0165181159973145] [-1.1870334148406982:2.064321756362915] [-1.1039742231369019:2.1106562614440918] [-1.0067610740661621:2.1771299839019775] [-0.90047705173492432:2.2825961112976074] [-0.78966546058654785:2.4052433967590332] [-0.67814630270004272:2.5269482135772705] [-0.65591526031494141:2.5277442932128906] [-0.65910369157791138:2.5653238296508789] [-0.66488730907440186:2.5221147537231445] [-0.66619455814361572:2.4413206577301025] [-0.67410272359848022:2.3840618133544922] [-0.78228282928466797:2.2409591674804688] [-0.70636492967605591:2.1797337532043457] [-0.6794590950012207:2.1696581840515137] [-0.94777458906173706:2.0883691310882568] [-1.2671374082565308:1.9448176622390747] [-1.6690099239349365:1.7314887046813965] [-1.8748650550842285:1.5598906278610229] [-2.1252865791320801:1.3473584651947021] [-2.4037775993347168:1.1459542512893677] [-2.6881959438323975:1.0652625560760498] [-2.6397361755371094:1.0182701349258423] [-2.0424597263336182:1.0153312683105469] [-1.3594627380371094:1.0222163200378418] [-0.85442560911178589:1.096311092376709] [-0.66409575939178467:1.2523990869522095] [-0.67049169540405273:1.345354437828064] [-0.67177027463912964:1.4165236949920654] [-0.67615479230880737:1.3777114152908325] [-0.67391806840896606:1.3165556192398071] [-0.67623704671859741:1.2206546068191528] [-0.67480045557022095:1.2687077522277832] [-0.67815649509429932:1.5027958154678345] [-0.67529547214508057:1.6759111881256104] [-0.67939788103103638:1.7528411149978638] [-0.67687302827835083:1.7343066930770874] [-0.68031680583953857:1.6915385723114014] [-0.67738151550292969:1.8138210773468018] [-0.6802976131439209:2.0951991081237793] [-0.67868822813034058:2.3221406936645508] [-0.68411111831665039:2.3866791725158691] [-0.6882440447807312:2.3278176784515381] [-0.69760811328887939:2.41339111328125] [-0.68820065259933472:2.0181429386138916] [-0.66555494070053101:1.5468263626098633] [-0.63047897815704346:1.3939603567123413] [-0.6819922924041748:1.3641012907028198] [-0.85317844152450562:1.3483799695968628] [-0.73171019554138184:1.3266682624816895] [-0.62303602695465088:1.2987289428710938] [-0.62908732891082764:1.5017008781433105] [-0.65896600484848022:1.6471337080001831] [-0.67422842979431152:1.5433529615402222] [-0.93073725700378418:1.1385354995727539] [-1.1747497320175171:1.0728911161422729] [-1.3727543354034424:0.99044626951217651] [-1.6710461378097534:0.88485002517700195] [-1.8910553455352783:0.75389385223388672] [-2.0949718952178955:0.60495084524154663] [-1.9126988649368286:0.45876148343086243] [-1.7446892261505127:0.33052113652229309] [-1.674402117729187:0.23037496209144592] [-1.5674382448196411:0.15855956077575684] [-1.4517455101013184:0.30397361516952515] [-1.6804615259170532:0.9557119607925415] [-1.8599822521209717:1.4404212236404419] [-2.0371255874633789:1.2026444673538208] [-2.1728529930114746:1.1271375417709351] [-2.2573421001434326:0.66064220666885376] [-2.3058340549468994:0.36351838707923889] [-2.3315773010253906:0.28676301240921021] [-2.3403120040893555:0.33890664577484131] [-2.3343968391418457:0.39074629545211792] [-2.3124566078186035:0.43792322278022766] [-2.2730567455291748:0.47703936696052551] [-2.2140905857086182:0.50853937864303589] [-2.1362462043762207:0.53271615505218506] [-2.0426793098449707:0.67684948444366455] [-1.9374580383300781:0.56802195310592651] [-1.8240519762039185:0.65060514211654663] [-1.7565661668777466:1.0689502954483032] [-1.648851752281189:1.4172115325927734] [-1.5846540927886963:1.6290324926376343] [-1.5245249271392822:1.6652539968490601] [-1.4861346483230591:1.6182962656021118] [-1.4547033309936523:1.5608183145523071] [-1.4384253025054932:1.5597559213638306] [-1.4264529943466187:1.5645072460174561] [-1.522296667098999:1.5648646354675293] [-2.0638625621795654:1.5687597990036011] [-2.4585905075073242:1.5680602788925171] [-2.604130744934082:1.5700795650482178] [-2.5047333240509033:1.5662518739700317] [-2.1062953472137451:1.5664080381393433] [-1.3859066963195801:1.5597469806671143] [-1.1201972961425781:1.5625878572463989] [-1.1215335130691528:1.5619508028030396] [-1.168958306312561:1.5697338581085205] [-1.225764274597168:1.5736351013183594] [-1.369315505027771:1.5827798843383789] [-1.6010570526123047:1.5861003398895264] [-2.1400496959686279:1.5904537439346313] [-2.4733853340148926:1.5896482467651367] [-2.4821960926055908:1.5896980762481689] [-1.9469403028488159:1.5865405797958374] [-1.5772113800048828:1.5868538618087769] [-1.6319060325622559:1.7016431093215942] [-1.6864286661148071:2.5795986652374268] [-1.7459897994995117:2.8008601665496826] [-1.8207311630249023:2.5472877025604248] [-1.9267433881759644:1.7488086223602295] [-2.1567583084106445:1.6308574676513672] [-2.3918964862823486:1.6220458745956421] [-2.6616356372833252:1.8138364553451538] [-2.9761693477630615:2.1645474433898926] [-3.3559722900390625:3.0688047409057617] [-3.8750591278076172:4.2020993232727051] [0:1] [0:1] [0:1] [0:1] [0:1] [0:1] [0:1] [0:1] [0:1]
tree_sizes=6384 6043 6559 6370 6463 6492 6455 6932 6908 6729 6894 6903 6914 7048 6890 6669 6932 7045 6925 6715 6965 6676 6629 6806 6482 6411 6961 6408 6599 6730 6882 6409 6407 6917 6428 6686 6164 6445 6402 6923 6624 6111 6823 6372 6944 5442 6347 6643 4073 6090 6480 6706 6356 4074 6230 6555 6145 4718 6137 6380 6415 5662 6237 6632 6075 6405 6015 6790 6716 6910 6870 6924 6034 6576 4926 6925 6889 5903 6536 6855 6820 6252 6794 6877 6354 6880 6591 4880 6785 6473 6026 5800 6791 5852 5454 6727 4801 6588 6258 6513 6879 5835 6585 6611 5356 6930 6359 6770 4895 5702 4280 5809 6595 6794 6777 5675 4774 4274 4452 6716 6992 6652 5627 6176 6311 6683 6419 6893 4737 6628 6131 6564 4993 6788 6000 6362 4346 6239 4663 6863 6539 4823 4225 6105 5040 6745 6890 6554 6663 5678 6824 6551 6451 6380 5300 6217 6444 6542 6787 6784 6784 6636 6908 6546 6842 6463 4459 6209 6429 6252 6593 6563 6684 5767 6821 6564 6622 5505 6137 5253 6219 6897 6142 5628 6551 6367 6821 6324 5575 6829 5507 5246 6174 6827 6912 5050 6262 6746 6132 7140

Tree=0
num_leaves=59
num_cat=0
split_feature=107 69 31 136 132 130 134 32 110 134 135 81 135 112 68 37 110 128 53 25 71 77 81 132 118 30 63 108 31 31 71 11 90 43 108 135 32 28 55 68 32 34 128 71 104 72 122 93 58 135 71 29 25 102 0 0 68 2
split_gain=540796 121375 141749 57074 50764.3 51439.8 49983.3 41107.7 31834 33780.8 21136.5 17915.9 16392.1 13815.5 14376.1 16476.1 16769.5 11795.6 10747.1 8776.86 7605.46 5379.29 4970.39 4656.26 4196.64 3202.47 3012.12 2682.67 2311.98 2310.88 1933.3 2856.41 1980.28 1600.57 1261.25 1195.54 1167.23 1159.34 1318.76 1015.86 829.767 807.525 791.443 1054.75 810.215 719.7 465.965 311.636 277.669 272.222 270.86 207.129 79.1781 362.227 9.09495e-13 2.84217e-14 1.77636e-15 8.88178e-16
threshold=-0.87573510408401478 -0.095085706561803804 1.0004754066467287 1.0000000180025095e-35 1.0000000180025095e-35 1.0000000180025095e-35 1.0000000180025095e-35 0.94102209806442272 -1.0339416861534116 1.0000000180025095e-35 1.0000000180025095e-35 -0.75802388787269581 1.0000000180025095e-35 -1.036547005176544 0.076485358178615584 0.94202345609664928 -1.1832003593444822 1.0000000180025095e-35 1.0848347544670107 1.1906968951225283 -0.50027820467948902 -1.3118826150894163 -1.3727686405181883 1.0000000180025095e-35 -1.2306354641914365 1.062639653682709 0.56720471382141124 -0.90961751341819752 0.99884578585624706 1.0040911436080935 -0.51284635066986073 0.80543220043182384 -1.0863503217697141 0.99256703257560741 -0.87286329269409169 1.0000000180025095e-35 0.93703573942184459 1.2393961548805239 0.91796869039535534 -0.085394613444805131 0.96857529878616344 0.82282933592796337 1.0000000180025095e-35 -0.41140237450599665 -0.77666795253753651 -0.79806843400001515 -1.0882804393768308 -1.0901225805282591 0.83376803994178783 1.0000000180025095e-35 -0.41462104022502894 1.1566855907440188 1.6466697454452517 -0.94336816668510426 0.30454953014850622 0.63153129816055309 -0.080347273498773561 0.69523894786834728
decision_type=2 2 2 2 2 2 2 2 2 2 2 2 2 2 2 2 2 2 2 2 2 2 2 2 2 2 2 2 2 2 2 2 2 2 2 2 2 2 2 2 2 2 2 2 2 2 2 2 2 2 2 2 2 2 2 2 2 2
left_child=1 2 3 4 5 -1 10 28 24 12 17 -6 -10 14 19 16 -16 52 -17 26 -11 -9 40 -21 35 41 -3 -24 34 -26 31 -23 -32 56 47 -4 -36 38 -27 -35 -19 51 48 50 -45 -39 -43 -8 -15 -50 -44 -12 54 -54 -2 -5 -30 -57
right_child=6 13 8 55 11 -7 7 21 9 20 25 -13 -14 42 15 18 -18 22 -20 23 -22 30 27 -25 29 37 -28 -29 33 -31 32 -33 -34 39 36 -37 -38 45 -40 -41 -42 46 43 44 -46 -47 -48 -49 49 -51 -52 -53 53 -55 -56 57 -58 -59
leaf_value=-1.3819625713377128 -3.1488652682225857 -1.1173086060839534 -1.2019215442093347 -3.1488652682225857 -2.7748560449312589 -3.1488652682225857 -0.95337965938950253 -0.8449853878390825 -2.9399205769711663 -1.4543355423008848 -1.0039359546693132 -1.6225063508598601 -2.0208580250900674 -1.7261097400391792 -1.5492828141554522 -1.8311706835672115 -2.6180210882234007 -3.0507584746559182 -2.8902525120090874 -1.9802348987062732 -2.1471938987370942 -1.434745686685226 -1.0370494939428681 -2.9000508126659392 -1.5871846556649865 -1.3000453488735431 -2.2752081737534078 -2.6169344167158473 -3.1488652682225857 -2.2742905295510489 -3.0830110488534066 -2.9857537938668255 -2.4948743746441995 -0.97934555142193558 -1.4791756920166279 -1.9809432935745777 -3.1488652682225857 -1.2137365656546446 -3.1488652682225857 -3.1488652682225857 -2.5427691739009162 -2.7424391912863255 -2.3687361253813681 -3.1488652682225857 -0.99863775119780351 -3.1488652682225857 -0.89858602940284094 -1.1835384674112475 -3.1093800794282331 -1.7667701681646113 -1.1330764917641249 -1.3976764373011434 -3.1488652682225857 -1.0453998014483783 -3.1488652682225857 -3.1488652682225857 -3.1488652682225853 -3.1488652682225857
leaf_weight=11347.96829688549 312.29927070438862 149.82196754217148 227.49166560173035 197.36272187530994 376.0355668514967 167.19621831178665 105.17161044478416 13.666832149028776 1084.9977756440639 230.40939635038376 44.038849323987961 210.41233515739441 236.3351214081049 1.4753876775503147 303.13897784054279 109.918492436409 284.70944178104401 449.32092733681202 746.74842987954617 298.17233990132809 507.13845008611679 22.04285392165184 10.933849439024923 67.491769149899483 112.90768447518349 13.624578267335893 26.429449111223221 631.39514273405075 8.6376031786203367 86.405622914433479 255.00154669582844 25.738421931862831 73.823149353265762 9.6754869669675809 46.516006425023079 21.567700788378716 4.6009343564510337 2.1694846153259304 5.3822250962257376 2.7779226303100577 34.633385598659515 5.1648161709308624 2.6907288283109665 17.101586192846305 1.9524594098329497 16.84115594625473 1.865649327635764 133.50934648513794 265.81055308878422 1.5187927186489094 5.2066863328218487 19.178888648748398 4.5575293153524399 0.99793222546577354 2912.3046375513077 1.6059865206480015 1.6493915617465997 2.9949478358030319
leaf_count=70488 7195 553 1023 4547 7324 3852 224 15 22838 1590 115 1789 2906 14 2366 1153 5120 9932 15365 3551 6846 148 32 1395 922 74 389 11348 199 1271 5715 553 1241 23 332 257 106 10 124 64 598 99 42 394 5 388 3 577 6024 15 20 122 105 3 67096 37 38 69
internal_value=-3.0441 -1.72592 -1.62132 -1.48166 -1.45384 -1.40762 -2.89336 -2.10948 -2.30662 -2.47291 -3.01675 -2.3614 -2.77554 -2.40476 -2.30982 -2.4746 -2.0669 -3.05105 -2.75436 -1.87061 -1.93075 -2.79388 -2.77239 -2.15001 -1.54307 -1.63656 -1.29094 -2.59004 -1.25486 -1.88506 -2.8646 -2.27023 -2.95097 -2.22579 -1.17867 -1.26938 -1.62946 -2.37586 -1.82358 -1.46329 -3.01441 -1.23645 -3.0424 -2.52578 -2.92853 -2.92803 -2.25314 -1.08212 -3.0942 -3.10175 -1.55408 -1.12339 -3.14822 -2.77102 -3.14887 -3.14887 -3.14887 -3.14887
internal_weight=0 17093 14810.8 12303.6 12101.6 11515.2 5167.52 702.811 2507.25 2058.88 4464.71 586.448 1321.33 2282.19 1986.43 1444.52 587.848 4356.44 856.667 541.916 737.548 390.273 1126.28 365.664 448.373 108.266 176.251 642.329 312.538 199.313 376.606 47.7813 328.825 22.7404 289.798 249.059 51.1169 38.0174 19.0068 12.4534 483.954 70.2482 295.756 26.9515 19.054 19.0106 7.03047 238.681 268.805 267.329 7.89742 63.2177 3230.16 5.55546 3224.6 201.964 10.287 4.60093
internal_count=268644 162165 125759 88106 83453 74340 106479 9235 37653 34180 97244 9113 25744 36406 29892 24004 7486 96309 16518 5888 8436 7672 21910 4946 3473 935 942 11380 1563 2193 7657 701 6956 324 1239 1280 438 596 198 87 10530 339 6514 461 399 398 102 801 6053 6039 62 237 74399 108 74291 4653 237 106
is_linear=0
shrinkage=1


Tree=1
num_leaves=55
num_cat=0
split_feature=107 131 136 129 130 30 134 128 135 75 54 31 32 106 39 100 72 91 1 53 113 30 114 32 25 104 15 106 107 31 71 31 69 107 69 117 117 117 87 108 67 81 32 73 68 110 72 31 49 32 0 0 0 0
split_gain=37858.9 17359.2 12779.6 12928.4 11439.9 8450.37 5159.33 5699.5 3616.79 2428.79 2994.07 2019.68 1493.76 614.549 281.501 674.171 236.225 312.162 180.834 162.613 113.882 92.9298 265.182 47.4021 46.5398 49.8206 27.1076 25.1288 19.6768 7.18353 4.83672 2.98428 1.44538 0.486006 0.475079 0.257207 0.201075 0.130985 0.122444 0.0873447 0.0767587 0.0252696 0.0217616 0.0142058 0.0113658 0.0106899 0.00691023 0.00568697 0.00500424 0.000990069 4.54747e-13 1.13687e-13 7.10543e-15 1.77636e-15
threshold=-0.87212800979614247 1.0000000180025095e-35 1.0000000180025095e-35 1.0000000180025095e-35 1.0000000180025095e-35 1.0859459638595583 1.0000000180025095e-35 1.0000000180025095e-35 1.0000000180025095e-35 -1.1190413832664488 1.0553040504455569 1.0055301785469057 0.9393543303012849 -0.83451777696609486 0.96578514575958263 -0.89256641268730152 -0.68351438641548146 -1.0518448352813718 0.51719301939010631 1.0914412736892702 -0.90903133153915394 1.0135365128517153 -0.9486822485923766 0.94959995150566112 1.6466697454452517 -0.90002688765525807 1.0403742194175722 -0.78758686780929554 -0.83817705512046803 1.0004754066467287 -0.46147230267524714 1.0004754066467287 -0.095085706561803804 -0.87573510408401478 -0.095085706561803804 -1.2096458077430723 -1.1443296670913694 -1.1373613476753233 -0.9768223464488982 -0.87286329269409169 0.20271649211645129 -1.3727686405181883 0.92729124426841747 -0.62757396697998036 0.076485358178615584 -1.0339416861534116 -0.57112303376197804 1.0004754066467287 1.1535905003547671 0.96857529878616344 0.6514289677143098 0.63716885447502147 0.55531439185142528 0.52656501531600963
decision_type=2 2 2 2 2 2 2 2 2 2 2 2 2 2 2 2 2 2 2 2 2 2 2 2 2 2 2 2 2 2 2 2 2 2 2 2 2 2 2 2 2 2 2 2 2 2 2 2 2 2 2 2 2 2
left_child=1 2 3 4 5 -1 7 8 24 41 11 -11 14 16 15 20 18 -18 -14 -12 -8 27 -23 -15 50 -26 -25 -10 30 33 -16 32 -5 34 51 -33 -6 40 45 -17 42 49 -4 47 -36 -31 -47 -39 -42 -9 -2 -3 -43 -35
right_child=6 29 37 31 36 -7 12 9 21 10 19 -13 13 23 28 39 17 -19 -20 -21 -22 22 -24 26 25 -27 -28 -29 -30 38 -32 35 -34 53 44 -37 -38 43 -40 -41 48 52 -44 -45 -46 46 -48 -49 -50 -51 -52 -53 -54 -55
leaf_value=0.36988903597668354 -0.10429006983860978 -0.12510851966451561 -0.10620092360181635 -0.1247441375984058 -0.1094625268217107 0.23592241801773067 0.27821906181686601 -0.10473230078026914 0.39278194475120154 0.27056002522875205 0.076872374869925264 0.70469439913441279 0.29080103703806509 0.45800720201372558 0.4153594592014499 -0.13007135401985032 -0.092507040332687598 0.19781310972469321 -0.0012282019927177649 -0.076580114070860517 0.3897554234343068 -0.12322635832736045 0.30453127214904913 0.17080588786166293 -0.10711130858345506 0.38445354256653452 0.33279439270617789 0.29616616394119327 0.47657146519471572 -0.11202769114486569 0.38258366778840652 -0.12940331622830259 -0.10804848216041554 -0.10429006983860981 -0.11109600712266286 -0.10562628561737859 -0.10484496717514775 -0.10435207228745025 -0.12326885873093618 -0.11895492160199564 -0.11151173344673292 -0.10730263883588005 -0.11286101814700907 -0.11677432775673624 -0.10595258756619873 -0.10519726610903879 -0.10924939334084967 -0.10499295425393229 -0.10552230409172886 -0.10786483763158342 -0.10429006983860978 -0.12510851966451561 -0.10730263883588005 -0.10429006983860976
leaf_weight=46315.88724476099 2579.0356789156795 392.37733453512192 5.6708470955491057 376.34581194072962 121.64480429887772 5241.3348851911724 203.50007489323616 204.54133604466915 87.637946158647537 695.31673946231604 102.93935835361481 126.68440579622984 50.384678341448307 24.719830997288227 169.16609761118889 25.915300481021404 165.67944388836622 47.698829088360071 36.613014508038759 209.80281790345907 166.39210560917854 17.199778512120247 92.079800516366959 13.963015992194412 4.2109578177332878 4.0398015975952131 39.709958553314209 38.855345770716667 48.736617848277092 2.3333715535700312 61.353380888700485 4.69030737876892 60.139377251267433 7.809880927205084 7.7286020815372494 151.58388992026448 419.58998573943973 279.20089465379715 3.8185629136860362 9.7188802286982519 1.4506741873919953 45.095024563372135 36.376222606748343 0.97126232087612052 9.6741300560533983 401.68622966110706 4.2530518546700469 274.67625864967704 36.333408065140247 1.0139601677656163 127.56138847768307 14.918680340051649 2.6004163250327101 4.5360419526696205
leaf_count=109288 65385 2446 125 2472 2021 17789 325 4741 42 9501 1638 1050 134 14 63 156 3856 504 533 3718 240 161 325 92 99 1 9 48 19 26 42 27 1082 198 106 3195 9669 7014 28 102 19 711 425 9 191 8580 70 6120 737 15 3234 93 41 115
internal_value=0 0.333669 0.340812 0.346185 0.351469 0.35627 0.056056 0.00767035 -0.07094 0.174782 0.237274 0.337468 0.253439 0.094089 0.341578 0.288373 0.0290166 -0.0276085 0.1679 -0.0260711 0.328393 0.304751 0.237205 0.343425 -0.103567 0.133573 0.290653 0.363104 0.418841 -0.114917 0.406636 -0.118198 -0.122444 -0.123849 -0.124417 -0.10634 -0.105883 -0.105236 -0.105445 -0.127039 -0.109023 -0.105229 -0.111963 -0.104691 -0.108237 -0.105279 -0.10524 -0.10467 -0.105752 -0.104748 -0.10429 -0.125109 -0.107303 -0.10429
internal_weight=0 54175 53325.9 52691.2 52098.5 51557.2 5402.17 4338.61 2950.62 1387.99 1134.74 822.001 1063.55 378.769 684.782 405.526 300.376 213.378 86.9977 312.742 369.892 235.773 109.28 78.3928 2714.85 8.25076 53.673 126.493 279.256 849.136 230.519 592.759 436.485 437.045 424.699 156.274 541.235 634.68 412.091 35.6342 79.8312 253.251 42.0471 554.848 17.4027 408.273 405.939 553.877 37.7841 205.555 2706.6 407.296 47.6954 12.3459
internal_count=268644 171845 159992 145543 138767 127077 96799 90710 69295 21415 15907 10551 6089 5142 947 823 5027 4360 667 5356 565 576 486 115 68719 100 101 90 124 11853 105 6776 3554 3149 2836 3222 11690 14449 8704 258 1306 5508 550 13143 297 8676 8650 13134 756 4756 68619 2539 752 313
is_linear=0
shrinkage=0.1


Tree=2
num_leaves=60
num_cat=0
split_feature=107 131 129 136 130 29 134 128 135 75 54 83 32 106 38 103 85 31 28 75 26 81 74 25 104 32 0 107 2 27 35 31 31 69 107 69 107 110 117 108 117 111 67 118 59 81 119 73 68 72 123 67 107 32 0 0 0 0 0
split_gain=20242 10148 7366.78 7449.24 6484.56 5796.1 3577.55 4072.01 2813.39 1473.78 1449.35 1209.96 850.633 446.945 161.371 497.047 160.078 359.205 148.859 143.225 139.237 59.2707 197.309 40.5133 33.8423 29.2563 57.55 17.3877 7.04621 10.01 5.68832 5.08204 2.10806 1.00873 0.341395 0.331107 0.194931 0.183933 0.149592 0.102157 0.0958761 0.0886192 0.0558873 0.0393115 0.0276075 0.0183867 0.0131481 0.0102834 0.00827966 0.00557368 0.00512035 0.00319595 0.00212605 0.000720274 4.54747e-13 1.13687e-13 7.10543e-15 3.55271e-15 1.77636e-15
threshold=-0.87212800979614247 1.0000000180025095e-35 1.0000000180025095e-35 1.0000000180025095e-35 1.0000000180025095e-35 1.2230015993118288 1.0000000180025095e-35 1.0000000180025095e-35 1.0000000180025095e-35 -1.1190413832664488 1.0553040504455569 -1.2883035540580747 0.94140639901161205 -0.83451777696609486 0.9333123266696931 -0.8508210778236388 -1.2231757044792173 0.99906796216964733 1.1908870339393618 -1.1202114820480344 1.1718003153800967 -1.147338807582855 -1.0007156729698179 1.6466697454452517 -0.90002688765525807 0.95127335190773021 0.528835028409958 -0.86309191584587086 0.26222950220108038 1.1926018595695498 0.87060219049453746 1.0004754066467287 1.0004754066467287 -0.095085706561803804 -0.87573510408401478 -0.095085706561803804 -0.87573510408401478 -1.0339416861534116 -1.1443296670913694 -0.87286329269409169 -1.1373613476753233 -1.0626092553138731 0.20271649211645129 -1.2306354641914365 0.83507579565048229 -1.3727686405181883 -1.260817229747772 -0.62757396697998036 0.076485358178615584 -0.57112303376197804 -1.5088106989860532 0.19637732952833178 -0.87573510408401478 0.96857529878616344 1.0198094844818117 0.6846609115600587 0.56111797690391552 0.57780987024307262 0.54666075110435497
decision_type=2 2 2 2 2 2 2 2 2 2 2 2 2 2 2 2 2 2 2 2 2 2 2 2 2 2 2 2 2 2 2 2 2 2 2 2 2 2 2 2 2 2 2 2 2 2 2 2 2 2 2 2 2 2 2 2 2 2 2
left_child=1 2 3 4 5 -1 7 8 23 45 11 -11 14 16 15 19 18 -18 -14 -8 -12 22 -10 54 -25 -15 -27 -23 30 -30 -16 34 33 36 35 55 -4 43 -6 -17 42 46 -5 -34 -35 53 -33 -42 -37 52 -39 -51 -43 -9 -2 -3 -47 58 -36
right_child=6 31 32 40 38 -7 12 9 21 10 20 -13 13 25 28 39 17 -19 -20 -21 -22 27 -24 24 -26 26 -28 -29 29 -31 -32 41 37 44 57 48 -38 50 -40 -41 47 49 -44 -45 -46 56 -48 -49 -50 51 -52 -53 -54 -55 -56 -57 -58 -59 -60
leaf_value=0.26391701068755874 -0.10386520761044922 -0.12215579835776819 -0.12216386859215585 -0.110726315495141 -0.1085357181902033 0.070095579381545842 0.25799971585442139 -0.10426174725907821 0.25001544896079908 0.17450513558459302 0.042375633198137114 0.45442972346895111 -0.091619671181871032 0.30056612217509482 0.35357089749470572 -0.12665610630062299 -0.10954427843863379 0.39935703957029883 0.097432828816976291 -0.021099929968765703 -0.092505899152394988 0.3259327844926358 -0.048617939628956178 -0.10649497277529603 0.29366239960039947 -0.1087645047079293 0.26689438842107499 0.25249506509298902 0.23314321877420571 0.3024690150079174 0.30942963454133698 -0.12422703839004155 -0.12608684595478861 -0.11072765528463113 -0.10386520761044926 -0.1099575163488855 -0.10378694309847313 -0.10833737478111219 -0.10436383863782797 -0.11544852717365404 -0.10420624197197477 -0.10475912996026145 -0.10517672750069361 -0.113418811888403 -0.10580570291068402 -0.10655962349362724 -0.11352104411818807 -0.11495257716728402 -0.10536044840063329 -0.11027570631337646 -0.10460873071905281 -0.10424548269141326 -0.10386170111692923 -0.10706065051336283 -0.10386520761044922 -0.12215579835776819 -0.10655962349362724 -0.10386520761044903 -0.10386520761044914
leaf_weight=61433.759425893426 2392.0749319195747 373.56813949346542 342.31897123157978 38.44875755906105 110.96064280718565 1582.626861769706 445.22194964438677 185.86933219060302 112.41082956641912 914.98224633187056 154.98997778445482 185.76483127474785 146.82507456839085 64.171448040753603 34.102776199579239 27.945832222700119 26.843718193471432 28.697985466569662 58.143009256571531 19.178550131618977 151.19071418792009 57.659160517156124 27.545731566846371 3.8311623595654964 4.7139506340026838 5.6358529701828983 14.754365444183348 73.134374916553497 27.662191599607468 84.299726314842701 202.82239025831223 2.2245509549975395 4.228570356965065 16.164124760776758 8.2406271994113869 7.0618261024355879 5.8711136579513541 3.7917597331106654 381.3216914087534 11.471216309815643 503.28487971052527 337.37966748327017 34.365963123738766 5.8228387311100942 38.632996674627066 41.535785492509604 2.3684344477951518 0.89204532653093238 8.800199303776024 2.8216229453682891 128.36125042662024 1.2764906883239744 28.638991713523865 0.92400820925831695 66.462449803948402 3.4149710685014716 1.9063712395727623 0.93154916167259294 2.0422423928976068
leaf_count=121439 66764 2516 2305 550 2021 5638 570 4741 246 9345 2583 1206 3545 25 10 203 355 209 685 115 2773 23 244 99 1 85 3 63 28 33 62 15 26 234 230 106 167 66 9669 161 13134 7791 756 61 848 719 25 9 191 40 3069 33 800 15 1855 23 33 26 57
internal_value=0 0.245538 0.249861 0.252975 0.256225 0.259049 0.0469988 0.00507541 -0.0695279 0.129835 0.168216 0.221746 0.200128 0.0676549 0.253737 0.217536 0.00281425 0.153401 -0.0379914 0.246474 -0.0242283 0.23647 0.19124 -0.10311 0.114254 0.26741 0.163062 0.284869 0.306014 0.285341 0.315783 -0.11329 -0.116175 -0.119869 -0.121069 -0.12156 -0.121854 -0.105708 -0.105304 -0.123394 -0.104715 -0.104901 -0.108107 -0.118748 -0.107258 -0.104707 -0.118706 -0.104225 -0.107407 -0.10473 -0.104716 -0.108397 -0.104689 -0.104276 -0.103865 -0.122156 -0.10656 -0.103865 -0.103865
internal_weight=0 65409.6 64630.9 64085.7 63508.7 63016.4 5572.77 4375 2737.83 1637.16 1406.93 1100.75 1197.78 345.071 852.705 503.818 260.51 55.5417 204.968 464.4 306.181 270.75 139.957 2467.08 8.54511 84.5617 20.3902 130.794 348.887 111.962 236.925 778.769 545.192 402.987 404.06 392.845 348.19 142.204 492.282 39.417 576.992 374.71 72.8147 10.0514 54.7971 230.235 4.59299 504.177 15.862 370.117 132.153 4.09811 366.019 186.793 2458.54 376.983 43.4422 11.2144 10.2829
internal_count=268644 171845 159992 153216 138767 127077 96799 90710 69295 21415 15907 10551 6089 4907 1182 1049 4794 564 4230 685 5356 576 490 68719 100 113 88 86 133 61 72 11853 6776 3554 3149 2836 2472 3222 11690 364 14449 8704 1306 87 1082 5508 40 13143 297 8664 3135 73 8591 4756 68619 2539 752 313 287
is_linear=0
shrinkage=0.1


Tree=3
num_leaves=58
num_cat=0
split_feature=107 131 136 129 132 130 45 134 128 135 75 31 74 26 106 127 55 97 108 105 55 113 28 48 25 80 2 0 104 35 28 31 44 31 69 107 69 110 117 111 67 81 32 119 73 67 73 31 49 107 69 32 9 0 0 0 0
split_gain=12776.2 7026.8 5287.08 5177.69 5248.88 4778.79 2178.17 2072.54 3096.41 1827.41 992.201 1006.19 537.214 474.923 460.337 536.217 127.689 169.484 119.693 99.5164 72.7276 70.2002 58.9194 82.5604 36.6098 25.2272 29.2901 42.9982 24.6564 18.3141 7.72485 3.61668 3.19238 1.53788 0.761294 0.393022 0.232375 0.134229 0.0724997 0.0644235 0.0408499 0.0130831 0.0114153 0.00919859 0.00750749 0.00604592 0.00409585 0.00279478 0.00275687 0.00238848 0.00140248 0.000524955 4.99735e-10 4.54747e-13 5.68434e-14 7.10543e-15 3.55271e-15
threshold=-0.86996668577194203 1.0000000180025095e-35 1.0000000180025095e-35 1.0000000180025095e-35 1.0000000180025095e-35 1.0000000180025095e-35 1.2149222493171694 1.0000000180025095e-35 1.0000000180025095e-35 1.0000000180025095e-35 -1.1190413832664488 0.99839892983436596 -0.89606198668479908 1.212775766849518 -0.83525359630584706 -1.5165116786956785 0.95183461904525768 -0.95449641346931446 -0.86399418115615834 -0.85614183545112599 0.94005674123764049 -0.90903133153915394 1.2318327426910403 0.70245525240898143 1.6466697454452517 -1.187812268733978 0.59344768524169933 0.52429088950157177 -0.90002688765525807 0.84718218445777904 1.1422107815742495 1.0004754066467287 1.1677002310752871 1.0004754066467287 -0.095085706561803804 -0.87573510408401478 -0.095085706561803804 -1.0339416861534116 -1.1373613476753233 -1.0626092553138731 0.20271649211645129 -1.3727686405181883 0.92729124426841747 -1.260817229747772 -0.62757396697998036 0.20451480895280841 -0.72724834084510792 1.0004754066467287 1.1535905003547671 -0.87573510408401478 -0.094002526253461824 0.96857529878616344 0.87626019120216381 0.62584692239761364 0.67014402151107799 0.57436525821685802 0.48372547328472143
decision_type=2 2 2 2 2 2 2 2 2 2 2 2 2 2 2 2 2 2 2 2 2 2 2 2 2 2 2 2 2 2 2 2 2 2 2 2 2 2 2 2 2 2 2 2 2 2 2 2 2 2 2 2 2 2 2 2 2
left_child=1 2 3 4 5 -1 -6 8 9 24 41 13 -13 -12 15 16 19 -18 21 -9 -20 -17 29 -24 53 26 27 -16 -26 -11 32 35 -27 34 -5 36 54 -35 40 43 42 51 -4 -33 47 -38 49 -40 -42 -41 -48 -10 56 -2 -3 -43 -37
right_child=7 31 38 33 6 -7 -8 14 10 22 11 12 -14 -15 25 18 17 -19 20 -21 -22 -23 23 -25 28 30 -28 -29 -30 -31 -32 39 -34 37 -36 52 45 -39 44 46 48 55 -44 -45 -46 -47 50 -49 -50 -51 -52 -53 -54 -55 -56 -57 -58
leaf_value=0.21409394602853637 -0.10348389104751819 -0.11960810917913756 -0.10502968134751785 -0.1191747529165337 0.13020616979748506 -0.10471281176503443 -0.11396277301504276 0.11060630620861432 -0.10383979345465502 0.21281474930749245 0.089517554886130724 0.22981406461489479 -0.1130916703566734 -0.098225060180266055 -0.11021197033165037 0.16416531660077466 0.28219018545431757 0.019802778311191579 -0.14112805821452873 -0.11507812142052032 0.31501811290691623 0.27280137039238189 0.27818124644608616 0.025541506480082715 -0.10604974021484402 0.22918597477338123 0.2255541527987607 0.2090255399824523 0.24438077698274371 0.30777499265245389 0.28474148312804942 -0.1214368781638149 0.25495236594521908 -0.11666631282758265 -0.10632223598306029 -0.1034838910475181 -0.10877890208403188 -0.10419492394358197 -0.1035287922108331 -0.10428412552605815 -0.10933117542701848 -0.10589658700121717 -0.11033975392165261 -0.11210208288453019 -0.11335012359059747 -0.10468533988347267 -0.10468607504000033 -0.10399989899128831 -0.10447400964502292 -0.10348192467377082 -0.10859175547550173 -0.10634378431133343 -0.10348106364282657 -0.10348389104751819 -0.11960810917913756 -0.10589658700121717 -0.10348389104751819
leaf_weight=65265.222646258771 2012.695443764329 342.65298396348953 4.6692291609942904 324.84584417566657 5655.5274445712566 473.59024356305599 390.58287450671196 24.590024851262569 168.83007273077965 144.55551655218005 612.96231812238693 733.64795078337193 48.721685495227575 172.70360497385263 7.0641460269689587 103.29752028733492 29.920403895899653 138.8974667750299 14.654890410602095 95.110427033156157 4.590155877172946 140.23587071150541 19.37273932993412 38.925181604921818 3.3222998976707458 64.782208070158958 67.259406566619873 10.476011276245115 5.0747156143188459 23.629523888230324 75.746907688677311 2.0567110106348991 186.55653318762779 9.2486768662929517 53.706162020564079 7.9704912751913133 6.9871293418109399 129.03266521915793 254.25118988007307 306.05868527293205 1.2158784382045293 37.333185225725174 30.449596542865038 2.1687821447849265 0.81798045337200065 7.4601300321519375 1.3591196350753305 249.49016250297427 30.024557240307331 42.237618237733841 2.8417159244418135 0.84142511710524459 0.65015732496976752 107.19497449696064 5.3453865498304358 1.0516390204429615 8.2632848322391492
leaf_count=98571 61867 2500 125 2580 26288 12491 4105 109 4741 137 7819 5103 509 2189 111 145 45 2242 80 1689 4 121 6 225 94 41 13 2 1 65 22 15 55 87 1199 245 118 3410 7752 7780 19 710 425 25 9 179 33 6815 737 1299 49 15 20 3295 39 20 254
internal_value=0 0.195827 0.198932 0.201326 0.203597 0.211797 0.114433 0.0320704 0.00127016 -0.0739211 0.10096 0.128186 0.20846 0.0482483 0.164165 0.10441 0.0102887 0.066307 0.20775 -0.0687158 -0.0323322 0.226722 0.196127 0.109495 -0.102658 0.244146 0.195542 0.0804554 0.105732 0.226156 0.256748 -0.1116 0.248311 -0.114054 -0.117351 -0.118397 -0.119092 -0.105029 -0.104186 -0.104371 -0.107294 -0.104229 -0.109634 -0.116646 -0.103778 -0.106665 -0.104224 -0.103762 -0.104663 -0.104187 -0.107328 -0.103852 -0.103484 -0.103484 -0.119608 -0.105897 -0.103484
internal_weight=0 73608.7 72872.7 72301.8 71784.9 65738.8 6046.11 5094.04 4130.86 2354.77 1776.09 1568.04 782.37 785.666 963.182 551.297 288.518 168.818 262.778 119.7 19.245 243.533 226.483 58.2979 2128.29 411.885 84.7996 17.5402 8.39702 168.185 327.086 736.052 251.339 516.833 378.552 379.33 362.446 138.281 570.919 356.723 66.3593 208.056 35.1188 4.22549 504.559 14.4473 352.497 503.741 31.2404 348.296 4.20084 169.671 16.8839 2119.89 347.998 38.3848 16.2338
internal_count=268644 177169 164613 148731 141455 111062 30393 91475 86796 65690 21106 15620 5612 10008 4679 4435 4085 2287 350 1798 84 266 433 231 65257 244 126 113 95 202 118 12556 96 7276 3779 3355 2836 3497 15882 9201 1306 5486 550 40 14576 297 9161 14567 756 9079 82 4756 519 65162 2539 730 499
is_linear=0
shrinkage=0.1


Tree=4
num_leaves=59
num_cat=0
split_feature=107 131 104 30 135 85 72 72 133 67 134 128 136 135 29 29 75 53 71 28 35 106 127 56 71 109 114 87 108 5 28 30 113 76 25 104 91 73 51 10 35 73 31 107 69 111 81 119 67 73 107 69 32 81 0 0 0 10
split_gain=8803.98 5107.42 4024.99 5026.39 3897.01 3109.18 2468.65 2363.82 1990.02 1801.08 1616.22 2470.51 1587.2 1543.16 1319.37 1110.99 730.909 754.458 699.759 578.018 379.787 349.067 392.251 302.389 256.48 115.373 287.322 109.69 85.8304 57.51 42.5739 68.983 41.9873 38.8399 32.7066 19.4322 14.1848 15.3822 55.4903 11.3792 8.89373 4.11492 2.58509 0.27933 0.164072 0.0466696 0.00955231 0.00647554 0.00442943 0.00301519 0.00174816 0.00102799 0.00038323 3.68633e-10 4.54747e-13 5.68434e-14 7.10543e-15 7.10543e-15
threshold=-0.86996668577194203 1.0000000180025095e-35 -0.83953729271888722 1.0805382728576662 1.0000000180025095e-35 -1.2078360319137571 -0.60019618272781361 -0.70496380329132069 1.0000000180025095e-35 0.20451480895280841 1.0000000180025095e-35 1.0000000180025095e-35 1.0000000180025095e-35 1.0000000180025095e-35 1.2230015993118288 1.2355243563652041 -1.1190413832664488 1.0914412736892702 -0.52454981207847584 1.0790709257125857 0.91026347875595104 -0.83525359630584706 -1.5165116786956785 1.013467609882355 -0.49499626457691187 -0.91147738695144642 -1.0051131248474119 -1.2370549440383909 -0.86399418115615834 0.66760119795799266 1.2318327426910403 1.0643713474273684 -0.90903133153915394 -1.1666589379310606 1.6466697454452517 -0.90002688765525807 -0.92436003684997547 -0.83206248283386219 1.1753795146942141 0.80529841780662548 0.89884549379348766 -0.7883302867412566 1.0004754066467287 -0.87573510408401478 -0.095085706561803804 -1.0626092553138731 -1.3727686405181883 -1.260817229747772 0.20451480895280841 -0.72724834084510792 -0.87573510408401478 -0.094002526253461824 0.96857529878616344 -1.2409130334854124 0.51187357306480419 0.59348216652870189 0.57436525821685802 0.89960682392120372
decision_type=2 2 2 2 2 2 2 2 2 2 2 2 2 2 2 2 2 2 2 2 2 2 2 2 2 2 2 2 2 2 2 2 2 2 2 2 2 2 2 2 2 2 2 2 2 2 2 2 2 2 2 2 2 2 2 2 2 2
left_child=1 2 3 7 5 24 -7 15 14 20 11 13 -9 34 -5 -1 46 19 -10 -18 -6 22 25 -11 -4 26 -12 -27 32 -30 39 -32 -24 -19 54 -36 37 -23 -39 -15 41 -38 43 44 55 47 52 -44 -46 50 -47 -51 -13 57 -2 -3 -48 -45
right_child=10 42 4 8 9 6 -8 12 18 23 21 16 -14 30 -16 -17 17 33 -20 -21 -22 36 28 -25 -26 27 -28 -29 29 -31 31 -33 -34 -35 35 -37 40 38 -40 -41 -42 -43 45 53 48 49 56 -49 -50 51 -52 -53 -54 -55 -56 -57 -58 -59
leaf_value=0.22640067735942698 -0.10314138909648377 -0.11739764183483779 0.10948111266222725 0.11037148186111356 0.22787888248809912 0.17060346077894584 0.085770429052953068 0.17914058337006186 0.19413178208363979 0.15902088679789944 -0.00029768417041475668 -0.10346107330889807 -0.10380610299318611 0.17499748064366583 -0.0062770118432325332 -0.10357609788030211 0.62935785969108471 -0.015210696030409965 0.010903140991064302 0.12001891294552998 -0.019816460860802382 0.20175920560100635 0.14238068188777173 0.54868136306561821 -0.066045092707556402 0.031528412389877296 0.5676371872786562 -0.10911212751938951 0.25929319516693161 -0.13569564822228714 0.14813893235483885 -0.12187831714810873 0.22406261169354613 -0.10695231106109367 -0.10552193436504416 0.2130774670971925 0.22299308000788465 -0.11554404970575244 0.19925608885441862 0.22901886304827379 0.25957766701829044 0.19470859578740771 -0.11901675722788861 -0.10314138911861509 -0.10789389324598542 -0.1038599443585274 -0.10530408272062475 -0.11084456545087272 -0.10422151746014337 -0.10422267705538642 -0.10313962306642806 -0.10772864064268253 -0.10570379078785862 -0.10313884056050529 -0.10314138909648377 -0.11739764183483779 -0.10530408272062475 -0.10314139704714231
leaf_weight=16038.026556633413 1670.4541173428297 280.23655772209167 90.419238552451134 7547.6245896145701 1781.7482793629169 5691.549795338884 8633.9304214455187 31871.430338833481 3465.0477425903082 21.955311670899391 32.167222082614899 153.29445135965943 199.49500641040504 119.07605762779713 1112.5640640668571 102.68726735003293 22.615615986287594 69.583450328558683 221.77069671452045 1504.3073689304292 64.129929058253765 99.806321371346712 106.96920219063759 214.36618456244469 1049.5096996985376 156.80783603154123 12.319331206381319 85.79816815443337 5.0245222970843342 13.838605977594851 48.324868306517601 11.76491881161928 152.86091984808445 137.01344997808337 3.0204130336642265 5.2280225753784162 172.32856176793575 7.4919194169342544 22.167495802044868 57.977775111794472 53.404166348278522 73.319977149367332 1.8968763723969462 14.14462915435433 6.3714229315519315 278.00671712681651 33.960826508700848 1.9835169501602639 6.7787134200334549 1.2349712774157526 38.338552275672555 2.5908386781811705 0.76572708785533805 0.59013785421848197 253.74696795642376 40.268226087093353 0.9566430002450933 0.59059111401438791
leaf_count=13812 56569 2220 414 19801 1222 10326 40451 49404 5218 93 256 4741 6077 173 4146 500 68 1370 1115 11826 221 24 145 225 11588 1809 53 1967 3 81 92 139 121 2356 94 1 41 114 10 29 13 42 15 479 118 7780 710 25 179 33 1299 49 15 20 8593 319 20 20
internal_value=0 0.163926 0.16629 0.17851 0.124118 0.106827 0.119475 0.193089 0.12158 0.252551 0.0281822 0.000395845 0.177381 -0.0727457 0.0953858 0.224301 0.0829382 0.103296 0.18311 0.127563 0.219273 0.142538 0.0909732 0.51248 -0.0521223 0.00893655 0.156976 -0.0182094 0.175482 -0.0304835 0.168003 0.0952725 0.190435 -0.076053 -0.10229 0.0964127 0.210621 0.182969 0.119738 0.192687 0.222592 0.214551 -0.11037 -0.116342 -0.116948 -0.103939 -0.103811 -0.114839 -0.106001 -0.103806 -0.103773 -0.106597 -0.103472 -0.103141 -0.103141 -0.117398 -0.105304 -0.103141
internal_weight=0 78779.3 78106.3 60558.6 17547.6 15465.4 14325.5 48211.6 12347 2082.2 5086.39 4092.09 32070.9 2169.59 8660.19 16140.7 1922.5 1733.52 3686.82 1526.92 1845.88 994.304 565.786 236.321 1139.93 287.093 44.4866 242.606 278.693 18.8631 237.144 60.0898 259.83 206.597 1932.45 8.24844 428.518 129.466 29.6594 177.054 299.053 245.649 673.032 348.98 333.655 324.051 188.978 3.88039 13.1501 320.171 316.345 3.82581 154.06 15.3254 1924.2 320.505 34.9175 14.7352
internal_count=268644 177169 164613 100073 64540 62779 50777 69793 30280 1761 91475 86796 55481 65690 23947 14312 21106 15620 6333 11894 1443 4679 4435 318 12002 4085 309 3776 350 84 433 231 266 3726 65257 95 244 148 124 202 96 83 12556 3355 2836 9201 5486 40 297 9161 9079 82 4756 519 65162 2539 730 499
is_linear=0
shrinkage=0.1


Tree=5
num_leaves=59
num_cat=0
split_feature=107 131 129 136 132 130 109 134 128 135 75 53 85 106 106 79 109 68 30 83 57 8 25 30 104 72 111 111 91 107 106 31 71 31 69 32 107 107 110 69 117 111 67 118 112 81 119 122 19 67 73 107 69 32 29 0 0 8
split_gain=6385.4 3875.46 3488.43 3222.08 3260.8 3190.8 2068.86 1287.37 2013.44 1326.58 560.484 544.346 417.926 286.041 312.884 118.682 87.1408 158.837 103.763 39.3921 37.5044 112.88 29.3759 24.6539 15.8238 10.9214 22.7392 30.0692 6.50686 3.75887 2.90146 1.85496 1.83009 1.67428 0.833976 0.263659 0.247417 0.199442 0.154104 0.116459 0.0599066 0.0338896 0.0323625 0.0319705 0.0216525 0.00698461 0.00458351 0.00374361 0.00371402 0.00324863 0.00222108 0.00128099 0.00075428 0.00028018 2.71267e-10 4.54747e-13 5.68434e-14 5.32907e-15
threshold=-0.86996668577194203 1.0000000180025095e-35 1.0000000180025095e-35 1.0000000180025095e-35 1.0000000180025095e-35 1.0000000180025095e-35 -1.1103802919387815 1.0000000180025095e-35 1.0000000180025095e-35 1.0000000180025095e-35 -1.1190413832664488 1.0914412736892702 -1.2747934460639951 -0.83525359630584706 -0.85835182666778553 -1.3059064745903013 -0.91147738695144642 0.026551809161901477 1.0641210675239565 -1.3109067082405088 0.99678340554237377 0.73510295152664196 1.6466697454452517 1.0725697278976443 -0.90002688765525807 -0.60868757963180531 -1.0150009989738462 -1.0103674530982969 -0.92436003684997547 -0.86004731059074391 -0.8261456787586211 1.0004754066467287 -0.50575679540634144 1.0004754066467287 -0.095085706561803804 0.9355628788471223 -0.87573510408401478 -0.87573510408401478 -1.0339416861534116 -0.095085706561803804 -1.1373613476753233 -1.0626092553138731 0.20271649211645129 -1.2306354641914365 -1.036547005176544 -1.3727686405181883 -1.260817229747772 -1.4063236117362974 1.090546250343323 0.20451480895280841 -0.72724834084510792 -0.87573510408401478 -0.094002526253461824 0.96857529878616344 1.1859971284866335 0.59772786498069774 0.62584692239761364 0.81888470053672802
decision_type=2 2 2 2 2 2 2 2 2 2 2 2 2 2 2 2 2 2 2 2 2 2 2 2 2 2 2 2 2 2 2 2 2 2 2 2 2 2 2 2 2 2 2 2 2 2 2 2 2 2 2 2 2 2 2 2 2 2
left_child=1 2 3 4 5 -1 -6 8 9 22 45 12 -12 14 15 23 17 -16 -18 -13 21 -11 55 -9 -24 28 -27 -28 32 -22 -30 37 -15 34 36 -17 -4 39 43 56 42 46 -5 -35 -36 53 -33 -40 -42 -41 51 -43 -52 -10 57 -2 -3 -39
right_child=7 31 33 40 6 -7 -8 13 10 20 11 19 -14 25 16 35 18 -19 -20 -21 29 -23 24 -25 -26 26 27 -29 30 -31 -32 41 -34 38 44 -37 -38 54 47 49 48 50 -44 -45 -46 -47 -48 -49 -50 -51 52 -53 -54 -55 -56 -57 -58 -59
leaf_value=0.1538026017051296 -0.10283353059047429 -0.11547053417499389 -0.12029656361965356 -0.10893822253413028 0.11929858265606173 -0.10479675177085741 0.0029137929685270573 0.17302743716402402 -0.10312088339476483 -0.13399680522569279 0.07447263459813995 -0.10567473035961386 0.18887004192981413 0.1825523746600905 0.25654623635783858 -0.14381053335393942 -0.091143541474597897 -0.11403900464640165 0.043922771198874527 -0.010225008900653228 0.21134440460444961 0.14639406977347383 -0.10503771191209899 0.054931645500687312 0.1913771840316793 0.18302856875368387 0.19772576355941782 -0.12542641601252749 0.21901025097744214 0.17391123336979356 0.19539101339345016 -0.11690744574394601 0.15678417223744301 -0.12421170408300411 -0.10774029189415238 -0.11640441121459139 -0.10357642969023523 -0.1028335308270594 -0.10763726194110926 -0.10710251613014184 -0.11137335135975944 -0.10347921786410463 -0.10435212312898617 -0.11247483711597249 -0.10343350947765957 -0.10477394764804063 -0.10972764705067775 -0.10417932213781458 -0.10342837671635957 -0.10380522861783428 -0.10380667451577215 -0.10283194171105361 -0.10695629013576968 -0.10513165178273767 -0.10283123583566806 -0.10283353059047429 -0.11547053417499389 -0.10283353782285783
leaf_weight=73306.976101148874 1652.8150473274291 280.43984627723694 322.37446130812168 32.36624102294445 4502.6027196571231 480.26446993462741 2311.4218374863267 264.95212445035577 139.14081496745348 16.336287267506123 1249.8304582647979 128.13844790682197 428.95478596538305 83.622653618454933 32.057571902871132 7.7558890618383867 112.36557970941067 18.093597296625376 115.18434519134462 65.256959609687328 50.824935078620911 118.55563246831298 2.7449413910508156 18.941050130873919 5.2371363639831534 32.973497524857521 5.247095584869383 6.3812569081783295 71.30758148431778 56.80867762118578 192.18217869102955 1.7457356192171576 41.111957564949989 4.0357219725847244 35.683278940618038 6.4127383679151535 9.0999602451920492 12.700977526605124 3.2104215025901786 5.8055228814482671 0.58913965336978336 252.42921470478177 29.331167787313461 5.4617585092782956 17.349194848909974 31.746334880590439 1.812093436717986 126.24565974809229 457.23406779393554 6.1569768711924553 1.1216980256140234 34.788662957027555 2.3603513073176137 0.69643663242459197 0.53549383394420225 93.220880139619112 14.155424594879149 0.66988371126353818
leaf_count=98571 61683 2417 2305 550 14679 12491 15714 282 4741 160 9768 2660 2126 20 86 41 2643 222 974 1066 13 231 94 93 1 12 1 82 18 29 51 15 60 26 657 94 275 474 59 118 7 7780 756 61 542 730 25 3351 14569 179 33 1299 49 15 20 3479 122 25
internal_value=0 0.140863 0.142747 0.144407 0.146007 0.152119 0.0798191 0.0250039 -0.000225263 -0.0716483 0.0695476 0.0854013 0.103703 0.12607 0.0798962 0.151051 0.00352427 0.122846 -0.0227738 -0.0734674 0.147564 0.112437 -0.101959 0.165148 0.0894436 0.187491 0.140626 0.0203905 0.192876 0.191587 0.201783 -0.109283 0.174059 -0.114575 -0.117975 -0.131406 -0.119838 -0.114546 -0.105167 -0.115078 -0.103833 -0.10355 -0.106758 -0.117462 -0.106331 -0.103435 -0.113251 -0.104265 -0.103439 -0.105405 -0.103431 -0.103401 -0.105942 -0.103131 -0.102833 -0.102834 -0.115471 -0.102834
internal_weight=0 82259 81644.2 81120.8 80601.3 73787.2 6814.02 5048.9 4040.31 1996.54 2043.76 1872.18 1678.79 1008.59 575.763 298.062 277.701 50.1512 227.55 193.395 242.526 134.892 1754.02 283.893 7.98208 432.826 44.6019 11.6284 388.224 107.634 263.49 614.722 124.735 523.46 384.507 14.1686 331.474 320.464 138.954 306.558 519.521 294.258 61.6974 9.49748 53.0325 171.584 3.55783 129.456 457.823 11.9625 290.7 287.218 3.48205 139.837 13.9064 1746.04 294.595 13.3709
internal_count=268644 177169 164613 157337 141455 111062 30393 91475 86796 65690 21106 15620 11894 4679 4435 510 3925 308 3617 3726 433 391 65257 375 95 244 95 83 149 42 69 12556 80 7276 3779 135 2580 3355 3497 2836 15882 9201 1306 87 1199 5486 40 3410 14576 297 9161 9079 82 4756 519 65162 2539 499
is_linear=0
shrinkage=0.1


Tree=6
num_leaves=59
num_cat=0
split_feature=106 85 98 30 131 128 72 109 112 119 20 128 125 49 93 71 133 2 134 135 91 55 71 31 32 70 64 134 0 56 59 111 107 54 32 32 96 103 51 5 31 108 67 135 31 70 40 23 32 37 54 110 69 31 125 107 36 111
split_gain=5217.3 4799.35 3500.4 3997.15 2232.61 2126.29 2121.28 1561.04 2273.03 1504.26 1180.92 1932.8 1140.47 1839.08 1039.23 1313.63 923.198 892.359 843.244 786.251 773.766 696.17 656.107 612.154 586.903 593.898 510.482 503.525 493.086 478.242 475.15 441.019 1389.64 399.294 373.941 293.172 280.904 279.82 258.17 240.207 208.454 198.524 176.997 175.473 170.291 159.786 159.5 139.84 107.123 65.6655 48.2694 1.2322 0.887033 0.649082 0.409842 0.25231 0.232002 0.0224109
threshold=-0.86692970991134632 -1.1410852074623106 -0.6541684865951537 1.0796152949333193 1.0000000180025095e-35 1.0000000180025095e-35 -0.64754015207290638 -1.1182600855827329 -1.3151733875274656 -0.93907168507575978 1.2586504817008974 1.0000000180025095e-35 -2.6188703775405879 1.1766859889030459 -0.98571309447288502 -0.49703411757946009 1.0000000180025095e-35 -0.24604506045579908 1.0000000180025095e-35 1.0000000180025095e-35 -1.0107077360153196 1.0308409929275515 -0.51664301753044117 0.96430751681327831 0.962110996246338 -0.21623709052801129 0.42235486209392553 1.0000000180025095e-35 0.45070855319499975 0.96592530608177196 0.93125268816947948 -1.2456701397895811 -0.92986756563186634 1.0534479618072512 0.96304273605346691 0.9550490975379945 -0.87837561964988697 -0.93516299128532399 1.0696474909782412 0.73131278157234203 1.0073176622390749 -1.0603092908859251 0.24420284479856494 1.0000000180025095e-35 1.0135821700096133 1.0000000180025095e-35 1.0117024779319765 1.3020540475845339 0.96069395542144786 0.92907276749610912 0.75193822383880626 -1.1832003593444822 -0.095085706561803804 1.0004754066467287 -2.6535708904266353 -0.87573510408401478 0.8984779715538026 -1.0626092553138731
decision_type=2 2 2 2 2 2 2 2 2 2 2 2 2 2 2 2 2 2 2 2 2 2 2 2 2 2 2 2 2 2 2 2 2 2 2 2 2 2 2 2 2 2 2 2 2 2 2 2 2 2 2 2 2 2 2 2 2 2
left_child=2 10 3 4 5 6 -1 8 38 16 11 20 30 -14 15 27 18 43 -5 23 47 26 -18 41 40 -26 46 -12 36 -22 -10 49 -33 52 -7 -28 -16 50 -4 -39 -13 -9 -35 51 -17 -40 -19 -2 -30 -23 -11 56 -21 55 -53 -6 -3 -55
right_child=1 17 7 9 53 34 -8 19 12 37 14 24 13 -15 28 44 22 21 -20 33 29 31 -24 -25 25 -27 35 -29 48 -31 -32 32 -34 42 -36 -37 -38 39 45 -41 -42 -43 -44 -45 -46 -47 -48 -49 -50 -51 -52 54 -54 57 -56 -57 -58 -59
leaf_value=0.16837058434668045 -0.10496721951775181 -0.14535301468567108 0.20035509582480449 0.070092679628766072 -0.11346115560392067 -0.065554879671549174 0.12953779575130447 0.098224772268946409 0.21719764479121997 -0.0042136928306877536 0.011976285077680754 -0.028162294888974024 0.14435069585574573 -0.077848154023478985 0.12325080861694522 -0.059241887428258977 0.14401530821847816 0.18472381114865247 0.19734379695642693 -0.18159236475761376 0.10604254591349654 0.11917623050901936 -0.041910775400496661 0.29864889134193129 0.15465964529707854 0.022400487893765725 -0.074873645717913925 0.11672839242230518 0.22796906402445788 -0.084615062938431171 0.70664852801392508 -0.072554089103808894 0.18551353338616222 0.14150972700417946 0.15983191712974151 0.088781672618320179 -0.15499093144240159 -0.11000013807847575 -0.11529901558962299 0.02462095955036904 0.25108826476767693 -0.079275811378526531 0.36489286331497606 0.15568723909102722 0.27426101319108559 0.6525696979245994 -0.077417425030829601 -0.031216573027096045 0.36508696226744608 0.27009685455172544 -0.14525034476298462 -0.11589305923556181 -0.14573707956886234 -0.11177101130111429 -0.10263397755591877 -0.10255630541410768 -0.11350355419606831 -0.1031527851764964
leaf_weight=27619.564807739109 1963.1829870250076 15.393399491906168 27.94174724817276 7809.1066098678857 182.26623381301761 550.19609161093831 28667.852115882561 66.130855865776539 713.45861890912056 29.126444865018129 702.6087493468076 665.14060406200588 1366.8933088928461 512.02249529026449 476.74940373934805 1103.3636426180601 4128.9576505348086 318.45761460438371 557.95812401175499 19.20262669026852 355.92977072112262 30.544864241033792 198.94422870874405 46.305288873612881 764.43395304121077 610.7946373783052 230.46377494186163 1322.8038173615932 202.25973616167903 208.71275888383389 20.401243209838867 229.08033555746078 2340.634146861732 87.859950050711632 84.981394179165363 208.48362798802555 39.272756241261959 146.42821465246379 534.98010367527604 1397.825291370973 27.850719377398491 1335.4843854978681 59.485628589987755 28.325624942779541 15.526078211143611 2.7237653732299796 25.035465382039547 295.84269374236465 79.320555210113525 513.42065478488803 145.43490190804005 98.036523435264826 10.769307255744932 3.086014797911047 30.585661442950368 24.012855265289545 2.6862263530492774 135.5891381110996
leaf_count=30427 54372 72 16 22631 1822 2269 46286 200 989 109 15311 9725 2295 3746 1110 13419 5646 441 353 78 827 56 1013 33 4238 5467 1101 3127 80 3245 8 1841 4166 130 334 795 299 1470 3919 3827 110 8629 65 15 104 1 119 3304 19 207 917 866 52 38 1249 988 28 4640
internal_value=0 0.0588788 0.127617 0.133155 0.145002 0.146539 0.148593 0.0449779 0.0857416 0.0860862 0.017479 -0.015342 0.125089 0.0837994 0.0582097 0.0323494 0.0979732 0.14871 0.0785784 -0.0347423 -0.0691376 0.158633 0.135469 -0.0590826 0.0581032 0.095918 0.074309 0.0803902 0.160156 0.0355684 0.230804 0.179823 0.162508 0.164013 -0.0354 0.00285652 0.102075 -0.00170962 -0.0960088 0.011856 -0.0169395 -0.070901 0.231693 -0.0721791 -0.0546141 -0.111409 0.165618 -0.0953088 0.266595 0.261622 -0.121718 -0.116176 -0.168709 -0.108635 -0.11274 -0.112192 -0.140621 -0.103345
internal_weight=0 12904.9 76485 71681.3 57267.5 56922.6 56287.4 4803.66 3178.42 14413.8 8833.79 4891.89 2612.78 1878.92 3941.9 3144.3 12695 4071.15 8367.06 1625.24 2823.67 3896.12 4327.9 1447.92 2068.22 1375.23 782.44 2025.41 797.602 564.643 733.86 3113.68 2569.71 177.318 635.177 438.947 516.022 1718.81 565.646 1544.25 692.991 1401.62 147.346 175.027 1118.89 537.704 343.493 2259.03 281.58 543.966 174.561 146.702 29.9719 344.954 128.622 206.279 18.0796 138.675
internal_count=268644 125713 142931 122770 86804 79316 76713 20161 10974 35966 114757 81288 7038 6041 33469 31961 29643 10956 22984 9187 61748 8726 6659 8862 19540 9705 2456 18438 1508 4072 997 6270 6007 325 2603 1896 1409 6323 3936 5297 9835 8829 195 2230 13523 3920 560 57676 99 263 1026 2215 130 7488 2115 2810 100 4678
is_linear=0
shrinkage=0.1


Tree=7
num_leaves=62
num_cat=0
split_feature=129 130 131 136 70 30 120 107 31 107 31 69 117 111 117 30 69 31 118 107 67 106 69 68 118 67 106 112 115 54 23 31 92 119 106 69 107 106 66 106 70 104 20 107 112 20 85 23 106 106 107 30 106 104 23 107 107 16 30 64 4
split_gain=4188.06 4013.88 3923.06 3916.54 2566.94 3507.02 2563.55 3.8926 1.49876 0.712463 1.10428 0.691132 0.212945 0.148129 0.0924995 0.0765155 0.068825 0.058895 0.0818741 0.049484 0.0334496 0.0322951 0.0294153 0.0660544 0.026505 0.0229758 0.0220516 0.0214992 0.0178316 0.012124 0.00973051 0.00816278 0.00681477 0.00603274 0.00421199 0.00418497 0.0026998 0.00248123 0.00207488 0.00172691 0.00125003 0.00107454 0.000580714 0.000431991 0.000380782 0.000370519 0.000298992 0.000211086 0.000158876 0.000135875 8.73877e-05 7.26118e-05 6.59182e-05 4.82681e-05 2.73072e-05 2.69304e-05 2.53694e-05 1.56156e-05 6.72888e-06 3.01082e-06 2.1017e-07
threshold=1.0000000180025095e-35 1.0000000180025095e-35 1.0000000180025095e-35 1.0000000180025095e-35 -0.31129255890846247 1.084910571575165 -1.1891716122627256 -0.87573510408401478 1.0004754066467287 -0.87573510408401478 1.0004754066467287 -0.095085706561803804 -1.1443296670913694 -1.0626092553138731 -1.1340704560279844 1.0805382728576662 -0.095085706561803804 1.0003719925880434 -1.2306354641914365 -0.87573510408401478 0.20271649211645129 -0.86692970991134632 -0.095085706561803804 0.076485358178615584 -1.2306354641914365 0.20451480895280841 -0.86692970991134632 -1.036547005176544 -1.162598669528961 1.0528379082679751 1.2895066142082217 1.0040911436080935 -0.94203710556030262 -0.93764498829841603 -0.86652860045433033 -0.092811968177556978 -0.86996668577194203 -0.86692970991134632 0.28071440756320959 -0.8594841957092284 -0.25063320994377131 -0.83953729271888722 1.2586504817008974 -0.86996668577194203 -1.0341449379920957 1.2586504817008974 -1.1410852074623106 1.3020540475845339 -0.86692970991134632 -0.86692970991134632 -0.86996668577194203 1.0796152949333193 -0.86692970991134632 -0.83953729271888722 1.3020540475845339 -0.86996668577194203 -0.86996668577194203 1.072905480861664 1.0786930918693545 0.38072642683982855 0.40523366630077368
decision_type=2 2 2 2 2 2 2 2 2 2 2 2 2 2 2 2 2 2 2 2 2 2 2 2 2 2 2 2 2 2 2 2 2 2 2 2 2 2 2 2 2 2 2 2 2 2 2 2 2 2 2 2 2 2 2 2 2 2 2 2 2
left_child=1 2 3 4 5 -1 -6 8 11 10 16 15 17 24 20 21 -4 22 30 34 -5 -2 53 -24 -10 27 -16 -13 -12 -27 -19 -26 37 -17 38 -20 41 -15 -14 43 -34 -21 -38 49 -36 54 47 50 -47 51 -41 -9 58 -3 -11 -48 -49 -51 -45 -54 -57
right_child=7 12 9 14 6 -7 -8 39 13 45 28 25 19 32 26 33 -18 18 35 36 -22 -23 23 -25 31 29 -28 -29 -30 -31 -32 -33 40 -35 44 -37 42 -39 -40 46 -42 -43 -44 52 -46 48 55 56 -50 57 -52 -53 59 -55 -56 60 -58 -59 -60 -61 -62
leaf_value=0.13517826313931877 -0.12156988114016572 -0.10381856079933656 -0.11297377329335677 -0.10897176236211406 0.10228567666726325 0.067638779345901012 0.023892713289118392 -0.10404472469036374 -0.12419787963915599 -0.10230504928893963 -0.11363455377991878 -0.111507451136991 -0.10427952446088583 -0.10456534707359799 -0.10360917029261574 -0.11800258457336305 -0.10460860742500198 -0.11757990273064792 -0.10657963528021584 -0.10359155475401137 -0.10448347018807086 -0.11746389251630523 -0.11117888574225386 -0.10494063648793631 -0.11730566286494429 -0.11063438880924024 -0.10250926871027462 -0.10321923453454047 -0.10306926185485699 -0.10420279828759496 -0.12628010892343197 -0.10859136282697297 -0.10676701375142367 -0.11539816989173479 -0.10532893907283757 -0.11064422845497393 -0.10231908060335766 -0.10324117187126219 -0.10660518712749263 -0.10254510584005737 -0.10990446185164418 -0.10273676615669894 -0.10258207078844472 -0.10302001627375067 -0.10344347842873124 -0.10234378751208938 -0.10363618714797003 -0.10281555210822185 -0.10257717626095418 -0.10304076158576291 -0.10230577465154334 -0.10326675921011974 -0.10259117264114093 -0.10352009690848651 -0.10247926660704794 -0.10307754534692565 -0.10252453629231512 -0.10335007772749041 -0.10263736366385712 -0.10240908072090307 -0.10300747010415268
leaf_weight=49898.430457899347 215.04459538310766 11.188145477324726 256.65939852595329 34.385268745943904 22889.787448538467 9088.4949360545725 5101.0848440751433 5.2641037739813328 4.0319278240203857 184.15865941345692 1.6089440882205952 14.119654823094608 223.50477340444922 83.578327994793653 290.46272584982216 73.819934904575348 10.227442843839524 1.9925621747970605 6.227450706064702 25.935208432376385 32.110931124538183 21.029071271419525 32.317695068195462 35.750104727223516 2.1318140402436239 3.3662557993084219 489.38927239365876 4.0209467671811572 223.59624016843736 22.666165420785546 3.6227559745311737 2.1681403890252113 3.1695752516388893 10.112287312746046 1.0861711371690024 4.2700588591396782 311.68325661122799 17.034823138266802 3.9031813628971568 15.98591269738972 2.1187934875488272 33.967204269021749 114.91928165778518 6.4306216575205326 77.34495466016233 38.626568868756294 1.2481646575033667 3.2223421391099683 119.10721938498318 2.424046318978073 334.30623839050531 1.5538813415914772 6.5193162169307453 10.507114158943294 9.4590664207935315 1.7645774967968457 42.561611372977495 4.9958640094846487 0.49491864070296276 1.0549775324761865 0.56505083665251721
leaf_count=56201 1476 316 2539 586 49128 19301 30766 141 26 8364 16 160 5767 2022 8847 572 297 21 130 784 807 169 364 850 17 51 20724 135 7881 602 22 30 64 88 27 54 14087 572 87 665 30 1338 4700 226 2457 1730 37 123 4866 85 15176 51 265 321 401 61 1775 160 20 46 20
internal_value=0 0.106663 0.108793 0.110855 0.112938 0.124772 0.0879993 -0.109329 -0.115529 -0.105846 -0.108302 -0.118664 -0.103668 -0.105535 -0.103224 -0.120282 -0.112653 -0.10788 -0.113447 -0.103105 -0.106804 -0.121204 -0.10688 -0.107902 -0.118373 -0.106938 -0.102919 -0.10967 -0.103145 -0.105034 -0.123193 -0.112912 -0.104525 -0.117689 -0.104102 -0.108233 -0.102478 -0.104341 -0.104319 -0.102405 -0.108024 -0.103107 -0.10239 -0.103154 -0.10347 -0.102406 -0.102351 -0.102343 -0.10252 -0.103545 -0.102317 -0.103867 -0.10277 -0.103674 -0.102314 -0.103261 -0.102545 -0.103249 -0.102993 -0.102566 -0.103061
internal_weight=0 89565.8 88667.6 87824.1 86977.8 58986.9 27990.9 906.804 478.412 843.444 492.092 364.179 898.22 114.233 846.348 320.006 266.887 105.876 16.1128 792.344 66.4962 236.074 89.7631 68.0678 8.33188 44.173 779.852 18.1406 225.205 26.0324 5.61532 4.29995 105.902 83.9322 305.839 10.4975 486.505 100.613 227.408 428.392 5.28837 59.9024 426.603 28.7377 78.4311 351.352 399.654 396.076 157.734 14.2379 350.292 6.81799 14.4998 21.6953 193.618 3.57779 45.784 7.41991 6.92554 7.57429 2.32963
internal_count=268644 243779 212454 186360 155396 75502 79894 24865 6014 26094 10733 3253 31325 2761 30964 2305 2836 2078 227 29247 1393 1645 1851 1214 73 948 29571 295 7897 653 43 47 2688 660 8338 184 20909 2594 5854 18851 94 2122 18787 994 2484 15361 17857 17739 6596 437 15841 192 557 637 8765 118 1898 245 246 311 81
is_linear=0
shrinkage=0.1


Tree=8
num_leaves=63
num_cat=0
split_feature=105 85 29 131 128 114 129 132 135 72 110 128 20 80 29 0 85 75 54 31 30 65 71 56 7 61 86 31 28 56 99 52 42 54 114 32 10 29 83 22 69 69 37 132 110 31 31 30 52 107 45 45 69 111 52 81 119 71 30 32 31 106
split_gain=3408.46 3192.18 2646.83 2208.29 2111.22 2069.54 1894.2 1869.56 1068.03 985.646 1254.59 714.888 1780.13 996.585 693.69 634.168 401.096 388.647 412.912 339.308 341.091 324.226 317.154 314.871 312.116 271.837 209.666 188.21 184.194 176.856 190.938 173.542 167.371 147.958 121.551 104.822 127.126 128.053 100.222 98.0276 80.5726 55.6206 15.6685 2.52111 1.18 0.913986 0.560479 0.465403 0.415336 0.331716 0.195421 0.0590146 0.0234815 0.0133085 0.00844853 0.00758098 0.00187074 0.00113996 0.000565496 0.000518086 0.000114811 6.48451e-05
threshold=-0.85321265459060658 -1.1671591997146604 1.2198997735977175 1.0000000180025095e-35 1.0000000180025095e-35 -1.4187161326408384 1.0000000180025095e-35 1.0000000180025095e-35 1.0000000180025095e-35 -0.62721514701843251 -1.1857185363769529 1.0000000180025095e-35 1.2576538324356081 -1.2578701376914976 1.2418932318687441 0.46762584149837499 -1.162983179092407 -1.1190413832664488 1.0553040504455569 1.0091264247894289 1.0562509894371035 0.25660361349582678 -0.5013233721256255 0.99477398395538341 0.83310890197753917 0.3784663081169129 -1.1553409099578855 0.9168384075164796 1.3778526186943056 1.0117990374565127 -0.63777628540992726 0.80995070934295665 1.0655001997947695 0.82638651132583629 -0.98749873042106617 0.8017333745956422 1.0241571664810183 1.2503046393394472 -1.0169979333877561 1.2970033288002016 -0.089488953351974473 -0.39846839010715479 0.94202345609664928 1.0000000180025095e-35 -1.1832003593444822 1.0004754066467287 1.0004754066467287 1.0854033827781679 1.115075469017029 -0.87573510408401478 1.2149222493171694 1.2149222493171694 -0.095085706561803804 -1.0626092553138731 1.1787754297256472 -1.3727686405181883 -1.260817229747772 -0.40912067890167231 1.0796152949333193 0.96857529878616344 1.0073176622390749 -0.86692970991134632
decision_type=2 2 2 2 2 2 2 2 2 2 2 2 2 2 2 2 2 2 2 2 2 2 2 2 2 2 2 2 2 2 2 2 2 2 2 2 2 2 2 2 2 2 2 2 2 2 2 2 2 2 2 2 2 2 2 2 2 2 2 2 2 2
left_child=2 11 3 4 6 42 7 -1 9 27 -11 12 26 22 16 -15 24 55 21 23 -21 -19 -14 -6 33 28 39 -7 -18 30 -10 -26 -28 -4 -20 43 38 -38 -37 -2 -31 -27 44 47 50 -8 49 -16 -44 52 -3 -50 -5 56 -46 59 -48 -55 -45 -13 -57 -51
right_child=1 5 14 46 19 8 45 -9 29 10 -12 17 13 15 35 -17 25 18 34 20 -22 -23 -24 -25 31 41 32 -29 -30 40 -32 -33 -34 -35 -36 36 37 -39 -40 -41 -42 -43 48 58 54 -47 53 -49 51 61 -52 -53 -54 57 -56 60 -58 -59 -60 -61 -62 -63
leaf_value=0.1160986223294741 -0.10404492862040007 -0.15687703235619979 -0.03331803770663945 -0.11151914730805974 -0.10070583333010258 -0.10898189879542959 -0.11647473588166013 0.047333671443018831 0.14986306681421363 0.14928058277862108 0.047793255839850821 -0.10298865505852993 0.027768297563115621 0.05553583039449609 -0.16713766021601639 0.21025663532523262 0.10039443689477848 0.2705009027192975 -0.1144518804262985 0.53516614066834234 0.039129526307687609 0.069623296281376604 -0.068102813855928646 0.10852138828730676 -0.17991286291484737 -0.15946008053997632 0.066326154740344964 0.15149723672013471 -0.023461576279588 0.176987289565606 -0.07447842091940042 0.05993052936104263 -0.13358226484718067 -0.14705679169211058 0.0079964506329631285 -0.13069244281591691 0.22589224098738803 -0.081603963896492202 0.024999421332097323 -0.03183259127775092 0.23930460341450943 -0.0034657758607694249 -0.1455386078316768 -0.11328565098283401 -0.11952473968436926 -0.10505976471926481 -0.11227362090710923 -0.15712951701467778 -0.11463870539985616 -0.10209101212211641 -0.14647967730902053 -0.1115837099138233 -0.1044950991913986 -0.10264140933377326 -0.11264091298458101 -0.10484475235467527 -0.10705520210456217 -0.10533064305104974 -0.11177006282287663 -0.10561698453989854 -0.10537257460930181 -0.1023227079344443
leaf_weight=63498.266278829426 1723.428864646703 132.13170836865902 334.87170710228384 200.73835574835539 625.13999372906983 28.144700221717358 281.30305955931544 4216.2253916673362 675.40082289278507 1523.220150610432 6080.5963640492409 131.36120436154306 615.16433550044894 1134.657991733402 92.625540381297469 345.60608762130141 904.87443828955293 84.101314563304186 136.49052507989109 15.985982187092302 104.36133821681142 1801.2731182575226 785.87795849889517 81.279505813494325 32.541920810937881 54.29561235755682 148.17694891430438 1926.1522878166288 138.44261652044952 462.60791064798832 40.19576533138752 413.58946703001857 58.382489139214158 173.69682719372213 199.65179661847651 187.19880076125264 27.286242797970772 26.888144969940186 53.06636262126267 211.00127826631069 376.2013004720211 39.474712358787656 4.0475621521472922 7.2307528704404813 6.1614819914102537 93.444698112085462 1.3729563206434252 93.234840335324407 139.3118308391422 21.093349171802402 20.942092746496201 115.78645383939147 4.8749577291309825 221.66724630258977 2.5088270027190447 17.723674185574058 1.3749184515327204 1.5875595156103361 3.7328012213110924 0.75427308306097884 5.3695642761886111 28.266039976850152
leaf_count=85777 55756 574 981 2178 3342 1275 3177 15749 404 2657 23516 4690 7600 3464 396 173 1478 197 1878 12 647 10406 11728 158 135 284 365 1646 418 140 140 900 850 863 3191 913 19 102 122 2252 193 150 19 72 47 2469 15 425 1254 1052 98 1252 142 8955 36 403 25 41 40 15 112 1276
internal_value=0 0.0557727 0.103458 0.107157 0.108648 0.0886616 0.110576 0.111817 0.0969055 0.0844035 0.0681235 0.00450636 -0.0168767 0.0344433 0.00406343 0.0916594 0.0291774 0.0496913 0.0603799 -0.0501906 0.105019 0.0785839 -0.0260081 -0.0766325 -0.0186118 0.0693012 -0.0859423 0.147746 0.0839594 0.173781 0.137262 0.0424358 0.00982353 -0.0721644 -0.0417237 -0.102871 -0.0651043 0.0732739 -0.0963054 -0.0961682 0.204936 -0.0937908 -0.128999 -0.159368 -0.153422 -0.113628 -0.106372 -0.162117 -0.113756 -0.109585 -0.155455 -0.113252 -0.111353 -0.102746 -0.117533 -0.103296 -0.109663 -0.102661 -0.11277 -0.103004 -0.104967 -0.102224
internal_weight=0 18932.4 71980 69397 68916 11533.4 68089.2 67714.5 11112.5 9558.11 7603.82 7399.02 5022.3 2881.31 2583.05 1480.26 2091.79 2376.73 2221.52 826.767 120.347 1885.37 1401.04 706.419 954.7 1137.09 2140.99 1954.3 1043.32 1554.41 715.597 446.131 206.559 508.569 336.142 491.263 294.44 54.1744 240.265 1934.43 838.809 93.7703 420.89 196.824 161.744 374.748 480.975 185.86 259.146 254.973 153.074 255.098 205.613 226.003 8.67031 155.209 2.74787 223.255 10.9636 132.115 23.0932 49.3594
internal_count=268644 136331 132313 125015 111331 33251 107172 101526 29971 29094 26173 103080 82188 22965 7298 3637 5209 20892 15672 4159 659 10603 19328 3500 2879 2330 59223 2921 1896 877 544 1035 1215 1844 5069 2089 1156 121 1035 58008 333 434 3280 933 755 5646 13684 821 2525 4648 672 2506 2320 9036 83 5220 40 8996 112 4705 515 2328
is_linear=0
shrinkage=0.1


Tree=9
num_leaves=60
num_cat=0
split_feature=130 129 136 131 132 30 109 107 31 31 107 69 117 117 110 106 31 118 30 106 67 69 68 118 67 53 111 32 26 110 68 81 73 106 95 31 70 22 55 106 30 22 105 110 107 107 84 107 107 107 85 104 107 106 85 71 107 72 72
split_gain=2921.7 2889.15 2858.03 2686.17 2214.5 2295.42 1400.28 2.13551 0.800401 0.398985 0.606814 0.361609 0.200485 0.08878 0.0797151 0.0658982 0.0608686 0.0791353 0.0444952 0.0345177 0.0314272 0.0254207 0.0595979 0.0164424 0.0137524 0.0105101 0.0101534 0.00968158 0.00956064 0.0042587 0.00709013 0.00360224 0.00358309 0.00349734 0.00329764 0.00235398 0.00321269 0.00225919 0.00187983 0.00185675 0.00105491 0.000937432 0.000905084 0.000530618 0.000494098 0.000466162 0.000461292 0.000421004 0.000383968 0.000194235 0.000158178 0.00010396 9.36161e-05 6.68392e-05 3.80346e-05 3.27374e-05 1.90688e-05 1.42384e-05 1.41719e-06
threshold=1.0000000180025095e-35 1.0000000180025095e-35 1.0000000180025095e-35 1.0000000180025095e-35 1.0000000180025095e-35 1.0888141393661501 -1.1103802919387815 -0.87573510408401478 1.0004754066467287 1.0004754066467287 -0.87573510408401478 -0.095085706561803804 -1.1443296670913694 -1.1340704560279844 -1.0339416861534116 -0.86171817779541005 1.0004754066467287 -1.2306354641914365 1.0805382728576662 -0.86692970991134632 0.20271649211645129 -0.095085706561803804 0.076485358178615584 -1.2306354641914365 0.20451480895280841 1.0848347544670107 -1.0626092553138731 0.92729124426841747 1.2379488945007326 -1.0339416861534116 0.044473182410001762 -1.20817095041275 -0.62757396697998036 -0.86692970991134632 -0.8671494424343108 1.0004754066467287 -0.24528694897890088 1.2970033288002016 1.0216435790061953 -0.85687407851219166 1.0805382728576662 1.2970033288002016 -0.85321265459060658 -0.9878823161125182 -0.87573510408401478 -0.86996668577194203 -1.1639272570610044 -0.86996668577194203 -0.86996668577194203 -0.86996668577194203 -1.1410852074623106 -0.83953729271888722 -0.86996668577194203 -0.86692970991134632 -1.1410852074623106 -0.5013233721256255 -0.86996668577194203 -0.60019618272781361 -0.64754015207290638
decision_type=2 2 2 2 2 2 2 2 2 2 2 2 2 2 2 2 2 2 2 2 2 2 2 2 2 2 2 2 2 2 2 2 2 2 2 2 2 2 2 2 2 2 2 2 2 2 2 2 2 2 2 2 2 2 2 2 2 2 2
left_child=1 2 3 4 5 -1 -6 8 11 10 -5 18 16 20 23 33 21 28 -3 32 27 51 42 -10 -13 -24 -11 -4 -18 -19 -31 37 -15 35 -16 36 -14 44 -22 -21 -37 46 -23 -35 -17 -39 52 53 -45 50 -33 58 -9 -43 -51 -49 -48 -53 -2
right_child=12 7 13 9 6 -7 -8 41 14 26 -12 24 15 19 34 31 17 29 -20 39 38 22 25 -25 -26 -27 -28 -29 -30 30 -32 49 -34 43 -36 40 -38 45 -40 -41 -42 47 -44 48 -46 -47 56 55 -50 54 -52 57 -54 -55 -56 -57 -58 -59 -60
leaf_value=0.10070022831236558 -0.10395761924878098 -0.11705295876708749 -0.10429457066249681 -0.11030825169456455 0.070789474816517609 0.037270784502396626 -0.01895683580521337 -0.10213809229205313 -0.11925235283292245 -0.10866822892490208 -0.10199123084715432 -0.10832688468599015 -0.10382564497863774 -0.10358849195667393 -0.10356007175742006 -0.10246856247722125 -0.11737199470364829 -0.1122578197271968 -0.11415015468457808 -0.1024977824014169 -0.10921109873649888 -0.11150749015978545 -0.11184034779580461 -0.11012905787001613 -0.1045240880679818 -0.10429601921343797 -0.10228168740761777 -0.1093856697492791 -0.12602474695966645 -0.10450532484209824 -0.11042349703364192 -0.10305417661738465 -0.11095382744878411 -0.10675508787556838 -0.10711044100766498 -0.10474432555090765 -0.10715907553060805 -0.10284517456871661 -0.10421358263999284 -0.10204738252129904 -0.10415376790925346 -0.10311920698398443 -0.11037308036188534 -0.10342040278514841 -0.10189829936959148 -0.10235118123826846 -0.10332455719547606 -0.10226427725319376 -0.10261387455467226 -0.1022685077484979 -0.10362799147449853 -0.10364742023023431 -0.10187984811285809 -0.10265668627987544 -0.10290061761138665 -0.1020870801509593 -0.10285100621704057 -0.10336326295234446 -0.10385209839600631
leaf_weight=73863.327390430495 1.4607414789497841 203.54747476428747 4.277228830382227 226.36906471475959 4987.6365652531385 6182.900081243366 2668.7623287755996 14.786149095743893 3.4776858985424042 2.5079586394131175 143.23002825677395 15.979643646627663 104.23499332182109 289.19143752753735 84.470703136175871 16.124710073694587 1.9782819412648667 2.0249867215752593 71.303199671208858 133.66259753704071 0.77178395166993397 10.617480017244818 1.9585400521755207 4.5730528943240625 23.48786704428494 32.300855085253716 334.91195680946112 29.479860020801425 3.6020597666501999 4.5528189241886121 3.6449888944625854 7.3025668878108307 0.66201221570372482 0.44974169135093589 2.6997267082333556 89.774405343458056 2.9737352561205617 23.730566499754786 30.408074034377933 290.3570942375809 45.617207042872906 5.3746160883456469 20.833405271172523 40.939960364252329 263.13875869102776 97.95397637784481 1.3862254172563555 29.933976970612999 6.8972138147801152 1.3625278677791355 14.040560126304626 2.2645486071705818 277.24401433579624 7.4626744128763658 3.1586000882089129 15.998915847390892 2.1996224559843531 7.9676134493201953 9.8910174965858477
leaf_count=111125 40 1645 132 2836 14679 13754 15838 731 26 40 7542 295 2979 8839 2619 695 21 23 660 5749 12 115 22 61 653 828 15676 454 22 111 47 259 8 10 55 2096 64 912 795 14975 1207 185 251 1315 14427 4402 45 1390 278 63 424 67 15315 301 116 802 82 254 277
internal_value=0 0.0859826 0.0876412 0.0893214 0.0908864 0.0958008 0.0395069 -0.107663 -0.112581 -0.104815 -0.107085 -0.115015 -0.103545 -0.103086 -0.104549 -0.102953 -0.107669 -0.113379 -0.1163 -0.102764 -0.106626 -0.106635 -0.107613 -0.11407 -0.106064 -0.104727 -0.102329 -0.108741 -0.122957 -0.108151 -0.107137 -0.102162 -0.103605 -0.104113 -0.10367 -0.104268 -0.103918 -0.102088 -0.104337 -0.102189 -0.104545 -0.101979 -0.110756 -0.103336 -0.101931 -0.102448 -0.101907 -0.102344 -0.103304 -0.103306 -0.103432 -0.103657 -0.101893 -0.10285 -0.10271 -0.102203 -0.103034 -0.103426 -0.103866
internal_weight=0 89952.4 89188.5 88409.6 87702.6 80046.2 7656.4 763.926 409.539 707.019 369.599 314.318 820.797 778.81 95.2212 717.7 103.097 15.8031 274.851 713.873 64.9369 87.2942 65.7103 8.05074 39.4675 34.2594 337.42 33.7571 5.58034 10.2228 8.19781 426.812 289.853 290.887 87.1704 242.6 107.209 400.948 31.1799 424.02 135.392 354.386 31.4509 48.2869 279.263 121.685 295.616 58.7702 47.8372 25.8643 21.3431 21.5839 292.03 12.8373 4.52113 45.9329 3.58585 10.2322 11.3518
internal_count=268644 237319 212454 181490 155396 124879 30517 24865 6014 26094 10378 3253 31325 30964 2761 29247 2078 224 2305 29571 1393 1854 1216 87 948 850 15716 586 43 181 158 21298 8847 7949 2674 6346 3043 20436 807 20724 3303 18851 366 1603 15122 5314 16173 2678 1593 862 683 638 16046 486 179 2192 127 321 317
is_linear=0
shrinkage=0.1


Tree=10
num_leaves=63
num_cat=0
split_feature=104 30 91 72 71 113 0 91 133 106 54 0 106 128 134 135 29 131 71 71 128 103 69 30 73 74 29 114 0 62 0 32 46 31 35 32 35 122 61 106 70 75 30 37 32 127 20 3 4 51 75 111 120 31 3 34 103 58 46 114 0 107
split_gain=2881.11 2605.5 2219.94 1794.82 1710 1377.07 1150.52 1450.45 1030.32 1029.41 1019.44 914.169 875.726 740.093 722.493 1007.23 619.38 603.156 541.086 506.489 499.398 475.782 427.405 374.68 368.639 332.696 323.022 317.895 317.484 470.974 314.412 276.093 288.366 331.006 267.703 251.341 226.048 206.407 182.821 211.473 167.083 164.966 153.745 145.845 140.507 139.726 133.799 125.89 111.117 98.6068 95.4734 94.025 85.2121 72.7959 65.4491 53.6866 50.3894 50.3708 39.3078 30.0064 18.1789 0.110798
threshold=-0.83953729271888722 1.0791661739349367 -1.0532477498054502 -0.62800198793411244 -0.55601432919502247 -1.3679437637329099 0.4420721977949143 -0.97917550802230824 1.0000000180025095e-35 -0.86777096986770619 0.91958147287368786 0.63716885447502147 -0.96307739615440358 1.0000000180025095e-35 1.0000000180025095e-35 1.0000000180025095e-35 1.2302955985069277 1.0000000180025095e-35 -0.50809982419013966 -0.52454981207847584 1.0000000180025095e-35 -0.90971654653549183 -0.15656089037656781 1.0930564999580386 -0.79485654830932606 -0.89934456348419178 1.2302955985069277 -1.0379589796066282 0.36109857261180883 0.55796903371810924 0.4068001657724381 0.95406314730644237 1.1457266807556155 0.98711693286895763 0.88141915202140819 0.93252521753311168 0.90860483050346386 -1.2825967669486997 0.49996894598007208 -0.8876344859600066 -0.32978478074073786 -0.81752642989158619 1.0819185972213747 0.90075737237930309 0.95465824007987987 -1.9662374854087827 1.3632088899612429 0.39943425357341772 0.77557489275932323 1.1189245581626894 -0.4599305391311645 -0.96993860602378834 -1.1388572454452512 1.0017364025115969 0.62820771336555492 0.91418579220771801 -0.87710151076316822 0.82428082823753368 1.0910513997077944 -1.4187161326408384 0.34790313243865972 -0.87573510408401478
decision_type=2 2 2 2 2 2 2 2 2 2 2 2 2 2 2 2 2 2 2 2 2 2 2 2 2 2 2 2 2 2 2 2 2 2 2 2 2 2 2 2 2 2 2 2 2 2 2 2 2 2 2 2 2 2 2 2 2 2 2 2 2 2
left_child=1 4 13 28 11 49 7 -7 14 10 21 17 -12 22 15 53 -17 20 35 23 -1 -6 34 24 -10 -25 27 -13 36 44 42 46 33 -33 58 -11 41 -31 54 -40 -36 -4 -21 -20 -30 -34 52 -38 -28 50 -5 60 -15 -3 -16 -8 -32 -53 -2 -51 -24 -19
right_child=2 8 3 5 9 6 55 -9 19 18 12 26 -14 31 38 16 -18 61 43 30 -22 -23 51 25 -26 -27 48 -29 29 37 56 32 45 -35 40 -37 47 -39 39 -41 -42 -43 -44 -45 -46 -47 -48 -49 -50 59 -52 57 -54 -55 -56 -57 -58 -59 -60 -61 -62 -63
leaf_value=0.13408389607748228 -0.12898509821543586 -0.12660605889657897 0.13947652796839835 -0.17130478578026836 0.085119419579020916 -0.020586824696724165 0.16749550500052712 0.060070032761433384 0.1409356107047989 -0.053546788585395612 0.11891699256166842 -0.096838503131899539 0.081673863049082571 0.34460303878810006 0.032387033243696184 0.042665585384827849 -0.052148193300754722 -0.10838533724524176 -0.14610152947759908 0.1274111183377292 -0.03778053590514837 -0.092213076444466704 0.2011968486054308 0.076418306119979684 0.066188910197700332 -0.062540232326923004 -0.17756516910073966 0.077053003643040324 0.082490473211189852 -0.1489693491396599 -0.13163563520304422 0.71376678027821105 0.068608424559796599 0.052462639044818848 0.10822465029498179 0.071807611091614612 0.11228963637589318 0.048197840429031712 0.10752214411037622 -0.21692939692648913 -0.0095548060603621657 -0.12200168476690357 -0.065336776981390829 -0.034965494458503249 0.20480526557864676 -0.08219399251163842 0.28314930068704108 -0.17841088825718121 0.018311654076390002 -0.12837378311990821 0.17520365471105961 -0.058186277352551247 -0.09655342534907288 -0.058311959562659867 0.16412010519976189 0.23916026935909729 0.12603832631816256 -0.10981685566629751 0.020300167580625611 -0.038983549916323502 0.017628978885046217 -0.1018690804001269
leaf_weight=15118.340630285442 143.71727190352976 342.40899006836116 3129.1624564491212 12.304788738489149 228.2680478990078 2756.7853399254382 499.98949201777577 11658.012876234949 2146.9799546916038 190.23336767591536 8599.7103339917958 118.41845950484276 23749.736795067787 4.4574437588453284 40.550501078367233 8725.7950551398098 748.05937713384628 62.67090480402112 156.1164244255051 129.62415757775307 170.98552759550512 448.6961470246315 10.813810085877778 971.06048767268658 952.54099157452583 209.46187484264374 84.432638294063509 936.84632356651127 367.17615017667413 122.14799451828003 166.69960830360651 7.6106702014803878 80.430750321596861 1379.5197269245982 197.52750008739531 1004.7805741503835 25.642192160710692 93.920266127213836 62.507682546973228 29.60256265103817 308.65245829895139 24.315605310723186 60.790656268596649 484.67794918827713 126.19341064058244 260.24188351072371 10.062131341546772 35.550097472965717 44.081107230857015 476.53001208417118 22.476132944226265 228.79397395811975 246.92740261927247 286.81360626779497 539.3644560277462 132.16512929648161 7.9512221440672866 1085.249373473227 20.10523309931159 40.764469496905804 10.765469884499906 44.708535674028099
leaf_count=12772 3628 4567 2218 52 350 20933 179 34193 1819 2980 7609 715 43633 13 65 16041 2493 989 2922 183 996 1825 20 1823 1252 606 363 2767 643 627 897 19 756 9414 1267 6490 30 226 55 128 3451 1248 253 7551 158 2913 35 202 179 3699 13 2812 4035 7377 226 28 29 42822 274 213 67 2501
internal_value=0 0.0867474 0.0460538 0.0599517 0.0975552 0.0447442 0.0504354 0.0446447 0.050692 0.0849816 0.089033 0.123992 0.0915745 -0.0218655 0.0337202 0.0270418 0.0351791 0.130503 0.0120975 0.0900609 0.132162 -0.0324177 -0.0647314 0.0997047 0.117965 0.0517627 0.0393099 0.0575395 0.120404 0.0598559 -0.0230034 0.0213532 0.0358452 0.056091 0.000446242 0.0518525 0.133766 -0.063265 0.134122 0.0032493 0.0364065 0.13746 0.0658756 -0.0620415 0.113776 -0.0465905 -0.0744187 -0.0565949 -0.110378 -0.110371 0.052616 -0.0974271 -0.088731 -0.0954761 0.154909 0.182479 -0.119905 -0.100827 -0.110664 -0.12133 0.109619 -0.105672
internal_weight=0 66862.9 23518 19523.1 51442.7 15599 15047 14414.8 15420.2 34862.2 33026.4 16580.5 32349.4 3994.88 10775.1 10103.1 9473.85 15396.7 1835.81 4645.11 15289.3 676.964 2005.63 4280.04 3099.52 1180.52 1183.78 1055.26 3924.11 709.438 365.066 1989.25 1727.8 1387.13 670.002 1195.01 3214.67 216.068 672.025 92.1102 506.18 3153.48 190.415 640.794 493.37 340.673 261.447 61.1923 128.514 552.075 34.7809 1335.62 251.385 629.223 579.915 632.155 174.651 1314.04 163.823 517.294 21.5793 107.379
internal_count=268644 132456 136188 64662 94642 59310 55333 55126 37814 73360 53417 21282 51242 71526 30952 30478 18534 17258 19943 6862 13768 2175 54341 5500 3071 2429 4024 3482 5352 1654 1362 17185 13102 9433 8620 9470 3698 853 474 183 4718 3466 436 10473 801 3669 4083 232 542 3977 65 45721 4048 11944 291 207 926 45634 3902 3912 87 3490
is_linear=0
shrinkage=0.1


Tree=11
num_leaves=63
num_cat=0
split_feature=104 30 135 72 91 72 108 79 34 35 118 101 52 23 32 135 105 128 71 30 133 52 41 134 107 71 71 69 53 54 97 5 28 89 40 71 32 68 35 109 107 31 92 114 97 120 68 33 109 0 59 92 31 114 53 32 106 107 105 68 105 104
split_gain=2423.11 2202.62 1911.19 1532.83 1325.9 1369.78 1270.22 937.874 1339.06 1040.31 894.73 821.717 673.91 1104.12 656.23 801.35 710.726 652.384 640.928 613.703 552.975 550.716 524.625 497.831 474.01 462.713 420.165 416.552 341.3 294.819 364.556 282.454 358.477 302.941 234.996 230.793 229.362 243.791 221.83 204.747 174.403 128.504 149.107 124.822 122.673 115.026 112.77 85.3239 72.0961 68.9253 68.1282 66.764 69.6568 57.9682 48.94 42.1104 74.3347 41.9246 41.592 27.5406 12.7321 3.13657
threshold=-0.83953729271888722 1.0796152949333193 1.0000000180025095e-35 -0.70496380329132069 -1.0532477498054502 -0.60019618272781361 -0.90094187855720509 -0.312600627541542 0.87066140770912182 0.85014614462852489 -0.9247218370437621 -0.96812734007835377 1.1351402401924136 1.2944857478141787 0.90225449204444896 1.0000000180025095e-35 -0.91059306263923634 1.0000000180025095e-35 -0.50809982419013966 1.0729566812515261 1.0000000180025095e-35 1.0189304351806643 0.96788010001182567 1.0000000180025095e-35 -0.86864319443702687 -0.51664301753044117 -0.56414309144020069 -0.15656089037656781 0.82047662138938915 1.0618831515312197 -0.73563134670257557 0.77237188816070568 1.3778526186943056 -1.1811070442199705 0.99641153216362011 -0.51284635066986073 0.95406314730644237 0.11819406226277353 0.88141915202140819 -1.007554769515991 -0.90512150526046742 0.98967912793159496 -1.1499478220939634 -0.9462473690509795 -0.99931243062019337 -1.0421823263168333 -0.058211771771311753 0.91510221362113964 -0.93386352062225331 0.23249243944883349 0.88087818026542675 -0.63659420609474171 0.90978839993476879 -0.90469643473625172 1.0914412736892702 0.92539638280868541 -0.88205584883689869 -0.87614914774894703 -0.86266803741455067 0.076485358178615584 -0.84929093718528736 -0.64853852987289418
decision_type=2 2 2 2 2 2 2 2 2 2 2 2 2 2 2 2 2 2 2 2 2 2 2 2 2 2 2 2 2 2 2 2 2 2 2 2 2 2 2 2 2 2 2 2 2 2 2 2 2 2 2 2 2 2 2 2 2 2 2 2 2 2
left_child=1 3 4 11 17 12 14 8 -7 -9 20 40 13 -6 15 -5 -16 27 22 24 21 23 -8 -3 -13 28 -21 38 -22 30 55 41 33 -33 -27 -23 46 -38 -2 -14 43 44 -43 -1 -12 -42 -19 -20 -29 54 51 58 -53 -34 -32 60 -57 59 -31 -52 -4 -59
right_child=2 10 29 6 5 7 18 9 -10 -11 31 19 39 -15 16 -17 -18 36 47 26 25 35 -24 -25 -26 34 -28 48 -30 50 49 32 53 -35 -36 -37 37 -39 -40 -41 45 42 -44 -45 -46 -47 -48 -49 -50 -51 57 52 -54 -55 -56 56 -58 61 -60 -61 -62 -63
leaf_value=-0.0024863540855815085 -0.10659877739236337 0.037654083831723278 0.14008050223346982 0.0089152684587020734 -0.067452110085719816 -0.039795249425439626 -0.021285041816353736 -0.12454596156856848 0.03895652074238002 0.16350536506226357 -0.15222843309688772 0.1327174006259014 -0.2282532456243386 0.079475873731359656 0.10227406640580719 0.11577712181753858 0.070896849169901285 0.13746371779883851 -0.048968432811485711 0.092327697745609671 -0.078971017831176119 -0.10543910907712009 0.094145896311997296 0.13450203092567023 0.029770680377403248 -0.1063372203615018 -0.046210023550370599 0.15076178002122009 0.093482874393508913 0.082664537692725457 -0.0040856882038554582 -0.17368815376993846 -0.13453233356462813 0.08121196096795627 0.18777256656030236 0.082615990863358926 0.043126339170609464 -0.085844392848298284 0.032797166810688214 0.1425747027289862 0.44427947373090887 -0.13926082381653035 0.052776032721876399 0.26315961421181355 -0.045722214743503804 -0.11946014638738145 -0.093694203691019565 -0.12479838684663103 -0.099936875600803318 -0.25264657562273268 0.16290259961554271 -0.19228090801525113 0.083925892064359797 0.17945575479389153 -0.20972218958145167 -0.028474287013547914 0.12871271472787113 0.13680284168606915 0.15098849326147143 0.21111623088685599 0.10503811683976323 0.10269591487923801
leaf_weight=93.82084659487009 147.46160524804145 8092.1461762236431 373.90315334498882 2385.4607549272478 578.69468629918993 3249.4188107270747 713.92011312674731 149.22580460645258 6434.892689996399 784.5511737819761 276.70980568882078 11418.320959319361 15.039984084665774 4401.7281124740839 14754.558761397377 994.21205648779869 14134.505466978997 23.317023515701294 572.02102703973651 4214.7851284975186 118.04183515906334 357.02938240673393 877.9162468239665 568.01957479119301 465.49661871790886 181.30138273537159 230.91308384388685 11.580615554004906 4127.6438463032246 100.74025917053223 203.11472276598215 52.228637795895338 146.21881442889571 434.55647592712194 31.955310508608818 79.858089663088322 1605.1612396072596 161.29465886950493 505.54314081929624 1485.2044978514314 3.6917534172534934 60.615021084435284 121.43052215874195 21.797937750816345 177.52238247077912 184.74136873241514 222.42511177249253 200.35846162028611 1213.7530581988394 13.030612602829931 203.24465066194534 10.597344040870665 65.964357927441597 6.1261547356843939 12.272776544094084 50.188871264457703 75.110216412693262 68.807694256305695 770.89996114373207 284.06763827800751 143.46899100765586 44.337233766913414
leaf_count=348 3860 19545 158 5982 4283 14219 5324 1096 33586 1026 1192 8580 63 7600 14507 685 27364 232 7850 5349 359 4290 4320 343 4967 986 1920 28 5290 130 424 286 674 814 27 474 11075 2027 4718 982 6 1414 486 7 574 4090 3851 4397 45673 55 56 50 108 6 53 109 84 26 285 178 124 29
internal_value=0 0.0790255 0.0415861 0.0888441 0.0318844 0.0438733 0.0768608 0.0217612 0.0125326 0.117472 0.0450863 0.113795 0.0801023 0.0624037 0.0820446 0.0403513 0.0869222 -0.0208063 0.00610816 0.116828 0.0526201 0.03848 0.0423765 0.0440063 0.128685 0.0814685 0.0851319 -0.0631897 0.0886882 0.12574 0.0791984 -0.0349885 0.0119661 0.053863 -0.0622665 -0.0710648 0.0187575 0.0313501 0.00131876 0.138857 -0.0490903 -0.0821536 -0.0111658 0.0475966 -0.110604 -0.108415 -0.071761 -0.068639 -0.0975675 -0.0293141 0.151918 0.135228 0.0456945 -0.121906 -0.0158029 0.117766 0.0657511 0.178275 0.143092 0.191008 0.130363 0.123438
internal_weight=0 66097.9 23409 51266.5 20989.3 17098.8 34633 10618.1 9684.31 933.777 14831.4 16633.6 6480.67 4980.42 32268.7 3379.67 28889.1 3890.54 2364.22 16329.5 13556 9097.05 1591.84 8660.17 11883.8 4458.94 4445.7 1878.34 4245.69 2419.75 871.089 1275.41 639.13 486.785 213.257 436.887 2012.2 1766.46 653.005 1500.24 304.052 636.278 182.046 115.619 454.232 188.433 245.742 772.379 1225.33 228.418 1548.66 948.202 76.5617 152.345 215.387 642.671 125.299 600.457 871.64 487.312 517.372 113.145
internal_count=268644 132456 136188 95696 134319 62855 70429 49927 47805 2122 36760 25267 12928 11883 48538 6667 41871 71464 21891 20816 31314 24652 9644 19888 13547 6662 7269 54279 5649 1869 1007 5446 1780 1100 1013 4764 17185 13102 8578 1045 4451 3666 1900 355 1766 4096 4083 12247 45701 532 862 573 158 680 477 475 193 289 415 234 282 55
is_linear=0
shrinkage=0.1


Tree=12
num_leaves=63
num_cat=0
split_feature=70 30 92 135 32 106 41 0 54 118 113 131 22 30 106 132 130 128 1 31 72 135 55 89 134 133 83 74 74 81 3 47 39 122 127 105 29 116 5 28 89 116 72 114 31 127 31 58 101 97 35 70 52 114 57 6 133 118 75 29 31 107
split_gain=2076.77 2473.65 2131.58 1440.07 1710.17 1426.49 1620.22 1509.47 1180.76 979.158 955.805 700.485 648.029 625.237 638.475 547.211 541.279 524.129 512.902 577.255 482.405 437.076 400.024 427.302 350.477 424.67 340.223 692.2 476.659 307.655 288.62 290.731 278.322 277.395 276.102 254.303 250.04 278.74 218.238 324.735 243.85 211.37 191.822 156.485 126.574 139.871 121.704 119.124 95.8225 121.443 83.4935 53.7795 52.6865 44.4283 39.4631 19.6727 5.69846 3.68402 2.34729 1.2698 0.454185 0.114184
threshold=-0.32332608103752131 1.0752565264701845 -1.0264526009559629 1.0000000180025095e-35 0.89750871062278759 -0.95609715580940235 0.99856078624725353 0.41746650636196142 1.1260280013084414 -0.9247218370437621 -1.3679437637329099 1.0000000180025095e-35 1.3353490829467776 1.0888141393661501 -0.88205584883689869 1.0000000180025095e-35 1.0000000180025095e-35 1.0000000180025095e-35 0.65388330817222606 0.97819241881370556 -0.64754015207290638 1.0000000180025095e-35 0.95577576756477367 -1.1313226222991941 1.0000000180025095e-35 1.0000000180025095e-35 -1.0815764665603635 -1.0173829197883604 -0.89242282509803761 -1.2527760267257688 0.56043854355812084 1.1489899754524233 0.97940906882286083 -1.18927925825119 -1.8392464518547056 -0.95236259698867787 1.2302955985069277 -0.95812094211578358 0.77237188816070568 1.3778526186943056 -1.1811070442199705 -1.0361487865447996 -0.62331125140190113 -1.3344922065734861 0.97029471397399913 -2.3112965822219844 1.0021648406982424 0.80204474925994884 -0.95210531353950489 -1.0137018561363218 0.8580232858657838 -0.31904411315917963 0.96461692452430736 -0.90469643473625172 0.94540545344352733 0.80167061090469371 1.0000000180025095e-35 -1.0642879009246824 -1.1190413832664488 1.2355243563652041 1.0055301785469057 -0.87573510408401478
decision_type=2 2 2 2 2 2 2 2 2 2 2 2 2 2 2 2 2 2 2 2 2 2 2 2 2 2 2 2 2 2 2 2 2 2 2 2 2 2 2 2 2 2 2 2 2 2 2 2 2 2 2 2 2 2 2 2 2 2 2 2 2 2
left_child=1 3 17 4 24 6 44 8 10 13 -7 16 29 14 20 -10 -6 22 19 35 -3 32 23 46 25 -1 27 -15 -28 -9 31 34 -8 -16 -19 -5 37 -20 48 40 -40 -25 -21 -23 45 -4 -2 -14 55 -50 57 -52 -26 -41 -33 -11 -46 -24 -32 -38 -60 -13
right_child=2 9 5 18 11 7 21 12 15 38 -12 61 47 26 33 -17 -18 30 36 42 -22 43 50 41 52 -27 28 -29 -30 -31 58 54 -34 -35 -36 -37 59 -39 39 53 -42 -43 -44 -45 56 -47 -48 -49 49 -51 51 -53 -54 -55 -56 -57 -58 -59 60 -61 -62 -63
leaf_value=-0.065294572606414261 0.0069337332053224779 0.07656510769209772 -0.16116276215967582 -0.26582058320781193 0.088861854119910308 -0.11018060074188846 0.083916499959571955 -0.14921952860842519 0.14794699593689942 -0.15669423310408576 0.032495502624169552 -0.10692258996640969 -0.14681772820285721 0.065809195223750824 0.12224616930832032 -0.11949494226874507 -0.10351656925114279 0.11202947669988367 -0.24231401974762079 0.087660774156108401 -0.014178483276981863 -0.21955693506839663 0.16485823734803084 -0.053463705660200603 0.14886801954938786 0.02190731255650601 0.088647817680237662 -0.022653259006353104 -0.03333170402025401 0.14211899862711139 -0.10300895690149554 -0.10256001862397746 0.13290817765476953 -0.046350087588229491 0.013428657303832317 0.13106153001662629 -0.1981672151218242 0.06464865535543951 -0.16269417579598097 -0.12103335751864126 0.06796862238166515 0.17324643017692315 -0.0043942607667177792 0.0073415036830392832 -0.14783358399862553 0.12217990552246534 -0.11988163834353822 0.038426980679828547 0.014597463394061381 -0.077955131595821681 -0.028461622746915084 -0.10196273928841318 0.029262521367039253 0.14410175026811839 -0.023437379965361192 -0.0066255620331105401 -0.25752967045139846 0.071046032612513299 -0.12222925707810182 -0.16485348792576657 -0.13546715300496723 -0.1020504979153692
leaf_weight=949.34211160894483 131.25978814903647 11097.869183906354 74.396385418251157 16.169135630130768 17774.338203697465 480.29737881571054 1804.4720319435 36.919607393443584 1146.6260330732912 116.91798352450132 20952.081129292026 97.673386830836535 94.71854936145246 1378.1634359806776 114.34500034805387 81.975636683404446 147.46764323953539 385.60153956338763 31.706102609634399 2562.9890961870551 618.49045862443745 37.222558543086052 10.018673896789553 54.903337942436337 160.5633060336113 1356.4027852173895 1428.7218444272876 2469.5161797124892 412.95139085501432 1988.5141415335238 51.676206558942795 170.94652973301709 3244.6521184816957 665.97234349232167 1077.7596765179187 10663.403953313828 15.466423958539961 441.57653756439686 50.402247182093561 163.67952394299209 505.42544294521213 163.8659509755671 248.2901004999876 165.72450272738934 4.9658689200878134 22.749902121722698 178.7095908280462 54.797493722289801 201.02673859987408 480.99409734923393 108.30964425671846 1230.4739293586463 47.791959062218666 6.5739573240280142 99.859062101691961 9.440774863585828 102.12568019330502 7.1903209751471868 49.991519257426262 43.968121260404587 53.820075057446957 94.782582845538855
leaf_count=13373 2133 17705 296 69 28284 3841 1942 255 1496 997 72894 2465 498 2964 511 722 5246 1606 132 2526 1709 160 2 229 44 2160 2174 8766 1088 1393 1916 1944 2560 5213 8040 4733 62 495 291 764 914 157 476 302 54 39 2033 112 1624 2176 1729 47206 72 7 1744 24 433 67 382 185 290 4920
internal_value=0 0.075232 0.0437427 0.0913227 0.0745143 0.0525723 0.09887 0.042401 0.0347634 0.0469581 0.0292981 0.0852411 0.121978 0.0534307 0.0659416 0.130103 0.0872789 -0.0271218 0.116047 0.119848 0.0717749 0.109616 -0.064435 0.00934295 -0.00277256 -0.0139962 0.0259506 0.00903226 0.0612968 0.136808 0.0100942 0.0217966 0.115399 -0.0216446 0.0394104 0.130461 0.0198065 0.0440846 -0.029753 0.0100396 0.0470522 0.11635 0.0795305 -0.034274 -0.177464 -0.094809 -0.0661803 -0.0789257 -0.0654945 -0.0506751 -0.0932031 -0.0960164 0.121433 -0.110796 -0.0733837 -0.145482 -0.252443 0.125661 -0.120424 -0.173523 -0.129092 -0.104523
internal_weight=0 54372.4 34066.6 34651.9 20628.4 30292.2 5456.31 24835.9 22661 19720.5 21432.4 18114.3 2174.95 18186 12496.7 1228.6 17921.8 3774.39 14023.6 13490.9 11716.4 5252.07 1884.73 528.739 2514.1 2305.74 5689.35 3847.68 1841.67 2025.43 1889.65 1734.17 5049.12 780.317 1463.36 10679.6 532.717 473.283 1534.46 726.081 555.828 218.769 2811.28 202.947 204.238 97.1463 309.969 149.516 808.38 682.021 1355.99 1338.78 208.355 170.253 270.806 126.359 107.092 17.209 155.488 59.4345 103.812 192.456
internal_count=268644 112169 156475 65242 56564 86997 5786 81211 78953 46927 76735 40915 2258 40130 25138 2218 33530 69478 8678 7804 19414 4964 53556 4552 15649 15533 14992 11730 3262 1648 15922 13334 4502 5724 9646 4802 874 627 6797 1976 1205 386 3002 462 822 335 4166 610 4821 3800 49004 48935 116 771 3688 1021 487 69 2588 247 672 7385
is_linear=0
shrinkage=0.1


Tree=13
num_leaves=63
num_cat=0
split_feature=129 130 136 131 71 30 41 107 31 69 31 107 117 30 117 111 106 31 117 106 68 69 68 106 117 58 111 23 68 32 81 53 21 92 31 118 70 106 30 73 85 70 21 106 91 69 85 107 110 85 104 30 106 85 69 107 30 92 107 107 29 20
split_gain=1880.09 1902.86 1830.49 1646.16 1645.92 2295.81 1702.68 2.14351 0.808629 0.383767 0.278847 0.394066 0.250195 0.232757 0.114651 0.103673 0.0705987 0.0696771 0.0899436 0.0513685 0.0338469 0.0284073 0.0645112 0.0230641 0.0177237 0.0176477 0.0135776 0.0134463 0.010601 0.00950797 0.00786623 0.00773163 0.00677267 0.00627051 0.00525147 0.00512035 0.00496378 0.00448253 0.00495383 0.00381265 0.00327821 0.00251734 0.00214293 0.00211741 0.00187471 0.00126209 0.000792676 0.000726429 0.000722155 0.000625245 0.00013003 0.000116344 0.000143262 9.27498e-05 9.11379e-05 5.8329e-05 6.1821e-05 4.35427e-05 1.72838e-05 1.56064e-05 1.30727e-05 6.30671e-06
threshold=1.0000000180025095e-35 1.0000000180025095e-35 1.0000000180025095e-35 1.0000000180025095e-35 -0.4741255640983581 1.0782216191291811 0.98936256766319286 -0.87573510408401478 1.0004754066467287 -0.095085706561803804 1.0004754066467287 -0.87573510408401478 -1.1443296670913694 1.0796152949333193 -1.1340704560279844 -1.0626092553138731 -0.86171817779541005 1.0004754066467287 -1.2047557234764097 -0.86692970991134632 0.076485358178615584 -0.095085706561803804 0.076485358178615584 -0.86735230684280384 -1.2096458077430723 0.88349074125289928 -1.0626092553138731 1.2886511087417605 0.074865207076072707 0.92729124426841747 -1.2264158129692075 1.0848347544670107 1.1864861249923708 -0.94203710556030262 1.0040911436080935 -0.9247218370437621 -0.24528694897890088 -0.86692970991134632 1.0796152949333193 -0.62757396697998036 -1.2078360319137571 -0.32332608103752131 1.2813972830772402 -0.86692970991134632 -1.0532477498054502 -0.090626440942287431 -1.1410852074623106 -0.86996668577194203 -0.9878823161125182 -1.1437783837318418 -0.83953729271888722 1.0796152949333193 -0.86692970991134632 -1.1671591997146604 -0.1555482819676399 -0.82541799545288075 1.0791661739349367 -1.0264526009559629 -0.86996668577194203 -0.86996668577194203 1.1606255173683169 1.2586504817008974
decision_type=2 2 2 2 2 2 2 2 2 2 2 2 2 2 2 2 2 2 2 2 2 2 2 2 2 2 2 2 2 2 2 2 2 2 2 2 2 2 2 2 2 2 2 2 2 2 2 2 2 2 2 2 2 2 2 2 2 2 2 2 2 2
left_child=1 2 3 4 5 -1 -6 8 9 13 11 -5 17 23 20 24 37 21 27 39 29 50 -23 -2 -10 32 -12 -19 -27 -4 42 -22 -11 43 -26 -15 -20 38 -14 -16 -21 47 -18 -17 54 -35 -32 51 -39 53 -3 52 -9 -46 59 56 -49 -56 -51 -43 -53 -57
right_child=7 12 14 10 6 -7 -8 41 15 25 26 -13 16 35 19 33 30 18 36 40 31 22 -24 -25 34 28 -28 -29 -30 -31 46 -33 -34 45 -36 -37 -38 48 -40 -41 -42 44 -44 -45 49 -47 -48 55 -50 58 -52 60 -54 -55 57 61 -58 -59 -60 -61 -62 -63
leaf_value=0.087607444013269462 -0.11880530733136999 -0.10407434110418828 -0.10498550160231404 -0.10902682844740813 -0.067553220702902955 0.041983182504271868 0.049721589978463779 -0.10356781741151672 -0.12091725566199174 -0.11518465736787975 -0.10921335505031962 -0.10151054321422742 -0.1044134437079991 -0.11182321590065609 -0.10361050343505354 -0.10374013537496865 -0.10145118410974055 -0.11704805359063969 -0.10659381743570154 -0.10167250405280837 -0.11200588510411005 -0.1111884766573613 -0.10505963841923115 -0.11514497932681128 -0.11493036851783743 -0.1084184053519294 -0.10200221389181617 -0.12709140180313691 -0.10417287167768402 -0.10993675700114683 -0.10273449806793569 -0.10450785829997351 -0.10876935738629956 -0.10588346309730551 -0.10724254413395945 -0.10849568537251707 -0.11104778382385826 -0.10695290946991223 -0.10333490441518507 -0.11115719919472118 -0.102632548513927 -0.10193175045915909 -0.10202439711945355 -0.10228540646789037 -0.10182685081857644 -0.10918523750169032 -0.10366729388960037 -0.10218342587357321 -0.10298716151744876 -0.10349619518416966 -0.10359283930441905 -0.10256404032365968 -0.10275086548751794 -0.10242338972947214 -0.1012566270385255 -0.10170828268327813 -0.10160965275929185 -0.10142618108617336 -0.10304274098761323 -0.10155603815225177 -0.10187820288520572 -0.10189868091279142
leaf_weight=36323.213617095724 188.67949861288071 11.854286966845395 4.4885960184037677 199.94277581945062 1289.3375925943255 15838.35771519877 31095.744018388912 4.4837583731859914 3.7735613882541656 2.0645816400647155 2.6352641656994811 107.12518405914307 173.97981132287532 58.673904210329056 283.45195914898068 66.422035798430443 200.96446517296135 1.9970298334956194 6.2236457858234653 287.32167624868453 1.4333207570016373 32.389651920646429 36.559653788805008 18.942906606942415 1.7725862562656396 7.9222413692623403 284.19659806322306 4.0093210786581039 22.830869594588876 28.531556718051434 18.507353332825005 33.935080856084824 8.1090501938015205 2.781711595132947 1.78157377615571 5.0200622007250777 4.1845560017973158 0.46426079794764419 56.388966033235192 0.67102694511413474 40.592462319880724 1.3138653179630635 96.553955526091158 11.78004960156977 58.360676473006606 1.9829824604094017 17.941763369366527 26.520182246342301 41.933529279194772 1.3519436698406937 10.644778121262787 0.43585414439439663 4.1179204443469635 2.7282079439610234 137.97512322105467 2.7057496253401068 2.0209225500002495 17.013697209767997 2.2222212441265574 6.9741228511556965 0.76699165534228086 4.8727067690342665
leaf_count=42674 1429 317 132 2836 4605 28587 79530 137 27 21 40 7542 4471 625 8839 2022 14752 21 127 19029 16 366 850 179 16 146 15676 24 644 414 754 831 137 64 30 72 52 10 1875 8 1695 72 5251 572 3325 30 541 1301 1593 42 321 19 163 119 11287 167 131 1229 78 468 43 270
internal_value=0 0.058936 0.0602891 0.0615947 0.0627601 0.0737541 0.0450526 -0.108434 -0.113077 -0.115487 -0.10431 -0.106405 -0.103571 -0.116849 -0.103078 -0.104743 -0.102782 -0.108009 -0.114008 -0.102644 -0.106961 -0.106932 -0.107939 -0.118471 -0.116144 -0.106461 -0.102068 -0.123752 -0.105267 -0.109264 -0.101807 -0.104812 -0.110071 -0.103736 -0.111077 -0.111561 -0.108385 -0.103976 -0.104149 -0.103628 -0.101791 -0.101609 -0.101637 -0.103521 -0.101473 -0.107258 -0.103194 -0.102285 -0.103031 -0.101929 -0.103847 -0.103048 -0.103177 -0.101853 -0.101293 -0.102077 -0.102143 -0.101275 -0.103214 -0.101616 -0.102127 -0.101831
internal_weight=0 86535.6 85821 85140.6 84546.7 52161.6 32385.1 676.402 402.538 312.243 593.9 307.068 714.597 271.316 680.426 90.2945 606.734 107.863 16.4146 612.037 68.3886 91.4484 68.9493 207.622 7.32772 40.9267 286.832 6.00635 30.7531 33.0202 333.968 35.3684 10.1736 82.9668 3.55416 63.694 10.4082 272.767 230.369 284.123 327.914 273.864 297.518 78.2021 227.94 4.76469 36.4491 45.9241 42.3978 64.663 22.4991 9.80452 8.60168 61.0889 163.277 36.1196 28.5411 154.989 3.57416 8.28799 1.20285 7.57846
internal_count=268644 243779 212454 181490 155396 71261 84135 24865 6014 3253 26094 10378 31325 2305 30964 2761 29247 2078 224 29571 1393 1854 1216 1608 73 948 15716 45 790 546 21298 847 158 2688 46 697 179 7949 6346 8847 20724 18851 20003 2594 16620 94 1295 2231 1603 3564 638 362 300 3444 13056 1869 1432 12516 120 540 62 437
is_linear=0
shrinkage=0.1


Tree=14
num_leaves=63
num_cat=0
split_feature=104 29 128 135 131 136 129 87 72 37 26 115 51 59 29 31 32 20 75 122 28 30 102 113 54 82 107 104 46 107 101 52 73 4 56 81 115 102 98 54 32 10 29 83 24 30 7 66 70 88 18 125 69 90 103 98 132 2 31 107 118 111
split_gain=1726.51 1598.45 1440.75 1438.3 1127.76 1071.29 1019.24 912.077 1311.61 851.269 1053.98 432.701 412.264 415.337 399.964 393.627 361.666 599.397 398.585 674.497 350.813 303.59 303.23 277.48 273.083 304.395 248.898 206.854 224.052 198.843 168.179 139.939 139.197 136.758 121.259 118.216 117.262 115.071 103.247 91.1489 85.0834 102.27 90.2619 68.2995 65.9756 87.2452 65.0059 64.2677 44.4011 41.3666 50.9304 32.8564 32.2282 32.18 25.5657 2.439 0.851939 0.668981 0.174753 0.143509 0.0276372 0.0095933
threshold=-0.83953729271888722 1.2198997735977175 1.0000000180025095e-35 1.0000000180025095e-35 1.0000000180025095e-35 1.0000000180025095e-35 1.0000000180025095e-35 -1.1230637431144712 -0.59499189257621754 0.92493683099746715 0.94219857454299938 -1.2725163102149961 1.151770353317261 0.76718845963478099 1.2418932318687441 1.0040911436080935 0.96121710538864147 1.2576538324356081 -1.0230730175971983 -1.3010141253471372 1.1599535942077639 0.99756228923797619 -0.79324382543563832 -1.1209011673927305 0.82638651132583629 -1.0901507735252378 -0.94956988096237172 -0.84901496767997731 1.0324831604957583 -0.90074345469474781 -0.93263608217239369 1.1281597614288332 -0.8447391390800475 0.66166856884956371 0.95791631937026989 -1.3271897435188291 -0.92547273635864247 -0.74506828188896168 -0.73424881696701039 0.94728919863700878 0.8017333745956422 1.0241571664810183 1.2503046393394472 -1.0169979333877561 1.3229414224624636 1.0153020024299624 0.82719093561172496 0.23194948583841327 -0.25965712964534754 -0.75664526224136341 1.1291897892951968 -2.2884639501571651 -0.23349760472774503 -0.64346101880073536 -0.59951686859130848 -0.94826668500900257 1.0000000180025095e-35 0.67013275623321544 1.0004754066467287 -0.87573510408401478 -1.1567215323448179 -1.0626092553138731
decision_type=2 2 2 2 2 2 2 2 2 2 2 2 2 2 2 2 2 2 2 2 2 2 2 2 2 2 2 2 2 2 2 2 2 2 2 2 2 2 2 2 2 2 2 2 2 2 2 2 2 2 2 2 2 2 2 2 2 2 2 2 2 2
left_child=1 2 4 7 5 6 -1 16 12 11 -11 -10 13 -9 24 21 17 22 19 -18 -19 30 -2 -14 29 46 31 28 -17 32 -4 44 -3 -27 38 -29 -31 -20 52 -23 55 43 -43 -42 45 -5 -26 -40 51 50 -33 -36 -28 -51 -50 56 -16 -57 59 -6 -7 -60
right_child=3 14 15 26 58 60 -8 8 9 10 -12 -13 23 -15 40 27 18 20 37 -21 -22 39 -24 -25 25 33 34 35 -30 36 -32 49 -34 -35 48 -37 -38 -39 47 -41 41 42 -44 -45 -46 -47 -48 -49 54 53 -52 -53 -54 -55 -56 57 -58 -59 61 -61 -62 -63
leaf_value=0.069408641103306787 -0.092730854618043618 0.054718815849310154 -0.12228828343312875 -0.010135824590557299 -0.10783300154673162 -0.10656822195622946 -0.11098626879147147 0.1127301648402729 -0.10093607768596101 0.14219155216894119 0.013888190039996232 0.019778980391806672 -0.21444764023049367 0.035732961091389619 -0.14714525066560497 0.16957774839030826 0.16446067503880712 0.12857901081074438 -0.094049236397566252 0.012081335284091457 -0.0059380707124091544 -0.047403801861860578 -0.00032506764039444918 0.12492213139400231 -0.15194095900319332 -0.18205212633318679 0.12520626751899691 -0.1224178285979249 -0.087297090514187534 0.010002940479037818 0.164286076448105 -0.19755877310799422 -0.20473582103579366 0.074029867211022116 0.022346703456588381 0.17495194871109909 -0.080912110104954832 0.040328377447987201 -0.23460921621741893 -0.15268732023784248 -0.12527110220598589 0.17891600927100593 -0.078258507087504495 0.0034308436492450178 0.082107908643611643 -0.17914750842985305 -0.036903057005010224 0.04861512043683467 0.16409058560347764 0.13060407970118107 0.10564069399249743 0.12402591726126377 0.062882142639644673 0.052884864097999564 0.091515963686124413 -0.18414484890194774 -0.11081973999329489 -0.16193359297545362 -0.10834204644206047 -0.10149031723761459 -0.10282639713602502 -0.10192571379166336
leaf_weight=58528.948855860159 1419.7659888640046 980.72304864227772 31.301640693098307 101.83419584482908 143.77508484385908 20.934630837291479 314.88989027962089 971.52939718030393 896.52251984924078 701.93647428229451 7286.9124690713361 443.99197930563241 24.484696918167174 2511.8830947000533 117.39283718541265 43.639244047924876 350.77479996252805 215.47299623582512 340.03093026392162 1690.1732963165268 1934.1738070435822 101.40013252571225 473.57069573644549 1504.9691756293178 230.27831467241049 24.167037284001708 132.3919530659914 15.343974931165574 153.01022942923009 390.12999748624861 59.225394293665886 10.957618966698648 21.123249731957912 152.13033442944288 32.93905383348465 103.83538082614541 222.93860350176692 78.422647392377257 16.983838081359863 434.95539391599596 175.63732167799026 28.801986262202263 25.937345718033612 53.883009977638721 41.5077273696661 43.627922505140305 62.440858073532581 15.166210666298864 475.44227564707398 131.20183700323105 11.20568700134754 903.24870139360428 222.2644792534411 89.698437079787254 54.057566791772842 20.996029328554869 6.8320655338466159 38.289371184073389 2.3587759546935549 47.443676551803946 345.63914169371128 192.38243224192411
leaf_count=81854 30230 1851 504 227 2212 473 6570 2024 3752 959 30897 840 107 4948 566 241 1967 433 6508 26116 13840 308 9432 1010 1213 116 53 187 1019 772 201 47 88 248 52 190 695 1256 73 2590 913 19 102 122 39 161 226 23 214 101 8 394 276 164 37 91 81 195 39 3360 14650 10760
internal_value=0 0.0610629 0.0643308 0.0291226 0.066271 0.0673816 0.0684433 0.0208703 0.034955 0.0127878 0.0251615 -0.060954 0.0762101 0.0572076 -0.016467 -0.0583276 -0.0101961 -0.0285903 0.020042 0.0382706 0.00754545 -0.104193 -0.0696179 0.119489 0.00229033 -0.0648814 0.104485 0.0327099 -0.030293 0.0217989 0.0651969 0.0359467 0.0492484 0.0389259 0.120395 0.136667 -0.0230578 -0.0688654 0.0705922 -0.132783 -0.100031 -0.0657642 0.057058 -0.0950566 -0.029095 -0.0608269 -0.127402 -0.101003 0.133538 0.0859783 -0.0442622 0.120448 0.0861475 0.0990455 0.156681 -0.153112 -0.145147 -0.1698 -0.104112 -0.106259 -0.10304 -0.102003
internal_weight=0 63090.8 60539.1 23127.1 59596.4 59210.4 58843.8 20844.6 14342.2 9329.36 7988.85 1340.51 5012.87 3483.41 2551.7 942.711 6502.39 4042.98 2459.4 2040.95 2149.65 626.883 1893.34 1529.45 2083.93 469.017 2282.53 315.829 196.649 1614.91 90.527 430.033 1001.85 176.297 1852.49 119.179 613.069 418.454 386.806 536.356 467.77 284.26 54.7393 229.52 186.97 145.462 292.719 32.15 1465.69 243.064 22.1633 936.188 354.656 220.9 529.5 183.51 124.225 59.2854 385.96 191.219 366.574 194.741
internal_count=268644 132456 125158 136188 119918 103547 88424 134319 44537 36448 31856 4592 8089 6972 7298 5240 89782 53935 35847 28083 14273 3603 39662 1117 5209 1803 1869 1637 1260 3406 705 747 1939 364 1122 377 1467 7764 425 2898 2089 1156 121 1035 427 388 1439 96 697 320 55 446 329 265 251 933 647 286 16371 5572 15123 10799
is_linear=0
shrinkage=0.1


Tree=15
num_leaves=60
num_cat=0
split_feature=130 70 30 31 128 42 113 132 105 33 133 122 134 101 30 73 29 71 114 52 97 28 106 135 73 121 15 109 12 70 51 117 106 31 117 69 68 23 53 81 106 30 110 68 104 104 107 90 85 31 82 26 71 24 31 104 72 72 70
split_gain=1531.18 1444.24 1432.48 1469.19 1118.84 1085.63 1103.42 990.619 889.553 703.729 610.74 592.692 568.622 469.31 470.75 439.41 424.259 472.504 373.266 335.427 309.135 295.792 274.727 216.224 200.981 184.366 143.554 124.371 96.5766 63.2086 34.4557 0.195586 0.0645796 0.0618737 0.0754383 0.0209459 0.0496112 0.011107 0.00856613 0.00639761 0.00425736 0.0041862 0.00395586 0.0061164 0.00238389 0.0022214 0.00173428 0.00128235 0.000726968 0.000691003 0.000555256 0.000345816 0.000279452 0.000250922 0.000219568 0.000168348 0.000133861 0.000117455 5.0846e-05
threshold=1.0000000180025095e-35 -0.26939965784549708 1.0859459638595583 0.99597007036209118 1.0000000180025095e-35 1.0763921141624453 -1.3679437637329099 1.0000000180025095e-35 -0.87986826896667469 0.83524632453918468 1.0000000180025095e-35 -1.1606969833374021 1.0000000180025095e-35 -0.91477549076080311 1.1061722040176394 -0.7875329554080962 1.1010042428970339 -0.3903027474880218 -1.3912688493728635 0.9731867015361787 -0.839481621980667 1.067028880119324 -0.97381597757339466 1.0000000180025095e-35 -0.87433162331581105 -1.0790118575096128 1.1197959780693056 -1.0950999259948728 0.76034706830978405 1.0000000180025095e-35 1.1189245581626894 -1.1443296670913694 -0.86171817779541005 1.0004754066467287 -1.2047557234764097 -0.095085706561803804 0.076485358178615584 1.2886511087417605 1.0848347544670107 -1.2248695492744444 -0.86692970991134632 1.0796152949333193 -1.0339416861534116 0.044473182410001762 -0.83953729271888722 -0.83953729271888722 -0.86996668577194203 -1.0912229418754575 -1.1410852074623106 1.0004754066467287 -1.1743029356002805 1.2502041459083559 -0.50809982419013966 1.3145736455917361 0.9758613407611848 -0.83953729271888722 -0.61035788059234608 -0.60019618272781361 -0.32223160564899439
decision_type=2 2 2 2 2 2 2 2 2 2 2 2 2 2 2 2 2 2 2 2 2 2 2 2 2 2 2 2 2 2 2 2 2 2 2 2 2 2 2 2 2 2 2 2 2 2 2 2 2 2 2 2 2 2 2 2 2 2 2
left_child=1 2 3 4 7 16 29 -1 18 -10 12 15 -5 14 -13 24 17 20 -8 -12 -3 -6 -19 27 -4 -15 -17 -18 -25 30 -7 33 40 35 37 55 45 -35 -38 44 41 46 -36 -44 52 -37 -33 -46 51 -43 53 -41 -34 -42 -52 58 -50 -57 -2
right_child=31 5 11 10 21 6 8 -9 9 -11 19 13 -14 25 -16 26 23 22 -20 -21 -22 -23 -24 28 -26 -27 -28 -29 -30 -31 -32 32 39 34 42 36 38 -39 -40 48 50 49 43 -45 47 -47 -48 -49 56 -51 54 -53 -54 -55 -56 57 -58 -59 -60
leaf_value=0.07533764619427194 -0.10360930377635742 -0.023841542476110988 0.11855347197984707 -0.014953682621249464 0.13100056942931865 0.0086303107765757434 -0.18765410876733224 -0.00051156945168502502 0.084312981374494833 0.012496475985890525 -0.19705063948277718 0.011008853402973223 0.035885121185700079 -0.031808112493214774 -0.132284014421959 -0.0063415202814081587 0.11565837739813596 0.060578241976532138 0.09587702482138713 0.069764019086934526 0.04704213968124122 -0.094173485958908121 -0.090644911052515681 -0.088663624064260524 0.047841750775517798 -0.17543737347700428 -0.1567551574562529 -0.11329534998512392 0.15334822160819983 0.24303003901165471 -0.11721554104531476 -0.10429819673847543 -0.10219569242643489 -0.11606444584851341 -0.11201641665180767 -0.11265356962418777 -0.1112370819041652 -0.12540347504292967 -0.10427001440325619 -0.10218872222464891 -0.10232981659404528 -0.10260892308964586 -0.10455571260276826 -0.11013664684273178 -0.10121175949311589 -0.10993343050005074 -0.10270016871554695 -0.10179454213885158 -0.1040501949679251 -0.10342783661094745 -0.1053922039649295 -0.10320335453046198 -0.10165382842756465 -0.10290658781547546 -0.10358444084062111 -0.10398005951235778 -0.10330914647932549 -0.10317959251809512 -0.10407131738086893
leaf_weight=41598.058187094517 3.3729553092271081 1089.4942021695897 467.2462913589552 2964.7701322473586 65.903056886047125 22.80905307084322 47.187519624829292 1796.2393386811018 1721.2503082109615 6582.2510577393696 47.640945494174957 4344.4602764807642 8529.5010010208935 155.62655268516392 242.03975933790207 131.96380042843521 24.584171429276466 141.89820981770754 2899.5966490805149 4284.6109767891467 1413.4573971973732 508.191551303491 783.22755387611687 24.582998111844063 2876.3229827126488 209.9206020263955 122.2161521743983 679.58813769277185 50.081796742975712 5.0832767486572257 471.3317283783108 159.76016433350742 44.157164079137146 1.901561751961707 1.9123895280063141 3.3825158327817944 1.8680856339633454 3.8555778712034225 31.90452647022903 11.077823416329919 10.827096701599656 13.826674111187456 4.568635890260337 3.4441099110990763 162.90429377090186 26.703638814389706 7.0927589433267704 49.147669976577163 2.9571308717131641 40.442940767854452 0.83454976975917716 4.8210195880383244 12.132660487666724 24.865531572140753 3.4467148520052433 2.4208081811666489 13.874129917472599 7.55066563002765 8.1080367993563431
leaf_count=56244 101 14148 635 39868 439 57 220 7047 4110 40471 187 11549 19437 559 1390 438 13 232 4036 5768 2689 3289 4670 65 5689 1305 455 8339 27 1 3942 4190 2138 21 22 34 22 24 828 547 518 579 111 46 14173 332 281 2951 82 1296 20 166 782 958 107 67 459 254 216
internal_value=0 0.04916 0.0554844 0.0609588 0.0703632 0.0220714 0.0376793 0.072198 0.0441347 0.0273835 0.0348322 0.0171979 0.022772 -0.00524401 0.00344697 0.0480876 -0.0215201 -0.00638341 0.0913368 0.0668299 0.0161876 -0.0683247 -0.0674499 -0.0881448 0.0577233 -0.114289 -0.0786642 -0.105302 0.0736671 -0.107798 -0.111407 -0.103387 -0.10266 -0.107439 -0.113212 -0.106378 -0.107286 -0.122319 -0.104655 -0.101661 -0.10381 -0.103982 -0.10793 -0.106955 -0.1015 -0.110239 -0.10423 -0.101347 -0.102981 -0.103219 -0.102861 -0.102496 -0.102079 -0.102732 -0.103937 -0.103675 -0.103439 -0.103374 -0.103936
internal_weight=0 84301.1 68344.7 59794.9 43968.4 15956.4 11749.5 43394.3 11250.3 8303.5 15826.5 8549.8 11494.3 4952.05 4586.5 3597.75 4206.91 3428.08 2946.78 4332.25 2502.95 574.095 925.126 778.837 3343.57 365.547 254.18 704.172 74.6648 499.224 494.141 663.162 562.168 100.994 15.6823 85.3112 63.8588 5.75714 33.7726 301.072 261.096 221.123 9.92514 8.01275 268.342 30.0862 166.853 212.052 32.7301 54.2696 39.9739 15.8988 56.2898 35.6926 4.28126 21.4525 16.8313 9.97147 11.481
internal_count=268644 237319 154299 132279 67019 83020 52837 63291 48837 44581 65260 22020 59305 14803 12939 7217 30183 21739 4256 5955 16837 3728 4902 8444 6324 1864 893 8352 92 4000 3999 31325 29247 2078 224 1854 1216 45 850 21298 7949 6346 179 157 20044 366 4471 17124 1254 1875 1603 713 2920 1476 127 638 541 321 317
is_linear=0
shrinkage=0.1


Tree=16
num_leaves=63
num_cat=0
split_feature=70 30 106 47 135 32 90 0 54 117 113 31 41 20 1 31 128 132 30 102 74 123 68 128 91 135 71 39 114 133 108 91 69 113 32 134 107 102 73 6 65 41 116 29 32 71 96 31 114 125 29 18 69 3 69 80 48 98 132 118 31 37
split_gain=1395.63 2050.87 1546.58 1219.43 1203.16 1621.37 914.819 1197.85 899.106 722.842 639.116 570.503 574.445 510.082 482.059 493.138 465.214 453.089 444.559 576.838 545.2 636.518 403.057 401.925 391.365 389.732 378.899 374.576 356.203 497.48 380.519 337.374 307.77 284.711 273.437 261.723 257.85 238.411 236.18 226.02 217.694 200.593 198.264 224.444 191.102 175.004 171.722 152.062 197.656 149.342 118.085 79.2023 74.3868 66.5558 66.1281 63.4552 58.8078 31.525 25.4429 24.6991 4.83937 0.829737
threshold=-0.33089211583137507 1.0748482346534731 -0.95350700616836537 1.0895873904228213 1.0000000180025095e-35 0.90575918555259716 -1.0888378620147703 0.43205191195011144 1.1260280013084414 -0.92857947945594776 -1.3679437637329099 1.0023826956748965 0.98433351516723644 1.3011313676834109 0.65388330817222606 0.97819241881370556 1.0000000180025095e-35 1.0000000180025095e-35 1.0915121436119082 -0.89094361662864674 -1.019692540168762 -1.2092038393020628 -0.025383172556757923 1.0000000180025095e-35 -1.0993083715438841 1.0000000180025095e-35 -0.51284635066986073 0.96461090445518505 -1.2171888947486875 1.0000000180025095e-35 -1.0490429401397703 -1.090101361274719 -0.17038878798484799 -1.3467217087745664 0.95406314730644237 1.0000000180025095e-35 -0.88704803586006153 -0.84472462534904469 -0.92113709449768055 0.63019344210624706 0.12971130758523944 0.99020758271217357 -0.95812094211578358 1.2262764573097231 0.91590258479118358 -0.48796647787094111 -1.0490459203720091 0.99289914965629589 -1.3344922065734861 -1.8819347023963926 1.1133487820625307 1.3036289215087893 -0.1927133500576019 0.66163402795791637 -0.18099068850278852 -1.2530030608177183 1.0894050002098086 -0.96795946359634388 1.0000000180025095e-35 -0.92174074053764332 1.0004754066467287 0.61825945973396312
decision_type=2 2 2 2 2 2 2 2 2 2 2 2 2 2 2 2 2 2 2 2 2 2 2 2 2 2 2 2 2 2 2 2 2 2 2 2 2 2 2 2 2 2 2 2 2 2 2 2 2 2 2 2 2 2 2 2 2 2 2 2 2 2
left_child=1 4 3 37 5 28 16 8 10 18 -8 23 -13 50 15 36 22 -10 19 26 44 -22 31 -7 -21 27 -3 32 30 -30 -1 -4 -5 -29 51 38 -6 41 46 -36 59 52 61 -44 -20 -15 -11 48 -27 -17 -9 -18 -2 -40 -43 -24 58 -42 -39 -37 -49 -16
right_child=2 9 6 25 14 11 7 13 17 35 -12 12 -14 45 42 49 34 -19 20 24 21 -23 55 -25 -26 47 -28 33 29 -31 -32 -33 -34 -35 39 40 -38 56 53 -41 57 54 43 -45 -46 -47 -48 60 -50 -51 -52 -53 -54 -55 -56 -57 -58 -59 -60 -61 -62 -63
leaf_value=0.013806496221738291 -0.043125500740872583 0.061775276302227115 -0.088420767501069863 0.067278384192225718 0.11745425879779442 0.077971752040547612 -0.10480361253329909 0.13671575790198462 0.12262164583715827 -0.13312244212978133 0.018326071481006494 -0.088734548393427273 0.06166108793472283 0.14710273498908857 -0.20335093848685154 -0.063738628756997734 -0.09845663314750186 -0.12025423668027116 0.059780254282449818 -0.063179427900763113 0.024849909671327473 -0.067495456718980593 -0.081777834969150434 -0.053935833149730245 0.026852953808445192 -0.21477476049066918 -0.14642864102180189 -0.084529534425533404 -0.038724812469992036 0.051583973935723719 -0.13064063001029549 0.046928014110996126 -0.056418302320205616 0.10411659101300948 0.031292673382454721 0.13798017604999552 0.067250647823373658 -0.25901127419039116 -0.15475872868127794 -0.096089096237604699 -0.23535133596643185 0.1022169230752612 0.050138690029675526 -0.12973288278678607 0.19177432326493266 -0.13807083512358287 -0.0012096631439549096 -0.27763219835600528 0.032356823737390968 0.064866916688115575 0.063835770865972016 0.32702101371872433 -0.23169976348539897 -0.068939261398509102 -0.095995593185548178 -0.14232093097706897 0.089936944405076769 0.02729632865210593 -0.14358521779499994 0.050693333117117739 -0.19764304269268035 -0.24421921582881381
leaf_weight=315.01511137001216 35.263172702863812 9012.5607161168009 286.05154767818749 754.52776501700282 7890.4481930583715 12426.776911403053 429.99572615325451 1279.2779089417309 1095.4041503388435 106.44632250908762 21475.540933520533 437.48399611748755 605.43003157712519 27.009056285023689 6.070583924651145 94.011360973119736 240.6926483977586 82.601379888132215 651.29777832794935 559.54263471718878 1908.4414235269651 1225.8669169396162 1102.6902364864945 235.37154419720173 3521.1968521187082 38.398736514151096 88.262963777408004 81.40237483009696 1153.6506285993382 1294.356844227761 433.11804736126214 517.03828037716448 274.25868864357471 4655.0403988622129 1787.7487392853945 150.88966657221317 1175.4586968272924 100.96378499828279 108.34345567505807 151.06452882662416 21.930366598069671 72.043770441785455 362.2896821051836 85.800989151000977 131.90094312094152 105.87292297929525 1353.475444949232 17.246106907725338 205.9054519534111 2284.1573709920049 269.08250370714813 4.456061363220214 51.423630019649863 544.67094355635345 21.962659783661366 205.3560166535899 5.7495802454650393 5.7728838697075835 23.551316916942596 41.288354486227036 13.471902742981909 27.347931295633316
leaf_count=538 82 14503 5853 842 3436 21651 3814 562 1497 1378 70025 4301 4383 15 25 218 4190 722 1128 4414 4517 4689 51424 1123 8038 165 543 328 13675 1479 1898 1731 675 3954 11725 50 1170 433 2161 1814 105 51 410 305 382 567 3656 75 296 2425 443 1 246 2018 60 2065 6 12 134 50 54 114
