tree
version=v4
num_class=1
num_tree_per_iteration=1
label_index=0
max_feature_idx=136
objective=binary sigmoid:1
feature_names=Column_0 Column_1 Column_2 Column_3 Column_4 Column_5 Column_6 Column_7 Column_8 Column_9 Column_10 Column_11 Column_12 Column_13 Column_14 Column_15 Column_16 Column_17 Column_18 Column_19 Column_20 Column_21 Column_22 Column_23 Column_24 Column_25 Column_26 Column_27 Column_28 Column_29 Column_30 Column_31 Column_32 Column_33 Column_34 Column_35 Column_36 Column_37 Column_38 Column_39 Column_40 Column_41 Column_42 Column_43 Column_44 Column_45 Column_46 Column_47 Column_48 Column_49 Column_50 Column_51 Column_52 Column_53 Column_54 Column_55 Column_56 Column_57 Column_58 Column_59 Column_60 Column_61 Column_62 Column_63 Column_64 Column_65 Column_66 Column_67 Column_68 Column_69 Column_70 Column_71 Column_72 Column_73 Column_74 Column_75 Column_76 Column_77 Column_78 Column_79 Column_80 Column_81 Column_82 Column_83 Column_84 Column_85 Column_86 Column_87 Column_88 Column_89 Column_90 Column_91 Column_92 Column_93 Column_94 Column_95 Column_96 Column_97 Column_98 Column_99 Column_100 Column_101 Column_102 Column_103 Column_104 Column_105 Column_106 Column_107 Column_108 Column_109 Column_110 Column_111 Column_112 Column_113 Column_114 Column_115 Column_116 Column_117 Column_118 Column_119 Column_120 Column_121 Column_122 Column_123 Column_124 Column_125 Column_126 Column_127 Column_128 Column_129 Column_130 Column_131 Column_132 Column_133 Column_134 Column_135 Column_136
feature_infos=[-1.8014661073684692:2.1475074291229248] [-1.7160434722900391:2.0597634315490723] [-1.6382262706756592:1.9801409244537354] [-1.5680137872695923:1.9086390733718872] [-1.5054070949554443:1.8452587127685547] [-1.4504051208496094:1.7899996042251587] [-1.4123568534851074:1.7536556720733643] [-1.3844102621078491:1.77842116355896] [-1.3517893552780151:2.0758624076843262] [-1.3099035024642944:2.0974209308624268] [-1.2559221982955933:1.9855276346206665] [-1.1870334148406982:2.073509693145752] [-1.1039742231369019:2.1457490921020508] [-1.0067610740661621:2.2142360210418701] [-0.90047705173492432:2.2759943008422852] [-0.78966546058654785:2.4052433967590332] [-0.67814630270004272:2.5269482135772705] [-0.65620064735412598:2.5277442932128906] [-0.66012513637542725:2.5653238296508789] [-0.66667592525482178:2.5221147537231445] [-0.8555336594581604:2.4413206577301025] [-0.86833834648132324:2.3840618133544922] [-0.86565589904785156:2.2409591674804688] [-0.7797551155090332:2.1797337532043457] [-1.0841877460479736:2.1614029407501221] [-1.4308524131774902:2.0620582103729248] [-1.6366665363311768:1.9191513061523438] [-1.8254417181015015:1.7018531560897827] [-1.9454965591430664:1.524950385093689] [-2.2033448219299316:1.3304171562194824] [-2.6534385681152344:1.1459542512893677] [-2.9375624656677246:1.0433628559112549] [-2.8964071273803711:1.0182701349258423] [-2.6209216117858887:1.0153312683105469] [-1.9672813415527344:1.0222163200378418] [-1.2877312898635864:1.0987448692321777] [-0.66409575939178467:1.3781088590621948] [-0.67050886154174805:1.4172744750976562] [-0.67336314916610718:1.4686216115951538] [-0.67729061841964722:1.427788257598877] [-0.67391806840896606:1.3506048917770386] [-0.77278417348861694:1.3033223152160645] [-0.78214722871780396:1.4334096908569336] [-0.67822211980819702:1.6771683692932129] [-0.67549598217010498:1.8418123722076416] [-0.67900896072387695:1.9795904159545898] [-0.6766776442527771:1.8671952486038208] [-0.68056988716125488:1.8940913677215576] [-0.67851173877716064:2.0411467552185059] [-0.68057990074157715:2.1347439289093018] [-0.67868822813034058:2.3221406936645508] [-0.68411111831665039:2.3866791725158691] [-0.6882440447807312:2.3278176784515381] [-0.69760811328887939:2.41339111328125] [-0.68820065259933472:2.0181429386138916] [-0.66498374938964844:1.7058380842208862] [-0.63047897815704346:1.5109990835189819] [-0.79989981651306152:1.3603483438491821] [-0.9627259373664856:1.3460699319839478] [-0.83332031965255737:1.3262704610824585] [-0.62303602695465088:1.3006186485290527] [-0.62908732891082764:1.6912268400192261] [-0.65896600484848022:1.8743280172348022] [-0.67422842979431152:1.7138135433197021] [-0.93073725700378418:1.3433690071105957] [-1.1305865049362183:1.0751444101333618] [-1.2528316974639893:0.99085426330566406] [-1.6713657379150391:0.88485002517700195] [-1.8910553455352783:0.75389385223388672] [-2.0949718952178955:0.60495084524154663] [-1.9126988649368286:0.45876148343086243] [-1.723555326461792:0.33052113652229309] [-1.5349674224853516:0.23037496209144592] [-1.4402464628219604:0.15855956077575684] [-1.3374539613723755:0.30397361516952515] [-1.5611182451248169:0.84510332345962524] [-1.741243839263916:1.4404212236404419] [-1.902489185333252:1.2026444673538208] [-2.032371997833252:1.1285310983657837] [-2.1171634197235107:0.92254304885864258] [-2.168381929397583:0.73609095811843872] [-2.1978850364685059:0.28676301240921021] [-2.2107267379760742:0.33890664577484131] [-2.208972692489624:0.39074629545211792] [-2.1915850639343262:0.5232703685760498] [-2.1574652194976807:0.47703936696052551] [-2.1063995361328125:0.50853937864303589] [-2.0390708446502686:0.53271615505218506] [-1.9571486711502075:0.67684948444366455] [-1.8642418384552002:0.56802195310592651] [-1.767259955406189:0.65060514211654663] [-1.8478662967681885:1.0689502954483032] [-1.6520191431045532:1.4168777465820312] [-1.5958865880966187:1.6290324926376343] [-1.5394163131713867:1.6652539968490601] [-1.4922878742218018:1.6182962656021118] [-1.4526540040969849:1.5608183145523071] [-1.4226374626159668:1.5597559213638306] [-1.4027614593505859:1.5645072460174561] [-1.5388252735137939:1.5648646354675293] [-2.0638625621795654:1.5687597990036011] [-2.4619696140289307:1.5649210214614868] [-2.648137092590332:1.5687909126281738] [-2.4631106853485107:1.5662518739700317] [-2.0341367721557617:1.5674868822097778] [-1.4475361108779907:1.5623446702957153] [-1.2213733196258545:1.563502311706543] [-1.117332935333252:1.561995267868042] [-1.168958306312561:1.5723429918289185] [-1.225186824798584:1.5757462978363037] [-1.2975910902023315:1.5825309753417969] [-1.5990560054779053:1.5861003398895264] [-2.1418814659118652:1.5904537439346313] [-2.4733853340148926:1.5896482467651367] [-2.5047738552093506:1.5896980762481689] [-2.0072333812713623:1.5865405797958374] [-1.6131480932235718:1.5868538618087769] [-1.6321159601211548:1.611059308052063] [-1.6864286661148071:2.4495923519134521] [-1.7459897994995117:2.6529664993286133] [-1.820858359336853:2.5047237873077393] [-1.9280952215194702:1.7488086223602295] [-2.1567583084106445:1.6308574676513672] [-2.3918964862823486:1.6220458745956421] [-2.6616356372833252:1.6080794334411621] [-2.9659750461578369:2.1645474433898926] [-3.3299288749694824:3.0688047409057617] [-3.8750591278076172:4.2020993232727051] [0:1] [0:1] [0:1] [0:1] [0:1] [0:1] [0:1] [0:1] [0:1]
tree_sizes=6072 6248 5943 5910 6132 6482 6683 6483 6670 6921 6584 6606 6918 6845 6590 6926 6606 6974 7068 6934 7063 6954 6931 6852 6910 6938 6723 6933 6937 6595 6661 6661 6939 6757 6917 6696 6691 6208 6945 6378 6236 6641 6727 6391 5405 6535 7011 6555 6596 5892 6228 6662 5523 5403 6918 6519 6064 5553 5820 6349 4983 6881 6798 5460 6326 6057 5127 5378 5759 6582 6243 6626 6946 6690 6786 4661 6747 6108 6573 6691 5936 6692 6327 6661 6561 6428 6940 6128 5795 5600 5125 5559 4919 6926 6918 5880 5208 6680 6476 5932 6934 6925 5986 6447 6360 6912 5368 6248 6780 4998 6131 5404 6770 6158 6606 6909 4835 6545 4970 5597 6206 5768 6408 6167 4462 5687 6668 5914 6585 6554 6549 4842 6594 5825 6701 6533 6910 6794 6540 6175 6558 6168 5267 6632 6946 6438 6676 6006 6805 5809 6581 6840 6312 6826 6192 4417 6654 5294 6953 5272 4424 6952 6661 5851 4982 5597 6584 4436 4755 6442 6069 6438 5632 6727 4978 6190 6339 5498 6969 6921 6378 6602 5242 6710 6746 4844 6128 5366 6693 6897 5680 5933 6257 6222 6037 5507 6447 6788 5480 6906

Tree=0
num_leaves=56
num_cat=0
split_feature=107 69 31 136 132 130 134 32 81 134 113 22 68 38 135 135 110 128 53 42 107 77 81 118 4 29 108 0 31 127 72 0 84 135 108 32 34 55 71 111 71 104 29 32 69 128 118 96 126 39 0 12 0 0 0
split_gain=547120 122991 145180 61112.7 52039.9 54402.2 46659.7 37836.3 30001.8 33974.7 15717.8 15715.7 15521.7 17502.5 15398.9 15026.2 12399.5 9647.4 8262.4 8237.37 6704.14 5079.87 4726.76 4654.47 4407.15 2841.22 2357.28 2136.02 1923.25 1709.72 1578.28 2540.86 1495.61 1398.79 1254.14 990.865 865.514 1451.88 791.823 792.627 781.34 729.701 459.596 445.476 419.863 1112.59 382.07 318.718 116.006 56.0081 4.54747e-13 4.54747e-13 2.84217e-14 2.84217e-14 8.88178e-16
threshold=-0.8749132752418517 -0.095931090414524064 1.0008156895637514 1.0000000180025095e-35 1.0000000180025095e-35 1.0000000180025095e-35 1.0000000180025095e-35 0.9403543770313264 -1.0683073401451109 1.0000000180025095e-35 -1.0615009665489195 1.2581402659416201 0.076401200145483031 0.97762569785118114 1.0000000180025095e-35 1.0000000180025095e-35 -1.1827598810195921 1.0000000180025095e-35 1.0848360657691958 1.0884756445884707 -0.88170793652534474 -1.3121823072433469 -1.3729349374771116 -1.2295060157775877 0.34564454853534704 1.156469523906708 -0.90439209342002858 0.36392003297805792 0.99898675084114086 -2.0395761728286739 -0.68067887425422657 0.47866022586822515 -1.1208916306495664 1.0000000180025095e-35 -0.87223947048187245 0.93675881624221813 0.8113183081150056 0.91961821913719188 -0.54650744795799244 -0.90217033028602589 -0.65615516901016224 -0.77647328376770008 1.1624352931976321 0.96857145428657543 -0.086038969457149492 1.0000000180025095e-35 -0.90982919931411732 -1.0031303763389585 -2.0188312530517574 0.9600493609905244 0.65936100482940685 0.81583875417709362 0.46864922344684606 1.0199830532073977 0.55177879333496105
decision_type=2 2 2 2 2 2 2 2 2 2 2 2 2 2 2 2 2 2 2 2 2 2 2 2 2 2 2 2 2 2 2 2 2 2 2 2 2 2 2 2 2 2 2 2 2 2 2 2 2 2 2 2 2 2 2
left_child=1 2 3 4 5 -1 15 28 9 14 12 -6 19 16 -4 17 -14 50 -15 27 -11 -9 43 33 -21 36 -24 -3 34 -25 31 -23 -32 -10 47 -36 49 -38 39 -30 46 44 -42 -19 45 -12 -27 -8 -46 -17 51 -2 -5 -52 -40
right_child=6 10 8 52 11 -7 7 21 23 20 41 -13 13 18 -16 25 -18 22 -20 24 -22 30 26 29 -26 40 -28 -29 38 -31 32 -33 -34 -35 35 -37 37 -39 54 -41 42 -43 -44 -45 48 -47 -48 -49 -50 -51 53 -53 -54 -55 -56
leaf_value=-1.3852882451978006 -3.1487799127223601 -2.5026276077896847 -2.9630265151275754 -3.1487799127223601 -1.3701368258926268 -3.1487799127223601 -0.94456824632252934 -0.84507971205381072 -1.2098700599339471 -1.775330235067055 -2.9937254565303584 -2.6550910065757036 -1.5505271666234262 -1.8471173317067291 -2.0240087777869089 -1.1774188476886758 -2.5054263341583343 -3.0684418792604027 -2.8480560954598308 -1.3990074254678133 -2.5021192877097338 -1.576526278613779 -1.4164628026641539 -2.4007342834962113 -2.2158873014412972 -0.97456299877095409 -2.6555376372685786 -1.0701533488077435 -1.0755548422403516 -1.7625179126309924 -2.9946199865492868 -2.9993060941451835 -1.0454941939901004 -2.1197556590004103 -1.5206735454855456 -3.1487799127223601 -1.168546962009364 -2.7282784830455364 -3.1487799127223601 -3.1487799127223601 -2.127003938214683 -1.2138287038318134 -3.1487799127223601 -2.6773210733298738 -2.8539242580237727 -1.8815307870750979 -2.4676469847343925 -1.1887554230481721 -3.1487799127223601 -0.91755868702530963 -3.1487799127223601 -3.1487799127223601 -3.1487799127223601 -3.1487799127223601 -3.1487799127223601
leaf_weight=11529.621983811259 2027.6944601237774 165.66640917211771 1062.1607972383499 82.172153044492006 120.36786124110222 177.62728486955166 90.462688244879246 12.755610704421995 212.17667265981436 544.04700892046094 94.757363513112068 454.91430149227381 273.15997004136443 91.912719491869211 209.00325071811676 13.841283313930033 270.78683871030807 444.14717630669475 802.65551789477468 290.29059341549873 165.53618388995528 22.694754801690578 15.751254118978975 56.117858115583658 85.497048810124397 3.8615023382008076 608.52009672299027 11.107476238161324 6.0744082853198051 166.55073258280754 285.92161078006029 28.084328670054674 3.9917276203632346 18.357607461512089 39.964841954410076 4.123800601810216 14.839215219020845 9.983014449477194 5.512870278209447 2.6479140706360322 6.1626109145581749 2.1694975197315207 15.409991722553967 31.164017390459776 14.237040333449839 9.9377583228051645 3.081536419689658 130.64642003551126 212.52766048908234 20.695657517760992 62.855402857065201 1009.766837887466 135.30406816676259 81.651251915842295 1.2154359668493269
leaf_count=71971 46712 2797 22590 1893 734 4092 185 14 970 5417 2043 8341 2135 978 2576 59 4579 9892 16192 1850 2794 183 103 893 1210 9 11160 36 20 1638 6167 607 12 243 301 95 62 190 127 61 82 10 355 578 288 109 51 571 4896 37 1448 23262 3117 1881 28
internal_value=-3.04402 -1.73 -1.62468 -1.4871 -1.45767 -1.41204 -2.91764 -2.11602 -2.33126 -2.4992 -2.40661 -2.38624 -2.30017 -2.47322 -2.80863 -3.03397 -2.02589 -3.06054 -2.74521 -1.84967 -1.94488 -2.80435 -2.80519 -1.59728 -1.58486 -1.73953 -2.62427 -2.41262 -1.24914 -1.92336 -2.8777 -2.36342 -2.96778 -1.28232 -1.18596 -1.67296 -1.34542 -1.79584 -2.33369 -1.70494 -2.55993 -3.04183 -2.85689 -3.0428 -3.05379 -2.88815 -1.63724 -1.08885 -3.13027 -1.0217 -3.14878 -3.14878 -3.14878 -3.14878 -3.14878
internal_weight=0 17258.7 14934 12500 12282.5 11707.2 5003.52 634.096 2433.95 1980.75 2324.71 575.282 1991.08 1438.52 1271.16 4369.43 543.947 4281.55 894.568 552.562 709.583 353.448 1099.58 453.203 375.788 87.8748 624.271 176.774 280.648 222.669 340.692 50.7791 289.913 230.534 265.198 44.0886 59.3592 24.8222 15.4506 8.72232 28.5156 333.629 21.5726 475.311 331.46 104.695 6.94304 221.109 226.765 34.5369 3181.97 3037.46 217.476 144.507 6.72831
internal_count=268644 164392 127269 90148 85138 76063 104252 8371 37121 33377 37123 9075 29777 23884 25166 95881 6714 95036 17170 5893 8211 6983 21733 3744 3060 845 11263 2833 1388 2531 6969 790 6179 1213 1152 396 348 252 236 81 497 7346 437 10470 7336 2152 60 756 5184 96 73303 69974 5010 3329 155
is_linear=0
shrinkage=1


Tree=1
num_leaves=57
num_cat=0
split_feature=107 131 129 136 130 30 134 128 135 31 75 127 54 32 61 105 21 65 20 31 102 28 42 108 107 69 36 30 74 11 33 31 31 69 107 69 93 107 118 118 108 118 35 79 31 81 113 126 81 31 107 0 0 1 3 2
split_gain=39241.3 17977.8 12773.2 12961.5 11329.6 8474.81 6153.97 4960.11 2909.85 2304.49 1805.05 1499.22 1546.97 1358.54 700.162 481.726 410.86 1097.79 388.875 331.688 756.248 286.104 474.658 314.893 247.473 118.175 81.2133 75.4261 386.1 47.5415 46.4173 7.46391 2.92387 1.47455 0.420498 0.395489 0.282877 0.255454 0.240026 0.169926 0.159453 0.0705352 0.0661845 0.0564651 0.03907 0.0361837 0.0303046 0.0100388 0.00551096 0.00521101 0.00189342 4.54747e-13 1.13687e-13 2.84217e-14 3.55271e-15 1.77636e-15
threshold=-0.87215155363082875 1.0000000180025095e-35 1.0000000180025095e-35 1.0000000180025095e-35 1.0000000180025095e-35 1.0859783887863161 1.0000000180025095e-35 1.0000000180025095e-35 1.0000000180025095e-35 1.0043486952781679 -1.1168332695960996 -1.7676902413368223 1.0553922653198244 0.94077190756797802 0.68619483709335338 -0.82945397496223439 1.2808624505996706 0.32514542341232305 1.4406615495681765 0.98688551783561718 -0.86103710532188404 1.1905503869056704 0.99611157178878795 -0.89402991533279408 -0.87129834294319142 -0.21795617043972013 0.81179475784301769 0.98453140258789074 -1.0132123827934263 0.42561759054660803 0.86396545171737682 1.0008156895637514 1.0008156895637514 -0.095931090414524064 -0.8749132752418517 -0.095931090414524064 -0.86991780996322621 -0.8749132752418517 -1.2295060157775877 -1.2295060157775877 -0.87223947048187245 -1.1634971499443052 0.91621962189674389 -1.0733608007431028 0.99854809045791637 -1.0683073401451109 -1.0615009665489195 -1.884202718734741 -1.3729349374771116 1.0008156895637514 -0.8749132752418517 0.54052400588989269 0.66968595981597911 0.5806030035018922 0.65899002552032482 0.61668542027473461
decision_type=2 2 2 2 2 2 2 2 2 2 2 2 2 2 2 2 2 2 2 2 2 2 2 2 2 2 2 2 2 2 2 2 2 2 2 2 2 2 2 2 2 2 2 2 2 2 2 2 2 2 2 2 2 2 2 2
left_child=1 2 3 4 5 -1 7 8 51 11 48 12 -9 19 -12 21 24 -18 -13 26 25 23 -23 -15 -17 -21 -8 29 -29 -10 -28 34 33 37 35 52 -6 -4 -34 -33 -22 44 -37 -40 -5 50 -35 -47 -11 -43 -41 -2 -3 -53 55 -36
right_child=6 31 32 41 36 -7 13 9 27 10 14 18 -14 15 -16 16 17 -19 -20 20 40 22 -24 -25 -26 -27 30 28 -30 -31 -32 39 38 46 54 42 -38 -39 43 45 -42 49 -44 -45 -46 47 -48 -49 -50 -51 -52 53 -54 -55 -56 -57
leaf_value=0.37077911976235423 -0.10429044225799429 -0.12502516776961811 -0.12502516776961811 -0.10677355929479437 -0.10496252791966404 0.23732172217041156 0.10862346621270261 0.31780351608972879 0.31695869526901177 -0.10474863528778577 0.6841955418280552 -0.057698546490420416 0.0090720298090753663 1.4367075072236812 -0.10695426528754542 0.64691294056709125 0.28375371127382976 1.7160324045191393 0.46566804823144042 0.3333671630249771 -0.12898569042882682 -0.10627296514106827 0.43291548548254455 -0.091381701303158827 -0.060015722674800348 0.030886471554116102 0.50528618367725575 0.3952691809103614 -0.05073820354531066 0.46881683948156549 0.40099848638755398 -0.1298236105611684 -0.12943672652863372 -0.10934659862048896 -0.10429044225799433 -0.11968013329092259 -0.1110677067820318 -0.10429044225799429 -0.10507043339179903 -0.10517834680328111 -0.11412005316308121 -0.10432409664631524 -0.10718406192979948 -0.11366438888583602 -0.11257545694894822 -0.10906513353999099 -0.10451160516504504 -0.11716122159226353 -0.10702610657698586 -0.10493780086446254 -0.10429044225799429 -0.10429044225799429 -0.12502516776961811 -0.10429044225799429 -0.1042904422579941 -0.10429044225799416
leaf_weight=46281.057103153318 2495.3339822217822 430.33962249755859 383.11112970113754 58.260614525526762 442.20452490448952 5303.4810079112649 8.7941928058862668 405.10433850437403 78.185054540634155 18.885609429329634 145.92643281444907 439.61414527520537 270.78915324807167 1.3614309132099141 12.114836942404507 5.5828811824321738 74.915942519903183 5.7630205154418936 14.670830238610504 346.93600842356682 32.87100849673152 31.264819785952568 34.171330079436302 142.48323494195938 43.818015769124031 13.415456544607876 50.094381809234619 52.32786537706852 30.854047417640686 27.998089522123337 288.31384332478046 2.8312144279479972 4.3354851379990569 40.332867324352264 8.441643305122847 5.9807474166154888 91.616408713161945 6.035380493849515 135.58236911892891 370.81310754641891 9.2447713389992696 289.1628784686327 14.549458127468823 8.1021602638065797 14.494017757475374 3.2769582197070122 19.103315662592649 2.8754661083221427 24.290160745382309 265.29580399766564 25.679952297359705 24.77267287671566 7.844732701778411 196.56405882909894 0.90727942064404565 1.3017487339675433
leaf_count=109173 63258 2688 2393 1077 10125 17734 32 5278 54 439 1343 9089 4436 10 200 83 273 27 178 460 215 652 86 2968 874 90 31 162 338 22 158 16 25 626 214 56 1474 153 2977 7941 137 7290 271 86 185 43 466 23 396 5952 651 628 49 4983 23 33
internal_value=0 0.334298 0.341673 0.346877 0.352315 0.357058 0.0498512 -0.00464005 -0.0778715 0.155202 0.467001 0.0996894 0.194114 0.261878 0.623549 0.0958726 0.246995 0.386064 -0.0407968 0.337025 0.275244 0.00194146 0.175296 -0.076919 0.0198755 0.322106 0.40864 0.301141 0.229835 0.357 0.416436 -0.115348 -0.118442 -0.122463 -0.123934 -0.12439 -0.10601 -0.124704 -0.106255 -0.105411 -0.125723 -0.105002 -0.110824 -0.105555 -0.107929 -0.105239 -0.107793 -0.112849 -0.10603 -0.104618 -0.105121 -0.10429 -0.125025 -0.10429 -0.10429 -0.10429
internal_weight=0 54217 53342.2 52745.6 52118.4 51584.5 5326.46 4237.43 2906.04 1331.4 201.217 1130.18 675.893 1089.03 158.041 339.361 130.08 80.679 454.285 749.67 402.467 209.281 65.4361 143.845 49.4009 360.351 347.202 189.365 83.1819 106.183 338.408 874.842 596.603 448.583 469.365 458.715 533.821 389.147 148.02 405.477 42.1158 627.213 20.5302 143.685 72.7546 402.645 59.4362 6.15242 43.1758 554.459 396.493 2716.67 438.184 221.337 10.6507 9.74339
internal_count=268644 171744 159736 153010 138506 126907 96900 90804 69445 21359 2378 18981 9714 6096 1543 4973 1257 300 9267 1123 902 3716 738 2978 957 550 221 576 500 76 189 12008 6726 3638 3334 3064 11599 2546 3088 8674 352 14504 327 3063 1262 8658 1092 66 835 13242 8592 68869 2737 5611 270 247
is_linear=0
shrinkage=0.1


Tree=2
num_leaves=54
num_cat=0
split_feature=107 131 136 129 130 29 134 128 135 75 31 32 70 121 106 107 42 100 51 46 108 118 104 52 107 72 31 32 0 31 69 107 69 93 118 118 118 34 31 81 81 91 126 67 31 107 20 107 117 108 0 1 68
split_gain=21219.6 10702.5 7727.54 7733.53 6710.95 5212.63 3335.55 3459.85 2086.34 1297.13 1150.36 739.87 704.231 429.5 399.527 173.201 142.339 272.385 127.032 120.331 119.974 57.8766 50.131 72.9701 6.44293 5.76665 5.29134 3.5217 3.56585 2.10985 1.09104 0.465396 0.273413 0.21501 0.171516 0.120896 0.0534849 0.047733 0.030121 0.0263664 0.0148886 0.0138486 0.0071415 0.00451915 0.00352148 0.00211347 0.0018523 0.00184144 0.000436416 0.000373161 4.54747e-13 7.10543e-15 3.55271e-15
threshold=-0.87044018507003773 1.0000000180025095e-35 1.0000000180025095e-35 1.0000000180025095e-35 1.0000000180025095e-35 1.2228510379791262 1.0000000180025095e-35 1.0000000180025095e-35 1.0000000180025095e-35 -1.1191284656524656 0.99854809045791637 0.93862891197204601 -0.21942441910505292 -1.19064325094223 -0.83208900690078724 -0.86730626225471485 1.0699531435966494 -0.89326345920562733 1.068309545516968 1.1504214406013491 -0.8638571798801421 -0.96872496604919422 -0.92018118500709523 0.69138965010643016 -0.83893999457359303 -0.63328400254249562 1.0008156895637514 0.95045676827430736 0.52817276120185863 1.0008156895637514 -0.095931090414524064 -0.8749132752418517 -0.095931090414524064 -0.86991780996322621 -1.2295060157775877 -1.2295060157775877 -1.167027950286865 0.91069075465202343 0.99854809045791637 -1.0683073401451109 -1.3729349374771116 -0.97368094325065602 -1.884202718734741 0.20611449331045154 1.0008156895637514 -0.8749132752418517 1.4406615495681765 -0.8749132752418517 -1.1369956135749815 -0.83959472179412831 1.0685464739799502 1.0594750046730044 -0.1042780466377735
decision_type=2 2 2 2 2 2 2 2 2 2 2 2 2 2 2 2 2 2 2 2 2 2 2 2 2 2 2 2 2 2 2 2 2 2 2 2 2 2 2 2 2 2 2 2 2 2 2 2 2 2 2 2 2
left_child=1 2 3 4 5 -1 7 8 50 40 13 16 -12 -11 15 18 17 20 -13 -19 -8 -17 -10 -24 25 -18 31 -16 -29 30 -5 32 -3 -6 -31 -28 38 -34 43 45 46 -40 -41 -4 48 -37 -9 -46 -38 -42 -2 -52 -33
right_child=6 26 36 29 33 -7 11 9 22 10 12 14 -14 -15 27 21 24 19 -20 -21 -22 -23 23 -25 -26 -27 35 28 -30 34 -32 52 37 -35 -36 39 44 -39 41 42 49 -43 -44 -45 47 -47 -48 -49 -50 -51 51 -53 -54
leaf_value=0.26382540350559064 -0.10386553800600512 -0.12208407447608455 -0.1073516230525649 -0.12165442975433848 -0.10443792206926704 0.08366501176607212 0.26333225572309432 -0.10438794247563364 -0.12689643357114841 0.18194628598569079 0.30634468034933171 -0.023550371964393559 0.033569141466864461 0.0095755429052442973 0.2866925744819569 -0.089972061217177296 0.31367582529552562 -0.1263302687277795 0.19131680850722377 0.27224174221853997 -0.0077637426584822797 0.095554502818851986 0.80933619015924085 0.23949628916533255 0.34399721989772858 0.28043759110136934 -0.12619258405911357 0.20174313580409567 0.27529954726349487 -0.12587348701662462 -0.10683849005541164 -0.10386553800600512 -0.11684997307244423 -0.10996938489731263 -0.10494000291749578 -0.10466158179995635 -0.10477646811812338 -0.10615625417078008 -0.12129872344472098 -0.10812845453664732 -0.10647326698616472 -0.11049314442856334 -0.11526391227277639 -0.10540823987884998 -0.10454105423875136 -0.10386553800600512 -0.1074067833468989 -0.10386398144170371 -0.10388691449869332 -0.1082543690586906 -0.10386553800600512 -0.10386553800600512 -0.10386553800600512
leaf_weight=61795.040277082473 2333.96489828825 405.54213102161884 19.28767042607069 363.13530494272709 424.98604300990701 1648.8226415999234 294.38511126488447 189.44115432351828 3.6678017005324355 209.12072781845927 482.94677151739597 46.252336926758289 117.71611832082272 468.20712355151772 52.381839275360107 115.58679620921612 178.27795621752739 30.465424604713917 67.921564862132072 10.081153154373167 17.282987587153912 19.677291058003902 2.2747293263673773 185.60227880626917 47.772737503051758 73.806910037994385 2.6316657066345206 12.037837594747543 14.56432056427002 4.0281842872500411 57.584695421159267 8.7429177761077863 6.2718042843043831 84.192758001387119 138.07905917987227 337.09767043218017 5.6255278848111621 12.479760881513355 1.3299025632441033 2.9894854426383972 39.492574229836464 10.966238319873808 2.6424506753683081 31.520656157284975 211.09626673534513 37.0140740275383 2.0545477867126456 49.608372528105974 281.0621692314744 1.2124135047197331 0.82412749528884788 34.756681323051453 6.70051485300064
leaf_count=122796 65137 2737 364 2632 10769 5634 340 4710 32 2381 4075 782 1461 7745 14 2332 50 225 748 8 86 255 2 423 18 42 16 54 3 25 1188 244 68 1489 3270 7941 137 259 12 43 692 155 23 662 5106 1033 32 1385 7811 18 23 970 187
internal_value=0 0.245116 0.249642 0.252993 0.256241 0.259143 0.0324618 -0.00741482 -0.078204 0.112635 0.152139 0.198041 0.252887 0.0627939 0.0756391 0.0135743 0.259689 0.21658 0.104273 -0.0272327 0.248299 -0.0629829 0.239248 0.246396 0.310325 0.303944 -0.113436 0.271645 0.242014 -0.116068 -0.119627 -0.120918 -0.121538 -0.105353 -0.105533 -0.104833 -0.104464 -0.109733 -0.107221 -0.104685 -0.10479 -0.111662 -0.111476 -0.106146 -0.104146 -0.104583 -0.10442 -0.104412 -0.103904 -0.106526 -0.103866 -0.103866 -0.103866
internal_weight=0 65948.5 65126.4 64515.9 63953 63443.9 5051.78 4071.28 2561.09 1510.19 1277.99 980.494 600.663 677.328 328.422 249.438 652.072 352.215 114.174 40.5466 311.668 135.264 191.545 187.877 299.858 252.085 822.112 78.984 26.6022 562.827 420.72 439.737 424.294 509.179 142.107 382.375 610.497 18.7516 63.1045 379.744 232.201 12.2961 5.63194 50.8083 547.392 374.112 191.496 260.705 286.688 40.705 2369.55 35.5808 15.4434
internal_count=268644 175986 163435 147803 140688 128430 92658 87701 66587 21114 15662 4957 5536 10126 4188 4117 769 659 1530 233 426 2587 457 425 110 92 12551 71 57 7115 3820 3495 3064 12258 3295 9056 15632 327 1193 9040 5452 167 66 1026 14439 8974 4742 6491 7948 710 66130 993 431
is_linear=0
shrinkage=0.1


Tree=3
num_leaves=54
num_cat=0
split_feature=107 131 104 30 135 85 129 136 72 134 128 68 133 135 29 73 75 53 28 71 32 107 106 55 107 28 55 109 31 100 108 118 29 80 74 92 31 32 33 31 107 69 118 34 81 81 70 126 107 20 108 0 0
split_gain=13352.6 7215.92 5353.2 5465.36 4620.87 3210.87 3078.73 2970.03 2767.5 2504.32 2743.19 2230.17 1993.27 1708.1 1312.66 985.012 920.513 871.456 650.534 504.657 494.248 408.18 295.347 285.674 134.787 123.783 110.85 106.241 83.7418 251.139 63.5252 49.6146 39.3923 75.6334 39.2736 12.261 3.76443 2.54285 4.41409 0.79358 0.329042 0.190464 0.0861894 0.0346594 0.0191014 0.0108526 0.00889984 0.00510269 0.00154547 0.00134909 0.000272434 4.54747e-13 1.42109e-14
threshold=-0.87044018507003773 1.0000000180025095e-35 -0.83979448676109303 1.0805044174194338 1.0000000180025095e-35 -1.2066506147384641 1.0000000180025095e-35 1.0000000180025095e-35 -0.5957774519920348 1.0000000180025095e-35 1.0000000180025095e-35 0.076401200145483031 1.0000000180025095e-35 1.0000000180025095e-35 1.2419062256813052 -0.79473072290420521 -1.1191284656524656 1.0887501835823061 1.0786504149436953 -0.49252904951572413 0.93862891197204601 -0.94905370473861683 -0.83208900690078724 1.0521079897880556 -0.86730626225471485 1.1002995371818545 0.97672006487846386 -0.86963364481925953 0.98688551783561718 -0.89326345920562733 -0.8638571798801421 -0.96872496604919422 1.1624352931976321 -1.0695696473121641 -1.01217645406723 -1.1466845273971555 1.0008156895637514 0.95045676827430736 0.91306042671203624 1.0008156895637514 -0.8749132752418517 -0.095931090414524064 -1.2295060157775877 0.91069075465202343 -1.0683073401451109 -1.3729349374771116 -0.38137479126453394 -1.884202718734741 -0.8749132752418517 1.4406615495681765 -0.83959472179412831 0.65078002214431774 0.7701118290424348
decision_type=2 2 2 2 2 2 2 2 2 2 2 2 2 2 2 2 2 2 2 2 2 2 2 2 2 2 2 2 2 2 2 2 2 2 2 2 2 2 2 2 2 2 2 2 2 2 2 2 2 2 2 2 2
left_child=1 2 3 6 5 19 7 -1 -7 10 13 21 14 51 -5 -14 45 18 -18 -4 27 -6 24 -13 26 -19 -22 28 35 -30 -29 -26 34 -34 -15 -11 40 -24 -39 -8 41 -3 -38 -43 48 49 -32 -46 -44 -12 -47 -2 -53
right_child=9 36 4 12 11 8 39 -9 -10 20 16 23 15 32 -16 -17 17 25 -20 -21 22 -23 37 -25 31 -27 -28 30 29 -31 46 -33 33 -35 -36 -37 42 38 -40 -41 -42 43 44 -45 47 50 -48 -49 -50 -51 -52 52 -54
leaf_value=0.23370013358486563 -0.10348418870254719 -0.11954605075575586 0.16496855847970171 0.13240675846399183 0.15401006072055315 0.19389040672418925 -0.118849519028488 -0.10396565600976615 0.10287653531883408 0.30490574593376746 -0.10395304671347601 0.28375130108178953 0.24627291058614112 0.28060596697536216 -0.10038176207993309 0.12188378453762992 0.77922272996573128 0.029877467428467381 0.14721996981580415 -0.052629398909413663 0.13289492107322248 0.28038109589525279 0.24014883700422091 0.67820916603642911 -0.087882222146989639 -0.10695403721774872 -0.10705554871340509 0.28981599685066001 0.20764974757561744 -0.12218338628784181 -0.13063910153286382 0.080031807696542667 -0.10786887609056138 0.4102782051025986 0.1799196267163348 0.24454058241594026 -0.12308732892602424 0.239859732611825 0.16073319182331569 -0.10537319711696841 -0.10348418870254719 -0.11507709051635986 -0.1041985394559849 -0.1055522806138231 -0.10729537655247917 -0.10581950446764783 -0.12517487247564169 -0.1136021402002214 -0.10348418870254719 -0.10665248220896889 -0.10741350814136078 -0.10348418870254719 -0.10348418870254719
leaf_weight=44238.28265151754 2043.1444958075881 374.33735577762127 118.82423062995076 7800.1171220876276 307.32440304756165 6047.887149643153 200.3570535890758 262.03031322732568 7464.4995214752853 37.201493337750435 172.09398664906621 20.819298550486565 2613.8451028168201 53.283410623669624 249.9941919259727 841.58779142796993 16.517393048852682 122.12735315039754 1165.9028909243643 1034.5593474656343 99.172773059457541 1518.572138607502 56.04396778345108 155.41973689198494 106.94896500557661 144.14705832675099 23.890625551342964 4.8854637295007732 276.73952236399055 25.185670690611005 9.7076441384851933 21.062356103211641 10.250875473022459 3.8847337812185279 141.93332919478416 352.22349368035793 2.4381868839263907 15.304082393646242 13.071984373033045 55.88470907881856 14.022664379328488 5.7578991912305382 306.30488049983978 11.353471279144285 2.7249262034893036 35.943850308656693 4.3015320450067493 2.4241642653942099 33.608845252543688 1.8715075254440297 1.1051857620477665 5.2706998363137236 103.13653383404016
leaf_count=58422 62798 2737 539 22611 554 11473 1635 7471 39103 12 4710 97 4084 31 1308 2239 64 1865 11209 11415 1080 909 14 195 2332 2524 450 4 315 207 55 255 163 2 261 145 16 3 54 1380 431 68 7941 259 43 692 31 23 1033 32 18 162 3170
internal_value=0 0.195993 0.199173 0.213919 0.149397 0.129942 0.229722 0.231712 0.143613 0.0281607 -0.00769539 0.291901 0.152447 -0.0769516 0.125178 0.215977 0.0908202 0.119243 0.156049 -0.030212 0.166019 0.259111 0.0659906 0.631611 0.0115849 -0.044196 0.0863127 0.213268 0.219662 0.180136 -0.0206808 -0.0602545 0.195729 0.0345278 0.207401 0.250307 -0.11199 0.227799 0.203409 -0.11591 -0.118535 -0.119074 -0.104352 -0.108757 -0.104219 -0.104313 -0.128961 -0.110265 -0.104128 -0.103982 -0.105867 -0.103484 -0.103484
internal_weight=0 73683 72930 56262.1 16667.9 14665.8 44756.6 44500.3 13512.4 5066.35 4020.61 2002.14 11505.5 2360.9 8050.11 3455.43 1659.71 1448.69 1182.42 1153.38 1045.74 1825.9 335.495 176.239 251.075 266.274 123.063 710.245 691.35 301.925 18.8946 128.011 209.352 14.1356 195.217 389.425 752.972 84.42 28.3761 256.242 405.471 391.449 347.501 17.1114 345.063 211.015 14.0092 5.14909 339.914 173.965 37.049 2151.55 108.407
internal_count=268644 175986 163435 99150 64285 62530 68908 65893 50576 92658 87701 1755 30242 66587 23919 6323 21114 15662 11273 11954 4957 1463 4188 292 4117 4389 1530 769 679 522 90 2587 457 165 292 157 12551 71 57 3015 3495 3064 9056 327 9040 5452 86 66 8974 4742 710 66130 3332
is_linear=0
shrinkage=0.1


Tree=4
num_leaves=56
num_cat=0
split_feature=107 131 70 90 30 113 54 128 134 128 129 39 120 135 30 75 122 51 50 102 128 73 83 106 124 107 76 55 109 113 4 32 74 108 74 106 107 51 0 92 72 37 31 35 107 69 118 34 75 81 126 107 0 69 0
split_gain=9166.7 5267.23 4172.44 4565.95 4554.08 2839.6 2151.44 2020.67 1846.92 2246.57 1790.59 1571.23 1427.32 1361.58 850.792 690.205 665.265 635.727 459.647 458.09 425.799 354.006 345.342 323.308 364.488 211.272 93.3835 88.9717 59.6889 54.1151 52.3231 47.8624 89.2133 46.6288 30.7468 352.715 16.7859 9.97252 13.4713 49.9158 3.38828 7.5087 2.68947 1.05322 0.259451 0.13357 0.0617659 0.0252126 0.0224082 0.0139 0.00366001 0.00122939 5.68434e-14 3.55271e-15 8.88178e-16
threshold=-0.869979828596115 1.0000000180025095e-35 -0.31571272015571589 -1.0464957952499387 1.0800309181213381 -1.3683788776397703 0.97642594575881969 1.0000000180025095e-35 1.0000000180025095e-35 1.0000000180025095e-35 1.0000000180025095e-35 0.96064424514770519 -0.95920661091804493 1.0000000180025095e-35 1.0888967514038088 -1.1168332695960996 -1.2804762721061704 1.1334581375122073 1.091625511646271 -0.79979628324508656 1.0000000180025095e-35 -0.92308232188224781 -1.2978881597518919 -0.83367812633514393 -1.235090911388397 -0.86776733398437489 -1.166709244251251 0.95813554525375377 -0.86963364481925953 -0.90900909900665272 0.61499527096748363 0.86227181553840648 -1.0132123827934263 -0.8638571798801421 -0.97314539551734913 -0.80685576796531666 -0.85346290469169606 1.1755540966987612 0.52380776405334484 -0.87876799702644337 -0.63328400254249562 0.95172563195228588 1.0008156895637514 0.87704610824584972 -0.8749132752418517 -0.095931090414524064 -1.2295060157775877 0.91069075465202343 -1.1191284656524656 -1.0683073401451109 -1.884202718734741 -0.8749132752418517 0.44785656034946447 -0.23337556421756742 0.42403867840766912
decision_type=2 2 2 2 2 2 2 2 2 2 2 2 2 2 2 2 2 2 2 2 2 2 2 2 2 2 2 2 2 2 2 2 2 2 2 2 2 2 2 2 2 2 2 2 2 2 2 2 2 2 2 2 2 2 2
left_child=1 2 4 6 7 18 16 10 9 13 -1 -7 14 -2 -6 34 -4 22 -5 -9 -8 -14 -17 24 25 27 -19 -10 29 -26 -27 36 -33 -30 48 -36 -15 38 39 -25 43 -42 44 -39 45 52 -44 -47 -11 51 -51 -48 -3 -46 -55
right_child=8 42 3 5 12 11 20 19 23 15 -12 -13 21 31 -16 17 -18 26 -20 -21 -22 -23 -24 37 28 30 -28 -29 33 -31 -32 32 -34 -35 35 -37 -38 40 -40 -41 41 -43 46 -45 53 47 49 -49 -50 50 -52 -53 -54 54 -56
leaf_value=0.2020755909103773 -0.10314165743286063 -0.11734365825909079 0.28718681115097316 0.37740270035335138 0.16619765493378572 0.067411859349010075 -0.024979847022968245 -0.076298462238361953 0.0025854720284934751 -0.10389250344841197 -0.11460917951137575 0.16232272099672326 0.074437441830669901 0.21920448267472081 0.10969422140976093 0.097274320255945748 -0.043638076212423264 0.043651899006873184 -0.10949963969241282 0.26411312921999847 0.14493979059303103 -0.025212674214465349 0.2219814082955324 -0.12389987299363366 0.13951931799603337 -0.0036422051808443334 -0.10778338544691141 0.17233048243800353 0.23284324364014722 0.23010902490073512 -0.11532850827296354 0.18824843672233002 -0.047104211996767259 -0.12487831363422928 1.7337411632438995 -0.10476628956791299 0.13778567303308584 0.23652276721314061 0.20631021198299224 0.19555837022705985 0.17258820342922332 0.22802933623248484 -0.12041349655954031 0.22172157665829056 -0.10314165743286063 -0.11350585063186538 -0.10378322996510146 -0.10500946973693739 -0.10814387017829077 -0.10655315886133768 -0.11214144602301229 -0.10314165743286063 -0.11734365825909079 -0.10314165743286063 -0.10314165743286062
leaf_weight=39891.017670920119 1931.5888305902481 119.53293587267399 345.22908608242869 20.222348842769861 6485.7559821940958 1913.2386106848717 2492.0860092267394 323.21231261640787 47.462647361680865 184.86025626957417 179.34498992748559 19748.152832290158 1173.820800518617 106.43551622889936 4523.4420923981816 1077.0006709992886 73.774965025484562 56.140172116458416 470.10465292073786 45.040161788463593 156.75082322955132 511.99079680256546 279.73432065546513 6.269830338656905 120.27369879931211 92.225813938304782 148.25919293612242 88.373076107352972 5.4371075034141567 145.97450071573257 76.940452251583338 41.783964447677135 26.208519220352173 11.04835197329521 1.1413100361824025 12.176600575447081 33.226811056956649 71.564990997314453 73.367327690124512 22.2432801425457 42.661521837115288 57.158751547336578 2.2526159286499015 146.47412112355232 8.4756370782852155 5.278381308540701 278.20864265598357 10.323439896106718 13.289212260395287 2.4819120205938816 2.2205777466297141 33.4595707654953 225.21063154935837 3.2780338525772086 2.4216105937957764
leaf_count=48639 65407 949 160 19 12809 5035 20635 1614 527 5252 2237 49603 3380 93 12736 10182 502 1075 3914 27 950 2119 1659 85 180 1572 2364 586 4 133 1390 90 208 79 4 302 44 14 14 10 39 14 16 34 287 68 7941 259 204 43 23 1133 1788 111 82
internal_value=0 0.163786 0.166214 0.132718 0.182112 0.148553 0.0183821 0.198515 0.0230954 -0.00800015 0.200658 0.15394 0.129861 -0.0769836 0.142982 0.0752517 0.228938 0.0982177 -0.0894185 -0.0346635 -0.0149245 0.0441731 0.122987 0.143834 0.0959608 0.02014 -0.0661903 0.11302 0.177753 0.189186 -0.0544395 0.166336 0.0975289 -0.00689734 -0.0942921 0.052789 0.199834 0.210867 0.183641 0.125312 0.219594 0.204335 -0.110667 0.22658 -0.116412 -0.116934 -0.103913 -0.107884 -0.104178 -0.103796 -0.109192 -0.103714 -0.117344 -0.103142 -0.103142
internal_weight=0 79046.3 78353.2 25219.6 53133.6 22151.7 3067.84 40438.6 4919.32 3911.85 40070.4 21661.4 12695 2139.24 11009.2 1772.6 419.004 1561.13 490.327 368.252 2648.84 1685.81 1356.73 1007.48 587.736 305.002 204.399 135.836 282.734 266.248 169.166 207.655 67.9925 16.4855 211.467 13.3179 139.662 419.74 101.88 28.5131 317.859 99.8203 693.144 218.039 374.521 360.345 318.623 15.6018 198.149 316.371 4.70249 311.668 344.744 14.1753 5.69964
internal_count=268644 177079 164379 80818 83561 58571 22247 52517 91565 86884 50876 54638 31044 65842 25545 21042 662 15280 3933 1641 21585 5499 11841 4681 4471 4075 3439 1113 396 313 2962 435 298 83 5762 306 137 210 109 95 101 53 12700 48 3544 3064 9156 327 5456 9140 66 9074 2737 480 193
is_linear=0
shrinkage=0.1


Tree=5
num_leaves=59
num_cat=0
split_feature=107 131 130 132 136 129 109 127 32 134 128 135 75 51 31 32 106 4 103 75 46 100 106 37 72 74 104 57 72 42 31 32 45 72 119 41 32 107 68 8 69 118 118 112 34 75 106 82 81 44 126 107 107 131 0 0 0 0
split_gain=6637.71 3973.02 3747.8 3926.1 3937.97 3828.71 2779.56 2436.77 2405.16 1557.65 1846.95 1243.84 536.156 459.979 291.738 291.48 200.287 121.649 181.442 85.8452 63.0252 198.193 51.2868 39.9289 85.6546 23.6582 74.0765 14.9649 4.13001 6.78911 1.93 1.53173 3.26662 1.31369 0.321446 0.268594 0.171371 0.166991 0.108762 0.200796 0.094222 0.0888269 0.0443603 0.0256371 0.0183712 0.0164532 0.0117939 0.0104743 0.0100924 0.0029561 0.00263418 0.000829536 0.000484269 0.000108322 2.27374e-13 5.68434e-14 1.77636e-15 1.77636e-15
threshold=-0.87044018507003773 1.0000000180025095e-35 1.0000000180025095e-35 1.0000000180025095e-35 1.0000000180025095e-35 1.0000000180025095e-35 -1.1120256781578062 -3.30491030216217 0.90843772888183605 1.0000000180025095e-35 1.0000000180025095e-35 1.0000000180025095e-35 -1.1168332695960996 1.1334581375122073 1.0051074624061587 0.93908944725990307 -0.83208900690078724 0.61499527096748363 -0.8406822383403777 -1.0598759055137632 1.1504214406013491 -0.89326345920562733 -0.85861167311668385 0.83938610553741466 -0.75298380851745594 -0.97314539551734913 -0.79830333590507496 0.99730896949768078 -0.63328400254249562 1.1260147094726565 1.0008156895637514 0.95045676827430736 1.0502636432647707 -0.66757279634475697 -1.2075612545013426 0.99590930342674266 0.9403543770313264 -0.8749132752418517 0.076401200145483031 0.44315929710865026 -0.095931090414524064 -1.1634971499443052 -1.2295060157775877 -1.0338664054870603 0.91069075465202343 -1.1191284656524656 -0.86159405112266529 -1.0618020892143247 -1.0683073401451109 1.1781638264656069 -1.884202718734741 -0.8749132752418517 -0.869979828596115 1.0000000180025095e-35 0.97798573970794689 0.63099029660224926 0.58523988723754894 0.52817276120185863
decision_type=2 2 2 2 2 2 2 2 2 2 2 2 2 2 2 2 2 2 2 2 2 2 2 2 2 2 2 2 2 2 2 2 2 2 2 2 2 2 2 2 2 2 2 2 2 2 2 2 2 2 2 2 2 2 2 2 2 2
left_child=1 2 3 4 5 -1 7 -5 -8 10 11 52 25 14 -14 20 17 18 -17 -15 21 22 -11 24 -13 45 -27 -25 33 -30 37 -18 -33 -22 38 -23 -19 40 39 -4 55 -6 -32 -40 -42 -12 47 -36 51 -48 -50 -44 53 -2 -54 -3 57 -39
right_child=9 30 34 6 41 -7 8 -9 -10 15 12 23 13 19 -16 16 31 36 -20 -21 28 35 -24 27 -26 26 -28 -29 29 -31 42 32 -34 -35 46 -37 -38 56 43 -41 44 -43 48 -45 -46 -47 49 -49 50 -51 -52 -53 54 -55 -56 -57 -58 -59
leaf_value=0.15519167059001859 -0.1034092887664993 -0.11542335855114459 -0.12167184467466341 0.27542474953471735 -0.10780712464149611 -0.1150335866968359 -0.070602602924127122 0.08530235721228073 0.12746512368634361 0.16769423917089255 -0.1035116385335499 0.15769551292330933 0.077764917649258899 0.038029348851162721 0.18757299447866052 0.23856316950419509 0.18932794116833898 -0.12077821005814565 -0.0063644412126164299 -0.10706272388907412 0.20843331575190202 -0.11949191409969084 0.059299764747436291 0.13027953648230328 -0.12896738501997487 0.3944940957801224 -0.10552546729847939 0.19098638154878086 0.14431908801919777 0.19539834698188627 -0.1180976659586228 0.19204709350572419 0.12475100904443069 0.19316231546445861 -0.10554734353885803 -0.15402128270315202 -0.10550109056335971 -0.10283377117788473 -0.10679970089618225 -0.11014483824500597 -0.11211047100753709 -0.10405298344109515 -0.10341040736121557 -0.12233310545936825 -0.10452122402338988 -0.10731857061106764 -0.10440969519817392 -0.11037207894593414 -0.10589081030302545 -0.11002094771303171 -0.11085344956812229 -0.10283377117788468 -0.10283377117788468 -0.10283377117788468 -0.10283377117788468 -0.11542335855114459 -0.10283377117788438 -0.10283377117788461
leaf_weight=73220.073871064931 18.075212338939313 301.92500495910645 21.504882514476776 848.0527653247118 71.60836842097342 528.10663478262722 1855.0431461147964 3287.2705871686339 915.7190675586462 322.67640328407288 168.12720534577966 32.670806065201759 1195.0078196339309 58.241189658641815 303.37243508547544 38.826838284730911 57.54450074583292 8.3157733697444183 136.84852644428611 136.00088689103723 83.920779168605804 25.59324750863016 50.479462824761868 63.442925252020359 15.306902483105658 4.0174395199865094 11.286577263846992 112.811961568892 43.499522730708122 64.759464666247368 2.0761559009551993 15.714993953704836 13.332586862146853 171.35750029981136 362.96733588352799 2.470218911767005 62.749137423932552 8.3072057925164646 41.419652666896582 50.834769193083048 4.8324739243835202 525.9047365039587 252.59488772973418 1.0904898568987835 9.3824438638985139 12.17481082677841 116.22998900897801 4.5561145283281794 2.2590561509132385 0.94650309905409713 2.031409226357936 27.681753495708108 1682.2895652987063 3.9928182680159798 70.45046460814774 14.934173941612242 0.58954363688826639 2.6529463659971961
leaf_count=98100 574 2608 197 1052 1262 7115 12972 12820 3486 269 5258 98 10792 1094 1105 91 14 107 2328 2354 18 233 168 175 138 6 300 46 36 20 16 3 54 46 7447 11 1559 310 738 800 68 14370 7941 12 259 205 2973 73 43 18 23 1033 62778 149 2629 129 22 99
internal_value=0 0.140723 0.142647 0.144485 0.151185 0.153257 0.072362 0.124292 -0.00514249 0.0218988 -0.00780992 -0.0748018 0.0631134 0.081228 0.0999974 0.127068 0.04903 0.00310943 0.0477682 -0.0635586 0.161083 0.133757 0.153031 0.147119 0.066238 -0.0936365 0.0257341 0.169135 0.191241 0.174874 -0.109588 0.179879 0.161159 0.198183 -0.106456 -0.122531 -0.107289 -0.114654 -0.111213 -0.113572 -0.115066 -0.104503 -0.103533 -0.107198 -0.107101 -0.103769 -0.105329 -0.105607 -0.103427 -0.104455 -0.10824 -0.103353 -0.10284 -0.103305 -0.102834 -0.115423 -0.102834 -0.102834
internal_weight=0 82480.6 81851.3 81251.8 74345.7 73748.2 6906.09 4135.32 2770.76 4985.36 3887.27 1999.04 1888.23 1692.62 1498.38 1098.09 333.332 246.74 175.675 194.242 764.757 401.219 373.156 224.233 47.9777 195.606 15.304 176.255 363.537 108.259 629.267 86.5921 29.0476 255.278 599.55 28.0635 71.0649 342.624 114.85 72.3397 331.074 597.513 286.643 42.5101 14.2149 180.302 484.7 367.523 284.567 117.176 4.29047 280.277 1774.81 22.068 1752.74 316.859 11.5497 10.9602
internal_count=268644 175986 163435 151177 120847 105215 30330 13872 16458 92658 87701 66587 21114 15345 11897 4957 4156 4085 2419 3448 801 681 437 457 236 5769 306 221 120 56 12551 71 57 64 12258 244 1666 3495 1747 997 3064 15632 9056 750 327 5463 10511 7520 9040 2991 66 8974 66130 723 65407 2737 431 409
is_linear=0
shrinkage=0.1


Tree=6
num_leaves=61
num_cat=0
split_feature=106 86 97 30 131 72 109 113 123 128 20 128 121 130 107 125 70 3 30 92 134 53 55 52 32 73 32 70 135 31 25 54 133 55 57 111 120 0 38 55 74 135 5 72 97 31 39 31 92 69 34 117 7 110 31 38 122 107 72 118
split_gain=5111.65 4399.67 3316.29 3164.86 2434.42 2201.02 1970.49 2070.52 1348.24 1311.46 1204.3 1852.61 1198.26 1178.09 1131.03 1012.31 1015.76 838.487 765.708 732.503 686.691 660.344 634.933 612.612 662.23 585.824 567.816 622.294 558.958 612.742 514.409 440.069 436.534 435.281 402.201 401.176 1593.98 390.664 386.951 317.708 284.506 262.292 258.116 222.04 220.292 188.914 184.946 176.206 127.86 98.8826 64.7418 39.8476 33.7168 1.05675 0.753747 0.716507 0.603648 0.259443 0.0592695 0.0316596
threshold=-0.86640846729278553 -1.1204559206962583 -0.63929927349090565 1.0818794965744021 1.0000000180025095e-35 -0.67463761568069447 -1.1161000728607176 -1.3585456013679502 -2.1395666599273677 1.0000000180025095e-35 1.2581202983856203 1.0000000180025095e-35 -1.1030034422874448 1.0000000180025095e-35 -1.0073637366294859 -1.6131551861762998 -0.32810184359550471 -0.18772706389427182 1.1061689853668215 -0.96496757864952076 1.0000000180025095e-35 0.96027165651321422 1.0317538976669314 1.09772664308548 0.8223172426223756 -0.79473072290420521 0.96236032247543346 -0.21942441910505292 1.0000000180025095e-35 0.95827525854110729 0.98779004812240612 1.0478022098541262 1.0000000180025095e-35 0.97562482953071605 0.91268339753150951 -1.2455514073371885 -1.6049280762672422 0.36115141212940222 0.97762569785118114 1.0121262073516848 -0.46033875644206995 1.0000000180025095e-35 0.66722369194030773 -0.64983895421028126 -0.62621313333511341 1.0073193907737734 0.95072209835052501 1.0023008584976199 -0.9802802801132201 -0.034981178119778626 0.90344077348709118 -1.0125249028205869 0.20240589231252673 -1.1827598810195921 1.0008156895637514 0.97762569785118114 -1.4895179271697996 -0.8749132752418517 -0.54092898964881886 -1.2295060157775877
decision_type=2 2 2 2 2 2 2 2 2 2 2 2 2 2 2 2 2 2 2 2 2 2 2 2 2 2 2 2 2 2 2 2 2 2 2 2 2 2 2 2 2 2 2 2 2 2 2 2 2 2 2 2 2 2 2 2 2 2 2 2
left_child=2 10 3 4 5 9 7 23 30 -1 11 19 25 -7 -10 33 20 41 21 48 -17 -14 37 40 -25 32 45 -28 29 44 -9 -21 -5 47 -35 38 -37 43 -24 58 -4 53 -27 -19 -8 -13 -18 -12 -2 -41 -39 -20 -31 55 57 -3 -55 -6 -30 -56
right_child=1 17 6 12 54 13 28 8 14 -11 15 26 18 -15 -16 16 46 22 51 31 -22 -23 35 24 -26 42 27 -29 39 52 -32 -33 -34 34 -36 36 -38 50 -40 49 -42 -43 -44 -45 -46 -47 -48 -49 -50 -51 -52 -53 -54 56 59 -57 -58 -59 -60 -61
leaf_value=0.16925424538369188 -0.097811127221365368 -0.16030759067343425 -0.053343661655990741 0.095911620564594333 -0.11346679881983353 0.12925101496121885 0.014204403187113966 0.50814277122567997 0.13990204958758143 -0.080131912622963944 0.16581469424997311 -0.027867211222419603 0.0746099414045516 -0.10716384294577119 -0.040439739305910626 -0.0041365088656615655 -0.10990938166573101 0.16122859243531618 -0.007248326085320592 0.14611289225727372 0.12089886918116295 -0.035370962805874678 0.2264180792385091 0.16816750459546717 -0.1131342842579451 0.066942911645915468 0.16321874976147188 0.021819472068318087 -0.18460576235700876 0.30635170532488859 0.21066569352845477 -0.11849655433685263 0.16113812886263665 -0.12770397360536453 0.17692341814577436 -0.052725613816655671 0.18690015229572013 0.094117730258620858 0.52154962348304523 0.12301704096616595 0.27959160867667715 0.16067290110317353 -0.098550112606418883 -0.00049633173614941858 -0.10392144628918834 0.23200508428142652 -0.018138351625909897 0.28359618551393201 -0.027296989798526558 0.30312435899339152 0.24314487260490486 -0.1319168559642597 0.16011457008095256 -0.1186626572894956 -0.11608175718439367 -0.11700916916178893 -0.10256191927926628 -0.10255684545671945 -0.17333973429217267 -0.10312469020043978
leaf_weight=23634.148333815858 2114.301699442789 9.3063421845436078 38.307101748883724 1644.8722058515996 207.30458536185324 35790.839789532125 185.3810798637569 62.288919985294342 1018.2485141083598 212.7662939876318 337.80057612620294 640.73375901579857 6001.5656404905021 212.02833009324968 528.134656380862 677.558204786852 308.22982403077185 104.47588828764856 29.166858041658998 227.63361703231931 1248.7433148697019 600.55799327231944 458.3989534303546 95.972368339076638 653.82848679833114 745.61329267174006 670.1979251652956 581.11910596117377 5.9525137096643475 31.467337898910046 870.65988742560148 86.822769759222865 2727.3368527442217 84.756699731573462 88.699572220444679 315.9044450931251 2289.2363668140024 38.387914199382067 49.192093912512064 72.265090599656105 77.784488782286644 43.223820641636848 107.88021250814199 452.94061291217804 1063.9340437147766 29.250430068001151 763.71710490994155 203.56009689345956 292.75317635200918 52.722411975264549 121.14975261688232 211.92009540274739 31.598302930593491 109.02268553525209 1.9095256328582753 6.4851631652563801 29.610245000571012 24.358080860227346 21.668412670493126 151.68175141140819
leaf_count=24558 56374 40 141 4861 2067 54611 657 40 2054 1130 405 9791 13828 4220 2927 15460 5474 160 105 482 3273 5256 199 164 5157 1850 3814 5686 24 14 1338 1919 3432 553 128 2350 3550 129 80 120 35 17 474 1992 7355 114 7401 151 2639 61 38 1399 40 865 16 54 1217 1002 90 5263
internal_value=0 0.057924 0.127139 0.132488 0.141853 0.143466 0.0467389 0.0890944 0.135588 0.167029 0.0165425 -0.017408 0.0857483 0.127859 0.0783101 0.0589942 0.0334992 0.143782 0.0582135 -0.0704835 0.0769189 0.0646056 0.154148 -0.0440315 -0.0771285 0.121806 0.057773 0.0975521 -0.0499775 -0.0710411 0.230527 0.0730531 0.136599 0.165931 0.028072 0.173689 0.157843 0.0693065 0.25502 0.131162 0.169732 -0.0570691 0.0460249 0.0298156 -0.0863932 -0.0165216 -0.0445264 0.210102 -0.089235 0.19899 0.207286 -0.116834 0.233081 -0.118016 -0.108718 -0.142526 -0.115224 -0.11232 -0.175768 -0.103286
internal_weight=0 12383.2 77114.2 72303.9 60235 59849.8 4810.21 3345.22 2479.33 23846.9 8355.88 4642.81 12068.9 36002.9 1546.38 3713.07 2998.25 4027.33 6843.21 2721.51 1926.3 6602.12 3829.69 865.892 749.801 5225.7 1921.3 1251.32 1464.99 1312.38 932.949 314.456 4372.21 714.817 173.456 3112.73 2605.14 716.954 507.591 152.608 116.092 197.648 853.494 557.417 1249.32 669.984 1071.95 541.361 2407.05 124.988 159.538 241.087 63.0656 154.424 385.254 15.7915 138.633 231.663 27.6209 153.591
internal_count=268644 124355 144289 124072 92867 84519 20217 11856 6359 25688 113664 80819 31205 58831 4981 32845 31608 10691 20588 61414 18733 19084 8498 5497 5321 10617 19405 9500 8361 8066 1378 2401 8293 1237 681 6179 5900 2319 279 295 176 2193 2324 2152 8012 9905 12875 556 59013 181 167 1504 54 2176 8348 94 2082 3069 114 5279
is_linear=0
shrinkage=0.1


Tree=7
num_leaves=58
num_cat=0
split_feature=130 129 136 131 132 128 109 107 31 31 107 69 118 30 78 118 107 68 8 69 106 31 115 120 31 67 69 81 117 69 54 74 106 66 84 95 90 91 82 107 30 106 123 107 90 20 30 106 86 106 86 20 107 107 107 107 30
split_gain=4307.86 4305.03 4262.16 4059.06 2880.23 2605.84 1926.64 3.9563 1.41936 0.750009 1.12066 0.656813 0.341688 0.165009 0.164599 0.143426 0.127774 0.0550734 0.157633 0.0704044 0.0501309 0.0440133 0.0736285 0.0313173 0.0306873 0.0275541 0.0255181 0.0248665 0.0180575 0.0165591 0.0159396 0.0137449 0.00974945 0.00844121 0.00821468 0.00551107 0.00411742 0.00405602 0.00368942 0.00284023 0.00241517 0.00207672 0.00139266 0.00112918 0.000637477 0.000495517 0.000305023 0.000286805 0.000240325 0.000217208 0.000143991 0.000130342 9.27377e-05 5.31272e-05 3.10332e-05 1.1293e-05 7.70272e-06
threshold=1.0000000180025095e-35 1.0000000180025095e-35 1.0000000180025095e-35 1.0000000180025095e-35 1.0000000180025095e-35 1.0000000180025095e-35 -1.1100931763648985 -0.8749132752418517 1.0008156895637514 1.0008156895637514 -0.8749132752418517 -0.095931090414524064 -1.167027950286865 1.0800309181213381 -1.0574979186058042 -1.1634971499443052 -0.87044018507003773 0.076401200145483031 0.44315929710865026 -0.095931090414524064 -0.86640846729278553 1.001663386821747 -1.1620285511016843 -1.2999106049537656 1.0012398362159731 0.20785684883594516 -0.095931090414524064 -1.0683073401451109 -1.1439285874366758 -0.16988690942525861 1.0535768866539004 -0.82786110043525685 -0.86517098546028126 0.31037925183773046 -1.2209208011627195 -0.81326490640640248 -1.0464957952499387 -0.95547184348106373 -1.0618020892143247 -0.869979828596115 1.0818794965744021 -0.86640846729278553 -1.622499883174896 -0.869979828596115 -1.0464957952499387 1.2581202983856203 1.0805044174194338 -0.86640846729278553 -1.1175615787506101 -0.86640846729278553 -1.1204559206962583 1.2581202983856203 -0.869979828596115 -0.869979828596115 -0.869979828596115 -0.86864638328552235 1.0805044174194338
decision_type=2 2 2 2 2 2 2 2 2 2 2 2 2 2 2 2 2 2 2 2 2 2 2 2 2 2 2 2 2 2 2 2 2 2 2 2 2 2 2 2 2 2 2 2 2 2 2 2 2 2 2 2 2 2 2 2 2
left_child=1 2 3 4 5 -1 -6 8 11 10 -5 13 17 -3 37 24 29 18 19 42 39 26 -23 -16 33 -13 -20 -11 30 38 -19 -26 -21 -4 -22 36 -31 -10 40 -17 -14 -32 -2 44 46 48 -9 56 54 53 -46 -49 -51 -47 -18 -50 -45
right_child=12 7 15 9 6 -7 -8 43 14 27 -12 25 16 -15 23 20 45 28 21 32 34 22 -24 -25 31 -27 -28 -29 -30 35 41 -33 -34 -35 -36 -37 -38 -39 -40 -41 -42 -43 -44 47 50 49 -48 51 55 52 -52 -53 -54 -55 -56 -57 -58
leaf_value=0.12250437525618618 -0.10385961572482048 -0.11864328596805283 -0.10859923844631954 -0.11255530684641096 0.091822451553888684 0.030072715497738229 -0.015377035232135391 -0.10267709081308184 -0.10421656440024606 -0.10266795883006392 -0.10238486281045969 -0.11100785703304597 -0.10549350155973392 -0.12346494223488956 -0.12449222453945559 -0.10429120412737913 -0.10269733432220851 -0.11415727654910779 -0.10423951041144067 -0.11982583502013711 -0.10253275985313402 -0.12451353320808829 -0.10787604291317864 -0.1131059888807856 -0.10988137700167662 -0.10638243381249331 -0.10927526297062783 -0.10946860329826567 -0.11920342008733942 -0.10358336219329112 -0.10503260484882398 -0.11759834308736489 -0.12533551678612462 -0.10623054550341504 -0.10383790916415758 -0.11093559900857371 -0.10457164995261621 -0.10807132065220389 -0.10929695236907316 -0.10301231352866727 -0.10479017841552458 -0.10646018332682423 -0.10873763850178644 -0.10301849106290217 -0.10362682090451814 -0.10384415016363585 -0.10402807334914706 -0.10232780278750984 -0.10347140694381872 -0.10327124982303884 -0.10474190334454099 -0.10251331325863584 -0.10252629583605335 -0.10297402401844513 -0.10232409278228245 -0.1030293567247834 -0.10260874865234781
leaf_weight=76433.314700499177 2.4161249734461312 219.75310369580984 24.281103223562241 286.97191467694938 4631.4724450260401 3176.8114341627806 2627.7736358065158 23.506735019385822 96.268379673361778 385.81469009630382 174.05107007920742 21.567361071705818 187.96429575234652 104.83737505972385 4.1160642169415951 332.90867354534566 2.2437743023037902 2.4462297819554797 21.260107643902298 12.358637716621164 454.73336853086948 4.0401777550578117 7.7859949842095357 5.8470350876450521 5.2756191901862621 31.970071068033576 19.106127135455612 5.4526736736297599 1.1140355169773091 93.185596831142902 17.763623286038634 4.1031975671648961 4.3392969444394085 39.551091816276312 53.945746516808867 1.1637236699461926 76.981249682605267 2.8093020133674136 2.3433773182332507 18.3211390953511 65.957193730399013 23.900660213083032 0.77236913144588726 6.5977795496582976 3.9978602472692728 0.76650353334844012 1.7991305459290732 344.21336488425732 0.70060471817851055 1.6977605614811171 1.6302551049739111 42.557360537350178 106.33541171997786 8.3001044094562513 309.89114259928465 3.3002516180276862 0.49308746121823777
leaf_count=98578 68 1706 419 3064 14769 26143 15688 932 2588 15419 7667 335 3880 687 28 8560 89 23 563 93 19128 28 128 65 72 627 258 82 16 2894 391 39 32 736 1570 22 1882 48 39 646 1535 446 16 232 119 22 49 15495 22 56 38 1782 4431 297 13965 117 20
internal_value=0 0.106702 0.108925 0.111187 0.113317 0.118816 0.0530173 -0.109459 -0.115609 -0.105983 -0.108716 -0.118508 -0.104302 -0.120201 -0.105558 -0.103667 -0.103612 -0.109365 -0.111081 -0.118658 -0.103306 -0.108195 -0.11356 -0.11781 -0.107916 -0.108246 -0.106623 -0.102763 -0.10663 -0.104838 -0.106312 -0.113258 -0.121258 -0.107132 -0.102671 -0.104077 -0.10403 -0.104326 -0.105347 -0.104224 -0.105311 -0.105852 -0.105041 -0.102405 -0.102987 -0.102402 -0.102773 -0.10236 -0.102337 -0.102577 -0.10395 -0.102348 -0.102538 -0.103048 -0.102327 -0.103107 -0.10299
internal_weight=0 89566.7 88654.8 87721.7 86869.4 79610.1 7259.25 911.964 487.169 852.29 461.023 378.128 978.134 324.59 109.041 933.12 860.831 117.303 72.0788 19.8864 859.909 52.1924 11.8262 9.9631 73.211 53.5374 40.3662 391.267 45.2245 427.595 44.1105 9.37882 16.6979 63.8322 508.679 171.331 170.167 99.0777 256.265 351.23 253.921 41.6643 3.18849 424.796 30.934 433.236 25.3059 393.862 316.136 117.1 5.62812 386.771 108.033 9.06661 312.135 4.00086 7.09087
internal_count=268644 237331 212580 181410 155178 124721 30457 24751 6084 26232 10731 3355 31313 2393 2729 31170 29251 2062 1186 209 29904 977 156 93 1266 962 821 15501 876 10252 860 111 125 1155 20698 4798 4776 2636 5454 9206 5415 837 84 18667 1138 18999 981 17529 14193 4806 157 17277 4487 319 14054 139 252
is_linear=0
shrinkage=0.1


Tree=8
num_leaves=61
num_cat=0
split_feature=32 133 132 30 128 130 71 109 114 32 55 127 120 80 53 128 134 70 56 30 80 45 74 106 71 32 85 107 51 29 4 34 30 29 106 36 26 105 97 74 48 27 13 40 50 0 14 106 123 106 106 55 49 31 114 74 45 38 31 8
split_gain=3755.37 2656.81 2524.9 2876.92 1987.85 1665.96 1611.47 1487.09 1623.07 1565.21 1229.04 1378.4 1126.47 1034.86 2158.27 676.515 1892.11 1236.04 666.19 662.973 583.691 568.324 507.091 494.555 481.479 470.405 495.595 430.377 372.852 351.356 363.269 329.369 279.377 276.837 273.891 235.993 460.441 233.528 229.891 385.97 201.183 186.514 184.246 266.361 159.67 130.793 154.663 127.844 103.066 93.0563 89.691 70.0487 63.9683 63.9421 56.4884 53.4578 33.7838 9.97561 1.52741 0.116093
threshold=0.94754454493522655 1.0000000180025095e-35 1.0000000180025095e-35 1.0786512494087221 1.0000000180025095e-35 1.0000000180025095e-35 -0.52421337366104115 -1.1100931763648985 -1.4190165996551511 0.90843772888183605 0.95578968524932872 -1.7945863008499143 -0.96452817320823658 -0.39479801058769221 1.0824193358421328 1.0000000180025095e-35 1.0000000180025095e-35 -0.31083977222442621 1.0238393545150759 1.0888967514038088 -1.2696031332015989 1.0763725042343142 -1.0196462869644163 -0.9338969588279723 -0.51897552609443653 0.96131041646003734 -1.3512240052223203 -0.96407118439674366 1.1189959049224856 1.2419062256813052 0.74787753820419323 0.89575019478797924 1.0550871491432192 1.0640155673027041 -0.87158671021461476 0.88141781091690075 1.3040224909782412 -0.82945397496223439 -0.92861509323120106 -0.95472571253776539 1.2277868390083315 1.2442159652709963 0.86700534820556652 1.0033001899719241 1.0933806896209719 0.38622690737247473 0.95839768648147594 -0.96312865614891041 -1.2904150485992429 -0.84490075707435597 -0.86801606416702259 0.95505616068840038 1.0937857031822207 1.0044618844985964 -0.9044893980026244 -0.46033875644206995 1.0748974084854128 0.97762569785118114 1.0008156895637514 0.44315929710865026
decision_type=2 2 2 2 2 2 2 2 2 2 2 2 2 2 2 2 2 2 2 2 2 2 2 2 2 2 2 2 2 2 2 2 2 2 2 2 2 2 2 2 2 2 2 2 2 2 2 2 2 2 2 2 2 2 2 2 2 2 2 2
left_child=2 10 3 4 5 6 -1 8 28 38 11 27 19 14 -10 16 40 -18 -15 20 -5 45 -21 31 -25 33 -27 51 55 30 -14 -11 -29 -17 42 36 -6 41 39 -9 -12 -13 43 -23 -44 46 56 -40 -39 58 -37 -2 53 -47 -31 -4 -3 -30 -36 -7
right_child=1 21 7 12 35 59 -8 9 13 23 15 37 29 18 -16 25 17 -19 -20 22 -22 34 -24 24 -26 26 -28 32 57 54 -32 -33 -34 -35 49 50 -38 48 47 -41 -42 -43 44 -45 -46 52 -48 -49 -50 -51 -52 -53 -54 -55 -56 -57 -58 -59 -60 -61
leaf_value=0.14273176383090089 -0.16031667773642747 -0.18210635381113088 0.036212310316705638 -0.010720364585384888 0.12760422732805504 -0.10957500702370655 0.10734173158696497 -0.070296661399928462 0.14511393881806889 0.14764748526671365 -0.095631271824658165 -0.092295415210626203 -0.002742108738630802 0.18893196281527688 -0.026772353788351435 0.14509508287979062 0.11272834544069879 -0.00091209499409353938 -0.13006466514680304 0.12773427315145605 0.10649947538960088 0.080439689314934545 0.039763348287979207 0.24555876415089606 -0.097621903399300547 -0.06565180439733824 0.10535113069805652 0.17542469070853228 -0.14687033375302438 -0.11834202532643164 0.087708195681629714 -0.14146499820545624 0.094459459500966292 -0.041459992164568402 -0.15695360428197502 -0.16847190307622975 -0.098437527144924597 0.78249776315705177 0.031625979808960002 0.19819555717919649 0.25940164426216267 0.016308901912485973 0.18169762202840548 0.16364160237968869 0.50740001709235316 0.066285429879254107 0.16769737569489246 -0.096906056957810016 0.11089429850184247 0.32466575304832695 -0.063378780539310939 0.19999708334111377 0.23498591787443429 -0.1342734635446988 0.1851133822706218 0.24635115554350004 0.059681654098874271 -0.11340677391572428 -0.1162120296905364 -0.10373663120495052
leaf_weight=23378.094685100019 55.599566254764795 21.029362097382549 19.980164423584938 449.57090476900339 168.58688435517251 38.686858693137765 28615.459746519104 167.43930122256279 1598.336211822927 663.81807684153318 1806.4738056678325 382.90811838582158 1681.4618789851665 1272.6039994433522 1345.4115545004606 92.87278806604445 1245.4854176994413 4133.8921391759068 69.018037721514702 777.72767644375563 7708.660038581118 474.63340530544519 4160.841473242268 50.779534257948399 209.74493381567299 191.42980433255434 1478.1115544568747 1082.4053895547986 124.96549791097641 218.68449812009931 603.35350487008691 41.891461193561554 702.95862968638539 554.27744835615158 27.118164101615548 146.59155922941864 193.60067618452013 2.350799072533845 82.255669366568327 78.710296530276537 16.10306303948164 269.37633275054395 34.582069247961044 2032.3222812488675 26.651360154151917 18.848013833165169 57.372623585164547 1306.9666053503752 81.667435560375452 4.743877386674284 182.07173100300133 5.9754667282104483 5.8778059631586066 101.51494306139648 6.3114024996757498 30.717691212892532 7.968553662300109 310.24412687122822 13.928158853203056 284.66174574755132
leaf_count=27301 272 99 52 2813 1506 723 43727 1146 2380 1801 66366 4175 5876 1285 6809 809 2003 14585 478 1524 11544 832 11028 128 1252 2961 8183 559 587 989 1182 240 1871 6737 154 713 1101 18 453 301 70 3243 43 1800 22 66 38 10347 352 45 2466 7 20 673 9 15 16 3161 129 9559
internal_value=0 0.0476742 0.102536 0.108511 0.119622 0.121847 0.123254 0.0469273 0.0800903 -0.0138927 0.027286 0.0884593 0.0707737 0.09973 0.066555 0.0106844 -0.00443591 0.025399 0.172522 0.0825347 0.10004 0.134965 0.053617 0.0870168 -0.0307316 0.0576892 0.0857439 0.134581 -0.0931178 0.00940192 0.0211432 0.130486 0.143546 -0.0146874 0.147753 -0.048898 0.00677778 -0.0272327 -0.0735135 0.015558 -0.0924944 -0.0474447 0.152075 0.147889 0.323457 -0.0222612 0.0725622 -0.0892957 0.129686 -0.0946652 -0.110253 -0.125351 -0.0871368 -0.102867 -0.10983 0.163535 -0.115664 -0.123015 -0.143129 -0.104435
internal_weight=0 14928.5 75987.2 68614.4 53007.8 52316.9 51993.6 7372.88 4771.28 2601.61 12101.9 2583.24 15606.6 4285.37 2943.75 9518.65 7201.95 5379.38 1341.62 13096.8 8158.23 2826.59 4938.57 966.234 260.524 2316.69 1669.54 1846.94 485.907 2509.81 2284.82 705.71 1785.36 647.15 2613.98 690.851 362.188 736.303 1635.37 246.15 1822.58 652.284 2568.19 2506.96 61.2334 212.611 86.3705 1389.22 84.0182 45.7902 328.663 61.575 126.241 120.363 224.996 50.6979 28.9979 435.21 41.0463 323.349
internal_count=268644 116148 152496 122061 87096 81310 71028 30435 14767 15668 112211 10497 34965 10952 9189 101714 83024 16588 1763 26909 14357 3937 12552 3421 1380 18690 11144 2709 3815 8056 7058 2041 2430 7546 3025 5786 2607 7788 12247 1447 66436 7418 2697 2632 65 912 153 10800 370 328 3179 279 759 739 998 67 115 3748 283 10282
is_linear=0
shrinkage=0.1


Tree=9
num_leaves=62
num_cat=0
split_feature=129 136 130 131 70 30 106 107 31 31 107 69 118 30 103 78 118 107 106 68 4 87 69 29 31 68 81 120 117 37 88 30 67 69 90 114 108 32 32 70 107 92 37 90 120 108 106 20 126 86 107 107 86 20 54 85 11 30 107 86 107
split_gain=3138.28 3070.06 3053.91 3055.45 2236.42 3035.58 1995.28 3.46464 1.26881 0.70847 1.02363 0.571824 0.186339 0.1109 0.139826 0.10706 0.0898066 0.084726 0.052863 0.0309376 0.083671 0.0248808 0.0377569 0.0246248 0.0180731 0.0145596 0.0141299 0.0133997 0.0106212 0.00868053 0.00859108 0.00493225 0.00485662 0.0127896 0.00363865 0.00351383 0.00263282 0.0025124 0.00235413 0.00224788 0.00213984 0.00184691 0.00160701 0.0013791 0.00060125 0.000545366 0.000396921 0.00031438 0.000252201 0.000141484 0.000119707 8.1708e-05 9.40888e-05 7.60635e-05 6.03489e-05 4.13926e-05 1.95498e-05 1.61917e-05 3.15214e-05 9.63898e-06 5.86518e-06
threshold=1.0000000180025095e-35 1.0000000180025095e-35 1.0000000180025095e-35 1.0000000180025095e-35 -0.3270010352134704 1.0786512494087221 -0.95353102684020985 -0.8749132752418517 1.0008156895637514 1.0008156895637514 -0.8749132752418517 -0.095931090414524064 -1.167027950286865 1.0800309181213381 -0.82759955525398243 -1.0574979186058042 -1.1634971499443052 -0.87044018507003773 -0.86640846729278553 0.076401200145483031 0.34564454853534704 -1.0261971950531004 -0.070619415491819368 1.2419062256813052 1.0012398362159731 -0.042991362512111657 -1.0683073401451109 -1.2999106049537656 -1.1439285874366758 0.90386828780174266 -0.92533862590789784 1.0800309181213381 0.20277528464794162 -0.095931090414524064 -1.0464957952499387 -1.0858789086341856 -0.95885047316551197 0.94754454493522655 0.94754454493522655 -0.31571272015571589 -0.869979828596115 -0.93634819984436024 0.94615289568901073 -1.0464957952499387 -1.1908939480781553 -0.90044179558753956 -0.86640846729278553 1.2581202983856203 -2.0188312530517574 -1.1204559206962583 -0.869979828596115 -0.87044018507003773 -1.1204559206962583 1.2581202983856203 0.98884469270706188 -1.2066506147384641 0.54925915598869335 1.0805044174194338 -0.87129834294319142 -1.1204559206962583 -0.87044018507003773
decision_type=2 2 2 2 2 2 2 2 2 2 2 2 2 2 2 2 2 2 2 2 2 2 2 2 2 2 2 2 2 2 2 2 2 2 2 2 2 2 2 2 2 2 2 2 2 2 2 2 2 2 2 2 2 2 2 2 2 2 2 2 2
left_child=1 2 3 4 5 -1 -6 8 11 10 -5 13 19 14 -2 31 24 25 39 20 -4 35 -23 -15 32 -14 -11 -17 -21 -29 36 41 33 -3 37 -13 -26 -20 46 40 -18 -10 -34 -41 -33 51 57 -19 -36 53 55 52 -40 -48 -52 -47 -51 60 -59 -53 -9
right_child=7 16 12 9 6 -7 -8 38 15 26 -12 21 17 23 -16 27 18 47 34 28 -22 22 -24 -25 30 -27 -28 29 -30 -31 -32 44 42 -35 48 -37 -38 -39 45 43 -42 -43 -44 -45 -46 50 49 -49 -50 56 54 59 -54 -55 -56 -57 -58 58 -60 -61 -62
leaf_value=0.11924499845398713 -0.11660296103935847 -0.10390910510914925 -0.11505314081936618 -0.11219671118358726 0.12144587053799867 0.066845922058914362 0.059326472499224341 -0.10294877783400334 -0.10313622002858057 -0.10234390699364655 -0.10236267666143782 -0.10666708554351066 -0.10469617157004184 -0.12254966467591738 -0.12245700840215455 -0.12005796222940442 -0.10422835389203543 -0.10191458293833427 -0.10263210300515294 -0.10517822544135197 -0.10678716100463717 -0.1154659333035124 -0.10745552264658215 -0.11658825625156009 -0.11195229716216824 -0.10342793647218412 -0.10788125174098072 -0.11541483466314713 -0.11589373297116655 -0.1071713461767895 -0.11814209121220239 -0.10752261827527505 -0.10946066861267215 -0.10907209589530949 -0.10515291363039735 -0.10370691771286066 -0.10797499408374783 -0.10210537038905837 -0.1028637876409752 -0.10323688978773529 -0.10311883945488245 -0.10597303104204617 -0.10543364822888267 -0.10414926094885837 -0.10473644329647924 -0.10215218979711559 -0.10235108996717038 -0.10212517383895162 -0.10341574900933954 -0.10310529999223617 -0.10227830588047311 -0.10200435080437885 -0.10395539101032303 -0.10256713717654825 -0.10191147183714089 -0.10267497100232598 -0.10387375638280005 -0.10374820514777486 -0.10282984446836563 -0.10252091162820204 -0.10312273572339514
leaf_weight=38421.909206692129 161.20410442352295 7.0210581999272135 16.978257346898317 278.68262330442667 6396.7378298584372 15522.485869133845 26977.58113732934 2.6958127301186314 51.251924470067024 336.94239632412791 170.67115063965321 6.1893574856221703 204.07074378058314 93.048565365374088 54.628054164350033 3.6006875112652779 239.35834603570402 261.17611802369356 132.25898260995746 36.795340625569224 43.932952674105763 7.8280189000070122 23.696222942322493 7.4865807667374602 3.0255079679191108 162.68431070446968 4.6721643991768351 3.242745101451872 0.94887174479663272 2.1076400242745876 1.4964085295796374 0.79296552762389083 1.0203718841075886 15.152871133759616 0.86346139758825557 11.388648092746733 3.6994094923138623 287.17378360033035 3.4509956687688823 51.699064288288355 18.743876591324806 2.4025964960455886 34.363739898428321 24.380232945084572 33.314537554979324 12.475416775792835 32.57064638659358 97.297006372362375 26.021033769473433 0.64020630903541931 4.5623020194470874 0.76120752468705177 1.0238675773143771 32.613103602081537 263.54520296491683 1.7238236591219891 0.68557547591626644 1.0325754154473541 0.58577340841293235 0.68747876770794281 6.8963770288974038
leaf_count=38501 1329 198 216 3064 6476 27888 82313 97 1788 15419 7667 117 4895 625 377 28 6194 14193 5365 860 970 81 413 62 38 5357 82 29 16 36 14 14 14 222 19 351 59 14480 129 1722 640 52 721 650 782 608 1454 4806 834 22 212 40 28 1341 14330 69 20 30 23 29 235
internal_value=0 0.086211 0.0880149 0.0898068 0.0915792 0.104167 0.0712327 -0.109353 -0.115109 -0.105852 -0.108462 -0.117804 -0.10362 -0.119362 -0.118085 -0.104924 -0.103355 -0.103065 -0.103056 -0.107697 -0.109091 -0.107764 -0.109445 -0.122106 -0.106903 -0.104134 -0.10242 -0.115342 -0.105448 -0.112168 -0.111289 -0.103861 -0.106277 -0.107437 -0.102344 -0.104749 -0.109764 -0.102271 -0.102084 -0.104007 -0.104148 -0.103263 -0.10555 -0.103529 -0.104801 -0.101953 -0.102573 -0.101972 -0.103472 -0.10248 -0.101933 -0.102902 -0.103114 -0.102459 -0.101918 -0.102216 -0.103503 -0.103123 -0.103416 -0.102249 -0.103074
internal_weight=0 89779.8 88933.6 88109.7 87318.7 53944.4 33374.3 828.133 462.183 790.968 449.354 365.47 823.884 316.367 215.832 96.7131 846.278 725.228 780.499 98.6554 60.9112 49.1022 31.5242 100.535 65.7794 366.755 341.615 8.95107 37.7442 5.35039 8.22133 87.762 57.558 22.1739 446.317 17.578 6.72492 419.433 365.95 334.182 258.102 53.6545 35.3841 76.0793 34.1075 288.23 77.7201 358.473 26.8845 66.5095 282.307 5.92355 4.47486 65.1837 268.108 14.1992 1.32578 11.2105 1.61835 1.44869 9.59219
internal_count=268644 243893 212723 181410 155178 66389 88789 24751 6084 26232 10731 3355 31313 2393 1706 2729 31170 29251 29904 2062 1186 962 494 687 1266 10252 15501 93 876 65 111 2636 1155 420 20698 468 97 19845 18667 9206 6834 1840 735 2372 796 15445 3222 18999 853 2837 15219 226 157 2795 14542 677 42 385 53 69 332
is_linear=0
shrinkage=0.1


Tree=10
num_leaves=60
num_cat=0
split_feature=32 132 29 133 128 131 129 109 113 32 55 87 80 61 28 90 128 22 74 56 104 70 0 85 80 31 52 65 69 53 50 38 100 0 31 97 74 28 107 30 43 28 69 7 71 4 3 118 126 93 28 111 105 134 5 114 24 85 107
split_gain=2679.25 2161.61 2314.61 1961.57 1937.56 1689.28 1603.53 1216.82 1279.61 1214.37 925.311 1118.55 830.151 1712.85 667.371 533.035 788.341 1354.95 527.074 515.532 484.404 467.506 465.729 417.067 403.684 646.966 402.696 393.862 317.315 281.016 257.135 255.546 249.923 247.482 194.212 183.725 264.708 179.439 167.544 162.65 148.983 133.15 192.798 130.024 129.256 124.895 120.528 115.761 345.902 122.709 111.085 83.1479 69.7314 47.099 44.45 34.542 31.6035 6.33123 0.504087
threshold=0.94754454493522655 1.0000000180025095e-35 1.2198258042335512 1.0000000180025095e-35 1.0000000180025095e-35 1.0000000180025095e-35 1.0000000180025095e-35 -1.1100931763648985 -1.3683788776397703 0.90843772888183605 0.95578968524932872 -1.1839553117752073 -0.39479801058769221 0.70848682522773754 1.3774793744087221 -1.0298892259597776 1.0000000180025095e-35 1.2965671420097353 -0.89277696609497059 1.0238393545150759 -0.85539469122886647 -0.17148815840482709 0.30503295361995703 -1.1634145379066465 -0.76955822110176075 0.96654978394508373 0.87600332498550426 0.38615635037422186 -0.018069668672978875 0.88911598920822155 1.091625511646271 0.98051476478576671 -0.82571560144424427 0.38736563920974737 1.0144277811050417 -0.92861509323120106 -0.95472571253776539 1.1017389297485354 -0.83688563108444203 1.0550871491432192 1.049927353858948 1.3927519321441653 -0.49780954420566553 -0.046898178756237023 -0.42045827209949488 0.60589423775672924 0.55145406723022472 -1.3032885193824766 -2.0925377607345577 -0.76094314455986012 1.1195364594459536 -1.1528250575065611 -0.85751163959503163 1.0000000180025095e-35 0.36365956068038946 -1.4190165996551511 1.6912666559219363 -1.1127635240554807 -0.8749132752418517
decision_type=2 2 2 2 2 2 2 2 2 2 2 2 2 2 2 2 2 2 2 2 2 2 2 2 2 2 2 2 2 2 2 2 2 2 2 2 2 2 2 2 2 2 2 2 2 2 2 2 2 2 2 2 2 2 2 2 2 2 2
left_child=1 2 4 10 5 6 -1 8 30 35 11 38 13 -10 23 16 17 -12 31 -14 46 -20 47 26 25 -11 -4 -26 -18 -25 -3 -17 33 44 37 36 -9 -6 45 -22 -35 42 -16 -37 -24 -2 -13 52 49 -49 -50 -34 54 -40 -5 -32 -43 -53 -7
right_child=3 7 14 22 34 58 -8 9 12 24 15 20 19 -15 41 18 28 -19 21 -21 39 -23 32 29 27 -27 -28 -29 -30 -31 55 -33 51 40 -36 43 -38 -39 53 -41 -42 56 -44 -45 -46 -47 -48 48 50 -51 -52 57 -54 -55 -56 -57 -58 -59 -60
leaf_value=0.097934353558278009 0.051553781731543236 0.20409194199291886 0.011818447100156754 0.081513268430754543 0.053361429311797708 -0.10954725924334573 -0.11279253953906523 -0.072371734682306593 0.11161149526552994 -0.1232284979338783 -0.098058384031882107 0.036141990939694835 0.15741536844222112 -0.042239784314833127 0.021400327074203692 0.10370541641517178 0.051828967846871715 0.014126155581472653 -0.010379852561817629 -0.12821394151848872 0.15759338482344634 0.15189627969584177 0.11128337816953426 0.081887960028262499 0.1985349920467547 0.084039004935446068 -0.13343776063731413 -0.14006338265346127 -0.080684744615558274 -0.079708362668852617 -0.12159825697235256 -0.13097288637649832 0.0962371564567997 -0.089174944047116886 0.45415820640764287 0.0010300004967863528 0.13586136956818626 -0.079353532864147494 -0.10371987760588926 0.090495563581244484 0.1811469307227915 -0.048720528751499091 -0.14225477662364452 -0.099480755669699217 -0.16896817504123632 -0.065244920329468353 -0.11131090085356402 -0.10998694345161203 0.35599313155512458 0.19437520402147213 0.12418735223915991 -0.14262321234276029 0.27604094949188185 0.14502635981374953 0.15649068016810597 -0.018729507970662685 -0.17971681375006321 -0.21035839037874055 -0.10223879119448814
leaf_weight=63407.926105121151 109.43801408819854 27.115938559174538 789.54894799925387 85.416841313242912 118.48116098344326 262.59589369595051 363.17559005878866 171.50935390591621 1816.1191389411688 214.59823404252529 1905.3792488966137 150.36638262495399 1321.2922482192516 1202.9425774291158 141.10416789166629 1099.4458473417908 1934.5990445297211 2475.1703137438744 1626.995822345838 66.36403376609087 1054.876189686358 199.27688675932586 407.92526010796428 1003.1422911863774 281.22753819823265 504.96655145846307 251.70031361654401 39.134321838617325 199.32256327196956 120.5457235313952 402.08354993164539 48.445213731378317 12.662443488836287 131.72996694594622 7.3890367895364752 143.70203429274261 94.785671975463629 726.95850488729775 8.6612759754061681 549.44818517938256 24.121208105236292 20.409375408664346 146.95589040964842 1233.2945635970682 17.148950127884746 560.17936655879021 87.805764490738511 87.46440764516592 21.187770687043667 15.610427677631376 851.23859419673681 21.62004829198122 46.336875021457672 62.833688735961914 1064.1164329797029 35.526421763002872 188.65349611639977 38.147975951433182 147.31901023350656
leaf_count=90660 683 14 1831 142 1508 4521 6365 1146 2696 1214 54267 508 1308 6449 338 1694 15045 18282 8513 478 451 1126 643 1510 205 1753 1209 249 2406 516 3613 381 12 808 29 1087 301 5094 326 1024 49 91 638 9713 95 6668 823 363 17 15 1034 158 34 14 404 209 849 163 6902
internal_value=0 0.0840409 0.0897028 0.0376236 0.0934439 0.0954336 0.0967343 0.033306 0.0630915 -0.0207703 0.0200708 0.0731273 0.0797352 0.0503096 -0.00169131 0.00562432 -0.0103904 -0.03467 0.0407022 0.143755 0.114858 0.00732719 0.11264 0.0223017 0.0637973 0.0222249 -0.0232942 0.157173 0.0394513 0.0645524 -0.0947309 0.0938011 0.0386167 0.0604555 -0.0562934 -0.0742874 0.00174724 -0.0607547 -0.0306198 0.134614 -0.047337 -0.106179 -0.0620895 -0.0889916 0.0999771 -0.0461561 -0.0182187 0.134914 0.109349 -0.0638921 0.129817 -0.13654 0.155768 0.114892 0.150919 -0.113247 -0.166929 -0.185856 -0.106921
internal_weight=0 75250.6 67695.9 14897 65033.8 64181 63771.1 7554.66 4871.44 2683.22 12072.2 2583.61 4406.72 3019.06 2662.06 9488.63 6514.47 4380.55 2974.16 1387.66 1842.5 1826.27 2824.73 2164.94 1039.93 719.565 1041.25 320.362 2133.92 1123.69 464.726 1147.89 653.356 580.925 852.829 1643.29 266.295 845.44 741.112 1604.32 155.851 497.123 288.06 1377 425.074 669.617 238.172 2171.37 975.501 103.075 872.426 72.4305 1195.87 71.495 1149.53 437.61 209.063 59.768 409.915
internal_count=268644 152496 122061 116148 115079 108448 97025 30435 14767 15668 112211 10497 10931 9145 6982 101714 90000 72549 11714 1786 2806 9639 3937 5066 3421 2967 3040 454 17451 2026 3836 2075 1928 1595 6631 12247 1447 6602 7691 1475 857 1916 976 10800 738 7351 1331 2009 1429 378 1051 333 580 340 546 3822 940 321 11423
is_linear=0
shrinkage=0.1


Tree=11
num_leaves=59
num_cat=0
split_feature=136 130 129 131 71 30 41 107 31 31 107 69 118 107 106 78 118 68 8 69 31 110 69 81 31 117 54 74 32 32 104 69 55 90 95 82 107 32 107 107 31 32 66 82 70 90 99 90 31 86 22 106 106 70 70 30 65 54
split_gain=2351.54 2328.61 2295.8 2148.89 1873.92 2722.81 1882.02 1.89059 0.670707 0.382114 0.5511 0.292636 0.1607 0.0792327 0.0769707 0.0717063 0.0295795 0.0253612 0.0785737 0.033728 0.0192883 0.0184925 0.0163001 0.0105419 0.00876011 0.00808284 0.00693572 0.00576407 0.00506868 0.00499661 0.00445019 0.00401971 0.00880751 0.00320866 0.00264239 0.00248272 0.00203336 0.00135794 0.00112634 0.00108894 0.00103681 0.000973802 0.000918241 0.000746259 0.000498583 0.000844885 0.000440596 0.000405132 0.000372402 0.000303261 0.000250502 0.000208633 0.000158233 0.000147596 0.000126773 6.40519e-05 4.81776e-05 5.83205e-06
threshold=1.0000000180025095e-35 1.0000000180025095e-35 1.0000000180025095e-35 1.0000000180025095e-35 -0.47542673349380488 1.0786512494087221 0.9904688596725465 -0.8749132752418517 1.0008156895637514 1.0008156895637514 -0.8749132752418517 -0.092652268707752214 -1.167027950286865 -0.87044018507003773 -0.86640846729278553 -1.0574979186058042 -1.1634971499443052 0.076401200145483031 0.44315929710865026 -0.095931090414524064 1.001663386821747 -0.98556765913963307 -0.17930223792791364 -1.0683073401451109 1.0012398362159731 -1.1439285874366758 1.0535768866539004 -0.82786110043525685 0.94754454493522655 0.94754454493522655 -0.78106221556663502 -0.095931090414524064 1.0033133029937746 -1.0464957952499387 -0.81326490640640248 -1.0618020892143247 -0.869979828596115 0.94754454493522655 -0.869979828596115 -0.8749132752418517 1.0008156895637514 0.94754454493522655 0.31037925183773046 -1.2173773646354673 -0.31571272015571589 -1.0464957952499387 -0.76436942815780629 -0.94711333513259877 0.98098883032798778 -1.1204559206962583 1.2965671420097353 -0.86640846729278553 -0.86640846729278553 -0.32810184359550471 -0.32810184359550471 1.0805044174194338 0.2290482893586159 1.0150507688522341
decision_type=2 2 2 2 2 2 2 2 2 2 2 2 2 2 2 2 2 2 2 2 2 2 2 2 2 2 2 2 2 2 2 2 2 2 2 2 2 2 2 2 2 2 2 2 2 2 2 2 2 2 2 2 2 2 2 2 2 2
left_child=1 2 3 4 5 -1 -6 8 11 10 -5 -4 17 22 16 -10 24 18 19 -3 -20 30 35 -11 31 26 -19 47 38 36 42 56 -33 39 -24 -14 40 52 54 -30 -18 51 46 -43 55 -46 -16 -26 -44 -35 -39 -9 -15 -40 -23 -31 -2 -38
right_child=14 12 7 9 6 -7 -8 41 15 23 -12 -13 13 37 21 -17 29 25 20 -21 -22 28 34 -25 27 -27 -28 -29 33 44 -32 32 -34 49 -36 -37 57 50 53 -41 -42 43 48 -45 45 -47 -48 -49 -50 -51 -52 -53 -54 -55 -56 -57 -58 -59
leaf_value=0.10124463378621695 -0.10427709026240504 -0.1038959080214481 -0.11550897681353996 -0.10984432473746442 -0.054000897505767136 0.051622219381301883 0.061685999837483962 -0.10251635578171384 -0.10325878980632218 -0.10198490204643747 -0.10192773047309721 -0.10648808236291503 -0.10450875374455303 -0.10247525411069072 -0.10553438807841223 -0.11321944306140107 -0.1040765697105589 -0.11077258667209458 -0.10513179725737398 -0.11639869275429574 -0.11027327552700597 -0.10352303367745833 -0.1031225497630594 -0.10702552288860473 -0.10678297369055251 -0.11459495368016069 -0.104673495088333 -0.11440702937510733 -0.10215894215198372 -0.10356333151483627 -0.11257678464770854 -0.11696684824610395 -0.10624488123103326 -0.10273807099775445 -0.10845020964373819 -0.10803699936506045 -0.10311199371737519 -0.10156626223842624 -0.10258096791402496 -0.1016564365085892 -0.10459932004847761 -0.10160410110235917 -0.10666505494548768 -0.10268312041691299 -0.10274922070084816 -0.10358165672122926 -0.10809118206806974 -0.10897186236562142 -0.10473344721993161 -0.10349743302699146 -0.10188120979483538 -0.10199979486253558 -0.10201127194113313 -0.10233045464967011 -0.10304124169834084 -0.10416442961718481 -0.10368105343213095 -0.1027877673263316
leaf_weight=38152.873966155574 1.8561177272349585 2.5541434716433313 272.3504224345088 235.04937690496445 1472.9865690786391 15570.231497013941 31029.200427377596 9.1387159023433906 75.156412983313203 287.3554890723899 140.49248135555536 41.431244503706694 196.20614203624427 7.9059819299727669 1.1167542934417727 7.9963621627539387 182.23291073553264 1.9735302552580822 32.230353787541389 13.898382939398287 9.4317860249429923 11.307821327820422 146.59136552549899 4.20985198393464 1.9048423152416947 0.9021056592464437 33.747325776144862 2.1016108803451052 56.123202346265316 15.215276602655651 0.96769207715988059 0.7830553837120523 35.452562609687448 14.042119497433307 0.93689495883881946 2.0148727353662244 18.164549592882398 175.70973454322666 78.287831882014871 186.19172627013177 47.917554244399071 234.44148596934974 1.1543771810829619 6.5897624269127837 37.785195617005229 18.001254994422197 1.699911668896674 1.5205482691526411 7.3726914990693331 8.4083951413631421 29.493268999271095 54.134272722527385 104.53985249623656 33.617946384474635 10.563248194754122 2.0065005812793961 5.0343147963285446 0.57226303778588672
leaf_count=42372 49 84 2429 3064 5153 27870 79783 385 2636 15419 7667 926 4868 339 25 93 4879 23 821 125 156 345 5323 82 35 16 837 24 2771 460 13 8 695 552 22 39 621 11585 3197 11709 1151 15167 20 278 1472 548 25 22 172 263 1635 2837 5440 1512 378 53 149 22
internal_value=0 0.0710484 0.0725587 0.0740131 0.0753963 0.0868629 0.0564431 -0.107655 -0.112202 -0.104774 -0.106883 -0.114318 -0.103455 -0.102905 -0.103193 -0.104217 -0.104238 -0.107308 -0.108606 -0.114458 -0.106296 -0.10225 -0.103952 -0.102058 -0.106536 -0.105247 -0.10501 -0.110284 -0.102132 -0.10389 -0.106067 -0.106056 -0.106477 -0.101879 -0.103156 -0.104545 -0.104104 -0.101765 -0.102634 -0.101773 -0.104185 -0.101725 -0.105512 -0.101634 -0.103163 -0.103018 -0.107077 -0.107755 -0.104995 -0.103022 -0.101612 -0.102074 -0.102044 -0.102506 -0.10329 -0.103633 -0.103842 -0.103102
internal_weight=0 88351.8 87593.6 86892.4 86225.3 53723.1 32502.2 701.239 396.934 667.107 375.542 313.782 758.136 663.398 781.402 83.1528 370.549 94.7376 58.1147 16.4525 41.6621 410.854 345.749 291.565 48.6531 36.623 35.7209 5.527 398.542 321.896 12.3114 43.1261 36.2356 264.765 147.528 198.221 248.887 317.649 133.777 242.315 230.15 304.304 11.3437 241.031 73.0082 55.7865 2.81667 3.42539 8.52707 22.4505 205.203 63.273 112.446 111.906 21.8711 17.2218 6.89043 18.7368
internal_count=268644 237474 206161 181410 155178 70242 84936 24751 6084 26232 10731 3355 31313 29251 31170 2729 10188 2062 1186 209 977 20982 10252 15501 982 876 860 81 20727 9206 255 901 703 15295 5345 4907 6673 18999 5432 14480 6030 18667 242 15445 2533 2020 50 57 192 815 13220 3222 5779 4709 723 513 198 643
is_linear=0
shrinkage=0.1


Tree=12
num_leaves=63
num_cat=0
split_feature=32 132 30 133 128 136 126 109 114 32 123 53 121 55 79 1 30 73 104 109 128 70 74 0 108 80 31 64 51 39 74 30 57 51 100 38 30 36 9 7 73 115 28 24 71 31 25 117 126 92 4 127 111 107 74 34 70 38 85 108 80 107
split_gain=2102.72 1859.52 2118.56 1588.31 1585.41 1218.08 1187.5 1019.34 1071.1 1061.27 789.359 1394.85 757.765 716.988 927.197 478.415 506.804 454.004 447.127 446.293 586.436 969.019 480.923 398.439 392.318 372.186 550.453 388.714 303.787 293.403 292.173 279.028 275.524 254.071 203.704 193.66 176.574 174.599 278.847 157.01 542.249 168.057 144.057 289.518 132.343 127.022 124.94 120.738 284.399 116.919 102.404 94.1963 68.408 41.4012 34.5826 33.2495 29.6591 7.27183 4.2036 3.29791 2.54393 0.0185141
threshold=0.94754454493522655 1.0000000180025095e-35 1.0848944187164309 1.0000000180025095e-35 1.0000000180025095e-35 1.0000000180025095e-35 -2.2369991540908809 -1.1120256781578062 -1.4190165996551511 0.90608078241348278 -2.1967091560363765 1.0842046737670901 -1.1030034422874448 0.95578968524932872 -1.2510069012641905 0.60637637972831737 1.1061689853668215 -0.78752902150154103 -0.85539469122886647 -0.95027622580528248 1.0000000180025095e-35 -0.31083977222442621 -0.89277696609497059 0.30503295361995703 -0.91929775476455677 -0.76955822110176075 0.96654978394508373 0.47403740882873541 0.96310517191886913 0.97174280881881725 -0.98346072435379017 1.0923686623573305 0.98385637998580944 1.1189959049224856 -0.82571560144424427 0.91488119959831249 1.0550871491432192 0.90145471692085277 0.69949805736541759 -0.046898178756237023 -0.37062071263790125 -1.0354469418525694 1.1017389297485354 1.232835650444031 -0.45611603558063502 1.0010268092155459 1.4468773603439333 -1.2731782197952268 -2.0925377607345577 -0.77843078970909108 0.61499527096748363 -2.1189125776290889 -1.1528250575065611 -0.95975932478904713 -0.46033875644206995 0.94523444771766674 -0.214822843670845 0.97762569785118114 -1.1127635240554807 -0.89841389656066883 -1.0695696473121641 -0.869979828596115
decision_type=2 2 2 2 2 2 2 2 2 2 2 2 2 2 2 2 2 2 2 2 2 2 2 2 2 2 2 2 2 2 2 2 2 2 2 2 2 2 2 2 2 2 2 2 2 2 2 2 2 2 2 2 2 2 2 2 2 2 2 2 2 2
left_child=1 2 4 13 5 6 -1 8 33 39 32 -12 17 14 37 28 -17 31 50 22 21 -21 29 47 -24 26 -11 -27 -14 -15 -22 -4 -10 54 35 60 -20 38 -2 40 -9 -41 43 -6 -37 -44 -19 53 49 -49 -16 -50 -36 56 -3 -55 -5 -35 -54 -39 -25 -7
right_child=3 7 12 23 42 61 -8 9 10 25 11 -13 15 19 18 16 -18 46 36 20 30 -23 24 34 -26 27 -28 -29 -30 -31 -32 -33 -34 57 52 44 -38 59 -40 41 -42 -43 45 -45 -46 -47 -48 48 51 -51 -52 -53 58 55 -56 -57 -58 -59 -60 -61 -62 -63
leaf_value=0.043430247525252208 0.28270027152445593 0.0080660502887273493 0.098279774963816846 0.13815228959667353 -0.11522189713343188 -0.10388617170400712 0.0911122974176789 0.37177994606277842 0.14166936641404096 -0.12104442829767069 0.099624178962403095 -0.03943349186680023 0.035545108856140852 -0.13394506400378706 0.0061737134191317327 0.032279473673836649 -0.12517004399975937 -0.016491855416692968 0.14264388618458826 0.043432905132605525 -0.11087488924438615 -0.060030422688271412 -0.0050887007161369031 -0.11648418553874103 0.27977271371073703 0.15871279325075316 0.060818714648777632 -0.138309762970803 -0.074062382945690411 0.11287909799273038 0.036467555758349222 0.043250304392744618 -0.13387931420238755 -0.14175996027771384 0.083243503081550929 0.10732377694301674 0.073052562176482122 -0.15235517000015922 -0.028590813012768418 -0.09912621207020661 -0.071326061994244183 -0.0098918611516788293 -0.094195182546000344 0.18687846826181953 0.0048506998312951239 0.043109829383017773 -0.16664807501256065 -0.13862508057462497 0.082306815258311614 0.16264811191113557 -0.15388540482727905 0.15262978269900582 -0.13994189470798618 0.13940166448698527 0.17509283963961442 0.31643058885644748 0.056578406337452126 -0.11218999899782656 -0.19584141513155306 -0.12142667600173221 -0.16207005004870056 -0.10233950801965902
leaf_weight=5841.8067302256823 30.473669027909636 19.850799337029457 2138.7884173095226 1131.8072382509708 62.371652398258448 223.12152840942144 49313.273675585166 34.359319694340229 1240.3801287263632 234.60813165456057 1667.2427518218756 1271.4240369051695 344.37240514159203 51.241692200303078 208.71627885662019 4078.1668412610888 215.22530471533537 230.33487988263369 1008.1122668776661 1227.3202674593776 143.03416978381574 3449.3832328720018 1475.4095889590681 35.139261482283473 49.985067863017321 373.77856471389532 572.69840419664979 49.948621071875095 951.61703935079277 800.87159596197307 2277.2278593126684 1618.8353104684502 37.381529457867146 117.75033175200224 12.303370878100393 317.2193577606231 571.17296294681728 52.333988323807716 516.58469641953707 1274.7554648183286 140.75010077655315 252.93010344356298 573.03418566100299 64.557493332773447 209.11362526193261 76.353793127462268 72.967876430600882 69.900323640555143 513.42312147840858 15.791586279869078 49.440476763993502 302.81900718435645 20.827930875122547 19.616110011935234 33.009133383631706 23.107312068343163 46.398500218987465 283.14934115111828 37.989809863269329 101.03740289621055 18.786654099822044 118.49812622182071
leaf_count=10167 103 52 3059 453 1156 6434 70497 122 1112 1412 2368 6363 713 615 981 9052 1041 629 431 12104 3167 62283 7183 299 89 311 1896 336 5283 1518 14755 3416 244 581 12 561 1061 295 5808 10082 992 1412 4076 352 651 558 277 334 707 16 637 325 158 31 15 17 126 3137 163 1181 84 5351
internal_value=0 0.0700861 0.0754871 0.0287578 0.0829108 0.084896 0.086062 0.0232614 0.0522808 -0.0229328 0.0679913 0.0394604 0.0321979 0.0130074 0.060212 0.00831273 0.0243866 0.0650729 0.0975307 0.000362956 -0.012199 -0.0328783 0.0378609 0.0969563 0.00424581 0.0478036 0.00796819 0.1237 -0.0449373 0.0980364 0.0277598 0.0745723 0.133608 -0.0937039 0.0285411 0.0481192 0.117475 -0.0376864 -0.0112505 -0.0740716 0.0156186 -0.0843522 -0.0590063 0.0384295 0.0666109 -0.0780511 -0.0526161 0.117949 0.0902017 -0.0831055 -0.0244798 0.108396 -0.131192 0.138446 0.112368 0.235149 0.13494 -0.120875 -0.176047 -0.13198 -0.132365 -0.10335
internal_weight=0 73527.3 65923.3 14786.6 56273 55496.7 55155.1 7604.02 4670.19 2933.83 4216.43 2938.67 9650.31 12012.3 2537.87 5589.38 4293.39 4060.93 1837.44 9474.47 7096.97 4676.7 2377.51 2774.24 1525.39 1231.03 807.307 423.727 1295.99 852.113 2420.26 3757.62 1277.76 453.76 651.38 580.259 1579.29 700.43 547.058 1702.79 175.109 1527.69 776.317 126.929 526.333 649.388 303.303 2122.86 901.934 85.6919 258.157 816.242 71.1211 1220.93 52.8599 42.7234 1178.21 400.9 58.8177 153.371 53.9259 341.62
internal_count=268644 152496 122061 116148 98591 92449 80664 30435 13872 16563 10087 8731 23470 112211 10497 16089 10093 7381 3110 101714 92309 74387 9405 3937 7272 3955 3308 647 5996 2133 17922 6475 1356 3785 1928 1595 1492 7387 5911 12608 1114 11494 6142 1508 1212 4634 906 2009 1382 350 1618 1032 333 627 67 48 579 3718 321 1476 383 11785
is_linear=0
shrinkage=0.1


Tree=13
num_leaves=62
num_cat=0
split_feature=31 132 29 108 105 127 112 30 109 32 39 50 28 131 127 114 32 73 98 98 74 31 104 0 70 72 89 6 34 80 93 117 73 4 70 74 124 92 127 76 20 52 106 114 7 4 37 29 31 59 0 107 38 107 31 107 81 26 118 32 30
split_gain=1920.67 1706.66 1828.3 1334.64 1222.57 1150.86 1380.99 1038.39 830.148 917.994 900.49 682.178 584.981 560.676 551.837 951.493 469.661 518.974 542.875 406.464 434.503 425.613 550.968 491.305 472.144 457.652 358.708 385.322 313.09 317.791 272.282 245.601 244.027 243.01 348.044 238.396 542.635 314.791 204.817 366.604 208.959 196.063 146.59 142.608 134.041 124.999 157.004 111.723 98.1475 90.1078 57.7942 34.8346 27.8009 1.72124 0.195811 0.0286215 0.00731182 0.00430612 0.00196909 0.000175885 6.36857e-06
threshold=0.99574574828147899 1.0000000180025095e-35 1.2198258042335512 -0.87435314059257496 -0.85301733016967762 -2.5064948797225948 -1.1698768138885496 1.0777901411056521 -1.1120256781578062 0.90843772888183605 1.0264305472373965 1.1474292278289797 1.3774793744087221 1.0000000180025095e-35 -3.30491030216217 -1.3992301821708677 0.92679744958877575 -0.86410024762153614 -0.93821766972541798 -0.86111098527908314 -0.93953827023506153 1.003643870353699 -0.80912008881568898 0.34642143547534948 -0.26920013129711146 -0.56765711307525624 -1.1103602051734922 0.78673279285430919 0.89575019478797924 -0.78370159864425648 -1.1116583943367002 -1.5569702982902525 -0.75050547719001759 0.61740565299987804 -0.3270010352134704 -1.0288320183753965 -1.2965708971023557 -1.1301384568214414 -1.9990426898002622 -1.1771465539932249 1.3443681597709658 0.92294365167617809 -0.83208900690078724 -0.94619545340538014 -0.046898178756237023 0.7748907506465913 0.59617558121681224 1.2303250432014468 1.0025212168693545 0.76405462622642528 0.51149877905845653 -0.89894214272499073 0.98651918768882763 -1.0073637366294859 1.0008156895637514 -0.8749132752418517 -1.0683073401451109 1.2637256979942324 -1.2295060157775877 0.94754454493522655 1.0786512494087221
decision_type=2 2 2 2 2 2 2 2 2 2 2 2 2 2 2 2 2 2 2 2 2 2 2 2 2 2 2 2 2 2 2 2 2 2 2 2 2 2 2 2 2 2 2 2 2 2 2 2 2 2 2 2 2 2 2 2 2 2 2 2 2
left_child=1 2 3 5 13 6 -1 -7 10 43 14 -12 26 16 31 -16 35 30 -19 20 33 22 24 51 -21 -24 27 -4 29 -11 -18 -3 -25 34 -6 37 -37 -2 39 -5 -40 -28 -35 44 -10 47 -47 -14 50 -50 -22 -23 -13 -30 55 57 59 -15 -58 -56 -57
right_child=4 8 12 38 19 7 -8 -9 9 28 11 52 45 54 15 -17 17 18 -20 21 48 23 25 32 -26 -27 41 -29 53 -31 -32 -33 -34 42 -36 36 -38 -39 40 -41 -42 -43 -44 -45 -46 46 -48 -49 49 -51 -52 -53 -54 -55 56 60 58 -59 -60 -61 -62
leaf_value=-0.018366437934924151 -0.087716231973160294 -0.1171468313081932 -0.13699307492133159 0.79103732770875013 0.073818634997385876 0.090473164892062127 0.097219525110120233 0.054337743410603101 0.012668910086457652 0.021507375242472818 0.17010918017502674 0.037833633314333259 0.022100419574328983 -0.10740632881839492 -0.06290863537797696 0.073394766771659223 -0.069289408362692415 -0.062853831393702861 0.054793080435529454 0.00079111211235544316 -0.13569833461512082 -0.017742740905356932 0.10129617267819241 0.14600361598482445 -0.11567617580471093 -0.035688454805055857 0.070655880272505189 0.005428603973393324 -0.19816481782131903 0.1358679901768565 0.12208078627460039 0.14142365631517462 -0.088218719455707834 -0.098631062636673206 -0.017126511248792591 0.026390226477824293 -0.09764064141760434 0.16819161160059726 -0.063557005339575839 0.051365902072460105 0.022394872541648785 -0.15733461408968863 0.038923109001648498 0.31837730672265585 -0.078847442548588109 -0.17495947960360894 0.05910643723806909 -0.15751448399317972 0.023479913573216004 -0.08585346492483098 0.19806449723425018 -0.1327594865378332 -0.11584463951070822 -0.13173124133708214 -0.10209849130581135 -0.1020680616061011 -0.10959624097905532 -0.10955791036082044 -0.10478455549311375 -0.10188519818389151 -0.10177904474100011
leaf_weight=2522.4159421976656 65.645326778292656 38.260656200349331 237.22481745295227 6.9640629496425381 571.16652654763311 39016.017988979816 1751.3568141832948 9988.1452750582248 178.77494930848479 648.46235990338027 102.75636759400368 12.055451087653635 38.780235029757023 11.52878006454557 652.42882789671421 2381.8495462909341 78.322003380395472 406.89048330020159 10884.383967759088 1287.6552691087127 355.54694898799062 39.199413766153157 782.167271935381 551.31299893185496 477.01260511577129 354.39272001199424 861.78508181683719 953.52564353309572 4.0967053100466719 388.60786569863558 1465.4033269127831 920.78568231314421 48.385532877407968 390.50147758983076 1598.3937173290178 1382.659713216126 473.54176250565797 179.51645605824888 812.78039215411991 177.18172746896744 433.81255178432912 39.445564031600952 96.649092391133308 9.5436880458146316 1527.5456905253232 44.050599360838532 82.007100163027644 323.63515023514628 99.532427104189992 310.64370447117835 5.2649282217025748 80.220667920075357 499.89401146769524 81.227896682918072 60.139171439222991 5.3557058516889802 1.2672599926590922 48.156433783471584 2.586113052442669 108.25276493001729 0.88897356949746598
leaf_count=6391 306 183 947 15 3600 51528 2203 15448 1114 2454 24 68 64 192 3149 5009 1203 4260 23836 3863 4687 255 6565 1768 5040 5176 1239 2235 19 422 2143 645 645 6614 28628 2869 2283 130 24133 2669 4761 253 2002 37 11933 211 192 1439 491 6427 2 1444 4794 533 3038 271 16 609 66 6051 52
internal_value=0 0.0664745 0.0723283 0.076208 0.0324013 0.0787676 0.0289997 0.083108 0.0214376 -0.0211065 0.0476422 -0.0650297 -0.00992767 0.0483864 0.0649861 0.0440869 0.0508137 0.0579887 0.0505536 -0.00201487 -0.0266952 0.0213521 0.00428181 0.090221 -0.0306915 0.0585828 0.0130796 -0.0229451 0.0492109 0.0643602 0.112371 0.131108 0.127106 -0.00751526 0.00681605 0.00698917 -0.0052517 0.0996689 -0.019104 0.0793389 -0.0336459 0.0606771 -0.0713408 -0.067103 -0.0692591 -0.108461 -0.0226874 -0.138295 -0.0927863 -0.0593229 -0.130828 -0.0950055 -0.112226 -0.134921 -0.103834 -0.108468 -0.10206 -0.109142 -0.106367 -0.101961 -0.102027
internal_weight=0 64735.4 57289.1 54708.7 22222.6 53277.9 4273.77 49004.2 7446.29 2838.26 4608.03 614.706 2580.45 15174.5 3993.32 3034.28 14936.4 12835 11291.3 7048.05 3427.7 3620.35 2901.23 719.119 1764.67 1136.56 2091.98 1190.75 1122.39 1037.07 1543.73 959.046 599.699 2656.71 2169.56 2101.36 1856.2 245.162 1430.74 184.146 1246.59 901.231 487.151 1715.86 1706.32 488.473 126.058 362.415 770.988 410.176 360.812 119.42 511.949 85.3246 238.175 65.9299 172.245 59.6852 3.85337 168.392 6.24468
internal_count=268644 144112 113728 107148 124532 75570 8594 66976 30384 16512 13872 4886 6580 47325 8986 8158 37030 31442 28096 77207 52451 24756 20644 4112 8903 11741 4674 3182 3428 2876 3346 828 2413 40844 32228 5588 5152 436 31578 2684 28894 1492 8616 13084 13047 1906 403 1503 11607 6918 4689 1699 4862 552 10295 1124 9171 801 82 9089 323
is_linear=0
shrinkage=0.1


Tree=14
num_leaves=59
num_cat=0
split_feature=130 129 136 131 71 30 47 107 31 31 107 69 118 107 78 118 106 104 68 8 69 69 31 116 69 117 118 31 58 106 54 81 89 80 70 69 32 32 82 69 30 32 106 30 95 82 122 21 106 107 108 22 109 107 20 92 70 85
split_gain=1772.65 1733.3 1678.44 1593.66 1447.56 2696.62 1907.22 1.8104 0.650634 0.374758 0.512398 0.283888 0.171466 0.0852196 0.0630286 0.056992 0.0390007 0.0386402 0.0246733 0.0895057 0.0383486 0.0186231 0.0151358 0.0261459 0.0113646 0.0110341 0.00856896 0.00829374 0.00770373 0.00718791 0.00672607 0.00564793 0.00484617 0.00337545 0.00283903 0.00274505 0.00244492 0.00243974 0.0024073 0.00216362 0.00214784 0.00183452 0.0017877 0.00166153 0.00153692 0.000812358 0.000327378 0.000254806 0.000251215 0.00022259 0.000191675 0.000134612 0.000130414 0.000103185 8.6428e-05 3.93438e-05 1.1662e-05 6.81473e-06
threshold=1.0000000180025095e-35 1.0000000180025095e-35 1.0000000180025095e-35 1.0000000180025095e-35 -0.50001549720764149 1.0744810104370119 1.0525540113449099 -0.8749132752418517 1.0008156895637514 1.0008156895637514 -0.8749132752418517 -0.082400366663932786 -1.167027950286865 -0.87044018507003773 -1.0574979186058042 -1.1634971499443052 -0.86640846729278553 -0.83979448676109303 0.076401200145483031 0.44315929710865026 -0.095931090414524064 -0.17571254819631574 1.001663386821747 -1.1819851398468015 -0.095931090414524064 -1.1439285874366758 -1.2295060157775877 1.0012398362159731 0.88221797347068798 -0.86517098546028126 1.0535768866539004 -1.0683073401451109 -0.90274298191070546 -1.1984713077545164 -0.31571272015571589 -0.095931090414524064 0.94754454493522655 0.94754454493522655 -1.0618020892143247 -0.16117163747549054 1.0800309181213381 0.94754454493522655 -0.86640846729278553 1.0876907110214236 -0.81326490640640248 -1.2173773646354673 -1.4966166615486143 1.2817720174789431 -0.86640846729278553 -0.86104050278663624 -0.90630382299423207 1.2965671420097353 -0.92568102478981007 -0.869979828596115 1.3443681597709658 -0.9802802801132201 -0.32483416795730585 -1.3112359642982481
decision_type=2 2 2 2 2 2 2 2 2 2 2 2 2 2 2 2 2 2 2 2 2 2 2 2 2 2 2 2 2 2 2 2 2 2 2 2 2 2 2 2 2 2 2 2 2 2 2 2 2 2 2 2 2 2 2 2 2 2
left_child=1 2 3 4 5 -1 -6 8 11 10 -5 17 18 21 40 27 34 -3 19 20 46 38 24 -24 -21 30 -16 35 -13 -22 -20 -11 -29 39 -17 -4 -18 49 43 -23 -10 48 -32 -14 -35 51 -2 55 57 53 -47 -43 -50 -15 -51 -39 -49 -9
right_child=12 7 15 9 6 -7 -8 41 14 31 -12 28 13 37 26 16 36 -19 25 22 29 33 23 -25 -26 -27 -28 32 -30 -31 42 -33 -34 44 -36 -37 -38 47 -40 -41 -42 45 -44 -45 -46 50 -48 56 52 54 -52 -53 -54 -55 -56 -57 -58 -59
leaf_value=0.093458766723670261 -0.10312261394758003 -0.11483534878726774 -0.10338972507890146 -0.10966635090983096 -0.16478891653527472 0.043192618977911469 0.046442585896449146 -0.1022803283827336 -0.10261939079533976 -0.10168569337073846 -0.10182289180039353 -0.10884432892398901 -0.10465273421578064 -0.10296859693841008 -0.11678049927583767 -0.1035345039232229 -0.10215044759641526 -0.11797846367388548 -0.11082854332855091 -0.10353919567330105 -0.11559491775937809 -0.10350462166294877 -0.11742828442041453 -0.10602512317002151 -0.10726444377509448 -0.1161678226205269 -0.10993955845102313 -0.1078653667048914 -0.10515218905702398 -0.12069243921580275 -0.10396113777490951 -0.1057276090968188 -0.11489250592887451 -0.1035634702975526 -0.10275476722220317 -0.10564848044758655 -0.10157086569524186 -0.10133945261223326 -0.10798169197646293 -0.10228539914812942 -0.10376328285277479 -0.10135148482794609 -0.10542704314824246 -0.10383660224608662 -0.10767241237816266 -0.10352336546972039 -0.10578486034431123 -0.10174633945979727 -0.10321276392639843 -0.10187801646825929 -0.10222311248552762 -0.10168253047303777 -0.10192641848874484 -0.10219990726091632 -0.10216460726781587 -0.10158254871732714 -0.10160910806010869 -0.10254674379937966
leaf_weight=23463.937553266063 1.9970912206918003 227.49429905042052 6.1303680036216965 227.64894604869187 432.1268724668771 19577.313316272572 39472.46284696646 1.0905893389135588 42.521776100620627 244.63931786362082 131.3451686128974 7.0465393355116239 173.9996199477464 1.8819863237440611 2.9884741604328156 221.31781089492142 109.07905474305153 47.23354462813586 1.9719630815088738 17.749384999275204 10.340128418058157 19.750763149932027 3.0418087057769299 5.9318666905164701 15.20423671230674 0.93214071542024513 4.727680565789341 5.550928482785821 28.540253303945065 3.77649940177798 14.150776892900462 3.5066764783114186 1.1921621114015568 55.219388408586383 59.182133361697197 43.9778843652457 218.73822818789631 144.7998340735212 2.0476983673870555 55.329349207691848 26.735272968187928 186.90142137371004 20.187237838283185 29.120060601271689 0.92557386308908363 1.4991396404802797 0.6008832566440131 15.346044752746822 0.80038154311478038 70.814412446692586 4.6512347981333724 13.147105281241236 51.562783540226519 24.217912066727877 12.359323973767458 6.9785047220066181 10.381784238852559 8.0262557873502356
leaf_count=23749 69 2072 198 3064 2511 32605 96313 51 1840 15419 7667 116 4214 69 25 6834 5433 439 23 563 93 627 27 129 258 16 68 98 728 32 391 82 13 1742 2372 957 15265 11162 39 2747 796 14346 446 861 22 48 15 923 28 3947 230 821 2809 1164 599 462 673 334
internal_value=0 0.0541737 0.0554339 0.0566935 0.0578751 0.0705952 0.0441552 -0.107875 -0.112246 -0.104731 -0.106797 -0.114287 -0.103501 -0.102895 -0.104016 -0.102787 -0.102504 -0.115376 -0.107438 -0.108716 -0.114904 -0.103975 -0.106249 -0.10989 -0.105258 -0.105425 -0.112589 -0.105815 -0.105883 -0.116959 -0.105149 -0.101743 -0.109108 -0.103045 -0.10337 -0.105372 -0.101764 -0.101629 -0.10457 -0.102606 -0.103061 -0.101551 -0.104823 -0.104536 -0.103631 -0.101408 -0.103738 -0.1014 -0.10203 -0.102001 -0.10254 -0.101373 -0.101946 -0.102255 -0.101921 -0.101351 -0.101691 -0.102515
internal_weight=0 84873.1 84218.1 83553 82945.8 43041.3 39904.6 654.967 387.288 607.14 358.994 310.315 719.056 623.172 76.9732 665.169 608.317 274.728 95.884 58.6419 16.7146 336.392 41.9273 8.97368 32.9536 37.2421 7.71615 56.8513 35.5868 14.1166 36.31 248.146 6.74309 131.225 280.5 50.1083 327.817 286.78 205.167 75.0801 69.257 267.679 34.338 203.12 56.145 206.199 2.59797 177.506 61.48 109.274 6.15037 200.049 52.3632 26.0999 83.1737 151.778 25.7278 9.11685
internal_count=268644 237331 212580 181410 155178 56354 98824 24751 6084 26232 10731 3355 31313 29251 2729 31170 29904 2511 2062 1186 209 10252 977 156 821 876 93 1266 844 125 860 15501 111 5138 9206 1155 20698 18999 5114 3374 2636 18667 837 5075 1764 15445 84 13220 3222 5779 278 15167 2837 1233 4546 11624 1596 385
is_linear=0
shrinkage=0.1


Tree=15
num_leaves=63
num_cat=0
split_feature=31 127 29 107 105 108 109 132 30 112 113 32 80 28 30 71 69 37 72 33 38 31 100 68 32 40 93 74 31 56 117 102 85 6 100 6 41 135 70 50 99 41 97 108 40 53 83 36 91 55 28 69 4 22 134 6 33 69 36 107 106 24
split_gain=1565.13 1465.8 1690.43 1206.32 964.278 910.539 968.626 897.911 978.859 835.129 774.026 716.16 594.882 504.095 425.294 522.973 355.045 367.149 414.528 348.767 344.353 340.53 337.667 401.565 419.894 418.287 388.366 336.895 360.66 329.533 324.43 306.75 280.998 289.217 252.123 244.729 235.904 228.928 221.629 181.237 176.671 241.576 174.663 174.344 151.934 150.026 130.268 123.207 109.62 103.266 100.148 136.979 97.3858 86.3093 83.994 73.1981 44.0135 42.9352 36.4951 29.3906 26.1561 25.866
threshold=0.99574574828147899 -2.4836516380310054 1.2198258042335512 -0.8690691590309142 -0.85301733016967762 -0.97154948115348805 -1.1120256781578062 1.0000000180025095e-35 1.0859783887863161 -1.1698768138885496 -1.3683788776397703 0.90768989920616161 -0.39479801058769221 1.3774793744087221 1.0679385066032412 -0.51504695415496815 -0.20841914415359494 0.86188361048698436 -0.66556438803672779 0.89755386114120495 0.91318735480308544 0.96567252278327953 -0.81720405817031849 -0.0010145039414055643 0.96200126409530651 1.0167854428291323 -0.98458555340766896 -0.89962157607078541 1.003301799297333 1.0238393545150759 -1.2671635150909422 -0.88967567682266224 -1.1634145379066465 0.78673279285430919 -0.79850780963897694 0.55600184202194225 0.97232839465141307 1.0000000180025095e-35 -0.32810184359550471 1.091625511646271 -0.81058824062347401 1.0559327602386477 -0.91191771626472462 -0.93257829546928395 0.99132701754570018 0.89991837739944469 -1.0656428337097166 0.93331462144851696 -1.1862009763717649 0.90851554274559032 1.3927519321441653 -0.49780954420566553 0.49887119233608251 1.3335588574409487 1.0000000180025095e-35 0.42822113633155828 0.9546983838081361 -0.13458165526390073 0.80198985338211071 -0.88256177306175221 -0.78737607598304737 1.6912666559219363
decision_type=2 2 2 2 2 2 2 2 2 2 2 2 2 2 2 2 2 2 2 2 2 2 2 2 2 2 2 2 2 2 2 2 2 2 2 2 2 2 2 2 2 2 2 2 2 2 2 2 2 2 2 2 2 2 2 2 2 2 2 2 2 2
left_child=1 5 3 7 14 6 10 8 -3 11 39 -8 -12 32 15 49 17 18 -16 -11 46 -9 23 26 52 -26 38 28 34 48 37 -19 33 -4 -24 -30 -32 -17 -6 -1 43 -42 -22 -29 -28 -34 -18 55 -5 59 51 -15 -25 -51 -31 58 60 -57 -7 -2 -49 -52
right_child=4 2 13 29 22 47 9 21 -10 19 12 -13 -14 50 16 30 20 31 -20 -21 42 -23 27 24 25 -27 44 40 35 54 36 -33 45 -35 -36 -37 -38 -39 -40 -41 41 -43 -44 -45 -46 -47 -48 56 -50 53 61 -53 -54 -55 -56 57 -58 -59 -60 -61 -62 -63
leaf_value=0.15587428192438488 -0.29923708226415957 0.077377322541691815 -0.13489840026138447 -0.1059319158996926 0.020695237312906026 -0.012799646498881155 -0.085454397153363601 -0.065346925559935473 0.027983453378164498 0.072483990500686393 0.033297832413245201 0.0081907855456348402 0.11187263012998434 0.00063470305801009523 0.01844638859042513 0.11153849598478312 -0.07033276443211918 0.099883128730747436 -0.13373916616833026 -0.089673153753516352 -0.058185700104235738 0.034257456308320763 -0.0070267081724456754 0.032471814591025862 0.058107750152645389 -0.095305519850772166 0.010936331490266358 0.16889305500598406 -0.13311563592358097 -0.10847394486068747 -0.12086752246028649 0.036556717791285907 0.049076837315600572 -0.0040805515296991101 0.08327262284952637 0.1691399460548654 0.037073033972406792 -0.14301092053942865 -0.046553441935505861 -0.105549971906945 0.066166305060495326 -0.05474575428245243 0.034566442380348915 -0.11542445980064434 0.11303843041689576 -0.15351578197874854 -0.21190117154991306 -0.13778361036590811 -0.023334074773471533 -0.12025321759414996 -0.048505389247723608 -0.13783958742012198 -0.10747492915089957 0.12085602703210539 0.12366238086794079 -0.15237344643604589 0.20252285967253722 0.10983681024854662 0.14014547272147052 0.014645546880656966 0.13509913324126643 -0.16835586543366254
leaf_weight=28.452335193753242 7.3675329610705376 41800.206516110338 213.57655139546841 184.43967625405639 838.90875849220902 15.931082405149935 1913.8052192945033 603.11222289130092 4438.1071027060971 1044.2554169464856 3701.4245696254075 1424.5304880701005 1302.6159675642848 146.5162345841527 3026.1916678482667 825.92883831169456 324.31685057468712 1102.0164097929373 190.23199879005551 151.93445795960724 276.50454648304731 796.59717729687691 826.62179998960346 52.386048357002437 454.48713325057179 291.85306043829769 241.59286926500499 23.557695550844073 29.349739098921418 17.056275110691786 96.676609673537314 2500.6143684722483 1032.4987094979733 809.75227900035679 493.97966586612165 306.88681659195572 4337.4171278048307 36.909810364246368 1178.5530870426446 390.25643333047628 318.77619692496955 343.07581575959921 764.01433800067753 255.28988436423242 367.34309631306678 37.894138711504638 81.290738184005022 27.066112166270614 1247.0797931607813 15.021678001619874 19.842534552328289 139.40464846882969 978.681222432293 1274.4999141432345 180.94231814146042 14.059128418564798 5.5848637819290152 11.235132198780773 753.85574602615088 5.0128804380074126 4.0363645553588894 194.70343556441367
leaf_count=20 35 53576 901 8703 8400 41 11406 3715 8162 1168 9954 3352 1501 389 10604 484 2618 4449 727 675 3637 2895 6565 483 7094 6822 577 44 469 600 537 7851 1727 1948 2892 781 12284 134 14674 3849 1014 4095 2281 3474 504 257 342 275 26647 511 94 634 19319 816 65 44 7 10 532 15 1 964
internal_value=0 0.0562342 0.0632108 0.0673536 0.0251598 0.0226986 0.0143023 0.0702477 0.0726363 -0.0198053 0.0428233 -0.0454942 0.0537519 -0.0154674 0.0395725 0.0585033 0.0244584 0.0340029 0.00944553 0.0518875 -0.020548 -0.00866047 -0.00543868 -0.022305 -0.0590121 -0.00188384 0.00253646 0.0231561 0.0502925 -0.0172517 0.0445466 0.0559278 0.00608441 -0.0313832 0.0267504 0.142756 0.0336295 0.10065 -0.0185898 -0.0877855 -0.0246388 0.00349066 0.00991875 -0.0914047 0.0725298 0.0419046 -0.0987055 0.123213 -0.0339761 0.115288 -0.10563 -0.0668803 -0.100365 0.118047 0.103665 0.13148 -0.0559565 -0.0359056 0.13698 -0.172145 -0.10237 -0.157271
internal_weight=0 62650.8 51861.7 49267.5 21865.4 10789 9957.27 47638 46238.3 4534.53 5422.75 3338.34 5004.04 2594.19 14864 6598.83 8265.18 6819.05 3216.42 1196.19 1446.13 1399.71 7001.34 4403.81 1777.41 746.34 2626.4 2597.54 1656.84 1629.52 5296.93 3602.63 2093.72 1023.33 1320.6 336.237 4434.09 862.839 2017.46 418.709 940.7 661.852 1040.52 278.848 608.936 1070.39 405.608 831.768 1431.52 1301.9 500.467 285.921 1031.07 1289.52 197.999 795.081 36.6873 25.2943 769.787 12.3804 31.1025 214.546
internal_count=268644 144112 111277 104363 124532 32835 31925 68348 61738 16601 15324 14758 11455 6914 47325 14816 32509 23631 11331 1843 8878 6610 77207 57873 33718 13916 24155 19334 10707 36015 13439 12300 4833 2849 9457 1250 12821 618 23074 3869 8627 5109 5918 3518 1081 1984 2960 910 35350 1377 2081 1023 19802 1327 665 627 283 54 573 50 276 1058
is_linear=0
shrinkage=0.1


Tree=16
num_leaves=59
num_cat=0
split_feature=130 129 136 131 71 30 106 107 31 31 107 69 118 107 78 106 104 68 4 69 118 69 120 31 113 117 69 118 58 86 106 54 81 32 32 119 30 31 23 30 106 32 71 32 12 108 107 107 20 80 85 107 8 106 21 91 99 70
split_gain=1437.37 1415.37 1347.17 1301.04 1235.43 2000.41 1520.78 1.4876 0.536019 0.332477 0.433785 0.234287 0.145387 0.0748363 0.0514739 0.0483299 0.0394572 0.0207437 0.0754751 0.0405667 0.0198688 0.0154731 0.0148776 0.0114766 0.021432 0.0105071 0.00916092 0.00655615 0.00607999 0.00567027 0.00552015 0.00526199 0.00484941 0.00367445 0.00270488 0.00213245 0.00211408 0.00201253 0.0018249 0.00181165 0.00169615 0.00160443 0.00137625 0.00130721 0.000768533 0.000760681 0.000293662 0.000260745 0.000224955 0.00019175 0.000190642 0.000154437 0.000101487 9.33875e-05 7.133e-05 6.94263e-05 5.74857e-05 2.18795e-05
threshold=1.0000000180025095e-35 1.0000000180025095e-35 1.0000000180025095e-35 1.0000000180025095e-35 -0.47993299365043635 1.0744810104370119 -0.95083600282669056 -0.8749132752418517 1.0008156895637514 1.0008156895637514 -0.8749132752418517 -0.082400366663932786 -1.167027950286865 -0.87044018507003773 -1.0574979186058042 -0.86640846729278553 -0.83979448676109303 0.076401200145483031 0.34564454853534704 -0.095931090414524064 -1.1634971499443052 -0.18311368674039838 -1.2384830713272093 1.001663386821747 -1.1122406125068662 -1.1439285874366758 -0.095931090414524064 -1.2295060157775877 0.88221797347068798 -1.1080029606819151 -0.86517098546028126 1.0535768866539004 -1.0683073401451109 0.94754454493522655 0.94754454493522655 -1.1809818744659422 1.0800309181213381 0.99574574828147899 1.3111811280250552 1.0876907110214236 -0.86640846729278553 0.94754454493522655 -0.40229228138923639 0.94754454493522655 0.70108541846275341 -0.90349605679512013 -0.8690691590309142 -0.85465869307517994 1.2562608122825625 -1.0236707329750059 -1.2052676081657407 -0.869979828596115 0.46528209745883947 -0.86640846729278553 1.2855598330497744 -1.0089205503463743 -0.83511111140251149 -0.32590760290622706
decision_type=2 2 2 2 2 2 2 2 2 2 2 2 2 2 2 2 2 2 2 2 2 2 2 2 2 2 2 2 2 2 2 2 2 2 2 2 2 2 2 2 2 2 2 2 2 2 2 2 2 2 2 2 2 2 2 2 2 2
left_child=1 2 3 4 5 -1 -6 8 11 10 -5 16 17 21 36 20 -3 18 19 49 29 35 42 26 -25 31 -20 -16 -13 -4 -21 -19 -11 44 -22 -14 -10 -24 -35 -37 -33 47 -17 46 -23 52 55 51 56 -2 -47 -15 -45 -48 -49 -9 -43 -50
right_child=12 7 15 9 6 -7 -8 43 14 32 -12 28 13 41 27 22 -18 25 23 30 34 33 37 24 -26 -27 -28 -29 -30 -31 -32 40 -34 38 -36 39 -38 -39 -40 -41 -42 48 -44 45 -46 50 53 54 57 -51 -52 -53 -54 -55 -56 -57 -58 -59
leaf_value=0.075925388030752342 -0.10490531583754284 -0.11389312845799596 -0.1139837359045711 -0.10920626171771385 0.071212922109399238 0.034318273880340283 0.021362933830487513 -0.10230355762598618 -0.10237710834243285 -0.10155612034619002 -0.10158647796554228 -0.10828575918365341 -0.10956373249115151 -0.10286445364759991 -0.1154970648590892 -0.10869024715085603 -0.11714576798971631 -0.11002884614477815 -0.10341099430385914 -0.1151425390547757 -0.1033473218739222 -0.10447373080734459 -0.10195029120256034 -0.11546976940340772 -0.10512458452419449 -0.11584898598643084 -0.10682292939328618 -0.10933637985496963 -0.10488477884684565 -0.10536164400902398 -0.11972416386591118 -0.10365340115620417 -0.1054061932884931 -0.10220457516883517 -0.10257767467003771 -0.10446258917740608 -0.10355525074128824 -0.1013747499047484 -0.103121319471429 -0.10357842180994646 -0.1051346409424579 -0.10112900619744694 -0.10471699283426766 -0.10386314252492182 -0.10346393099865521 -0.10119719522276041 -0.10214721302693158 -0.10151520511142714 -0.10160138803339983 -0.10302501919178478 -0.10161959956492468 -0.10191685530863555 -0.10252096296582783 -0.10166735169467776 -0.10173502136645125 -0.10354490904395344 -0.10126292170836743 -0.10139801304798
leaf_weight=28223.327542194165 0.71396291255950961 215.39463292062283 0.77719031274318595 216.61051737051457 8132.674097603187 19566.334053501487 24725.904862360097 7.1685779169201851 38.308485855348408 224.33377099968493 114.04854376148432 6.5395654700696459 0.78133169375359912 1.8097228035330761 2.8200730979442596 0.93922224268317123 45.105209518224001 1.8407756909728039 16.644628889858723 9.386828500777483 203.66043447330594 9.7747473996132594 87.991526030004025 3.2954207882285118 5.1044201254844648 0.88801539689302345 14.926196368411185 4.4581799004226914 26.790896886959672 41.031238352879882 3.653175882995126 13.052196038886899 3.3199439439922562 54.496552606113255 58.860041001811624 152.4329575356096 25.283132588490844 196.28699913993478 36.096906935796142 27.329053292050958 18.960836917161945 78.996707040816545 12.13983783777803 0.82708104141056482 32.920366831123829 167.76392916310579 4.4850525436922899 29.883509651757777 14.072596590034665 2.2564298547804382 11.411496674641965 34.650296840816736 1.7668213872238991 42.357542326673865 29.1740499176085 0.48075668700039287 53.944767030887306 8.4758682576939446
leaf_count=34005 19 2072 12 3064 9448 33441 78284 333 1840 15419 7667 116 13 69 25 16 439 23 547 84 6673 252 4998 33 123 16 267 68 728 970 32 391 82 2907 2533 3852 796 15668 1314 869 446 7221 300 24 1045 14586 220 2049 922 81 758 1903 77 2654 1758 15 4446 631
internal_value=0 0.0453465 0.0464697 0.0475743 0.0486275 0.0588904 0.0337011 -0.107559 -0.111563 -0.104553 -0.106578 -0.113446 -0.103315 -0.102718 -0.103757 -0.102611 -0.114456 -0.107031 -0.108222 -0.114024 -0.103497 -0.103748 -0.101705 -0.105898 -0.109183 -0.105111 -0.105024 -0.111723 -0.105552 -0.105522 -0.116426 -0.10483 -0.101612 -0.10293 -0.103175 -0.104351 -0.102846 -0.101553 -0.10257 -0.104328 -0.104531 -0.101431 -0.105002 -0.101378 -0.103695 -0.101249 -0.101807 -0.101754 -0.101233 -0.103477 -0.101224 -0.101964 -0.102949 -0.101713 -0.101624 -0.102382 -0.101183 -0.101525
internal_weight=0 82409.2 81808.2 81206.6 80648.2 47789.7 32858.6 600.961 364.7 558.313 330.659 293.83 655.562 564.839 70.8699 601.686 260.5 90.7229 55.9811 16.0104 304.329 313.832 297.358 39.9707 8.39984 34.7418 31.5708 7.27825 33.3305 41.8084 13.04 33.8538 227.654 133.289 262.52 180.543 63.5916 284.279 90.5935 179.762 32.013 251.008 13.0791 236.261 42.6951 181.769 54.4919 95.5176 155.49 2.97039 179.175 36.46 2.5939 46.8426 59.0576 7.64933 132.941 22.5485
internal_count=268644 237331 212580 181410 155178 67446 87732 24751 6084 26232 10731 3355 31313 29251 2729 31170 2511 2062 1186 216 10188 10252 20982 970 156 876 814 93 844 982 116 860 15501 5518 9206 4734 2636 20666 4221 4721 837 18999 316 18667 1297 15445 3222 5779 13220 100 15344 1972 101 2874 3807 348 11667 1553
is_linear=0
shrinkage=0.1


Tree=17
num_leaves=63
num_cat=0
split_feature=31 132 29 128 74 79 36 105 45 109 127 53 27 32 28 135 74 3 71 42 123 73 45 112 105 23 90 78 32 115 54 108 131 123 51 31 81 23 72 72 106 123 104 31 105 102 32 28 68 68 112 100 60 31 30 38 110 31 115 113 109 68
split_gain=1268.93 1248.07 1289.9 1127.39 920.734 1208.21 806.948 722.941 642.36 608.572 578.472 1131.65 562.298 550.576 482.54 350.658 592.171 499.93 543.801 1105.78 472.649 368.761 337.246 332.445 325.417 409.496 360.13 310.599 386.469 325.702 305.345 327.971 292.618 289.985 278.594 271.463 243.247 230.216 226.181 212.533 191.748 178.757 173.684 167.083 162.449 162.194 140.304 100.23 129.094 65.1889 54.9828 52.8915 48.2739 36.5906 24.9833 0.702761 1.77163 0.693683 0.488321 0.213132 0.295723 0.207612
