tree
version=v4
num_class=1
num_tree_per_iteration=1
label_index=0
max_feature_idx=136
objective=binary sigmoid:1
feature_names=Column_0 Column_1 Column_2 Column_3 Column_4 Column_5 Column_6 Column_7 Column_8 Column_9 Column_10 Column_11 Column_12 Column_13 Column_14 Column_15 Column_16 Column_17 Column_18 Column_19 Column_20 Column_21 Column_22 Column_23 Column_24 Column_25 Column_26 Column_27 Column_28 Column_29 Column_30 Column_31 Column_32 Column_33 Column_34 Column_35 Column_36 Column_37 Column_38 Column_39 Column_40 Column_41 Column_42 Column_43 Column_44 Column_45 Column_46 Column_47 Column_48 Column_49 Column_50 Column_51 Column_52 Column_53 Column_54 Column_55 Column_56 Column_57 Column_58 Column_59 Column_60 Column_61 Column_62 Column_63 Column_64 Column_65 Column_66 Column_67 Column_68 Column_69 Column_70 Column_71 Column_72 Column_73 Column_74 Column_75 Column_76 Column_77 Column_78 Column_79 Column_80 Column_81 Column_82 Column_83 Column_84 Column_85 Column_86 Column_87 Column_88 Column_89 Column_90 Column_91 Column_92 Column_93 Column_94 Column_95 Column_96 Column_97 Column_98 Column_99 Column_100 Column_101 Column_102 Column_103 Column_104 Column_105 Column_106 Column_107 Column_108 Column_109 Column_110 Column_111 Column_112 Column_113 Column_114 Column_115 Column_116 Column_117 Column_118 Column_119 Column_120 Column_121 Column_122 Column_123 Column_124 Column_125 Column_126 Column_127 Column_128 Column_129 Column_130 Column_131 Column_132 Column_133 Column_134 Column_135 Column_136
feature_infos=[-1.7391834259033203:2.1873281002044678] [-1.6486232280731201:2.0962586402893066] [-1.5678098201751709:2.0136351585388184] [-1.4949060678482056:1.9394575357437134] [-1.4299124479293823:1.8737261295318604] [-1.3728283643722534:1.8164401054382324] [-1.333403468132019:1.7788288593292236] [-1.3043193817138672:1.7939627170562744] [-1.2702003717422485:2.0758624076843262] [-1.226288914680481:2.0974209308624268] [-1.1696058511734009:2.0165181159973145] [-1.0977727174758911:2.064321756362915] [-1.0288742780685425:2.1106562614440918] [-0.91207128763198853:2.1771299839019775] [-0.8030850887298584:2.2825961112976074] [-0.68971306085586548:2.4052433967590332] [-0.63882678747177124:2.5269482135772705] [-0.65591526031494141:2.5277442932128906] [-0.65910369157791138:2.5302853584289551] [-0.66488730907440186:2.4445860385894775] [-0.8555336594581604:2.3619022369384766] [-0.86833834648132324:2.2948129177093506] [-0.86565589904785156:2.1489822864532471] [-0.70636492967605591:2.1787192821502686] [-0.68053698539733887:2.1696581840515137] [-0.94777458906173706:2.0883691310882568] [-1.274228572845459:1.9448176622390747] [-1.700652003288269:1.7314887046813965] [-1.9454965591430664:1.5598906278610229] [-2.2033448219299316:1.3473584651947021] [-2.6534385681152344:1.1458766460418701] [-2.9375624656677246:1.0691677331924438] [-2.8964071273803711:1.0182701349258423] [-2.6209216117858887:1.0153312683105469] [-1.9672813415527344:1.0222163200378418] [-1.2877312898635864:1.0987448692321777] [-0.66409575939178467:1.3781088590621948] [-0.67049169540405273:1.4172744750976562] [-0.67177027463912964:1.4165236949920654] [-0.67615479230880737:1.3777114152908325] [-0.67391806840896606:1.3165556192398071] [-0.77278417348861694:1.2206546068191528] [-0.78214722871780396:1.2647323608398438] [-0.67822211980819702:1.3808037042617798] [-0.67542338371276855:1.5838102102279663] [-0.67887544631958008:1.7493973970413208] [-0.6766776442527771:1.7343066930770874] [-0.68031680583953857:1.8940913677215576] [-0.67738151550292969:2.0411467552185059] [-0.6802976131439209:2.1347439289093018] [-0.67868822813034058:2.1180493831634521] [-0.68411111831665039:2.1010029315948486] [-0.68785721063613892:2.2836933135986328] [-0.6967010498046875:2.324758768081665] [-0.68777680397033691:2.0119130611419678] [-0.66555494070053101:1.7058380842208862] [-0.63047897815704346:1.5109990835189819] [-0.79989981651306152:1.3603483438491821] [-0.9627259373664856:1.3460699319839478] [-0.83332031965255737:1.3262704610824585] [-0.62303602695465088:1.3006186485290527] [-0.62908732891082764:1.6912268400192261] [-0.65896600484848022:1.8743280172348022] [-0.67422842979431152:1.7138135433197021] [-0.93073725700378418:1.3433690071105957] [-1.1747497320175171:1.0751444101333618] [-1.3727543354034424:0.99085426330566406] [-1.6713657379150391:0.88367986679077148] [-1.8910553455352783:0.75060045719146729] [-2.0949718952178955:0.59843027591705322] [-1.9126988649368286:0.44751104712486267] [-1.7446892261505127:0.31280896067619324] [-1.674402117729187:0.20481951534748077] [-1.5674382448196411:0.12430305778980255] [-1.4517455101013184:0.30397361516952515] [-1.6804615259170532:0.9557119607925415] [-1.8599822521209717:1.4404212236404419] [-2.0371255874633789:1.2026444673538208] [-2.1728529930114746:1.1285310983657837] [-2.2573421001434326:0.92254304885864258] [-2.3058340549468994:0.73609095811843872] [-2.3315773010253906:0.27998179197311401] [-2.3403120040893555:0.3133491575717926] [-2.3343968391418457:0.36315670609474182] [-2.3124566078186035:0.5232703685760498] [-2.2730567455291748:0.45226269960403442] [-2.2140905857086182:0.47906926274299622] [-2.1362462043762207:0.50354379415512085] [-2.0426793098449707:0.67684948444366455] [-1.9374580383300781:0.53568804264068604] [-1.8240519762039185:0.65060514211654663] [-1.8478662967681885:1.0689502954483032] [-1.6520191431045532:1.4172115325927734] [-1.5958865880966187:1.6290324926376343] [-1.5394163131713867:1.6652539968490601] [-1.4922878742218018:1.6182962656021118] [-1.4547033309936523:1.5608183145523071] [-1.4384253025054932:1.5597559213638306] [-1.4264529943466187:1.5645072460174561] [-1.522296667098999:1.5648646354675293] [-2.0638625621795654:1.5687597990036011] [-2.4619696140289307:1.5680602788925171] [-2.648137092590332:1.5700795650482178] [-2.5047333240509033:1.5662518739700317] [-2.1062953472137451:1.5664080381393433] [-1.4475361108779907:1.5610309839248657] [-1.2213733196258545:1.5632989406585693] [-1.1215335130691528:1.561995267868042] [-1.168958306312561:1.5723429918289185] [-1.225764274597168:1.5757462978363037] [-1.3317182064056396:1.5835809707641602] [-1.6010570526123047:1.5860384702682495] [-2.1418814659118652:1.5904401540756226] [-2.4733853340148926:1.5896482467651367] [-2.5047738552093506:1.5896980762481689] [-2.0072333812713623:1.5865405797958374] [-1.6131480932235718:1.5868538618087769] [-1.6319060325622559:1.7016431093215942] [-1.6864286661148071:2.5795986652374268] [-1.7459897994995117:2.8008601665496826] [-1.8207311630249023:2.5472877025604248] [-1.9257277250289917:1.7488086223602295] [-2.1472852230072021:1.6308574676513672] [-2.3775553703308105:1.6220458745956421] [-2.6580204963684082:1.8138364553451538] [-2.9761693477630615:2.1645474433898926] [-3.3342947959899902:3.0688047409057617] [-3.8750591278076172:4.2020993232727051] [0:1] [0:1] [0:1] [0:1] [0:1] [0:1] [0:1] [0:1] [0:1]
tree_sizes=6053 6281 6737 5274 6409 5922 6568 6144 6381 6753 6883 6685 6660 6688 6561 6897 6558 6782 6820 6894 6818 6704 6466 6707 6924 6452 6862 6921 6778 6748 6887 6820 6938 5811 5495 5801 5055 6662 5131 6602 6941 5547 5772 6760 6849 5188 5833 6809 5776 6817 6900 6890 6567 6131 5405 5496 6953 5601 6904 5818 6598 6921 6929 6026 6546 6910 5838 6708 6048 6707 6926 6580 6925 5928 5170 6679 6547 5920 6952 6350 6345 6918 6801 6921 5681 6919 6796 5641 6362 6896 6150 6799 6249 6232 6433 6979 5577 6698 6435 6340 4831 6892 6616 6555 6651 6939 6319 6792 6700 6951 6901 6697 6270 6536 4994 6830 6786 6350 6665 6072 6548 6938 5448 6014 5606 6423 6908 6641 6453 6566 6590 5810 6055 6844 5480 5509 6883 6058 6862 6940 6523 5478 5817 6623 6886 6367 6929 6019 6794 6557 6954 6700 6922 6720 6903 6477 5022 6353 6458 6483 6769 6936 6535 6886 6367 6210 6447 6692 5882 5844 6333 6218 6367 6893 6737 6442 6652 6690 6783 6504 5504 6113 6543 6461 6843 6669 5930 6526 6640 6863 5504 5696 6380 6729 6873 6954 6380 6801 6379 6953

Tree=0
num_leaves=56
num_cat=0
split_feature=22 53 72 103 4 107 29 96 130 32 1 31 28 132 70 32 56 51 53 116 53 103 28 21 126 135 32 97 109 12 101 103 103 133 100 42 132 30 97 107 102 133 49 70 127 71 112 31 31 34 106 70 19 34 70
split_gain=135599 61738.1 26954.4 26884.5 25402.7 17590.1 15770.5 16216.9 13363 12172.8 11912.7 11607 11180.4 9947.65 8140.62 8104.92 7812.17 7517.25 6895.16 6356.34 6217.29 6199.77 4996.34 4298.5 3926.38 3622.52 3541.36 3455.34 3434.95 3358.42 3269.13 2891.45 2486.24 2166.6 2086.84 1801.64 1725.21 1607.55 1563.44 1551.17 1485.98 1170.12 863.223 593.621 450.099 445.852 480.871 333.386 432.811 278.911 134.797 439.02 125.884 2.27374e-13 3.55271e-15
threshold=1.2005572915077212 1.014110863208771 -0.6935766041278838 -0.86199674010276783 0.55088126659393322 -0.99151328206062306 1.2260568737983706 -1.0628459453582761 1.0000000180025095e-35 0.96504500508308422 0.58338651061058056 0.895550698041916 1.1657376885414126 1.0000000180025095e-35 -0.17793918401002881 0.89678534865379345 1.0390530228614809 1.0715392231941225 0.98621499538421642 -1.4558526277542112 1.03640353679657 -0.94595134258270253 1.2084274888038637 1.3526256680488589 -1.7257632613182066 1.0000000180025095e-35 0.96757453680038463 -0.8515850007534026 -1.1383699774742124 0.97398781776428234 -1.0011595487594602 -0.87881240248680104 -0.75670713186264027 1.0000000180025095e-35 -0.7261056900024413 1.114260792732239 1.0000000180025095e-35 1.0853607654571535 -1.057833135128021 -0.90117430686950672 -0.75367522239685047 1.0000000180025095e-35 1.1922917962074282 -0.16214846074581143 -2.0499542951583858 -0.28324648737907404 -1.1456651687622068 1.0121660828590395 1.0127905011177065 0.90106335282325756 -0.91519004106521595 -0.14994008094072339 1.34150105714798 0.67301553487777721 -0.18062340468168256
decision_type=2 2 2 2 2 2 2 2 2 2 2 2 2 2 2 2 2 2 2 2 2 2 2 2 2 2 2 2 2 2 2 2 2 2 2 2 2 2 2 2 2 2 2 2 2 2 2 2 2 2 2 2 2 2 2
left_child=11 2 6 20 5 13 7 38 15 -7 -9 25 24 -5 19 27 41 -14 -17 28 22 33 23 -3 -6 49 40 -4 54 31 -31 -22 -28 -8 44 -30 -24 -23 -2 -36 -21 43 -43 -16 -18 46 -27 52 -49 50 51 -1 -10 -52 -13
right_child=1 3 8 4 12 9 21 10 47 -11 -12 14 17 -15 16 18 34 -19 -20 26 29 37 36 -25 -26 45 32 -29 35 30 -32 -33 -34 -35 39 -37 -38 -39 -40 -41 -42 42 -44 -45 -46 -47 -48 48 -50 -51 53 -53 -54 -55 -56
leaf_value=-2.7784536828026063 -3.2228515583855613 -2.2654168868218156 -1.6768197286831552 -2.1081505748612126 -2.2041505696460355 -2.2927779330929345 -2.3762243429539542 -1.9901710015872385 -3.2228515583855613 -1.9273956612203806 -1.6323753356938933 -3.2228515583855613 -1.8143097218541446 -1.3715429030582942 -2.92599691654766 -1.2553052280648711 -3.2228515583855613 -2.1911529748177934 -1.5557754312385765 -3.1336719823579839 -3.0814848941736606 -2.4811471301234049 -2.6496212834766535 -1.4816373816005233 -1.6540752349132462 -3.2228515583855613 -2.8527113798772952 -2.4898029770304015 -1.0489334125589691 -3.2228515583855613 -1.03332654639647 -2.598885717214813 -1.156704647455856 -1.38626666659178 -1.4016946940431467 -3.2228515583855613 -1.3748634014009784 -3.1024205040668331 -2.5010735909270099 -3.2228515583855613 -2.4958630548629674 -1.4115566452060448 -3.2228515583855613 -3.1735793424845173 -1.0461503707039332 -1.1080803648530062 -1.2397324691213876 -1.3714537970373715 -2.9107365575512461 -1.9445653665767317 -3.2228515583855613 -3.2037575346070288 -2.614330490456902 -3.2228515583855613 -3.2228515583855613
leaf_weight=30.527815923094749 74.791966140270233 257.41497340798378 111.15055087208748 324.54734182357788 137.61362017691135 4074.4889412969351 45.401808694005013 1551.8018856793642 39.951240047812462 1174.6511006951332 2324.3794877678156 8.4769636243581754 1072.3169468939304 421.36331450939178 167.56962379813194 1420.3977027982473 11.113339871168135 1045.3988134711981 1651.9934232532978 50.708533450961113 239.91682583093643 60.96991391479969 295.83435174822807 96.093936204910278 2274.3768740445375 2.6363762468099585 12.217440247535704 98.703755885362625 63.445833250880241 10.180468276143076 20.653637155890465 257.2847184240818 29.547383159399033 43.089702442288399 47.179431080818176 4.0559634566307059 11.011837244033812 131.42440202832222 50.122510999441147 5.1916332244873038 130.62857986986637 7.4899434894323331 4.0559634566307068 229.44804853200912 1.0387658029794682 8.553484231233595 2.2803297787904739 2.4425683170557004 7.2443898916244507 1.7688392251729954 59.135947197675705 118.41834823787212 3.7157016843557349 542.12007561326027 0.89231196045875449
leaf_count=623 1844 3991 1098 4544 2053 64237 752 19977 985 14417 21974 209 12002 2933 3656 8309 274 15466 14408 1207 5591 1071 5673 770 21973 65 258 1742 246 251 77 4809 145 306 342 100 77 3089 890 128 2313 55 100 5549 4 38 13 17 157 22 1458 2898 70 13366 22
internal_value=-3.11843 -1.91819 -1.69658 -2.06231 -2.0114 -2.14644 -1.86261 -1.81176 -1.48345 -2.21101 -1.77562 -2.89365 -1.83267 -1.69204 -2.62033 -1.45793 -2.87873 -2.00034 -1.41686 -2.21281 -2.51317 -2.58692 -2.30863 -2.05236 -1.68546 -3.16968 -2.48301 -2.0592 -1.4286 -2.76895 -1.75624 -2.83176 -1.65284 -1.89418 -1.85618 -1.17956 -2.60387 -2.90554 -2.93323 -1.58223 -2.67422 -3.04022 -2.04785 -3.06908 -3.03679 -1.54427 -2.3031 -3.05334 -2.52261 -3.1988 -3.20175 -3.11659 -3.17107 -3.22285 -3.22285
internal_weight=0 19330.7 7617.58 11713.1 10524.8 5995.05 4281.98 4001.1 3335.6 5249.14 3876.18 1538.5 4529.71 745.911 773.06 3282.25 473.087 2117.72 3072.39 299.973 1188.39 280.886 660.355 353.509 2411.99 765.441 223.102 209.854 76.8711 528.036 30.8341 497.202 41.7648 88.4915 64.5232 67.5018 306.846 192.394 124.914 52.3711 181.337 408.564 11.5459 397.018 12.1521 13.4702 4.91671 53.3539 9.68696 751.971 750.202 148.946 43.6669 601.256 9.36928
internal_count=268644 235553 76689 158864 137625 86131 49903 44685 26786 78654 41951 33091 51494 7477 14608 25557 10108 27468 22717 4500 21239 5218 10511 4761 24026 18483 3923 2840 577 10728 328 10400 403 1058 748 346 5750 4160 2734 470 3520 9360 155 9205 278 116 78 1229 174 18367 18345 3521 1055 14824 231
is_linear=0
shrinkage=1


Tree=1
num_leaves=58
num_cat=0
split_feature=70 31 119 30 53 113 85 130 79 29 56 29 29 115 74 36 31 76 26 37 70 71 110 53 69 116 0 69 38 43 105 125 71 53 115 109 30 51 132 19 31 70 111 135 33 54 96 107 22 0 42 77 17 106 0 31 7
split_gain=12451.5 4403.9 4217.37 3075.02 2483.46 2480.34 3946.14 3000.43 2082.42 1604.63 1283.08 1065.46 745.854 635.982 612.077 584.809 582.8 444.791 444.576 401.463 714.703 375.89 607.679 427.435 286.72 249.73 270.351 153.781 351.717 419.487 791.335 121.534 105.068 78.6447 43.8241 48.8573 42.3366 41.8768 0.294538 0.148946 0.0921277 0.0781167 0.0655294 0.0524643 0.0502475 0.0167833 0.0158739 0.0136996 0.00912004 0.00866679 0.0044267 0.00316885 0.00304266 5.05179e-05 2.69134e-05 5.87799e-06 8.13293e-09
threshold=-0.1880591809749603 1.0127905011177065 -0.5764980912208556 1.0894613862037661 0.94459134340286266 -1.04190057516098 -1.11659300327301 1.0000000180025095e-35 -0.52269747853279103 1.2012289166450503 1.0287566781044009 1.1071874499320986 1.0863595604896548 -1.4475766420364378 -0.88382250070571888 0.96067565679550182 1.0143968462944033 -1.1361682415008543 1.4028314352035525 0.94358643889427196 -0.3025167435407638 -0.3206727653741836 -1.0170907378196714 1.1422981619834902 -0.043179126456379884 -1.4079575538635252 0.019017651677131656 -0.0065427054651081553 0.98135274648666393 1.1503840088844302 -0.8479987084865569 -1.6954900026321409 -0.36666992306709284 1.0282859206199648 -1.0699604153633115 -0.9185243248939513 1.064381003379822 1.1347760558128359 1.0000000180025095e-35 1.7061716914176943 0.895550698041916 -0.17793918401002881 -1.2509513497352598 1.0000000180025095e-35 0.91453295946121227 0.97635006904602062 -1.0628459453582761 -0.84637731313705433 1.2005572915077212 -0.28479824960231775 1.0801429152488711 -0.45506513118743891 1.6629238128662112 -0.91519004106521595 0.27199096977710729 0.895550698041916 0.2228219881653786
decision_type=2 2 2 2 2 2 2 2 2 2 2 2 2 2 2 2 2 2 2 2 2 2 2 2 2 2 2 2 2 2 2 2 2 2 2 2 2 2 2 2 2 2 2 2 2 2 2 2 2 2 2 2 2 2 2 2 2
left_child=1 2 3 5 9 7 -7 -1 10 -5 12 31 13 24 16 -15 17 -13 -6 20 -16 22 23 -12 -2 40 -27 28 41 30 -30 32 54 -18 -33 -36 37 -14 43 47 -23 42 -10 44 -29 -21 -41 -4 -24 -48 -43 -31 -49 55 -3 -40 -55
right_child=8 11 39 4 18 6 -8 -9 27 -11 21 14 36 15 19 -17 33 -19 -20 45 -22 25 48 -25 -26 26 -28 38 29 51 -32 34 -34 -35 35 -37 -38 -39 53 46 -42 50 -44 -45 -46 -47 49 52 -50 -51 -52 -53 -54 56 -56 -57 -58
leaf_value=0.32647298502547489 0.35598318352115754 -0.11455266594292915 -0.11289708566195655 0.39132802785033399 0.13910438334934602 0.36403361853888788 0.56182958813041983 -0.010120794713212226 -0.10689957933199223 0.23314803973015699 1.0940662462497335 0.23950388283867674 0.70266773195555698 -0.0021285782659885241 0.17311421428497917 0.14923404495037623 -0.011015101652930816 -0.054050474157743056 -0.037495830165665045 -0.12321517695467626 0.68996723734986276 -0.1049918391395801 -0.10556470830193197 0.48217721083975651 1.0581307658395696 0.31880782119661788 -0.11104739516993921 -0.10670685264436586 -0.10476900653539248 -0.10458872726069529 1.4359527878177885 0.77925311716593249 0.65161853105558165 -0.11109300957588229 0.36719783086905738 0.64260542649543617 0.77925311716593249 0.31031974788598116 -0.10406093432929642 -0.10398412694400704 -0.11968826203178107 -0.11220414219258393 -0.1260990773545646 -0.13190241142770098 -0.12253618236085811 -0.11319612758717795 -0.1260044283470842 -0.10415282600554693 -0.11040028571319771 -0.11590684486534185 -0.10504104793013476 -0.11127861182496104 -0.10712151594412898 -0.10398412694400704 -0.11406643025658861 -0.10418353623550657 -0.10399463111968427
leaf_weight=13513.773700352758 23.084266602993015 2.3289039060473442 1.8318254351615895 1120.6617661714554 482.63428053632379 35696.066441304982 1037.9716760925949 270.12602180615067 3.520013514906168 1499.3230454698205 13.159453738480805 179.13228144496679 5.5469135716557521 520.55157614499331 83.63099155575037 500.8533819951117 238.67639978975058 72.507858823984861 202.29893828928471 1.8127901405096079 39.339026272296906 11.028752844780685 7.9934150390326959 86.183545477688313 7.7743055149912825 163.0117278508842 16.074073009192944 3.2993764802813512 6.1123292110860348 9.8680682182311994 7.3328172788023966 12.648625157773493 2.9511457383632651 117.02113932743669 9.3220488503575307 20.844626523554329 12.648625157773493 5.3386124521493912 91.316513046622276 1.0685558430850495 6.9556185714900485 0.88264212384819885 3.5914697498083106 2.9114219695329657 5.113003633916378 21.521402563899755 0.92624926567077537 186.89820072427392 7.616942323744297 10.326834015548227 38.255876906216145 0.7627824954688539 3.5173924453556529 351.40748536214232 2.2267745621502399 4.0854757465422145 0.73864668235182662
leaf_count=55434 29 21 26 2532 2788 150310 3037 3049 74 8159 34 1211 15 7891 347 6638 2141 639 1717 12 99 290 175 198 82 542 310 76 145 243 37 6 5 1492 30 21 6 33 2435 29 74 14 36 18 43 224 6 5014 90 100 888 16 79 9537 21 106 20
internal_value=0 0.344756 0.348213 0.349936 0.256485 0.356049 0.369623 0.319877 0.0854819 0.300807 0.149842 0.112433 0.0980584 0.0856061 0.0826856 0.0720932 0.0384539 0.154919 0.0869445 0.2663 0.338459 0.32838 0.47209 0.563231 0.532878 0.244552 0.280226 -0.0833011 0.0543979 0.364356 0.735522 0.557938 0.186795 -0.0439398 0.623011 0.557499 0.654827 0.510248 -0.104405 -0.104974 -0.110676 -0.106954 -0.116596 -0.120332 -0.116328 -0.113974 -0.115632 -0.10429 -0.107924 -0.116738 -0.105203 -0.105069 -0.104208 -0.104002 -0.114315 -0.104066 -0.103984
internal_weight=0 54831.4 54027.4 53822.9 3304.92 50517.9 36734 13783.9 1917.02 2619.98 1387.82 803.964 1075.8 1052.26 753.642 1021.4 607.338 251.64 684.933 146.304 122.97 312.024 114.953 99.343 30.8586 197.07 179.086 529.198 70.326 24.076 13.4451 50.3221 7.50682 355.698 42.8153 30.1667 23.5342 10.8855 458.872 204.569 17.9844 46.25 7.11148 11.3238 8.41238 23.3342 12.3216 192.247 15.6104 11.2531 39.1385 10.6309 190.416 447.548 4.55568 95.402 352.146
internal_count=268644 238549 232280 227026 15196 211830 153347 58483 30095 10691 16407 6269 14694 14640 6165 14529 5483 1850 4505 682 446 1713 497 232 111 1216 852 13688 1453 441 182 104 47 3633 57 51 54 48 12235 5254 364 1012 110 137 119 236 135 5119 265 106 902 259 5093 12098 42 2541 9557
is_linear=0
shrinkage=0.1


Tree=2
num_leaves=62
num_cat=0
split_feature=70 100 31 130 107 5 122 2 33 29 77 116 132 98 75 127 27 111 122 76 4 76 0 77 28 45 32 28 7 102 9 72 129 10 68 39 105 52 52 88 78 59 68 67 62 69 27 28 96 56 119 123 56 99 74 56 21 80 69 115 107
split_gain=6201.67 2336.1 1935.73 1972.61 3504.98 1909.26 1588.31 1430.86 1283.76 1225.74 1135.61 1774.26 1091.15 1223.35 1030.51 985.394 980.678 844.611 604.73 600.049 562.053 557.574 532.981 508.777 482.611 481.46 306.699 816.327 799.376 298.996 342.08 258.072 241.607 339.147 211.436 263.112 349.214 291.951 207.177 182.637 169.276 94.0139 409.736 89.6617 72.6587 13.0718 116.857 12.389 0.417534 0.135355 0.072901 0.0389513 0.0782697 0.0335883 0.0330428 0.0291186 0.00869584 0.00358224 0.00187002 0.00108596 0.000318453
threshold=-0.17510007321834561 -0.95347630977630604 1.0077264904975893 1.0000000180025095e-35 -0.85948267579078663 0.75531724095344555 -0.93359816074371327 0.13145747780799868 0.93187963962554943 1.235392212867737 -1.2037386894226072 -0.98213973641395558 1.0000000180025095e-35 -0.7178077995777129 -1.0811877250671384 -1.3639525175094602 1.445560157299042 -0.95272591710090626 -1.0478594899177549 -1.1304774880409239 0.75558122992515575 -1.1841977238655088 0.57794180512428295 -1.300839304924011 1.2759767770767214 1.1598968505859377 0.97096487879753124 1.0928285717964175 0.51395761966705333 -0.91957545280456532 0.8113543987274171 -0.7093602418899535 1.0000000180025095e-35 0.48200996220111852 0.12512981146574023 1.01643842458725 -0.8526754081249236 1.1390424370765688 0.95507654547691356 -1.1879064440727232 -0.5353606343269347 0.86771899461746227 0.13091459125280383 0.22446644306182864 0.7577205002307893 -0.0065427054651081553 0.98939660191535961 1.0902847051620486 -1.0628459453582761 1.0390530228614809 -0.5764980912208556 -2.0499603748321529 1.0390530228614809 -0.66206094622611988 -1.0852624177932737 1.0390530228614809 1.1767539978027346 -0.5048573613166808 -0.020677277818322178 -1.4475766420364378 -1.0190764069557188
decision_type=2 2 2 2 2 2 2 2 2 2 2 2 2 2 2 2 2 2 2 2 2 2 2 2 2 2 2 2 2 2 2 2 2 2 2 2 2 2 2 2 2 2 2 2 2 2 2 2 2 2 2 2 2 2 2 2 2 2 2 2 2
left_child=1 5 3 7 8 15 16 25 -5 -9 11 14 13 26 -4 22 23 19 -6 -12 -18 -13 31 -7 -24 -3 41 28 -28 38 -31 -1 33 40 35 58 43 -38 -17 -19 -15 47 -43 -37 -29 46 -36 -2 54 56 -50 57 -53 -51 -8 -48 -34 -47 59 -14 -60
right_child=12 2 10 4 18 6 48 9 -10 -11 17 21 34 32 -16 29 20 39 -20 -21 -22 -23 24 -25 -26 -27 27 44 -30 30 -32 -33 49 -35 45 36 37 -39 -40 -41 -42 42 -44 -45 -46 51 55 -49 50 53 -52 52 -54 -55 -56 -57 -58 -59 60 -61 -62
leaf_value=0.0066026444311955597 -0.043135116006524005 -0.11324667865416445 0.43706153463311925 0.0338120505750205 0.23526618080078771 0.91313228044141281 -0.10381201104174892 0.25846841833558676 0.21176866179784906 -0.072717070160779121 0.28688932614653834 0.19048264131001647 -0.10624842496311074 0.2705069036142258 0.24282550814241544 0.021802306956044279 -0.077763380054178224 0.15108855602773594 0.34919919730273075 0.12176413133811258 0.19078661850495124 0.053367350516867973 0.3661090673525465 0.28960289566657488 0.068718675910916835 0.1342470658144912 -0.10607085088511564 -0.11034169647976536 1.4527166212864557 -0.1155562215577247 0.44302233520951628 0.24083413899724693 -0.10464785970715812 1.0113502665678511 0.48495437684328541 0.35802455510954162 0.56469669455309035 -0.10709685795821491 -0.093115531992940037 -0.10578457433495653 -0.11531033722665587 0.52088120943840543 -0.04711198077684664 -0.10526638379252398 0.30290711343259946 -0.10452202301346272 -0.10474378641344917 -0.10799660909308731 -0.12542554962342031 -0.11871993337131281 -0.11356020113582391 -0.10445861736764611 -0.12133098539745857 -0.13149633551958814 -0.11013767757662676 -0.1211880910999646 -0.11320855136557376 -0.10360698134039813 -0.10626629130485266 -0.10511952407115102 -0.10410931329979718
leaf_weight=197.97343052923679 36.553035285323858 104.21760947629809 455.96661274135113 1378.9952435567975 2973.0203253813088 13.236780133098362 104.87108926475048 56060.903158999979 574.1518648378551 111.97578553855419 261.03144198283553 1275.4076221212745 11.24341670796275 296.76887996867299 681.24230641871691 290.93846721202135 111.5891621299088 32.829229943454266 552.43306266143918 1402.406629242003 258.40355966612697 386.42944021522999 164.72302195429802 1150.4321818128228 81.60114723071456 319.7869970574975 5.2887312471866599 28.04196647554636 8.7044954188168031 18.039295937865973 27.952388077974319 61.697217997163534 7.1708339378237742 6.0563748590648165 3.7745741680264464 4.8180788829922667 26.320027399808168 8.577118691056965 340.46655873209238 176.43579412251711 11.824963156133888 14.26512426137924 115.78669085353613 31.411591108888388 5.0156497098505488 47.807025454938412 28.941611610352997 151.5131504163146 10.796976275742056 5.15355509147048 9.9500928521156293 10.000438682734965 3.7919413782656184 3.4252318739891034 8.9636077657341939 1.118424180895089 1.4218466654419897 407.11930531263351 0.71253904700279491 35.195491321384907 17.375162687152624
leaf_count=1521 805 1796 866 10273 11257 11 3056 176588 2711 1431 1047 5662 231 841 2083 1485 1144 144 1233 7212 1286 2288 201 2689 378 1920 114 432 39 178 57 275 173 26 27 45 65 185 3267 1459 181 112 2427 708 2 1246 760 2586 78 58 118 254 35 22 151 13 14 12117 16 778 467
internal_value=0 0.242422 0.246209 0.250881 0.193585 0.153785 0.222701 0.256427 0.0861246 0.257808 0.184132 0.22446 0.0248475 0.111352 0.320705 0.0566334 0.251606 0.123856 0.253119 0.147676 0.109792 0.158599 0.162215 0.296696 0.267591 0.0734147 -0.0149379 0.22336 0.863574 -0.0222331 0.223931 0.0622556 0.250333 0.270267 -0.0696245 0.0411615 0.173811 0.399581 -0.0401638 -0.0654866 0.255723 -0.050183 0.0151901 -0.0436547 -0.0476417 -0.0995287 -0.0395009 -0.09539 -0.106688 -0.114936 -0.119735 -0.103862 -0.109097 -0.123821 -0.10431 -0.105356 -0.106064 -0.103703 -0.105057 -0.105393 -0.104194
internal_weight=0 69598.9 66747.2 62075.5 5478.6 2851.63 1668.24 56596.9 1953.15 56172.9 4671.75 2799.05 1335.2 696.991 1137.21 1183.39 1533.66 1872.7 3525.45 1663.44 369.993 1661.84 505.995 1163.67 246.324 424.005 365.169 47.0508 13.9932 677.397 45.9917 259.671 331.822 314.65 638.207 135.653 71.1268 34.8971 631.405 209.265 308.594 318.118 130.052 36.2297 33.0576 502.553 33.8346 188.066 134.582 17.1715 20.7471 468.719 13.7924 8.57879 113.835 30.06 8.59268 454.926 64.5266 46.4389 18.0877
internal_count=268644 243865 227970 207209 25474 15895 8533 181735 12984 178019 20761 10899 24779 7832 2949 7362 5130 9862 12490 8259 2430 7950 2375 2700 579 3716 6517 587 153 4987 235 1796 1315 1048 16947 2495 1003 250 4752 1603 1022 5930 2539 753 434 14452 800 3391 3403 267 196 13652 289 80 3207 773 187 13363 1492 1009 483
is_linear=0
shrinkage=0.1


Tree=3
num_leaves=48
num_cat=0
split_feature=69 121 31 116 101 53 101 133 58 52 102 21 72 31 70 72 26 134 21 33 30 127 69 1 105 106 32 108 45 27 129 102 135 19 133 39 1 122 32 19 56 106 70 20 23 1 71
split_gain=3900.34 1557.78 1525.28 1273.28 1394.19 1183.83 2168.45 1930.3 1503.01 1822.1 749.238 603.41 572.23 517.276 358.123 575.411 506.229 331.549 251.587 263.77 193.161 170.971 160.517 143.704 137.555 259.401 315.186 125.097 113.697 103.746 98.8607 53.4382 0.142769 0.108562 0.0586219 0.0431137 0.0262666 0.0155633 0.0139421 0.0138941 0.00875458 0.00771376 0.00594734 0.0045002 0.00492606 0.00377324 0.00374799
threshold=-0.032978115603327744 -0.68654051423072804 1.0143968462944033 -1.4079575538635252 -0.76160597801208485 1.0898762941360476 -0.7871241271495818 1.0000000180025095e-35 0.87842845916748058 1.0833932161331179 -0.80970633029937733 1.2136252522468569 -0.59944289922714222 1.0084034800529482 -0.16214846074581143 -0.4632368385791778 1.1720923185348513 1.0000000180025095e-35 1.2177315354347231 0.95021823048591625 1.0591557621955874 -2.0181802511215206 -0.0065427054651081553 0.30345244705677038 -0.8479987084865569 -0.91434508562088002 0.88318663835525524 -1.0413240194320676 1.0790718197822573 1.1202530860900881 1.0000000180025095e-35 -0.75543406605720509 1.0000000180025095e-35 1.7061716914176943 1.0000000180025095e-35 1.0603471398353579 0.078340277075767531 -1.8892464637756345 0.84321731328964245 1.1156497001647951 1.0390530228614809 -0.87947446107864369 -0.40428334474563593 1.7756516337394717 1.3576073050498965 0.5860300362110139 -0.48294554650783533
decision_type=2 2 2 2 2 2 2 2 2 2 2 2 2 2 2 2 2 2 2 2 2 2 2 2 2 2 2 2 2 2 2 2 2 2 2 2 2 2 2 2 2 2 2 2 2 2 2
left_child=1 2 5 22 13 8 11 -8 9 -1 -10 -7 20 18 16 31 21 -18 19 -5 -4 -6 24 39 29 26 -26 -22 -25 34 -17 -16 35 38 -2 37 -35 -24 41 -14 -27 42 -3 44 -38 -45 -43
right_child=3 33 12 4 14 6 7 -9 10 -11 -12 -13 23 -15 15 30 17 -19 -20 -21 27 -23 32 28 25 40 -28 -29 -30 -31 -32 -33 -34 36 -36 -37 43 -39 -40 -41 -42 46 -44 45 -46 -47 -48
leaf_value=0.19688713300651323 -0.10477875415867662 -0.10431462172755589 0.33559952248162617 -0.09813665846246418 0.19541445045054173 -0.060565535593936071 0.21789473543974172 -0.036590909422390551 0.13498683793413516 0.148745579212198 0.26266235844012126 0.08338506907477862 -0.12442926982764711 0.33457602967020161 0.18175742895385549 0.19547586419282612 -0.068130259990447736 0.41650994675108688 0.56532280288238757 0.050538418020517742 0.30928650873435931 0.30109664756289223 -0.10334601826117168 -0.13711479484607911 0.20773778606658838 -0.10460532532409635 1.2164354615758828 -0.046737788444565539 0.29953320454760773 0.40758128383265801 -0.11481168410221981 -0.089244753857642897 -0.12594146447813223 -0.12955989289734815 -0.1231408174790236 -0.1193834296328439 -0.11309042251720847 -0.10719684075804792 -0.1182195238806521 -0.11392474856155857 -0.11392172978134384 -0.10344128811167022 -0.11334388849394561 -0.11166999416952605 -0.10469215611325425 -0.11625614752281875 -0.10458163038000648
leaf_weight=59572.262151420116 64.555578956380486 1.4416085518896582 14.275143846869467 393.31933025643229 347.23202685266733 375.81634357571602 2875.2490031197667 332.52744581364095 515.76494769752026 9057.3083348181099 4222.7236910797656 1293.2617903538048 1.4569312036037434 38.133275877684355 7.7024200037121764 228.20823120512068 90.934037875384092 16.709816224873066 6.657417867332696 171.30115685984492 10.107979174703358 273.77838208153844 413.84078900143504 6.3883594423532477 33.172351613640785 26.352335361763839 3.4168114066123954 418.00698090717196 89.626677177846432 4.1937769651412955 10.7520036958158 131.50226922519505 2.8557235319167367 0.9992629885673513 1.7867913171648968 1.7036922927945841 1.4918058477342113 10.768360942602156 0.67202405817806621 9.2753617726266366 1.0487889423966397 128.36316702887416 1.4767630733549584 3.7202370148152113 1.3132602777332065 3.4647612515836954 37.167811652645469
leaf_count=152878 1646 38 6 4335 1904 2616 11756 2365 2214 37068 12275 8120 10 31 104 777 742 27 23 1344 8 1164 13385 35 208 741 14 3814 214 2 162 2953 22 6 17 19 18 261 8 95 18 4129 17 42 36 33 944
internal_value=0 0.189286 0.189958 0.0566167 0.0994456 0.191123 0.143414 0.191514 0.194295 0.190534 0.248765 0.0509726 0.0238784 -0.0220207 0.166325 0.0873662 0.207303 0.00710161 -0.0458239 -0.0530299 -0.0262658 0.242005 -0.0737802 0.23169 0.0215321 0.127698 0.301933 -0.0383319 0.270481 -0.0747812 0.181514 -0.0742498 -0.103657 -0.10447 -0.105273 -0.103507 -0.114102 -0.103444 -0.103845 -0.115351 -0.104962 -0.103787 -0.108884 -0.112555 -0.109159 -0.113882 -0.103697
internal_weight=0 78974.2 78794.1 2279.93 1716.23 78244.9 4876.85 3207.78 73368.1 68629.6 4738.49 1669.08 549.137 609.411 1106.82 378.165 728.654 107.644 571.278 564.62 442.39 621.01 563.695 106.747 134.526 63.9903 36.5892 428.115 96.015 70.5361 238.96 139.205 429.169 180.111 66.3424 426.313 10.9893 424.609 169.121 10.7323 27.4011 168.449 2.91837 9.99006 2.80507 7.185 165.531
internal_count=268644 238745 233474 29899 13566 229292 24857 14121 204435 189946 14489 10736 4182 5733 7833 3996 3837 769 5702 5679 3828 3068 16333 354 2646 981 222 3822 249 1665 939 3057 13687 5271 1663 13665 135 13646 5136 105 759 5128 55 129 54 75 5073
is_linear=0
shrinkage=0.1


Tree=4
num_leaves=59
num_cat=0
split_feature=69 31 100 116 130 77 29 101 52 133 29 101 136 79 28 103 25 116 106 124 57 129 70 31 29 41 39 84 15 32 27 67 0 54 69 123 0 39 51 6 23 8 101 111 61 0 63 82 53 29 135 98 39 57 122 132 46 69
split_gain=2647.86 1202.14 1159.2 1102.66 1072.58 2421.12 2427.02 1035.59 847.94 2199.92 1964.72 844.264 779.181 639.653 560.245 528.282 502.77 483.309 440.421 375.468 323.334 316.816 291.105 561.765 429.924 255.335 253.908 234.761 217.116 205.85 203.388 318.009 180.049 212.457 168.798 161.093 154.731 144.173 149.94 172.788 102.291 95.4716 76.4003 63.4951 61.2956 54.205 15.9404 1.64159 0.412613 0.264114 0.103041 0.0480598 0.0315864 0.0137637 0.0118138 0.011638 0.0137195 0.00970629
threshold=-0.039177726954221719 1.0088616609573366 -0.99789446592330922 -1.4079575538635252 1.0000000180025095e-35 -1.2452428936958311 1.0754619240760805 -0.76771539449691761 1.0657910704612734 1.0000000180025095e-35 1.132941782474518 -0.89304932951927174 1.0000000180025095e-35 -1.2452904582023618 1.1273130774497988 -0.86921912431716908 1.239718556404114 -0.96868038177490223 -0.84285461902618397 -1.4972718954086301 0.89157110452651989 1.0000000180025095e-35 -0.17793918401002881 0.97953730821609508 1.0704500675201418 0.95419234037399303 1.049047112464905 -1.1822654008865354 0.85880380868911754 0.97096487879753124 1.1481173634529116 0.22880647331476214 0.6856103539466859 0.84221553802490245 -0.0065427054651081553 -1.5888637900352476 0.53054305911064159 1.01643842458725 1.1633339524269106 0.25503703951835638 1.2375311851501467 0.6996094584465028 -0.86722952127456654 -0.97281774878501881 0.71381807327270519 0.4546117782592774 0.56845295429229747 -1.3523053526878355 1.0269560813903811 1.2260568737983706 1.0000000180025095e-35 -1.0810089707374571 1.0603471398353579 0.99655646085739147 -1.8892464637756345 1.0000000180025095e-35 1.1897240877151491 -0.032978115603327744
decision_type=2 2 2 2 2 2 2 2 2 2 2 2 2 2 2 2 2 2 2 2 2 2 2 2 2 2 2 2 2 2 2 2 2 2 2 2 2 2 2 2 2 2 2 2 2 2 2 2 2 2 2 2 2 2 2 2 2 2
left_child=1 2 27 34 8 17 -7 14 10 -10 -4 19 13 18 30 20 -15 -6 -13 41 -14 36 24 28 26 -23 -9 47 -24 -25 31 -5 33 -29 37 -26 -21 55 39 -39 -32 45 -17 44 -16 -3 -45 51 -49 -34 52 -1 54 -40 -36 56 -2 -57
right_child=3 11 4 7 5 6 -8 22 9 -11 -12 12 15 16 43 42 -18 -19 -20 21 -22 25 23 29 35 -27 -28 32 -30 -31 40 -33 49 -35 50 -37 -38 38 53 -41 -42 -43 -44 46 -46 -47 -48 48 -50 -51 -52 -53 -54 -55 -56 57 -58 -59
leaf_value=-0.10340225786968349 -0.11955002696489675 -0.12921268913223879 0.19438504615924901 0.11003462213236342 0.27120859610768172 0.25667619309150785 0.023123285874369938 0.21110578181067782 0.15598946123177412 0.052501449611114706 0.15315371930296262 0.19280195561377386 -0.12876979859407697 0.33246318495023386 0.33178846406533902 0.012674036059150448 0.060213161442822405 0.16289930329643698 0.02429831002595494 0.012132149940314217 0.62231539664851288 -0.03135321016032469 0.15496056759928847 -0.044648580908220645 0.28122933666310951 0.26512454800935731 -0.068063933777077118 0.31247938785676793 0.65474830315459553 0.1537486067156339 -0.10883362612788793 -0.061152029072246261 -0.13951989393678968 -0.1202164251617816 -0.1030183648849389 -0.0564247023108638 -0.08087029651848833 0.24011700493791974 -0.10582904635852326 -0.10682618750071096 0.14265865065269248 0.27072954098864699 -0.11519414585448323 0.36770206796245142 -0.12282777497616532 0.2501877202269846 0.26189182182155218 -0.12756060143448772 -0.10810882593006221 -0.11882787220656846 -0.12297764617529411 -0.10770515976177109 -0.11733378128027315 -0.11761952277852686 -0.10653520535541201 -0.10693168129339688 -0.10516843773186793 -0.10404072099521047
leaf_weight=65.347917029634118 1.188788685947656 10.752657104283573 19110.923584137112 190.84338101744652 472.23938621580601 527.3262904882431 2847.9419064000249 746.99830140545964 23928.017012661323 2247.0171337835491 29238.533299662173 1693.1690243929625 8.3441599756479281 72.967756927013397 4.8454031273722631 63.177346892654896 963.71631575375795 3229.5889149717987 170.75660555809736 482.74698203057051 18.30554797872901 47.28330360352993 412.61311256885529 276.57695640809834 16.491935886442661 75.32430624216795 34.064833555370569 40.293763728812337 8.8790455125272256 64.492178332060575 279.77384615130723 251.55981770344079 14.611471172422172 15.79625131189823 375.58892601728439 98.644175700843334 284.20951173827052 60.190371751785278 28.653273742645982 18.850369641557336 17.165090318769217 70.026584684848785 179.45779153704643 22.568898618221283 7.6453847400844097 5.7952206432819358 38.570237524807453 63.586642837151885 13.162270646542309 10.675488710403441 2.6430165357887736 43.062420506030321 1.5671081189066161 1.0255203396081913 9.8010463658720237 15.758702863007782 1.5006570536643264 44.152955254539847
leaf_count=2255 13 73 36245 981 944 1457 15601 2276 74387 12134 65969 4232 60 87 4 292 4611 7983 681 3232 10 290 1744 4784 38 266 226 56 63 495 1856 2951 81 180 13385 612 1779 337 722 421 89 39 1089 14 62 7 34 453 216 84 22 833 19 13 261 280 33 1283
internal_value=0 0.154729 0.15739 0.0596554 0.15807 0.120866 0.0596118 0.0883804 0.161603 0.147105 0.169451 0.102196 0.127237 0.142343 -0.0040784 -0.0354807 0.0793757 0.176716 0.177365 0.0208774 0.387147 0.00152939 0.133695 0.0882803 0.172338 0.150789 0.19893 -0.0508164 0.165489 -0.007134 -0.0302757 0.0126943 0.0907488 0.190622 -0.0669227 -0.00805961 -0.0223316 0.0158025 0.0854129 0.157375 -0.0942957 0.219681 -0.0818998 0.258977 0.0535261 0.00365686 0.300951 -0.113034 -0.124225 -0.130784 -0.1033 -0.105111 -0.103165 -0.106236 -0.103108 -0.10509 -0.111525 -0.104801
internal_weight=0 86014.2 81868.1 3032.65 81601.6 7077.1 3375.27 2471.73 74524.5 26175 48349.5 4146.03 3169.89 2900.61 812.972 269.285 1036.68 3701.83 1863.93 976.139 26.6497 889.564 1658.76 762.561 896.199 122.608 781.063 266.536 421.492 341.069 739.342 442.403 81.377 56.09 560.921 115.136 766.956 171.321 108.72 79.0407 296.939 86.5745 242.635 73.6299 12.4908 16.5479 61.1391 185.159 76.7489 25.287 389.6 108.41 386.957 29.6788 385.39 62.6011 2.68945 59.9117
internal_count=268644 235626 218878 33018 214720 25985 17058 16229 188735 86521 102214 16748 11062 9611 5991 1451 4698 8927 4913 5686 70 5567 10238 7086 3152 556 2502 4158 1807 5279 5877 3932 401 236 16789 650 5011 3102 1493 758 1945 119 1381 114 66 80 48 3757 669 165 13687 3088 13665 735 13646 1609 46 1563
is_linear=0
shrinkage=0.1


Tree=5
num_leaves=54
num_cat=0
split_feature=43 121 53 27 29 113 118 0 101 45 102 30 132 60 31 72 75 103 100 129 41 69 26 69 119 48 107 43 129 17 70 22 23 32 70 25 70 130 19 111 56 0 106 122 56 71 22 96 50 100 114 107 98
split_gain=2001.61 989.459 1008.95 2461.45 2161.4 1184 1339.37 893.432 772.855 753.53 2159.25 982.014 611.834 685.407 611.107 573.146 818.586 458.725 409.74 269.049 280.022 278.357 257.799 130.778 175.755 118.072 140.715 38.0965 18.1093 46.8688 0.416939 0.410243 0.336969 0.277191 0.328175 0.211605 0.144994 0.0903436 0.0872204 0.0641268 0.0354953 0.0329958 0.0300818 0.0107079 0.0149855 0.00867592 0.0138816 0.00750615 0.00288063 0.0027148 0.00215972 0.00187901 0.00171363
threshold=1.138377368450165 -0.68654051423072804 0.99682831764221203 1.2680731415748598 1.150350868701935 -0.91876563429832447 -0.92355081439018238 0.34071668982505804 -0.88279223442077626 1.1346058249473574 -0.78873023390769947 1.0621947050094607 1.0000000180025095e-35 0.7949693799018861 1.0091230273246767 -0.69098705053329457 -1.1297279000282285 -0.83975988626480091 -0.76542180776596058 1.0000000180025095e-35 1.0927082300186159 -0.054022233933210366 1.3181647658348086 -0.0065427054651081553 -1.5755643248558042 1.205478370189667 -0.99818518757820118 1.184716582298279 1.0000000180025095e-35 1.0221096277236941 -0.17793918401002881 1.2005572915077212 1.1835486292839053 0.96504500508308422 -0.17793918401002881 1.1911097764968874 -0.18062340468168256 1.0000000180025095e-35 1.7061716914176943 -1.1738632321357725 1.0390530228614809 -0.28479824960231775 -0.87838461995124806 -1.8892464637756345 1.0390530228614809 -0.50218740105628956 1.2025876641273501 -1.0628459453582761 0.71376883983612072 -0.95347630977630604 -1.3328285813331602 -0.84717443585395802 -1.1141750812530515
decision_type=2 2 2 2 2 2 2 2 2 2 2 2 2 2 2 2 2 2 2 2 2 2 2 2 2 2 2 2 2 2 2 2 2 2 2 2 2 2 2 2 2 2 2 2 2 2 2 2 2 2 2 2 2
left_child=1 2 4 9 15 6 -6 22 -9 11 -11 -4 13 28 -7 16 -1 -17 27 21 -21 -20 -5 24 25 26 -14 31 33 36 35 -15 -27 37 -35 -26 -30 -2 45 43 -41 -40 -32 50 -45 51 49 -43 -49 -47 -25 -3 -53
right_child=12 38 3 7 5 14 -8 8 -10 10 -12 -13 23 18 -16 17 -18 -19 19 20 -22 -23 -24 39 30 32 -28 -29 29 -31 42 -33 -34 34 -36 -37 -38 -39 41 40 -42 47 -44 44 -46 46 -48 48 -50 -51 -52 52 -54
leaf_value=0.079992117318487543 -0.12352087039135029 -0.10731115976125075 0.1411554419554247 0.18962787034367379 0.12185522949346331 0.18320730576587682 -0.011361376025001651 0.022514326206566598 0.10894031962336084 0.018220733412557765 0.12848042089923803 0.10503126438938111 -0.1135008688543122 -0.11002357986184418 -0.12520795259352591 0.14974471214051358 0.24307897132317391 0.20304539724671022 0.0040255623178091964 0.28407382995375968 -0.11217250392736314 0.15782215971304056 -0.06123798554706477 -0.1027115906072494 -0.11881177017902436 -0.10725040171624832 0.17724390171665291 0.11340058390171159 -0.13027393689603559 0.17335171576005787 -0.10539718169956083 -0.12398372775130043 -0.1709537602002133 -0.13401535724086208 -0.11000448991558745 -0.1472411499102215 -0.1106976742046796 -0.11485957877128368 -0.1304281451308088 -0.10600516892750576 -0.12858515315932226 -0.10339538391625852 -0.12463974371467648 -0.10406005150732019 -0.11363245362876212 -0.10352983715810933 -0.11298703276106142 -0.11477032474646716 -0.1108995768863198 -0.1049924422004504 -0.10629880153240592 -0.10277120146884269 -0.10355832707397539
leaf_weight=353.30502214469016 96.126670779660344 1.1307629570364941 36836.939935805276 43.529389522969723 17024.779400581494 3677.6194638162851 789.72781000286341 1781.389473637566 2468.4320467598736 2289.2297599036247 7923.9186396244913 9457.2428585682064 20.849169589579105 33.092164838686585 65.388256305828691 4650.3434453122318 2387.9891642294824 2473.5365641340613 141.07707362622023 22.293744562193751 89.16364087164402 709.63291846215725 694.97202003747225 324.10819376260042 51.215504970401525 28.33073355443776 82.57735612988472 7.6535446941852561 11.989206582307819 7.5938549414277068 31.421709233894944 57.849138811230659 0.85543065890669723 47.93497720733285 6.4593848623335353 2.7591749876737586 5.5279323644936094 13.767773561179636 1.0174648761749274 1.306885335594415 1.489815756678581 1.0297850407659996 0.833976736292242 7.7387548331171256 2.0736340768635273 19.742928132414818 1.9822847582399834 3.2313183471560452 4.7472641002386808 35.527551721781492 1.687093449756502 49.133925516158342 63.280280662700534
leaf_count=981 687 24 92908 189 36390 5892 3425 8888 7268 11451 28587 29358 415 547 520 5979 2316 1606 773 94 1666 2777 4013 12750 407 686 333 38 71 32 752 402 5 279 101 14 87 131 6 25 18 36 11 226 27 609 25 30 63 796 36 1920 1974
internal_value=0 0.129402 0.129856 0.122408 0.144434 0.126692 0.11595 0.0550715 0.0727133 0.128352 0.103766 0.133776 0.0231497 0.0619941 0.177819 0.183204 0.22206 0.168252 0.0932817 0.113177 -0.0329152 0.132317 -0.0464512 -0.0639963 -0.00375503 0.0685094 0.118634 -0.100871 -0.113237 -0.0341445 -0.11489 -0.118904 -0.109118 -0.125326 -0.131164 -0.120265 -0.124096 -0.122436 -0.104293 -0.102954 -0.118034 -0.113358 -0.105895 -0.102828 -0.106083 -0.103761 -0.104765 -0.11143 -0.112467 -0.10447 -0.10273 -0.103255 -0.103214
internal_weight=0 93099.2 92918.3 61495.7 31422.7 21557.5 17814.5 4988.32 4249.82 56507.3 10213.1 46294.2 1807.41 1250.16 3743.01 9865.17 2741.29 7123.88 1060.76 962.167 111.457 850.71 738.501 557.247 218.843 132.613 103.427 98.5948 189.4 25.111 86.2304 90.9413 29.1862 164.289 54.3944 53.9747 17.5171 109.894 180.824 338.404 2.7967 10.0258 32.2557 335.608 9.81239 170.798 57.2528 9.00837 7.97858 55.2705 325.795 113.545 112.414
internal_count=268644 245254 239771 182662 57109 46227 39815 20358 16156 162304 40038 122266 23390 7685 6412 10882 3297 7585 6297 5310 1760 3550 4202 15705 2623 1439 748 987 1388 190 1184 949 691 1198 380 421 158 818 5483 13082 43 135 763 13039 253 5348 1430 129 93 1405 12786 3918 3894
is_linear=0
shrinkage=0.1


Tree=6
num_leaves=60
num_cat=0
split_feature=69 101 5 4 30 47 25 30 53 102 116 27 27 83 72 106 128 72 29 45 104 69 98 127 24 29 68 58 31 112 133 90 29 101 11 104 77 31 104 71 69 40 130 102 49 6 3 111 30 102 36 123 114 132 116 133 51 70 122
split_gain=1551.69 912.56 1796.29 1233.35 1405.28 1289.69 1562.38 1137.04 1023.18 821.406 690.585 742.415 589.919 640.504 596.07 578.237 556.847 523.649 476.403 675.745 471.078 391.681 382.105 374.749 361.366 420.263 686.16 332.968 297.051 290.317 321.623 284.687 238.434 238.188 209.326 200.945 197.822 186.84 150.232 134.691 131.781 148.099 126.53 125.435 112.838 129.077 97.4716 83.5982 78.6649 74.192 63.3061 58.7182 47.322 0.497004 0.296522 0.127525 0.0967702 0.0486434 0.00695647
threshold=-0.041294001042842858 -0.93644562363624562 0.75926926732063305 0.63461804389953624 1.0621947050094607 1.0931615829467776 1.331546485424042 1.0980116724967959 1.0539202094078066 -0.89185273647308339 -1.3954268693923948 1.1408603191375735 1.445560157299042 -1.1506332755088804 -0.78336122632026661 -0.82019320130348194 1.0000000180025095e-35 -0.72468361258506764 1.2012289166450503 0.98492768406867992 -0.8442440629005431 -0.018001673743128773 -0.7178077995777129 -1.3785818219184873 1.2322107553482058 1.0738801360130312 0.10809064656496049 0.8855142891407014 0.97679424285888683 -0.91279587149620045 1.0000000180025095e-35 -1.0740183591842649 1.2416515946388247 -0.93511247634887684 0.9611976444721223 -0.78787961602210987 -1.3117273449897764 1.005975663661957 -0.79783397912979115 -0.33852992951869959 -0.0065427054651081553 1.0493600964546206 1.0000000180025095e-35 -0.74557974934577931 1.1966332793235781 0.25503703951835638 0.68630629777908336 -1.0611923933029173 1.1011873483657839 -0.81686347723007191 0.97585812211036693 -1.5888637900352476 -1.3230745196342466 1.0000000180025095e-35 -1.4079575538635252 1.0000000180025095e-35 1.2110580205917361 -0.17510007321834561 -1.8892464637756345
decision_type=2 2 2 2 2 2 2 2 2 2 2 2 2 2 2 2 2 2 2 2 2 2 2 2 2 2 2 2 2 2 2 2 2 2 2 2 2 2 2 2 2 2 2 2 2 2 2 2 2 2 2 2 2 2 2 2 2 2 2
left_child=1 2 18 4 5 15 -7 16 9 -6 40 21 13 14 -4 -3 20 48 19 23 -5 27 43 -1 25 26 -13 50 -10 30 -14 46 -31 -18 -33 -29 -21 -19 39 -26 41 55 -24 -23 45 -43 -20 -15 -9 -27 -12 -40 53 54 -42 57 -46 -2 -55
right_child=10 3 12 7 8 6 -8 17 28 -11 11 24 29 47 -16 -17 33 37 31 36 -22 22 42 -25 38 49 -28 35 -30 32 -32 34 -34 -35 -36 -37 -38 -39 51 -41 52 44 -44 -45 56 -47 -48 -49 -50 -51 -52 -53 -54 58 -56 -57 -58 -59 -60
leaf_value=0.14084897491215326 -0.11266808996586485 0.15068170040689036 0.1243371738445655 0.13360417728667207 0.018822909643907745 0.1098959287172161 -0.030910006573398104 -0.040632991227200953 0.48235513379162009 0.09512235928237496 -0.12779231736258043 0.11635308724379681 -0.036698929809092999 -0.019275124264046133 -0.086876308935916691 0.041611331512550274 0.47593927372501199 0.20879661574452452 -0.12800544120677193 0.29076545514337299 0.17581024695594405 -0.060668758581652542 0.14425460717864011 0.027526237755411562 0.2161444049703905 0.24942504769804705 -0.072290560020858055 0.037017024831142421 -0.034720204865634922 0.20228685938216798 0.13686910267456662 -0.099321717922496708 -0.11553553905873799 0.0085902261359915976 0.14120306298782109 0.19187240859381338 -0.063704966833092139 -0.038338168029257748 0.11171222247011581 -0.12252929254739271 -0.11332764957858527 0.1684746992993707 -0.14068141037230181 0.047184545837916043 -0.10561200628530149 -0.1081400409112586 -0.048619546475972039 0.20805471944196885 -0.13788971344798182 -0.11038467407952786 0.19864636063063151 -0.12529361240040135 0.15913387934712003 -0.10249185381819247 -0.14830496381596264 -0.1289537135066153 -0.13341278380979907 -0.10557858466040473 -0.10555368657844395
leaf_weight=558.17920868098736 11.40605156123638 10549.881256874651 1207.2459022235125 18791.699679344893 1565.0803435072303 38899.623129323125 804.32681947574019 172.37690538167953 11.266731061041353 14328.314574129879 46.334765674546361 407.1002279445529 410.88806498423219 16.429859599098563 150.24302052892745 509.53857543691993 11.214377842843531 106.45635990053415 294.57037882320583 16.226559944450855 3077.5976689662784 212.33538923971355 360.49257923290133 611.50794483534992 129.90559392422438 5.8264930061995974 366.31117933616042 95.572954554110765 799.82203868404031 154.66262715682387 144.23627546429634 53.973973501473665 27.856152787804604 395.6483812071383 109.76992650330067 680.03458946198225 529.38568790443242 42.9272281229496 17.80387856811285 12.909910485148428 8.3231889642775041 85.162998339161277 16.288950612768531 219.10152866877615 28.381309384480122 21.03633120469749 325.64566327258945 1048.9108104892075 160.69361767172813 348.74989855848253 6.8144759498536578 25.319216810166836 7.0163850504904977 311.30564030073583 3.4194902535527936 2.6545506641268721 1.3098525088280428 63.8857830055058 7.6015755180269471
leaf_count=942 130 16582 3423 32037 5815 104374 4190 707 25 37199 420 1105 2657 58 1706 2338 16 124 1545 47 3441 3342 871 2078 208 13 2751 592 4797 294 227 262 264 1573 256 1746 4305 182 57 112 171 465 132 3178 793 472 1375 731 995 2086 21 181 22 13339 27 26 11 1584 224
internal_value=0 0.111524 0.0725727 0.113967 0.107177 0.115456 0.107043 0.134098 0.0820179 0.0876089 0.0437584 0.0629549 0.122671 0.146509 0.100961 0.145657 0.137387 -0.0177845 0.00922066 0.0387367 0.139544 0.107893 0.0583595 0.0816043 0.00696862 -0.0143236 0.0270057 0.156198 -0.0275376 0.0443713 0.00839873 -0.0553603 0.153781 0.0214718 0.0619202 0.172791 -0.053163 0.137779 0.136137 0.18553 -0.0589554 0.00247104 0.131936 -0.00589639 0.0654997 0.113682 -0.0863237 0.204549 -0.0875556 -0.104472 -0.0859383 -0.027443 -0.0978555 -0.103309 -0.123513 -0.107412 -0.106838 -0.106653 -0.102565
internal_weight=0 95886.2 5659.73 90226.5 67467.9 50763.4 39703.9 22758.6 16704.5 15893.4 3502.4 2950.9 3160.47 2422.83 1357.49 11059.4 22276.2 482.454 2499.26 1715.3 21869.3 1636.98 808.218 1169.69 1313.93 1127.99 773.411 828.757 811.089 737.643 555.124 783.96 182.519 406.863 163.744 775.608 545.612 149.384 185.939 142.816 551.503 213.837 376.782 431.437 135.89 106.199 620.216 1065.34 333.071 354.576 53.1492 43.1231 337.666 330.65 11.7427 77.9464 29.6912 75.2918 318.907
internal_count=268644 234565 20170 214395 175320 127484 108564 39075 47836 43014 34079 16815 9360 5918 5129 18920 37067 2008 10810 7372 35478 10302 7523 3020 6513 5955 3856 2779 4822 3442 2884 3438 558 1589 518 2338 4352 306 558 320 17264 3481 1003 6520 1741 937 2920 789 1702 2099 441 238 13783 13761 198 1740 804 1714 13563
is_linear=0
shrinkage=0.1


Tree=7
num_leaves=56
num_cat=0
split_feature=43 52 102 134 80 34 29 52 27 21 103 30 5 0 128 82 103 30 28 104 101 53 133 57 110 60 0 63 102 108 128 107 129 41 26 32 37 106 49 98 69 113 48 44 16 129 20 48 69 28 22 70 32 70 22
split_gain=1211.36 842.52 2128.88 1452.4 3635.63 2082.74 1143.69 1156.8 1354.36 1128.88 1103.8 1669.31 1022.98 946.037 917.702 869.227 813.337 808.937 791.09 788.59 643.365 519.108 516.837 428.35 413.485 429.061 412.236 355.822 319.468 251.377 222.478 186.88 182.963 184.372 172.117 168.987 214.556 114.396 101.649 72.9709 156.693 135.563 86.4321 47.3812 94.2122 23.1215 46.3621 1.30608 0.599159 0.444074 0.276276 0.248625 0.356332 0.0733645 0.007802
threshold=1.138377368450165 1.0663351416587832 -0.83820033073425282 1.0000000180025095e-35 -1.1793865561485288 0.9125657081604005 1.132941782474518 1.0050070285797121 1.3059545755386355 1.2659911513328554 -0.91077998280525196 1.0931050181388857 0.54253831505775463 0.35974657535552984 1.0000000180025095e-35 -1.180212616920471 -0.81389415264129628 1.0355228185653689 1.1621300578117373 -0.79620656371116627 -0.92521181702613819 1.0544207096099856 1.0000000180025095e-35 0.8903213143348695 -1.1266192793846128 0.7949693799018861 0.4259451031684876 0.33302196860313421 -0.76492813229560841 -0.83456668257713307 1.0000000180025095e-35 -0.8062954545021056 1.0000000180025095e-35 1.0927082300186159 1.2076266407966616 0.9619879722595216 0.94154682755470287 -0.86319494247436512 1.1038282513618471 -0.5629950463771819 -0.015466737095266579 -1.2775792479515073 1.205478370189667 1.1634483933448794 0.92099139094352733 1.0000000180025095e-35 1.1847053766250613 1.2392615675926211 -0.028189956210553643 1.0529357790946963 1.2005572915077212 -0.17793918401002881 0.96504500508308422 -0.18062340468168256 1.2005572915077212
decision_type=2 2 2 2 2 2 2 2 2 2 2 2 2 2 2 2 2 2 2 2 2 2 2 2 2 2 2 2 2 2 2 2 2 2 2 2 2 2 2 2 2 2 2 2 2 2 2 2 2 2 2 2 2 2 2
left_child=1 6 9 12 16 -6 14 10 20 35 15 -12 17 -14 19 -8 -5 -4 26 22 -9 -20 -1 29 30 45 -11 -10 43 -16 39 -25 34 -34 -30 37 -37 -3 -21 47 42 -42 -41 44 -27 51 53 49 -49 -2 -45 52 -26 -47 -53
right_child=24 2 3 4 5 -7 7 8 27 18 11 -13 13 -15 23 -17 -18 -19 21 38 -22 -23 -24 31 25 28 -28 -29 32 -31 -32 -33 33 -35 -36 36 -38 -39 -40 40 41 -43 -44 50 -46 46 -48 48 -50 -51 -52 54 -54 -55 -56
leaf_value=0.11970365418952003 -0.11394845236418459 -0.0050928090091308092 0.099996720535828906 0.011422835410068445 0.17902031209699251 -0.092672536702286812 0.040549303817946018 -0.052058617551341779 -0.11276033272166547 0.18616042085110884 0.12893969275470293 -0.028495962830269079 0.19823585561421486 0.11004375244752998 0.022544194990302909 0.10566557513063064 -0.11237597742911594 0.050557469485129791 0.059394282364481958 -0.10551859860537252 0.085875160913657753 -0.028163703714118839 0.1603096585810237 0.13893601569498351 -0.12241527582081202 0.24617976408568945 -0.0098282537967025567 0.0083136206323834502 0.11699118429047728 -0.11810033129373175 0.21938216828987822 -0.01818725680620974 0.20395689928437932 -0.093277108245580095 -0.12587320404229657 0.056279530563061925 -0.12649867688707653 -0.13002017521507134 0.10568991427007804 0.095892199164679129 -0.096574238372661214 0.18625701920368457 -0.11190309608896985 -0.10952652662749113 -0.11895748089808347 -0.12718025345318226 0.20512654597366264 -0.12050842608728501 -0.1604717931131055 -0.12515745369652995 -0.12509944206168805 -0.10829818915036904 -0.13359206888690389 -0.11119665806912352 -0.11530797404846355
leaf_weight=20063.259915398434 70.280555495992303 85.289291352033615 8276.1522362940013 1007.4111292809248 1682.4979951120913 338.9987939670682 3751.285745350644 349.05532825551927 286.19353286549449 503.24008022621274 14401.291534893215 706.5293792784214 1319.242929879576 15591.011850800365 703.0763811506331 4520.1944429166615 1121.4409739971161 5514.9441062957048 1539.7483306992799 167.01049247384071 10828.809047657996 1208.6285911947489 3714.9273717701435 435.72900860756636 73.569437211379409 11.603236654773356 136.41184706799686 1598.4809076990932 777.00237384065986 155.11823648959398 28.883502751588821 91.613013938069344 27.057408381253481 91.24101304076612 30.319378562271595 160.12326926738024 107.2328092455864 521.36810405924916 26.386710159480572 96.415727388113737 300.8113502766937 17.958425235003233 25.261919293552637 13.504744179546831 18.072400845587254 8.0197144020348787 6.6662961579859248 5.3836063519120243 12.375790208578108 71.101965326815844 72.82155529782176 7.321234377101062 46.587894476950169 4.4735749457031497 2.0275254622101784
leaf_count=35032 1243 491 27249 3795 3758 1723 10873 2128 1600 1133 20501 2642 2380 33894 1956 9170 5695 20441 6181 2723 27439 7176 4919 629 534 29 931 5573 2883 1321 35 253 103 1688 196 427 541 2619 61 493 13499 17 541 241 178 52 16 47 76 533 498 132 276 60 20
internal_value=0 0.0962605 0.0847752 0.0929336 0.0374113 0.133458 0.10353 0.0921819 0.068346 0.0180617 0.1055 0.121577 0.100439 0.116924 0.119838 0.076134 -0.0537922 0.0802264 0.0442014 0.124412 0.0815679 0.0208897 0.126048 0.0407084 0.0139174 0.0485639 0.144364 -0.0100718 0.071246 -0.00287723 -0.0517009 0.11164 0.0908514 -0.0252933 0.10787 -0.0832663 -0.0170303 -0.112457 -0.0767018 -0.0647596 -0.0437898 -0.0806405 0.0527511 -0.0851919 0.0238119 -0.110358 -0.00782697 -0.122796 -0.148357 -0.119586 -0.122663 -0.125527 -0.126749 -0.121457 -0.109818
internal_weight=0 100913 39113.7 34851.7 4150.35 2021.5 61799 36441.8 13062.5 4262.04 23379.3 15107.8 30701.4 16910.3 25357.1 8271.48 2128.85 13791.1 3388.03 23971.6 11177.9 2748.38 23778.2 1385.54 1818.76 1190.29 639.652 1884.67 1041.62 858.195 628.473 527.342 925.62 118.298 807.322 874.013 267.356 606.657 193.397 599.589 440.447 318.77 121.678 116.002 29.6756 148.666 19.1596 159.142 17.7594 141.383 86.3263 129.506 120.157 12.4933 9.34876
internal_count=268644 245254 118434 98935 14971 5481 126820 79926 36740 19499 43186 23143 83964 36274 46894 20043 9490 47690 15421 42735 29567 13357 39951 4159 23390 6906 2064 7173 5816 3277 16484 882 4870 1791 3079 4078 968 3110 2784 16449 14550 13516 1034 946 207 1090 128 1899 123 1776 739 962 810 112 152
is_linear=0
shrinkage=0.1


Tree=8
num_leaves=58
num_cat=0
split_feature=70 27 45 130 79 128 57 100 113 31 102 71 53 128 108 60 69 118 79 110 32 118 33 25 28 132 132 136 71 46 71 102 104 70 119 34 33 109 124 86 34 69 68 109 115 5 32 43 18 135 38 69 32 80 34 58 35
split_gain=1066.72 897.454 1675.36 849.138 2018.8 856.72 1272.74 826.717 811.39 793.483 790.084 665.796 727.023 571.257 689.799 516.754 533.315 512.277 506.061 513.263 456.784 448.359 369.979 332.829 600.916 313.708 296.142 269.985 220.773 251.364 203.695 182.82 179.701 52.0388 89.5571 79.6221 39.7609 36.1064 20.5533 166.942 6.14316 1.85824 0.838655 0.537027 0.473751 0.350275 0.116513 0.105786 0.0864948 0.052488 0.041098 0.0358823 0.0279774 0.0109008 0.0106389 0.0101156 0.00765562
threshold=-0.20500280708074567 1.1545372605323794 1.1346058249473574 1.0000000180025095e-35 -1.2894983887672422 1.0000000180025095e-35 0.91290378570556652 -0.70741495490074147 -0.84843277931213368 0.99724724888801586 -0.79587113857269276 -0.36884884536266321 1.1196776032447817 1.0000000180025095e-35 -0.90780892968177784 0.76535210013389599 -0.060177320614457123 -1.4882699847221372 -0.52269747853279103 -0.8608584702014922 0.96504500508308422 -1.4187056422233579 0.86640530824661266 1.2220184803009035 1.1136899590492251 1.0000000180025095e-35 1.0000000180025095e-35 1.0000000180025095e-35 -0.37089869379997248 1.1702942848205569 -0.34852339327335352 -0.81576374173164357 -0.75515481829643238 -0.14049937576055524 -1.6269018650054929 0.8635728955268861 0.9520646631717683 -1.1425636410713194 -1.3305197954177854 -1.3730320334434507 0.91296762228012096 -0.032978115603327744 0.095870584249496474 -1.1383699774742124 -1.3655980229377744 0.57863920927047741 0.96504500508308422 1.1619266867637636 1.7194750308990481 1.0000000180025095e-35 0.98281067609786998 -0.043179126456379884 0.85151308774948131 -1.1603462696075437 0.90106335282325756 0.87981140613555919 0.94409412145614635
decision_type=2 2 2 2 2 2 2 2 2 2 2 2 2 2 2 2 2 2 2 2 2 2 2 2 2 2 2 2 2 2 2 2 2 2 2 2 2 2 2 2 2 2 2 2 2 2 2 2 2 2 2 2 2 2 2 2 2
left_child=1 8 3 5 9 7 -7 -3 11 -5 13 12 27 30 -15 21 -17 22 19 23 -6 -12 -13 24 25 -2 -19 -1 46 -30 -4 -26 -14 34 35 51 38 -37 41 -40 48 -21 43 -36 49 -42 -25 56 52 54 -44 -20 -10 -50 -35 -47 -46
right_child=18 2 10 4 20 6 -8 -9 40 -11 15 17 32 14 -16 16 -18 26 33 36 -22 -23 -24 28 31 -27 -28 -29 29 -31 -32 -33 -34 44 42 37 -38 -39 39 -41 45 -43 50 -45 47 55 -48 -49 53 -51 -52 -53 -54 -55 -56 -57 -58
leaf_value=0.16396633926477913 0.077614963838616033 0.093163024823699508 -0.061352680616255498 0.016478300280930419 -0.038326822471521693 0.015310186076404241 0.11177883083319461 -0.05445135150593599 -0.10338908435253324 0.11125380277681518 0.11416232509411978 -0.052288227009776894 -0.067542990428553759 0.26326278045629692 -0.1033730029934822 0.096837107373091647 -0.0066541474595465753 0.088750414524346302 -0.11394576909033223 -0.13894113631890956 0.089202276414608789 -0.032621788612040535 0.16903828521765527 -0.13522154834219985 0.28138127955019054 0.0055015972188212393 -0.087916019522336603 0.32181049231722758 0.20706597816496639 -0.017349225348934967 0.30256392139331645 -0.059696259391493339 0.15359430554429887 -0.10204057015377649 -0.11521665243330617 -0.10864927985886177 0.14867609657701186 0.17089536156552565 -0.12460127764910099 0.32784589229132466 -0.14147715039116293 -0.11624459270795935 -0.10472388502143047 -0.14579444966007579 -0.11156478282379825 -0.1720326801356899 -0.14953310715210438 -0.14016925284471751 -0.11220176217207081 -0.12061348967515165 -0.11312535075570916 -0.10513515530239975 -0.12323366145882449 -0.12112238678158956 -0.11253434864753929 -0.17773798665787738 -0.12088562432174782
leaf_weight=3052.3966051582247 2728.4416939243674 76361.005475053564 1262.4709351472557 1137.0406178627163 2077.5247188396752 3548.7920514605939 2225.1498711034656 381.29644510895014 107.92369765602052 3959.6945803575218 264.44966757297516 92.489507503807545 169.91997120529413 130.61096228659153 84.525312550365925 2392.7086399868131 628.79645603895187 150.81784944050014 7.6880418993532684 54.236550945788622 324.76724202930927 976.57031161338091 411.85681071132421 16.41521476209164 16.182302610948682 774.48007711023092 255.84032563865185 112.35183995589614 279.68062642589211 60.753135357052088 15.57041562348604 544.31018995307386 46.887378059327602 233.07327556237578 9.7188363820314425 5.2733369413763276 6.3589347898960105 37.317892534658313 54.54896198771894 9.5886127054691297 3.849836818873885 107.7141846138984 18.009076131507758 14.042164213955401 1.8850615061819547 4.8619624227285376 8.7052886337041837 3.6593454107642174 6.7512633930891752 1.5388016551733006 8.6044175848364812 11.592082375660537 0.71514018811285396 1.7185314372181872 0.97014893405139346 8.61272946000099 1.6546955276280639
leaf_count=4114 13080 157682 6419 3658 10753 10689 4417 1620 3659 7372 398 329 1363 215 509 7081 2404 520 78 291 829 4235 413 87 30 5873 970 58 446 340 20 2635 134 12064 111 99 13 96 697 7 21 1258 533 103 26 20 40 24 90 11 234 388 6 13 19 35 15
internal_value=0 0.085397 0.0833623 0.0867067 0.0544888 0.0896347 0.0524871 0.0924296 0.129416 0.0901102 0.0310569 0.136992 0.157434 -0.0315418 0.119215 0.0529854 0.0752998 0.0611151 0.0381433 0.0469087 -0.0210861 -0.00134348 0.12845 0.0545106 0.0462884 0.061671 -0.0223955 0.16957 0.145907 0.167017 -0.0569191 -0.0498488 -0.0197192 -0.0769451 -0.020639 0.0599592 -0.0979351 0.136284 -0.104871 -0.0569601 -0.112501 -0.123846 -0.119632 -0.133287 -0.102977 -0.168079 -0.140181 -0.128247 -0.104279 -0.102205 -0.10744 -0.108648 -0.10352 -0.114012 -0.102084 -0.175679 -0.115922
internal_weight=0 100198 95771 90015.3 7499.03 82516.2 5773.94 76742.3 4426.99 5096.74 5755.7 4292.56 3381.56 1493.18 215.136 4262.53 3021.51 911.004 5016.44 4661.42 2402.29 1241.02 504.346 4428.97 4063.41 3502.92 406.658 3164.75 365.554 340.434 1278.04 560.492 216.807 355.027 112.246 61.8714 232.447 42.5912 226.088 64.1376 134.433 161.951 50.3745 23.761 242.781 17.3245 25.1205 7.1991 117.109 235.582 26.6135 19.2801 108.639 8.46979 234.043 13.4747 3.53976
internal_count=268644 230046 218301 197020 22612 174408 15106 159302 11745 11030 21281 7901 5669 7163 724 14118 9485 2232 38598 24797 11582 4633 742 22531 21618 18953 1490 4172 913 786 6439 2665 1497 13801 1642 661 2266 195 2253 704 3844 1549 981 214 12159 76 127 65 3768 12094 767 466 3665 103 12083 55 41
is_linear=0
shrinkage=0.1


Tree=9
num_leaves=62
num_cat=0
split_feature=53 29 103 76 0 33 109 106 102 30 107 52 113 4 129 135 135 132 135 72 27 30 132 104 14 86 123 57 27 74 48 32 136 0 49 99 58 25 27 108 103 2 124 20 67 58 51 65 107 123 46 0 31 11 115 56 32 50 33 97 31
split_gain=984.168 1354.96 1267.17 975.099 941.68 824.837 2554.9 720.668 693.778 1176.11 826.528 799.934 774.421 693.726 876.866 658.676 607.502 537.814 512.164 498.454 450.558 388.159 366.812 309.319 398.653 317.911 283.049 278.52 262.394 330.393 252.326 249.773 238.608 223.853 217.314 204.104 200.177 230.257 198.072 184.977 178.317 165.811 141.63 139.761 138.093 132.517 182.219 130.481 125.034 61.7294 57.7554 52.6551 50.6688 36.133 23.7309 19.4793 4.40595 0.854696 0.326747 0.229134 0.15885
threshold=0.99919098615646373 1.1511564850807192 -0.87701079249382008 -1.2133290171623228 0.41049562394618994 0.85996529459953319 -1.0122556686401365 -0.94368627667427052 -0.92573013901710499 1.0968257784843447 -0.92939069867134083 0.97635403275489818 -0.91704052686691273 0.51892301440238964 1.0000000180025095e-35 1.0000000180025095e-35 1.0000000180025095e-35 1.0000000180025095e-35 1.0000000180025095e-35 -0.69098705053329457 1.2435969710350039 1.072185277938843 1.0000000180025095e-35 -0.91116631031036366 1.0999473333358767 -1.2821205258369444 -1.5960147976875303 0.82286947965621959 1.2910762429237368 -0.96277743577957142 1.1639981865882876 0.87936466932296764 1.0000000180025095e-35 0.58145233988761913 1.1073133349418642 -0.98040282726287831 0.77009227871894848 1.5928864479064944 1.3253902792930605 -1.047082722187042 -0.91510501503944386 0.54156219959259044 -1.289170980453491 1.571259140968323 0.017924168147146705 0.7780158817768098 1.0326521396636965 0.18521416932344439 -1.0190764069557188 -1.0777474045753477 1.0419008731842043 0.42713478207588201 1.0170786976814272 0.7402096986770631 -1.016988933086395 0.87592825293540966 0.89678534865379345 1.0981733202934267 0.86326679587364208 -0.85035380721092213 1.0091230273246767
decision_type=2 2 2 2 2 2 2 2 2 2 2 2 2 2 2 2 2 2 2 2 2 2 2 2 2 2 2 2 2 2 2 2 2 2 2 2 2 2 2 2 2 2 2 2 2 2 2 2 2 2 2 2 2 2 2 2 2 2 2 2 2
left_child=1 3 17 21 26 6 30 15 10 11 33 -10 -12 18 -15 20 19 23 -9 35 -7 45 -21 32 25 -25 38 58 41 -30 51 -32 43 -6 -17 -5 37 -18 48 57 -11 -8 -34 -2 47 49 -47 -23 -3 -1 -38 -4 55 -41 -26 -28 -40 -29 59 -19 -46
right_child=2 4 5 16 8 7 28 13 9 40 12 -13 -14 14 -16 34 36 27 -20 22 -22 44 -24 24 54 -27 52 39 29 -31 31 -33 42 -35 -36 -37 50 -39 56 53 -42 -43 -44 -45 60 46 -48 -49 -50 -51 -52 -53 -54 -55 -56 -57 -58 -59 -60 -61 -62
leaf_value=-0.17143207231471413 -0.093674994841375425 -0.1982898912832104 -0.12189906630919248 -0.085827528954619564 0.033680608110928129 0.12554758657268492 0.18809776354471602 0.047161582528844254 0.10657403832137394 0.015580187060770606 -0.021862907288160774 0.063225044193575372 0.089510022738384751 0.069610179240129605 0.11160861947391021 0.078461111526357416 -0.16520138377914415 -0.17946068703788834 0.12141445659001067 0.12119601083972452 0.049919860793883025 -0.15701866741539816 0.06395141967869504 -0.066569819402153271 0.21914961594585761 0.021839893252517024 -0.17524264347061294 -0.17677030419794038 -0.14401361182323946 0.1247895188276042 -0.060379116451797325 0.11963358159736237 0.14625640375276927 0.11358123804777323 -0.12323203235774594 0.16279199746601658 0.14527678777080208 0.17574991521707942 -0.13369132389906321 0.33069193687139198 -0.092191132742373172 -0.15948986948904798 -0.13210634748895372 0.11165376863947041 -0.16879858093481637 0.070560325396312004 -0.16626640377810151 0.17098056845730583 0.09520439223312753 -0.069461741351485085 -0.059310748225947375 0.17453606693846432 0.069256687412687853 0.19761609429115023 0.13344404386149641 -0.080970421192911882 -0.19210491838932464 -0.11948955947458084 -0.18403051546906379 -0.15092414691791961 -0.14804303752043965
leaf_weight=100.83979051560163 582.91827884316444 16.170434460043907 725.00731332972646 33.403421923518181 462.78067178279161 4572.3478670828044 579.11859483644366 16143.723212912679 10854.936526022851 257.61941454187036 2163.2653877511621 7003.4276101477444 877.62385994940996 37011.989384137094 5742.5785875283182 79.917548164725304 123.531863540411 3.3761362582445207 985.64454141817987 6743.2619103118777 951.71798197925091 13.255551554262636 1342.1712390482426 506.52613623067737 40.456112245097756 2064.3966994322836 183.24447475373745 10.588559336960314 61.471788287162781 178.51257961243391 446.27751730382442 93.171928733587265 79.486910846084356 1447.0213795732707 161.11767070181668 2879.2907606698573 53.697787284851074 23.589836433529854 31.519832000136375 22.941818224266171 379.97130709886551 14.057249426841734 23.736352279782295 35.149105623364449 10.839028894901277 117.48495122790337 44.907217472791672 142.63168193027377 141.82125751674175 144.3485407307744 18.57062178850174 6.0420657396316519 9.7517463415861112 184.41387401521206 160.38531178608537 24.896143808960915 21.873232766985893 3.4548614211380473 5.0842029303312293 16.891724403947592 5.5886098593473426
leaf_count=425 4543 66 3741 167 1241 7554 862 62728 14802 848 8198 14101 2165 82108 10299 216 494 14 2595 7207 2679 67 2130 2636 35 8826 798 45 314 378 12401 185 372 2175 876 2397 44 9 171 26 1799 66 187 84 46 215 198 191 202 4039 54 3 21 91 165 82 89 34 21 90 29
internal_value=0 0.0869222 0.0665864 0.114648 0.0732227 0.0697143 0.00807647 0.0716894 0.0759099 0.0848094 0.0426611 0.0895741 0.0102802 0.0684385 0.0752512 0.105457 0.121184 0.00992004 0.0514342 0.124471 0.112518 -0.0117983 0.111693 -0.000158982 0.0150212 0.00442131 -0.0735493 0.152601 0.144165 0.0559358 -0.0811669 -0.0292879 -0.0584932 0.0942198 -0.0563587 0.159941 -0.043585 -0.110532 0.00889226 0.188552 -0.048646 0.179861 0.0822464 -0.0819981 0.114029 -0.0649949 0.0050693 0.14309 0.0651653 -0.1114 0.0927045 -0.119449 -0.153529 0.21234 0.150708 -0.163967 -0.157621 -0.162679 -0.161364 -0.155678 -0.161738
internal_weight=0 35673.3 71492.5 11797.4 23875.9 67752.7 2103.66 65649 23446.6 18496 4950.69 17858.4 3040.89 59883.9 42754.6 5765.1 11217.5 3739.81 17129.4 10998.1 5524.07 579.895 8085.43 3493.05 2771.76 2570.92 429.277 246.751 833.16 239.984 1270.5 539.449 721.291 1909.8 241.035 2912.69 219.39 147.122 211.385 221.399 637.591 593.176 103.223 618.067 172.315 407.58 162.392 155.887 157.992 245.188 72.2684 731.049 217.892 207.356 200.841 208.141 53.3931 14.0434 25.3521 20.2679 16.4276
internal_count=268644 64470 204174 17712 46758 187005 17950 169055 45329 31550 13779 28903 10363 157730 92407 11325 12502 17169 65323 11901 10233 5210 9337 16848 11662 11462 1429 321 1620 692 16330 12586 5186 3416 1092 2564 601 503 528 196 2647 928 559 4627 333 4877 413 258 268 4464 98 3744 901 117 200 880 260 79 125 104 75
is_linear=0
shrinkage=0.1


Tree=10
num_leaves=63
num_cat=0
split_feature=52 101 6 29 32 76 136 125 52 57 101 103 30 20 80 82 5 103 0 26 133 72 71 55 36 0 5 32 108 73 78 69 3 49 107 112 100 26 57 132 52 0 74 39 101 70 93 5 18 44 127 98 3 105 25 105 26 71 31 105 29 52
split_gain=881.12 1501.14 868.072 857.998 820.541 953.151 932.449 785.526 773.676 779.683 756.753 756.457 1191.93 704.459 696.371 624.097 757.278 562.675 548.109 488.611 475.778 907.72 720.673 567.462 456.811 431.75 554.432 443.41 428.245 411.307 406.672 657.974 458.431 339.808 331.161 309.123 293.604 263.945 241.319 235.7 226.712 312.043 369.101 222.388 187.735 177.755 169.394 154.191 141.785 133.68 122.522 118.739 162.48 115.201 104.104 101.004 100.666 98.7701 142.458 95.718 92.9475 79.9337
threshold=1.0657910704612734 -0.85468661785125721 0.62018528580665599 1.1283199191093447 0.96252164244651806 -1.1019564270973203 1.0000000180025095e-35 -1.5289986729621885 1.0190859436988833 0.82758215069770824 -0.83364024758338917 -0.91077998280525196 1.094877362251282 1.2775537371635439 -1.1793865561485288 -1.180212616920471 0.75531724095344555 -0.80389922857284535 0.48949487507343298 1.2721209526062014 1.0000000180025095e-35 -0.61141103506088246 -0.44389915466308588 0.94111701846122753 0.90644487738609325 0.43462699651718145 0.61036783456802379 0.95139163732528698 -0.89275118708610524 -0.91570842266082753 -1.2785356044769285 -0.20725402981042859 0.59585842490196239 1.0929206013679507 -1.0057102441787718 -0.9828023612499236 -0.8238217532634734 1.3110164999961855 0.86096787452697765 1.0000000180025095e-35 1.0813674330711367 0.4546117782592774 -0.98426049947738636 0.99478697776794445 -0.89524152874946583 -0.32844206690788263 -1.1191346645355222 0.58254483342170726 1.2192276716232302 1.0393493175506594 -1.5466532707214353 -0.87527713179588307 0.49946533143520361 -0.8741750419139861 1.3473639488220217 -0.89808455109596241 1.2850087285041811 -0.41159735620021815 1.0100206732749941 -0.89933094382286061 1.1222745180130007 1.0679766535758974
decision_type=2 2 2 2 2 2 2 2 2 2 2 2 2 2 2 2 2 2 2 2 2 2 2 2 2 2 2 2 2 2 2 2 2 2 2 2 2 2 2 2 2 2 2 2 2 2 2 2 2 2 2 2 2 2 2 2 2 2 2 2 2 2
left_child=3 13 4 17 6 10 14 -8 11 39 -6 15 29 40 -3 16 -5 20 -17 44 21 23 33 -1 48 51 46 -28 37 -13 32 -32 -11 -22 -23 -7 50 -21 -24 45 41 42 -2 -38 49 -10 -27 -41 55 -15 -26 60 -53 -46 -50 -19 -30 -42 -59 -14 -4 -43
right_child=1 2 25 8 5 35 7 -9 9 30 -12 12 59 19 -16 18 -18 24 -20 28 22 34 38 -25 36 26 27 -29 56 -31 31 -33 -34 -35 -36 -37 43 -39 -40 47 57 61 -44 -45 53 -47 -48 -49 54 -51 -52 52 -54 -55 -56 -57 -58 58 -60 -61 -62 -63
leaf_value=0.12262362364509456 0.069324959506252046 0.017823812512477055 0.16294204239731302 -0.022325720415469846 -0.006893140003409317 -0.0060307429550231252 0.12093510898907818 0.019881806102527468 -0.063930518837761352 -0.034666265012820684 0.094443869992446736 0.12974893204669743 -0.041265833680794894 0.11337345044742474 0.053652251557743315 -0.044794641989506452 0.064063579463864623 0.078091889005508758 0.082453586631587528 0.10269158063370523 0.08088549696046865 0.090571842790678453 0.13960281089447663 0.081753650930512817 -0.094043882595297584 0.075760560465808854 -0.17444876456944783 0.11375636774579019 -0.0028392233166907362 0.08240623366559581 0.031943643084966923 0.088411849987441504 0.047688135315599567 -0.087309998064125927 0.0021768880054356767 0.13082985369182348 0.14044732731126591 -0.058017746188009534 0.21471708963919706 -0.15334054932917046 -0.10604376314208266 -0.042675343884843148 -0.061955425115106592 -0.028953537109866402 0.47245163848065225 0.1337489659112403 -0.088481278745640032 0.17126896384398513 0.16725620369431862 -0.12178988549741432 0.074046582493136379 0.30844012303376289 -0.1716831430381941 0.18581445165268623 -0.1501566647677513 -0.13395009687532855 -0.12333764885428451 -0.11765042040877333 0.29670361340361973 -0.13623080042784036 0.026027288138893524 -0.15633740925474382
leaf_weight=4869.4176336433738 434.92702379077673 10181.046332083642 1255.1538626551628 2082.6133698523045 795.00182636082172 1596.5567302517593 2613.2281292937696 1090.1278403699398 909.59187303297222 1032.0630175285041 10085.928018491715 2042.2156974188983 299.77838768437505 91.914270842447877 11612.181620120071 366.06765722110868 1978.8198032006621 24.787455338984728 4495.5619104877114 394.36083610355854 757.44895148277283 575.16004843823612 1481.1185142397881 11236.971742928028 135.57172449678183 86.836414203047752 55.424177467823029 1449.4035611450672 101.38208818435669 18094.871737439185 3841.227315755561 4458.6234733648598 1958.8110585510731 142.7553283572197 1610.753559011966 184.06048375368118 367.69857648015022 137.94176871143281 601.36351685225964 18.014597408473492 663.31287351809442 93.79913517087698 421.92478227429092 98.190961863845587 15.11071105673909 47.88291123509407 226.82323957979679 77.956049621105194 34.139072526246309 32.798473004251719 63.757503271102905 9.955118563026188 24.140810966491699 194.50887567549944 14.817572489380835 239.68967165797949 219.29006301797926 18.323979858309031 15.1639740280807 164.31194129958749 51.622782096266747 181.7805207669735
leaf_count=6847 995 34508 1033 6814 2272 6724 5685 2715 3721 3354 21776 2080 1240 210 50414 1133 4729 42 8395 1505 1101 736 1144 19465 449 134 230 1789 473 27505 12397 9107 5086 571 4159 618 456 1089 550 88 4005 308 1726 303 14 43 742 69 68 396 110 6 105 172 74 3125 1995 193 24 822 150 855
internal_value=0 0.0543303 0.0593023 0.0726649 0.0551315 0.0759407 0.0447977 0.0911888 0.0642317 0.0432086 0.0870398 0.0730214 0.0835559 -0.0137709 0.0369144 0.0486998 0.0197651 0.0885315 0.0728721 0.0462118 0.0919419 0.0859033 0.128976 0.0941098 0.0143921 0.109676 0.0779326 0.103142 0.0060493 0.0872075 0.0508853 0.062278 0.01927 0.0542129 0.0254355 0.00811639 0.0612891 0.0610451 0.161294 -0.0390692 -0.0527041 -0.0250887 0.00468082 0.104744 0.148678 -0.0540447 -0.0430111 0.110337 -0.08514 0.0515273 -0.0402784 0.152727 -0.0314997 0.206477 0.0711857 -0.114077 -0.0852415 -0.0975843 0.0699769 -0.0748883 0.157533 -0.11765
internal_weight=0 44334 41317.5 64122.1 38158.1 12661.5 25496.6 3703.36 41868.4 12344.2 10880.9 29524.2 20601.2 3016.54 21793.2 8923.06 4061.43 22253.6 4861.63 1187.31 21275 18292.3 2982.69 16106.4 978.653 3159.36 1818.49 1504.83 852.975 20137.1 11290.7 8299.85 2990.87 900.204 2185.91 1780.62 665.219 532.303 2082.48 1053.45 1829.23 1132.43 856.852 465.89 334.332 957.475 313.66 95.9706 313.434 124.713 199.329 1340.87 34.0959 209.62 48.9566 264.477 320.672 696.801 33.488 464.09 1306.78 275.58
internal_count=268644 142861 128901 125783 124712 31390 93322 8400 86583 33865 24048 52718 31647 13960 84922 21071 11543 39200 9528 5854 34573 31207 3366 26312 4627 4189 2895 2019 5062 29585 29944 21504 8440 1672 4895 7342 1318 2594 1694 3921 8106 3884 2721 759 792 3764 876 157 3309 606 559 1294 111 186 142 3167 2468 4222 217 2062 1183 1163
is_linear=0
shrinkage=0.1


Tree=11
num_leaves=61
num_cat=0
split_feature=69 29 45 72 0 92 107 91 130 55 53 33 26 31 68 99 32 128 100 132 39 24 8 132 135 32 104 68 27 42 64 123 103 40 73 128 69 60 29 7 61 69 115 25 128 51 69 35 50 127 65 69 107 29 69 25 32 68 69 111
split_gain=772.273 629.019 1425.69 973.582 784.375 647.555 760.156 704.48 568.213 562.862 554.1 547.094 534.774 525.567 508.833 543.837 492 463.988 421.242 557.401 409.529 337.813 303.866 292.173 277.19 267.873 221.625 210.855 513.663 334.098 302.267 275.724 201.561 188.807 186.913 166.789 164.631 120.941 120.065 117.238 161.858 112.561 232.586 109.202 98.9414 132.477 96.8996 86.3727 71.5634 70.3821 70.2401 49.3781 31.7263 28.7441 7.22885 50.553 6.7386 0.588111 0.311001 0.12557
threshold=-0.046907572075724595 1.079944431781769 1.1346058249473574 -0.54334640502929676 0.20932338386774066 -0.9335518181324004 -0.99818518757820118 -1.2175858020782468 1.0000000180025095e-35 1.0276300907135012 1.1180472373962405 0.85622078180313121 1.2365990877151491 0.95447102189064037 0.080542150884866728 -0.83456087112426747 0.91326344013214122 1.0000000180025095e-35 -0.78795281052589405 1.0000000180025095e-35 1.0151835083961489 1.3074494600296023 0.45248709619045263 1.0000000180025095e-35 1.0000000180025095e-35 0.96891993284225475 -0.77193108201026905 0.10809064656496049 1.1408603191375735 1.1156885027885439 0.50397092103958141 -1.7166181802749632 -0.82214814424514759 1.0470472574234011 -0.69847598671913136 1.0000000180025095e-35 -0.018001673743128773 0.76362872123718273 1.0722170472145083 0.56106823682785045 0.72394531965255748 -0.015466737095266579 -1.4475766420364378 1.1167283058166506 1.0000000180025095e-35 1.1255787611007693 -0.030591809190809723 0.88288861513137828 1.1710965037345888 -1.8575264811515806 0.39913527667522436 -0.04501653462648391 -0.99937844276428212 1.0792115926742556 -0.0065427054651081553 1.0576893687248232 0.90526297688484203 0.10809064656496049 -0.039177726954221719 -1.1738632321357725
decision_type=2 2 2 2 2 2 2 2 2 2 2 2 2 2 2 2 2 2 2 2 2 2 2 2 2 2 2 2 2 2 2 2 2 2 2 2 2 2 2 2 2 2 2 2 2 2 2 2 2 2 2 2 2 2 2 2 2 2 2 2
left_child=1 5 3 4 21 7 11 53 -6 13 17 52 14 -8 15 -4 32 -9 25 27 -13 -3 -16 -18 -11 34 35 29 36 30 -20 -30 -5 37 39 -14 -29 58 46 50 -41 42 47 -12 45 -36 -35 -21 -44 -39 -2 -31 -7 56 55 -43 -1 -40 -27 -56
right_child=18 2 12 16 8 6 9 10 -10 24 43 20 26 -15 22 -17 23 -19 19 41 -22 -23 -24 -25 -26 33 -28 28 31 51 -32 -33 -34 38 44 -37 -38 49 57 40 -42 54 48 -45 -46 -47 -48 -49 -50 -51 -52 -53 -54 -55 59 -57 -58 -59 -60 -61
leaf_value=-0.10467050600099835 0.21077997330399528 0.17223256298718015 -0.11004523071838729 0.055668714093776606 0.061892073177959819 -0.15790207755975599 -0.079501936141185697 0.14930062515494422 0.033283463237126797 0.046949001116495345 0.16138958997039166 0.11025863332501273 -0.097356504395058968 0.047897852329502076 0.15717820693171455 0.044552727931922609 0.1620031865330529 0.072210440772149775 0.053889559981854795 -0.10938148014245699 -0.075738089661875063 -0.082357766036230518 -0.11514830254220523 -0.18122760119529241 0.16997572105144412 -0.1686540955785385 0.22125682244938638 0.092828180430556573 0.15422181749675909 0.024058522821460728 0.16242478460697707 -0.11729932215187369 -0.16094679966978864 0.19161699812606861 0.20225652370597647 0.093064444357652251 0.028022360994542986 0.013250947249787207 -0.14810496011365781 -0.070778575638554844 0.074432621117604847 0.20434500807423667 -0.11834675907913578 -0.10551690027158722 0.33148010377279724 -0.12011673526656644 -0.12155987744390787 0.16961903472795126 0.0015802830658100148 0.14566371984997487 -0.12540488607442388 -0.13413661872349039 0.024977102129700293 0.073793630036185595 -0.10212131399158531 -0.10577485192828505 -0.16803103055936547 -0.12752566620609149 -0.14153009248232509 -0.12132067234821586
leaf_weight=117.34472633898258 6.334599941968917 57.873327344655991 248.01223801076412 142.12784115225077 80690.595961540937 87.063753366470337 747.32224808167666 2865.4800632819533 7596.0938419792801 917.80857689585537 17.478522407822311 2843.2213194482028 693.94578842632473 571.39029843360186 45.984216317534447 2756.8081351146102 1437.7820922769606 1073.1350764483213 549.59662508964539 13.046824732795356 123.52166529744864 524.13535277731717 376.00911276042461 25.236192867159843 228.7902878317982 10.727054730057718 24.448790654540062 704.60367679037154 43.125914245843887 27.521540503948927 481.31022424995899 281.66208064183593 61.562780812382698 25.656735129654408 24.744140373542905 49.263236213475466 883.54862504918128 52.892042402178049 52.246181279420853 388.78742429800332 95.642904989421368 6.2549235057085744 116.79387825727463 124.63856772705913 14.589591840282081 26.292735719121993 16.0663768555969 74.20873992703855 86.689237509854138 166.53016271069646 328.67666659876704 69.702953513711691 10.646137259900568 8.692590765655039 253.49878682941198 32.926742430776358 19.587247788906097 18.913832854479551 6.9764200150966635 3.4529432021081439
leaf_count=3838 8 64 1261 256 164466 468 4195 3548 22025 3187 44 3155 3744 1604 116 8599 1473 2323 1345 317 593 2475 1727 110 393 45 26 1795 90 108 726 1979 288 29 27 152 6925 175 254 1977 446 31 1501 1174 27 297 147 177 1081 215 2231 417 32 22 13607 1016 85 127 36 45
internal_value=0 0.0599374 0.0574474 0.060088 0.0586678 0.0841147 0.0615915 0.113584 0.0594306 0.0202546 0.121297 0.0948465 0.000451939 -0.0243004 0.0173519 0.0317925 0.13581 0.128296 0.0191702 0.0363426 0.102515 -0.057042 -0.0854731 0.156083 0.0714975 -0.0312723 -0.0749892 0.0535617 0.0333405 0.0878503 0.104563 -0.0812463 -0.00980044 0.0427848 -0.0605588 -0.0847345 0.0567743 0.0934599 -0.0636648 -0.0735639 -0.042109 -0.0528842 -0.00868495 -0.0726909 0.101828 0.0361791 0.0710215 0.127902 -0.0672546 0.113745 -0.119048 -0.089356 -0.137976 -0.10254 -0.0962782 -0.0562676 -0.113734 -0.142635 -0.157965 -0.102379
internal_weight=0 104486 94729.9 90535.4 88868.7 9756.12 5529.76 4226.36 88286.7 2465.31 4080.73 3064.45 4194.47 1318.71 3426.81 3004.82 1666.71 3938.62 4863.02 3627.94 2966.74 582.009 421.993 1463.02 1146.6 1235.08 767.658 3041.07 1912.94 1128.13 1030.91 324.788 203.691 350.009 885.068 743.209 1588.15 237.126 112.883 819.442 484.43 586.872 290.739 142.117 65.6265 51.0369 41.7231 87.2556 203.483 219.422 335.011 97.2245 97.7099 145.625 296.133 39.1817 136.932 71.16 17.7035 256.952
internal_count=268644 231443 206782 191157 189030 24661 13627 11034 186491 9379 7089 4248 15625 5799 11703 9860 2127 5871 37201 31160 3748 2539 1843 1583 3580 6041 3922 13385 10789 2596 2071 2069 544 1028 5013 3896 8720 471 557 4662 2423 17775 3076 1218 351 324 176 494 2582 390 2239 525 500 3945 14699 1047 3923 381 81 13652
is_linear=0
shrinkage=0.1


Tree=12
num_leaves=61
num_cat=0
split_feature=53 29 26 76 0 0 20 102 75 74 30 42 53 31 135 101 32 38 72 36 132 60 101 30 130 100 32 106 123 70 132 114 36 30 99 57 45 58 25 27 136 56 87 75 23 67 111 65 135 68 31 42 56 32 73 52 30 53 11 71
split_gain=745.376 1091.57 919.939 755.676 728.621 629.898 618.441 784.943 601.285 727.641 883.015 532.814 511.158 504.979 486.33 456.662 406.112 327.531 326.939 324.512 315.161 301.4 292.025 290.652 280.955 239.954 237.883 232.82 228.519 222.369 211.304 213.091 206.322 198.374 178.351 168.718 165.107 163.655 185.314 162.36 138.678 122.444 108.918 130.397 107.715 105.735 104.529 101.136 79.0201 77.4258 74.9564 42.1374 17.2584 3.64291 1.58918 1.31348 0.879334 0.497381 0.142116 0.137795
threshold=0.99919098615646373 1.1511564850807192 1.3227494955062868 -1.2133290171623228 0.41049562394618994 0.35974657535552984 1.3365968465805056 -0.8836819827556609 -1.1200108528137205 -0.98848986625671376 1.0931050181388857 1.114260792732239 0.95778045058250438 0.90744510293006908 1.0000000180025095e-35 -0.88279223442077626 0.96288046240806591 0.89198061823844921 -0.69098705053329457 0.88388738036155712 1.0000000180025095e-35 0.79228827357292186 -0.92402628064155568 1.072185277938843 1.0000000180025095e-35 -0.78127464652061451 0.92807173728942882 -0.88484388589858998 -1.5960147976875303 -0.34890140593051905 1.0000000180025095e-35 -0.96796017885208119 0.8759862780570985 1.0740665197372439 -0.95482459664344776 0.8493042290210725 1.0747277140617373 0.77009227871894848 1.5928864479064944 1.3253902792930605 1.0000000180025095e-35 0.88932508230209362 -1.2766187191009519 -1.1744042634963987 1.3796998262405398 0.017924168147146705 -1.1412211656570432 0.18521416932344439 1.0000000180025095e-35 -0.053999975323677056 0.9957500994205476 1.0044764876365664 0.87592825293540966 0.89678534865379345 -0.85903888940811146 1.040796756744385 1.033393442630768 1.014110863208771 0.6588016450405122 -0.52981108427047718
decision_type=2 2 2 2 2 2 2 2 2 2 2 2 2 2 2 2 2 2 2 2 2 2 2 2 2 2 2 2 2 2 2 2 2 2 2 2 2 2 2 2 2 2 2 2 2 2 2 2 2 2 2 2 2 2 2 2 2 2 2 2
left_child=1 3 6 23 28 29 7 19 12 10 -10 16 33 -11 18 30 -9 24 34 26 -20 -13 -14 42 -17 32 -2 -19 39 40 31 -7 35 -6 -5 -8 41 38 -16 46 48 -31 43 -1 -21 47 -3 -25 -4 -34 -39 52 -30 -41 -44 56 -27 -38 -57 -47
right_child=2 4 5 14 8 15 25 11 9 13 -12 21 22 -15 37 17 -18 27 20 44 -22 -23 -24 45 -26 55 -28 -29 51 36 -32 -33 49 -35 -36 -37 57 50 -40 53 -42 -43 54 -45 -46 59 -48 -49 -50 -51 -52 -53 -54 -55 -56 58 -58 -59 -60 -61
leaf_value=-0.11838116819753122 -0.10150864102955406 -0.09425121096093253 -0.11927255849592458 0.039611497440589463 -0.070790676918705747 -0.067782623826641519 0.096787830594012567 0.046286377647991685 0.039587162133279979 -0.10022818764896264 -0.047954102570383572 -0.11105197746436156 -0.034321323914660529 0.066836413997066788 -0.16268040954318996 0.096727548430312518 0.065264236078990553 0.024342488067457594 0.096321851238160339 -0.1143470675583409 0.042878863200589208 0.010937757201521615 0.076873759917708062 -0.15734492815281115 -0.13492498723092916 -0.1495679869911106 0.024055940545447393 -0.13474613493397603 -0.17092406651799705 -0.097562053348996841 0.17787563561316738 0.013484852999925257 -0.17208214364870034 0.12531057537172913 0.13341875522710853 0.16630331272673185 -0.17018168809698819 -0.1974438088942598 0.14822570818836098 -0.13355769472491544 0.26078413728560507 0.13566715689536032 -0.16455287732393287 0.012820374629712975 0.36860501186627004 -0.15277772438569473 0.093793578834792113 0.13004827744075287 -0.03815880602597619 0.20877461960252586 0.10903633266365842 0.052198680628784348 -0.082485849804359551 -0.18687616588369627 -0.21492618907853156 -0.13234592731037059 -0.20791368649806838 -0.12858636508330237 -0.14964905205654228 -0.17164661695754416
leaf_weight=130.4691062476486 183.34091228805482 39.382941573858261 576.293622052297 219.04388535022736 52.832462068647146 704.57101487834007 937.30034547485411 50920.175160483457 7583.9476800151169 183.82510544359684 1358.6616250053048 233.41171886119992 379.92387894541025 11478.037090569735 122.78018309175968 1108.4680261984468 14483.075112584978 535.26405067369342 6510.6237645708025 357.80654029082507 1328.628180116415 1530.9776831446216 624.26175144314766 13.320969894528387 54.950914349406958 4.1026524901390058 852.15767774730921 111.08056761324406 180.15333024039865 28.799200460314751 50.523787640035152 595.22898671030998 32.735321251675487 2184.7318610027432 2712.3860879279673 556.38945900462568 3.0694285929203025 9.1394231021404249 22.718570739030838 31.291755154728889 10.669618340209125 103.07160937786102 80.773140706121922 180.6212141867727 4.6785266399383536 9.991398364305498 118.52622902393341 151.57535789161921 151.72075242549181 6.3777530491352072 62.905548244714737 9.7960274666547758 25.145838364958763 21.70095819234848 6.7892525196075431 7.1420756503939655 6.9739135056734085 45.324848867952824 14.153052028268574 6.3173305541276923
leaf_count=4048 1410 121 3260 438 157 4025 1519 125346 15462 703 5587 1943 1402 18942 494 1915 31278 1518 7207 2884 2130 20342 986 67 330 20 3086 528 799 102 39 2401 183 2090 2126 680 13 37 9 171 19 232 349 452 31 48 147 191 637 12 61 19 83 89 28 40 28 285 68 27
internal_value=0 0.0637777 0.046216 0.089057 0.0517297 4.98043e-05 0.0489012 0.0474824 0.0540454 0.0477469 0.0262869 0.049026 0.0940788 0.064203 0.0949283 0.0212409 0.0504889 0.0540773 0.0979181 -0.0266819 0.0872641 -0.00520031 0.0348042 -0.0222033 0.0857861 0.111055 0.00182402 -0.00299843 -0.0778994 -0.0728221 -0.022768 -0.0305671 0.116745 0.12068 0.126409 0.122682 0.0267562 -0.0531019 -0.114135 -0.00393329 -0.0971228 0.0847323 -0.0699358 -0.0422046 -0.108114 0.0828085 0.0468947 0.106832 -0.102368 -0.10998 0.0701571 -0.150424 -0.160092 -0.155392 -0.168459 -0.158373 -0.186303 -0.131225 -0.143846 -0.160087
internal_weight=0 35840.3 74209.8 11568.1 24272.2 4079.04 70130.8 68565.6 23846.2 20604.5 8942.61 67167.6 3241.75 11661.9 10988.2 3160.09 65403.3 1809.76 10770.7 1397.98 7839.25 1764.39 1004.19 579.858 1163.42 1565.17 1035.5 646.345 425.997 918.949 1350.32 1299.8 1532.8 2237.56 2931.43 1493.69 180.265 217.544 145.499 210.902 738.684 131.871 398.653 311.09 362.485 181.205 157.909 164.896 728.014 39.1131 72.045 215.095 205.299 52.9927 87.5624 32.3717 11.0766 48.3943 21.2951 16.3087
internal_count=268644 64470 204174 17712 46758 15304 188870 186320 45329 40694 21049 178909 4635 19645 12502 10756 156624 4291 11901 7411 9337 22285 2388 5210 2245 2550 4496 2046 1429 4548 6465 6426 2394 2247 2564 2199 632 601 503 528 3916 334 4877 4500 2915 333 268 258 3897 195 98 901 882 260 377 156 48 298 108 75
is_linear=0
shrinkage=0.1


Tree=13
num_leaves=61
num_cat=0
split_feature=51 102 134 80 34 20 5 29 52 59 103 30 0 5 110 116 75 106 52 26 71 4 0 69 30 104 132 79 51 58 128 47 80 73 47 79 124 104 20 29 98 58 51 18 71 58 37 1 82 57 31 113 62 106 27 22 25 116 72 51
split_gain=701.602 1131.84 764.082 2704.26 1609.79 748.816 726.406 710.773 697.707 754.093 600.719 907.139 585.869 647.755 565.309 527.968 685.987 471.714 528.872 467.543 458.196 1198.82 449.253 436.062 396.343 401.654 391.562 385.717 379.3 369.93 523.468 368.422 332.519 332.219 299.619 670.742 261.175 198.119 174.542 181.248 151.905 138.139 184.081 164.709 130.944 125.381 133.755 124.138 119.411 94.1228 92.9193 118.704 84.8023 54.5477 42.7331 35.5783 136.017 24.2337 14.2141 9.16432
threshold=1.0844274163246157 -0.83820033073425282 1.0000000180025095e-35 -1.2027578353881834 0.90831264853477489 1.2371925711631777 0.54253831505775463 1.132941782474518 1.0050070285797121 0.67896747589111339 -0.91077998280525196 1.0931050181388857 0.35974657535552984 0.55161717534065258 -1.003235340118408 -1.0277419090270994 -1.0264425873756406 -0.79037493467330922 1.0238224864006045 1.2331221699714663 -0.58156397938728321 0.71488603949546825 0.34373429417610174 -0.094866670668125139 1.0859342813491824 -0.85288935899734486 1.0000000180025095e-35 -1.2625406980514524 1.0997100472450259 0.84099212288856517 1.0000000180025095e-35 1.0116921067237856 -1.3502929806709287 -0.91570842266082753 1.1188997030258181 -1.2247932553291319 -1.4530030488967893 -0.90151765942573536 1.4099668860435488 1.1449518799781802 -0.96791100502014149 0.86104726791381847 1.0955513119697573 1.1526107192039492 -0.54677894711494435 0.85806781053543102 0.92648673057556163 0.58869147300720226 -1.2983589172363279 0.8762483298778535 0.99821797013282787 -0.94498661160469044 0.59166380763053905 -0.78177994489669789 1.1872789859771731 1.2764012813568117 1.2630634903907778 -0.81121668219566334 -0.6935766041278838 1.1182211041450503
decision_type=2 2 2 2 2 2 2 2 2 2 2 2 2 2 2 2 2 2 2 2 2 2 2 2 2 2 2 2 2 2 2 2 2 2 2 2 2 2 2 2 2 2 2 2 2 2 2 2 2 2 2 2 2 2 2 2 2 2 2 2
left_child=7 5 6 34 14 41 15 17 10 38 20 33 27 -14 -5 16 -3 18 32 45 21 -9 -17 -6 25 -11 28 -8 -21 30 -20 -22 47 -12 35 -4 -34 -13 58 -40 -31 55 52 -44 -26 46 -7 -1 -36 -28 51 -19 -43 54 -52 59 -57 -53 -10 -2
right_child=1 2 3 4 23 19 12 8 9 24 11 37 13 -15 -16 22 -18 50 29 26 31 -23 -24 -25 44 -27 49 -29 -30 40 -32 -33 36 -35 48 -37 -38 -39 39 -41 -42 42 43 -45 -46 -47 -48 -49 -50 -51 53 57 -54 -55 -56 56 -58 -59 -60 -61
leaf_value=-0.19026345709233219 -0.1669949534688272 0.10180776174321171 -0.11985584232930098 -0.014018400596734993 -0.11666184688337605 0.12166129422838623 0.14823638746963777 -0.037187806438077391 -0.14132598043823599 0.042994819110752265 0.11084969527139088 0.0038308633857572424 -0.025588084722435261 0.060320045353520715 0.12783462618911975 0.018758214865224311 0.032278622733218625 0.13660725681154359 0.057161442175090227 0.014828288980678001 0.097964655812621565 0.051141619861903478 -0.070002318568912258 0.016347469992563538 -0.016815827101702142 -0.0055109095019712879 0.04162554887902694 0.031739559452666606 -0.062221386396978162 -0.17915110200940207 -0.021971753070269412 -0.029530930396038674 0.0704197500989414 0.066014473596436862 0.14161487613765952 0.083503028004721841 0.11332643995193165 -0.10112512301968564 0.10527098935634378 -0.073492280148633793 0.090248863673710628 -0.15595158685811941 -0.12399037740834862 0.11045085802624788 -0.11789425573160106 0.28917578112169406 -0.1392580841097022 0.0076852836389097699 -0.13482799810237528 0.35461700660130102 -0.18250336194931624 -0.18083933093496563 0.12825398903565968 0.19389911253637021 0.14168001994983195 0.074694926517455656 -0.15462420302953442 -0.10326097195161173 -0.19910495490375019 -0.12379053553817053
leaf_weight=47.477433167397976 237.2784575521946 1593.2928167954087 444.19912248849869 330.11422182992101 468.9777861982584 242.21912559308112 1169.0214113816619 2290.3918976150453 119.45755503326654 10975.117984775454 1892.4730397537351 407.25509341433644 929.39782840013504 15776.490505628288 1885.8558436185122 1867.0684274230152 12971.645292611793 17.998224327340722 16526.42304463312 2071.828512115404 1515.5896590128541 4668.367702325806 820.96677182987332 519.53335473313928 434.93930114991963 2021.5761116594076 12.979121172800658 375.50292997434735 923.79320145677775 21.055811189115047 880.47071247175336 266.50448815897107 2351.7475290857255 13042.475971058011 15.871979430317877 255.4743460714817 3575.6328238844872 322.09103252366185 66.910686209797859 372.29949681833386 3513.2738736718893 12.535351432859896 230.11263145692647 34.454390728846192 181.70908224582672 40.651259806007147 21.381383643485606 95.219396585598588 1006.2652781642973 36.990637667477131 10.475691974163057 66.008473671972752 64.62471616268158 17.638076364994049 6.645660161972045 34.653062516823411 101.99180965777487 103.24908796418458 66.157349813729525 61.904537098482251
leaf_count=205 1022 3282 1839 1107 2251 398 1399 7291 684 26149 1712 1256 3186 29933 3345 7907 55709 24 30032 7471 1600 10493 3752 1712 2099 5437 62 986 5594 92 2503 659 2722 18789 33 620 2549 1386 150 1655 4669 58 1390 84 930 19 211 988 4844 24 43 272 69 6 5 68 538 4355 283 693
internal_value=0 0.0368678 0.0419602 0.00505436 0.0593641 -0.0130145 0.047081 0.0531147 0.0443948 0.0268029 0.0546581 0.0663778 0.0609886 0.0555407 0.106703 0.0323695 0.0398846 0.0654881 0.0666812 0.0075067 0.0336554 0.0220691 -0.0083506 -0.0467559 0.0317333 0.03545 -0.00430138 0.119914 -0.00893238 0.0591477 0.0531587 0.0788982 0.0926713 0.0716957 -0.0960222 -0.0456027 0.0963028 -0.0425194 -0.0806179 -0.0462589 0.0886439 -0.101423 -0.053823 -0.0934592 -0.0466008 0.125707 0.100497 -0.0581753 -0.130535 0.273321 -0.0796798 -0.107553 0.0820822 0.0704763 -0.0566714 -0.138746 -0.096469 -0.133516 -0.16192 -0.158055
internal_weight=0 44557.1 40429.7 4926.29 3204.48 4127.4 35503.4 65876.6 38643.3 14238.2 24405.1 15664.3 18250.4 16705.9 2215.97 17253 14564.9 27233.3 27011.3 3349.84 8740.85 6958.76 2688.04 988.511 13613.3 12996.7 3045.59 1544.52 2995.62 20941.2 17406.9 1782.09 6070.08 14934.9 1721.81 699.673 5927.38 729.346 624.825 439.21 3534.33 777.555 341.727 264.567 616.648 304.252 263.601 142.697 1022.14 49.9698 222.015 187.256 77.1601 34.7594 17.1214 435.828 136.645 169.258 185.615 299.183
internal_count=268644 139606 121905 15751 8415 17701 106154 129038 80573 37387 43186 23143 35504 33119 4452 70650 58991 48465 43760 13779 20043 17784 11659 3963 34615 31586 13151 2385 13065 37296 32535 2259 6464 20501 7336 2459 5271 2642 2772 1805 4761 3922 1601 1474 3029 628 609 1193 4877 86 4705 4651 127 54 48 2321 606 4627 967 1715
is_linear=0
shrinkage=0.1


Tree=14
num_leaves=60
num_cat=0
split_feature=52 29 52 28 58 75 73 4 132 105 99 17 33 135 106 135 112 109 62 69 20 132 30 70 17 133 125 73 97 101 31 58 103 102 54 11 25 134 11 16 52 106 17 29 1 71 59 24 1 44 24 31 16 103 53 28 128 52 112
split_gain=642.581 964.482 695.214 680.333 622.383 560.997 682.138 774.669 552.011 514.184 471.729 566.661 581.073 1187 491.489 403.965 362.254 386.905 340.583 375.182 332.276 634.101 325.409 313.766 285.576 258.506 323.946 306.519 248.079 252.478 243.551 241.17 233.914 208.772 174.097 173.651 156.867 151.784 146.506 139.625 132.66 196.668 156.301 132.532 108.091 120.876 105.001 93.9653 58.2444 22.0608 155.481 21.2051 16.1918 11.6075 3.79877 3.46037 1.3518 1.12824 1.00272
threshold=1.0431005954742434 1.1471667289733889 1.0050070285797121 1.1986836194992068 0.7535751760005952 -1.1155719757080076 -0.87990707159042347 0.696610987186432 1.0000000180025095e-35 -0.81484970450401295 -0.94114109873771656 1.1766872406005862 0.85907694697380077 1.0000000180025095e-35 -0.94148206710815419 1.0000000180025095e-35 -1.1265506148338316 -0.90471357107162464 0.4912558794021607 -0.23171378672122953 1.3876500725746157 1.0000000180025095e-35 1.0740665197372439 -0.38131272792816157 1.1568872332572939 1.0000000180025095e-35 -1.7035772204399107 -0.73907917737960804 -0.81081771850585926 -0.89524152874946583 1.0091230273246767 0.78080156445503246 -0.83731308579444874 -0.89185273647308339 0.9837995469570161 0.80699372291564953 1.5928864479064944 1.0000000180025095e-35 0.91109180450439464 1.1071522235870364 1.0529139637947085 -0.96020087599754322 1.1955662369728091 1.1335026621818545 0.45010466873645788 -0.54016372561454762 0.75227478146553051 1.4017487764358523 0.56405621767044078 1.048659145832062 1.3889383077621462 0.9935092329978944 1.1463422179222109 -0.86199674010276783 1.03640353679657 1.2084274888038637 1.0000000180025095e-35 1.0603171586990359 -0.80867940187454213
decision_type=2 2 2 2 2 2 2 2 2 2 2 2 2 2 2 2 2 2 2 2 2 2 2 2 2 2 2 2 2 2 2 2 2 2 2 2 2 2 2 2 2 2 2 2 2 2 2 2 2 2 2 2 2 2 2 2 2 2 2
left_child=1 9 5 10 44 22 7 -7 -8 15 24 12 13 -12 -14 20 40 25 19 -6 21 -1 37 -22 48 26 -18 -27 29 -13 -24 36 35 38 -20 -19 -17 -3 -26 -34 41 55 -43 -33 52 -46 -35 51 53 50 -42 58 -4 -2 -51 -5 -53 -30 -11
right_child=3 2 4 16 18 6 8 -9 -10 47 11 28 14 -15 -16 31 17 32 34 -21 23 -23 30 -25 33 27 -28 -29 57 -31 -32 43 39 46 -36 -37 -38 -39 -40 -41 49 42 -44 -45 45 -47 -48 -49 -50 54 -52 56 -54 -55 -56 -57 -58 -59 -60
leaf_value=0.07115634892540719 -0.13808094343371966 0.015368415665800137 -0.047110131660955228 -0.17893064369715383 0.012927186460858227 -0.03197770300952231 0.061688336005680557 0.037430692172056287 -0.03370026120482586 -0.13780916459246945 -0.096819466130348059 0.026820323723170454 0.068406377017665873 0.13146579207736223 0.036010493104930964 -0.15392846287134676 0.1101650981553173 -0.11871774554550779 -0.08371778749622466 0.079166978446225916 0.11430107968244463 -0.013951636945715995 0.093627011203420638 -0.016366082257772214 -0.11230559512577587 -0.08024680590297234 0.018988623257143525 0.093752404686316487 -0.17386601201468382 0.15516345067603038 -0.13561058038143978 -0.20756595750202492 -0.14767331267557587 -0.042273713325733972 0.02790912921999128 -0.020182422759473011 0.13317920878048456 -0.17045859094382121 0.08037935391919393 0.14001897818264 0.27961601123174212 0.13639495621137068 -0.13159504944608219 0.070350032247795083 -0.075184487807394854 0.022311629722022785 0.22497719387581225 0.16610871137764482 0.15240103788871529 -0.15328031612345061 -0.12803462765648468 -0.20170161550207069 -0.15831821694900902 -0.18695801531926526 -0.12647466650386863 -0.13082665360624765 -0.16861841232493568 -0.13641252278650673 -0.10272644833537058
leaf_weight=14953.689657589421 129.88937105983496 171.40132808871567 14.519255191087721 21.551598891615868 2917.1324818320572 2267.0110106542706 10212.917294479907 5531.8260806985199 644.98745564371347 8.9823605138808471 819.07221442367882 197.04761235043406 5147.9027009885758 315.50385157391429 51868.512391748838 154.49050088226795 519.30752237699926 387.58376567624509 420.35849012434483 1209.6488322727382 2443.3363621216267 929.8594387024641 3367.5711154900491 198.71530257165432 119.45452478993684 399.70519888028502 1561.102901885286 135.58508371561766 13.708689898252485 690.03398147970438 46.993312861770391 19.026289790868759 20.909526795148849 20.28380560874939 209.2771451510489 332.10083149373531 21.703549861907959 59.114684358239174 58.925812155008316 87.314530849456787 10.759994536638258 84.24676188826561 29.343438938260078 174.84938102960587 577.44917415454984 163.07642848044634 53.415644749999046 11.291141144931315 6.2946920674294224 74.905892357230186 71.717677403241396 26.685997411608696 133.23553892597556 77.625807151198387 179.69258725829422 48.849383339285851 22.992054879665375 19.460716459900141 87.592025822028518
leaf_count=20820 808 370 39 93 8278 6356 15759 12451 1518 59 14498 705 10609 487 134930 611 1144 1993 1400 1847 2570 1919 3879 445 1342 2225 5728 332 60 620 337 78 100 69 698 1627 10 221 235 107 16 151 167 261 2465 312 41 4 7 376 471 112 656 320 1209 298 99 180 4122
internal_value=0 0.0507203 0.0388921 0.0352959 0.0075415 0.046827 0.0398166 0.0172547 0.056022 0.0680695 0.0379669 0.0387574 0.0375253 -0.0333377 0.0389355 0.0695695 -0.00481455 0.00694369 0.0218912 0.0323435 0.071636 0.0661739 0.0827088 0.104473 -0.0622634 0.0258015 0.0417479 -0.0361741 0.116615 0.126655 0.0904721 -0.0338817 -0.0526359 0.00984148 -0.0466154 -0.0732483 -0.118563 -0.032286 -0.0486544 0.0844351 -0.082522 -0.0142271 0.0671658 0.0430763 -0.0692961 -0.0537142 0.151424 -0.111841 -0.147274 -0.1198 -0.0748527 -0.133299 -0.14739 -0.156365 -0.134361 -0.145553 -0.18639 -0.151892 -0.105989
internal_weight=0 46999.7 27946.5 63501.8 5644.7 22301.8 18656.7 7798.84 10857.9 19053.2 59537.1 59071.2 58151 1134.58 57016.4 18895.7 3964.68 3443.61 4756.42 4126.78 18525.6 15883.5 3645.08 2642.05 465.89 2615.7 2080.41 535.29 920.251 887.082 3414.56 370.07 827.909 252.08 629.636 719.685 176.194 230.516 178.38 108.224 521.067 183.991 113.59 193.876 888.28 740.526 73.6995 157.544 213.81 337.076 82.4777 146.252 147.755 207.515 254.598 70.401 49.6781 33.1694 96.5744
internal_count=268644 87696 56586 180948 15695 40891 36084 18807 17277 31110 164911 162089 160524 14985 145539 26714 16037 13256 12223 10125 25754 22739 4807 3015 2822 9429 6872 2557 1565 1325 4216 960 3827 1687 2098 3620 621 591 1577 207 2781 709 318 339 3472 2777 110 4396 1135 2072 487 4392 695 1128 1585 391 211 240 4181
is_linear=0
shrinkage=0.1


Tree=15
num_leaves=63
num_cat=0
split_feature=51 102 134 80 112 78 5 0 29 5 20 26 36 77 29 52 57 30 53 103 0 116 55 99 48 57 133 83 102 67 20 58 27 104 124 51 98 0 133 133 132 60 65 129 71 104 72 58 50 26 31 42 29 103 129 7 124 4 53 20 24 75
split_gain=572.149 976.959 636.275 2313.7 1433.75 786.214 625.494 653.798 606.388 595.867 572.841 574.829 522.238 651.793 450.12 498.109 518.413 468.249 737.851 527.844 412.286 456.929 397.868 356.028 401.672 358.382 445.232 330.048 288.05 271.291 257.023 312.186 245.699 243.017 267.824 225.878 192.592 187.775 218.79 167.11 163.363 158.507 268.652 138.925 132.503 130.869 124.183 89.9168 188.469 83.8712 75.8694 73.4578 70.1461 33.9217 11.4216 10.068 5.19587 1.3401 0.630684 0.0821635 0.0150326 0.0114027
threshold=1.0799783468246462 -0.84214013814926136 1.0000000180025095e-35 -1.1793865561485288 -1.015282094478607 -1.1286151409149168 0.54831939935684215 0.3653158843517304 1.1278475522994997 0.55611249804496776 1.2775537371635439 1.2936534881591799 0.91568571329116832 -1.170492887496948 1.235392212867737 1.0190859436988833 0.82758215069770824 1.086483955383301 0.94459134340286266 -0.92105424404144276 0.37484136223793035 -1.0287703871726988 0.99783796072006237 -0.98040282726287831 1.0758419632911684 0.8890768587589265 1.0000000180025095e-35 -1.3123326897621153 -0.9624282419681548 0.16025181114673617 1.2362990975379946 0.83635407686233532 1.2043195366859438 -0.81676894426345814 -1.4625593423843382 1.0816847681999209 -0.82874923944473255 0.4259451031684876 1.0000000180025095e-35 1.0000000180025095e-35 1.0000000180025095e-35 0.67931300401687633 0.25811971724033361 1.0000000180025095e-35 -0.51903921365737904 -0.89172515273094166 -0.55565452575683583 0.86104726791381847 1.1111658811569216 1.2948217988014223 0.99932444095611583 0.69918227195739757 1.2416515946388247 -0.82830628752708424 1.0000000180025095e-35 0.89985820651054393 -0.83398208022117604 0.71488603949546825 1.0369707942008974 1.7756516337394717 1.260020971298218 -1.1802102923393247
decision_type=2 2 2 2 2 2 2 2 2 2 2 2 2 2 2 2 2 2 2 2 2 2 2 2 2 2 2 2 2 2 2 2 2 2 2 2 2 2 2 2 2 2 2 2 2 2 2 2 2 2 2 2 2 2 2 2 2 2 2 2 2 2
left_child=8 10 6 12 5 -5 20 22 23 -9 30 37 13 -4 15 17 40 19 -19 -10 21 -3 -8 56 33 26 -26 -18 39 -27 47 46 -33 34 -25 -14 -6 38 -12 52 -17 54 -43 45 -39 -30 -32 53 -49 -35 -22 -45 -16 -2 -13 -41 57 58 -1 61 -61 -58
right_child=1 2 3 4 36 -7 7 9 14 -11 11 41 35 -15 28 16 27 18 -20 -21 50 -23 -24 24 25 29 -28 -29 43 -31 31 32 -34 49 -36 -37 -38 44 -40 55 -42 42 -44 51 -46 -47 -48 48 -50 -51 -52 -53 -54 -55 -56 -57 59 -59 -60 60 -62 -63
leaf_value=-0.14782025010537728 -0.14865884677946392 0.031941471827616766 -0.078853851033999819 -0.098776033909080616 0.20354521116696411 0.053777860977083813 -0.047515558925696311 -0.033609869873071026 0.0069952381946411946 0.050027176897871874 0.10571920277710999 -0.1245094741918357 0.072680382662600782 0.056408312528328744 0.049124840576697332 -0.057806408454425307 -0.001569072311356178 0.043507311681114422 -0.025378192575857567 0.058990660680687063 0.055430790809789757 -0.0077276446245176187 0.13244880277357987 0.047168244050668801 0.031491569830490403 0.087262833248516025 0.085984901546786618 0.037578502386895425 -0.12436105629644523 -0.1499179136055255 -0.12554695056299445 0.10568738911013265 -0.024702948724473178 -0.1370850672137934 0.094200574085658864 -0.1158579709963361 0.093754380958233907 0.048107607228256528 -0.033445583141556427 0.096371424294812782 0.078679560351101546 0.064635093562591645 -0.076005229901758897 0.38089392101920216 -0.10484967791373674 0.45814050438979859 0.10092680959686438 0.056231221761790719 -0.13338455567769611 0.15313352507139946 0.26388151507340607 -0.11337584344074597 -0.1333540561369124 0.03107736851161948 -0.063481617820733 0.15807388050457552 -0.10256615463980545 -0.18625528919202766 -0.10807029238419695 -0.1109583721755093 -0.12159226030763862 -0.10783679766995835
leaf_weight=18.332954876124866 322.40181057807058 15839.228550851345 820.69688160717487 435.39947830140591 629.84822377562523 1507.4917798880488 135.49904980137944 896.22057115286589 2178.6068984717131 17197.328494202346 820.59703856054693 188.41258944384754 66.849812105298042 629.51372839510441 36.162625573575497 953.51523007452488 2842.8300308659673 5810.7388297468424 2123.0645386837423 18806.461990244687 21.951754868030548 3555.4238466639072 1315.6922376677394 1624.7527081370354 8474.3794703446329 2539.199388384819 1821.6340956836939 8883.0781012065709 340.95544060878456 49.159186668694019 361.7045762212947 165.43934292532504 1142.6178288757801 67.374387940391898 4751.6603480828926 1284.9962097033858 214.07923647761345 141.54017091821879 131.00744967162609 48.748232990503311 96.577802456915379 239.77968971524388 313.2748611625284 8.7565402388572675 94.413432821631432 3.9010819233953944 25.948811247944832 85.062814205884933 136.59466537553817 11.684750378131865 85.343969330191612 4.5792742893099776 50.460637643933296 10.853928029537199 36.628707738593221 57.79894046485424 73.696152723394334 8.1435197927057725 5.1024450808763495 3.0371267758309832 2.3642249926924706 4.3468123041093341
leaf_count=93 1937 61468 3124 1732 373 3939 466 2965 4987 31962 1685 1720 101 1575 123 3817 7621 10933 6668 27102 63 14072 1599 2191 16121 3201 2390 21948 2604 182 2084 276 4274 1757 4461 6050 363 748 578 47 161 1160 1745 3 414 11 55 167 1025 11 22 50 284 23 310 20 3517 38 81 37 22 88
internal_value=0 0.029558 0.0339043 0.00234616 0.0668634 0.0195907 0.0384213 0.0510641 0.0440441 0.0458844 -0.0164543 0.022987 -0.0618202 -0.0201387 0.0373167 0.0385037 0.0220595 0.0457686 0.0250737 0.0535927 0.0257508 0.0246693 0.115645 0.0586527 0.059696 0.049495 0.0411329 0.0280876 -0.0524453 0.0827582 -0.0509015 -0.0315697 -0.00821155 0.080056 0.0822164 -0.106535 0.175695 0.0667598 0.0865604 0.045979 -0.0452537 -0.0438208 -0.0150299 -0.105525 -0.013096 -0.117772 -0.110387 -0.109976 -0.060618 -0.0941915 0.221234 0.211171 -0.0571746 -0.142805 -0.114576 0.129843 -0.11676 -0.151309 -0.139166 -0.103685 -0.115613 -0.10286
internal_weight=0 48851.8 44635.6 5588.88 2786.82 1942.89 39046.7 19544.7 61701.1 18093.5 4216.28 1965.65 2802.06 1450.21 42246.2 41694.9 12776 28918.9 7933.8 20985.1 19501.9 19394.7 1451.19 19454.9 19339.8 12884.4 10296 11725.9 551.363 2588.36 2250.62 1695.71 1308.06 6455.47 6376.41 1351.85 843.927 1187.56 951.604 193.17 1050.09 778.096 553.055 358.192 235.954 344.857 387.653 554.913 221.657 79.0591 107.296 13.3358 86.6233 333.256 225.041 106.547 115.023 31.5789 23.4354 83.4443 5.40135 78.043
internal_count=268644 148075 129874 17257 6407 5671 112617 36992 120569 34927 18201 8360 10850 4699 86379 83237 33547 49690 17601 32089 75625 75540 2065 34190 30314 21894 18511 29569 3142 3383 9841 6689 4550 8420 6652 6151 736 3425 2263 474 3978 4935 2905 2668 1162 2615 2139 3152 1192 1768 85 53 407 1960 2030 67 3876 212 174 3664 59 3605
is_linear=0
shrinkage=0.1


Tree=16
num_leaves=60
num_cat=0
split_feature=106 113 30 81 81 114 74 82 110 33 115 33 53 135 73 52 123 112 114 31 81 31 40 52 29 111 71 70 97 0 0 128 135 0 30 56 130 6 113 85 53 53 53 33 82 101 50 51 44 62 51 106 71 68 52 32 32 31 73
split_gain=565.988 920.433 753.272 689.752 656.222 755.291 535.608 524.669 480.36 476.442 426.389 418.357 761.447 546.478 412.268 364.489 572.081 697.493 576.91 312.095 301.763 290.151 290.144 261.022 501.255 317.502 294.403 243.289 616.573 229.119 228.551 228.129 198.708 197.176 160.292 157.64 151.294 150.77 146.92 134.68 115.287 105.521 89.822 86.1115 84.2948 69.618 67.8071 63.0967 58.1769 57.1133 148.335 48.6552 105.991 65.9935 28.8914 8.77455 6.63976 2.70608 1.37041
threshold=-0.94368627667427052 -1.1115491986274717 1.0931050181388857 -1.0144028067588804 -1.0429160594940183 -1.101335823535919 -1.0318516492843626 -1.1090160012245176 -1.0554484724998472 0.85996529459953319 -1.3774381279945371 0.86077117919921886 0.9353960156440736 1.0000000180025095e-35 -0.7149975299835204 0.98131710290908825 -1.5960147976875303 -1.1155658364295957 -1.1880118846893308 1.0067888498306277 -1.1330128908157346 1.000514090061188 1.0189787149429324 1.0249103903770449 1.1487289667129519 -1.0647237300872801 -0.511417657136917 -0.46655637025833124 -0.90371659398078907 0.58145233988761913 0.07177669927477838 1.0000000180025095e-35 1.0000000180025095e-35 0.35832956433296209 1.0994318127632143 0.90478965640068065 1.0000000180025095e-35 0.77892345190048229 -1.2077769041061399 -1.0818789005279539 0.94754305481910717 1.0891929864883425 0.85263878107070934 0.85907694697380077 -0.83244121074676503 -0.87437555193901051 1.159522593021393 0.96252498030662548 0.93116798996925365 0.47574506700038915 1.0256825089454653 -0.95352262258529652 -0.46357825398445124 -0.19824326038360593 0.95507654547691356 0.89678534865379345 0.89881518483161937 1.0086209177970888 -0.68526422977447499
decision_type=2 2 2 2 2 2 2 2 2 2 2 2 2 2 2 2 2 2 2 2 2 2 2 2 2 2 2 2 2 2 2 2 2 2 2 2 2 2 2 2 2 2 2 2 2 2 2 2 2 2 2 2 2 2 2 2 2 2 2
left_child=11 3 4 42 5 31 21 -7 9 32 -11 12 27 15 33 39 18 -18 -17 51 34 37 -16 24 26 -26 -14 28 29 -1 58 -3 -5 -10 -8 45 -32 -4 56 48 -22 43 -2 -25 -30 -21 -43 -40 -13 55 -51 53 -53 -15 -41 -44 -29 -23 -6
right_child=1 2 6 8 30 7 20 -9 14 10 -12 13 23 19 22 16 17 -19 -20 35 40 57 -24 41 25 -27 -28 38 44 -31 36 -33 -34 -35 -36 -37 -38 -39 47 54 -42 46 49 -45 -46 -47 -48 -49 -50 50 -52 52 -54 -55 -56 -57 -58 -59 -60
leaf_value=-0.056082932502923212 0.079560382809292396 -0.055043002536616661 -0.028725166432759481 -0.088008046918008939 -0.14707795604903079 0.033951697791521254 -0.048375592077909611 0.080177941520895663 -0.088566744284431315 0.070209597109050392 -0.0096656426127935003 0.15521972902915881 0.13407818482107578 0.17857651323155566 0.18948306295236272 0.061082773373581839 -0.072740984105621173 0.053007427912298621 0.15340660662840822 -0.14670739765272559 0.10826626085285687 -0.15455220495992508 0.051967670340895104 -0.12722505086751013 -0.099269267728449156 0.03396376900197786 -0.018007105414054762 -0.15070847228822393 -0.1476449069689337 0.077956424111123634 0.12755417905725397 0.086018243397724806 0.058929680241123585 0.081098699709618471 -0.122570718207547 0.25959801701710966 -0.12358995657765225 0.10252550363172797 0.11236061255354393 0.12839461666554755 -0.060850880038568089 0.097517964396405477 -0.17231815346004711 0.0012613022256280837 0.24122872580660004 0.075378465771621966 -0.13391704539157259 0.057784037683604322 -0.20865012946213471 0.04025193731738657 -0.12356639827238516 -0.16288754544375023 0.0035206587868680758 -0.15238793299711059 0.10130104345678098 -0.24490835444884232 -0.28330569818177176 -0.11592044332970829 -0.10640370839268404
leaf_weight=147.4665385633707 24.705260843038559 1178.0297892419621 107.64616712927818 830.39774013124406 11.429450421594082 81007.072647761554 1045.6035202182829 2532.0680243186653 184.98283885605633 854.80925041437149 3063.2902216631919 5.7213099449872997 316.75200678408146 6.275694251060485 296.33609153795987 6698.1161560127512 673.74400270730257 1277.4174581430852 752.91092871502042 20.654638633131981 145.89859805256128 32.884080953896046 318.15984471328557 344.65295107662678 513.32669092714787 274.51663487032056 212.78835807740688 12.22309982031584 183.24710223078728 943.04866810888052 1017.9643720090389 127.00808834098279 103.50572834908962 108.77356117218733 403.56409399211407 38.804828159511089 24.565789237618446 468.12716726213694 850.69746357388794 618.2482433617115 55.697389550507069 44.681915340945125 47.763710977043957 61.463203504681587 5.7490982115268698 44.580123886466026 17.664253364317119 282.07219043374062 18.939839363098145 63.11300453543663 445.00326354894787 62.477637954056263 98.806515486910939 150.66259291023016 1083.0826040059328 25.564908131957054 5.4648704677820197 40.419565657153726 30.094067849218845
leaf_count=467 27 4503 335 14683 66 182453 4011 4801 793 5886 10262 2 235 4 269 11261 2354 2567 538 106 289 185 897 1748 1740 592 476 57 779 1334 1500 415 228 144 2498 32 171 623 646 280 255 101 294 186 4 85 218 413 81 90 2543 301 308 800 777 109 24 517 1281
internal_value=0 0.0309999 0.0336497 -0.00572149 0.0351614 0.0341735 -0.0228299 0.0353528 0.00495599 -0.00753812 0.00776069 0.051465 0.0245021 0.0613063 0.0717012 0.0655434 0.0577892 0.00958599 0.0704119 -0.0503564 -0.0530907 0.0541308 0.118283 -0.0250723 -0.00227429 -0.0528455 0.0729648 0.0609355 0.0309319 0.0598308 0.112473 -0.0413147 -0.0717227 -0.0257422 -0.0690374 0.0999989 0.121636 0.077987 0.0943049 0.107783 0.0615422 -0.0891837 -0.10719 -0.107779 -0.135816 0.00506161 0.0319465 0.0987704 -0.124233 -0.115125 -0.103219 -0.0995135 -0.0609419 -0.139153 0.111147 -0.197626 -0.191676 -0.133251 -0.117599
internal_weight=0 94594.5 88228.1 6366.41 85928.2 84844.2 2299.84 83539.1 5760.26 4852 3918.1 15766.3 4215.82 11550.4 908.252 11128.2 9402.19 1951.16 7451.03 422.262 1650.76 649.077 614.496 1785.85 1317.38 787.843 529.54 2429.97 1279.51 1090.52 1084.05 1305.04 933.903 293.756 1449.17 104.04 1042.53 575.773 1150.46 1725.99 201.596 468.462 606.15 406.116 188.996 65.2348 62.3462 1132.77 24.6611 581.445 508.116 318.222 161.284 156.938 1701.33 73.3286 17.688 73.3036 41.5235
internal_count=268644 240128 203903 36225 195190 192172 8713 187254 33162 31059 16148 28516 9020 19496 2103 17860 16720 4921 11799 1636 7053 1660 1166 5296 3043 2332 711 3724 2584 1801 3018 4918 14911 937 6509 223 1671 958 1140 1140 544 2253 3063 1934 783 191 319 1059 83 3036 2633 1413 609 804 1057 403 81 702 1347
is_linear=0
shrinkage=0.1


Tree=17
num_leaves=62
num_cat=0
split_feature=47 26 29 101 134 79 112 48 70 26 20 130 79 93 101 114 87 22 107 30 32 32 128 30 0 57 107 99 6 66 82 75 12 91 70 27 91 122 133 30 13 101 94 110 52 56 73 30 5 31 96 66 47 59 29 82 105 48 118 128 49
split_gain=499.084 911.827 743.417 648.206 576.689 1544.76 1431.81 859.197 597.384 625.507 535.854 503.211 638.855 506.113 460.666 459.795 810.178 355.191 341.304 317.361 272.428 254.806 254.788 307.649 248.051 234.792 255.444 234.256 209.143 206.456 196.698 241.075 222.14 184.634 151.239 171.538 150.237 135.244 131.428 126.572 113.964 100.653 100.044 93.0765 70.4302 119.829 106.909 56.1656 57.6519 49.3808 65.312 27.0361 38.8852 26.4367 4.16774 2.12761 1.58572 1.03331 0.549396 0.534061 0.20393
threshold=1.0938895344734194 1.2983047366142275 1.1273556947708132 -0.85996487736701954 1.0000000180025095e-35 -1.1864508390426634 -1.0084115862846372 1.1158261895179751 -0.21203383058309552 1.2013230323791506 1.2785319089889529 1.0000000180025095e-35 -1.3286324143409727 -1.1310144662857053 -0.77837342023849476 -0.9135853350162505 -1.2812576889991758 1.2556020021438601 -0.95677170157432545 1.0691294670104983 0.94950369000434887 0.95627418160438549 1.0000000180025095e-35 1.064381003379822 0.47562387585639959 0.87702232599258434 -0.89638209342956532 -0.98040282726287831 0.6406482756137849 0.079370521008968367 -1.2846493721008299 -1.1107304692268369 0.79761427640914928 -1.1821585297584531 -0.34517656266689295 1.2227821946144106 -1.1116279959678648 -1.0234174728393552 1.0000000180025095e-35 1.0654380917549136 0.91781023144721996 -0.87527301907539357 -1.1032256484031675 -0.8825586438179015 1.0509431362152102 0.89487028121948253 -0.7217164635658263 1.0799836516380312 0.61353880167007457 1.0067888498306277 -0.83077001571655262 0.22995419055223468 1.0931615829467776 0.7483222782611848 1.0964341163635256 -1.3556766510009763 -0.79100066423416127 1.0936095118522646 -0.9962751269340514 1.0000000180025095e-35 1.0793663263320925
decision_type=2 2 2 2 2 2 2 2 2 2 2 2 2 2 2 2 2 2 2 2 2 2 2 2 2 2 2 2 2 2 2 2 2 2 2 2 2 2 2 2 2 2 2 2 2 2 2 2 2 2 2 2 2 2 2 2 2 2 2 2 2
left_child=2 3 17 10 8 7 -7 -6 9 -5 30 13 19 37 -10 16 -15 51 44 20 -13 40 27 24 -24 47 38 55 -23 -29 31 -2 -32 -17 36 -36 -12 42 -27 -39 -14 -25 -4 -21 45 57 -47 48 -20 53 -51 52 54 -46 -1 -19 59 -3 -28 -53 -58
right_child=1 18 11 4 5 6 -8 -9 14 -11 34 12 21 15 -16 33 -18 22 25 43 -22 28 23 41 -26 26 58 29 -30 -31 32 -33 -34 -35 35 -37 -38 39 -40 -41 -42 -43 -44 -45 49 46 -48 -49 -50 50 -52 56 -54 -55 -56 -57 60 -59 -60 -61 -62
