tree
version=v4
num_class=1
num_tree_per_iteration=1
label_index=0
max_feature_idx=136
objective=binary sigmoid:1
feature_names=Column_0 Column_1 Column_2 Column_3 Column_4 Column_5 Column_6 Column_7 Column_8 Column_9 Column_10 Column_11 Column_12 Column_13 Column_14 Column_15 Column_16 Column_17 Column_18 Column_19 Column_20 Column_21 Column_22 Column_23 Column_24 Column_25 Column_26 Column_27 Column_28 Column_29 Column_30 Column_31 Column_32 Column_33 Column_34 Column_35 Column_36 Column_37 Column_38 Column_39 Column_40 Column_41 Column_42 Column_43 Column_44 Column_45 Column_46 Column_47 Column_48 Column_49 Column_50 Column_51 Column_52 Column_53 Column_54 Column_55 Column_56 Column_57 Column_58 Column_59 Column_60 Column_61 Column_62 Column_63 Column_64 Column_65 Column_66 Column_67 Column_68 Column_69 Column_70 Column_71 Column_72 Column_73 Column_74 Column_75 Column_76 Column_77 Column_78 Column_79 Column_80 Column_81 Column_82 Column_83 Column_84 Column_85 Column_86 Column_87 Column_88 Column_89 Column_90 Column_91 Column_92 Column_93 Column_94 Column_95 Column_96 Column_97 Column_98 Column_99 Column_100 Column_101 Column_102 Column_103 Column_104 Column_105 Column_106 Column_107 Column_108 Column_109 Column_110 Column_111 Column_112 Column_113 Column_114 Column_115 Column_116 Column_117 Column_118 Column_119 Column_120 Column_121 Column_122 Column_123 Column_124 Column_125 Column_126 Column_127 Column_128 Column_129 Column_130 Column_131 Column_132 Column_133 Column_134 Column_135 Column_136
feature_infos=[-1.8014661073684692:2.1873281002044678] [-1.7160434722900391:2.0962586402893066] [-1.6382262706756592:2.0136351585388184] [-1.5680137872695923:1.9394575357437134] [-1.5054070949554443:1.8737261295318604] [-1.4504051208496094:1.8164401054382324] [-1.4123568534851074:1.7788288593292236] [-1.3844102621078491:1.7939627170562744] [-1.3517893552780151:1.9694005250930786] [-1.3099035024642944:2.0549979209899902] [-1.2559221982955933:1.9997674226760864] [-1.1870334148406982:2.073509693145752] [-1.1039742231369019:2.1457490921020508] [-1.0067610740661621:2.2142360210418701] [-0.90047705173492432:2.2825961112976074] [-0.78966546058654785:2.3805651664733887] [-0.67814630270004272:2.4481546878814697] [-0.65591526031494141:2.4658794403076172] [-0.65910369157791138:2.4605560302734375] [-0.66488730907440186:2.4363620281219482] [-0.8555336594581604:2.3619022369384766] [-0.86833834648132324:2.2960772514343262] [-0.86565589904785156:2.1994528770446777] [-0.7797551155090332:2.1797337532043457] [-1.0841877460479736:2.1696581840515137] [-1.4308524131774902:2.0883691310882568] [-1.6366665363311768:1.9448176622390747] [-1.8254417181015015:1.7314887046813965] [-1.9454965591430664:1.5598906278610229] [-2.2033448219299316:1.3462176322937012] [-2.6534385681152344:1.1459542512893677] [-2.9375624656677246:1.0433628559112549] [-2.8964071273803711:1.0182701349258423] [-2.6209216117858887:1.0153312683105469] [-1.9672813415527344:1.0222163200378418] [-1.2877312898635864:1.0987448692321777] [-0.66342759132385254:1.3781088590621948] [-0.6696123480796814:1.4357191324234009] [-0.67192721366882324:1.5244829654693604] [-0.67710685729980469:1.3777114152908325] [-0.67391806840896606:1.3165556192398071] [-0.77278417348861694:1.2266663312911987] [-0.78214722871780396:1.2687077522277832] [-0.67815649509429932:1.5027958154678345] [-0.67593681812286377:1.6759111881256104] [-0.67998087406158447:1.7528411149978638] [-0.67735743522644043:1.7139431238174438] [-0.68031680583953857:1.6720231771469116] [-0.67738151550292969:1.8138210773468018] [-0.6802976131439209:2.0951991081237793] [-0.67868822813034058:2.3221406936645508] [-0.68411111831665039:2.3866791725158691] [-0.68785721063613892:2.3278176784515381] [-0.6967010498046875:2.41339111328125] [-0.68777680397033691:2.0181429386138916] [-0.66555494070053101:1.7058380842208862] [-0.63047897815704346:1.5109990835189819] [-0.79989981651306152:1.3641012907028198] [-0.9627259373664856:1.3483799695968628] [-0.83332031965255737:1.3266682624816895] [-0.62303602695465088:1.2987289428710938] [-0.62908732891082764:1.6912268400192261] [-0.65896600484848022:1.8743280172348022] [-0.67422842979431152:1.7138135433197021] [-0.93073725700378418:1.3433690071105957] [-1.1747497320175171:1.0728911161422729] [-1.3727543354034424:0.99044626951217651] [-1.6713657379150391:0.88485002517700195] [-1.7223098278045654:0.75389385223388672] [-1.8329139947891235:0.60495084524154663] [-1.6504355669021606:0.45876148343086243] [-1.7446892261505127:0.33052113652229309] [-1.674402117729187:0.23037496209144592] [-1.5101885795593262:0.15855956077575684] [-1.3374539613723755:0.30397361516952515] [-1.5611182451248169:0.9557119607925415] [-1.741243839263916:1.4404212236404419] [-1.9005986452102661:1.2026444673538208] [-2.032371997833252:1.1285310983657837] [-2.1171634197235107:0.92254304885864258] [-2.1664650440216064:0.73609095811843872] [-2.193009614944458:0.28676301240921021] [-2.2026488780975342:0.33890664577484131] [-2.1982688903808594:0.39074629545211792] [-2.1793761253356934:0.5232703685760498] [-2.1451029777526855:0.47703936696052551] [-2.0946900844573975:0.50853937864303589] [-2.0287144184112549:0.53271615505218506] [-1.9487637281417847:0.59374678134918213] [-1.8579472303390503:0.56802195310592651] [-1.767259955406189:0.65018975734710693] [-1.8478662967681885:1.0688302516937256] [-1.648851752281189:1.4172115325927734] [-1.5846540927886963:1.6290324926376343] [-1.5245249271392822:1.6649528741836548] [-1.4861346483230591:1.6182941198348999] [-1.4547033309936523:1.5608183145523071] [-1.4384253025054932:1.5597559213638306] [-1.4264529943466187:1.5645072460174561] [-1.5819015502929688:1.5648646354675293] [-2.0638625621795654:1.5687597990036011] [-2.4619696140289307:1.5660412311553955] [-2.648137092590332:1.569068431854248] [-2.4631106853485107:1.5659784078598022] [-2.0338072776794434:1.5655828714370728] [-1.4475361108779907:1.5610309839248657] [-1.2213733196258545:1.5632989406585693] [-1.117332935333252:1.561995267868042] [-1.168958306312561:1.5723429918289185] [-1.2179133892059326:1.5757462978363037] [-1.369315505027771:1.5835809707641602] [-1.5990560054779053:1.5861003398895264] [-2.1418814659118652:1.5904401540756226] [-2.465855598449707:1.5896482467651367] [-2.5047738552093506:1.5896980762481689] [-2.0072333812713623:1.5865405797958374] [-1.6131480932235718:1.5868538618087769] [-1.6321159601211548:1.7016431093215942] [-1.6862318515777588:2.5795986652374268] [-1.7458088397979736:2.8008601665496826] [-1.820858359336853:2.5472877025604248] [-1.9280952215194702:1.7180403470993042] [-2.1567583084106445:1.6308574676513672] [-2.3918964862823486:1.6220458745956421] [-2.6616356372833252:1.6080794334411621] [-2.9659750461578369:2.1645474433898926] [-3.3559722900390625:3.0688047409057617] [-3.8750591278076172:4.2020993232727051] [0:1] [0:1] [0:1] [0:1] [0:1] [0:1] [0:1] [0:1] [0:1]
tree_sizes=6287 5660 5670 5871 6485 6464 6575 6758 6885 6683 6895 6789 6241 6796 6687 6781 6941 6800 6856 6812 6545 6933 5830 5379 6663 6905 6741 3977 6914 6803 6438 5753 6280 6937 6524 5830 6252 4360 6358 6759 6215 6243 6688 6930 6902 6317 6364 6927 6207 6769 6464 4332 6932 6967 6127 6457 6467 6925 6920 5881 6559 4844 6864 4361 5490 6474 6805 6563 6585 5516 6036 6724 6820 6884 6544 6838 6485 6499 5821 6439 6925 6593 6775 6249 5901 6236 6528 6687 6464 6929 6197 6478 6649 6602 6420 6722 6737 6674 6969 6807 6470 6778 6159 6142 6469 5830 6356 6888 6799 6570 6808 6809 4251 6654 6689 6851 6684 6796 5694 5976 4556 4365 6897 6931 6572 6112 6922 3797 6722 6664 6823 5900 6922 6043 4544 6586 6246 6597 6126 6061 6772 6924 6868 6028 6371 6786 5813 6784 6374 6320 6466 6691 6536 6314 6482 6255 5380 6796 6569 6337 6361 5848 6366 6241 5728 6438 6252 5872 6668 5397 5371 5794 6883 6930 6574 6821 6419 6433 5847 3429 6574 6436 6831 5712 6828 6241 6826 6776 6508 6547 6475 6701 6328 5609 4330 6774 6435 6347 5767 5635

Tree=0
num_leaves=58
num_cat=0
split_feature=22 52 101 28 52 29 52 91 30 134 117 28 105 31 19 52 53 69 70 56 97 116 29 135 28 29 111 70 33 133 109 132 104 104 135 135 99 103 5 107 70 135 102 132 133 90 108 31 30 34 72 116 106 70 0 0 2
split_gain=138482 61789.2 25758.7 24748.4 24083.7 18072.5 17974.9 15254.4 14965 13920.3 13847.6 13651.2 10299.5 10043.3 9300.36 7799.63 7237.94 7076.33 6861.15 6455.08 6127.84 5531.47 5450.87 4992.35 4960.8 4851.05 4725.21 4659.25 4468.13 3486.37 3312.67 3177.33 2747.43 2597.44 3361.16 2514.98 2336.67 1721.48 1356.26 1259.27 1097.31 1567.32 1056.4 701.692 566.161 481.168 475.576 403.849 317.36 302.932 125.939 218.137 78.8581 256.486 1.13687e-13 1.42109e-14 3.55271e-15
threshold=1.2001838684082033 1.0453519821166994 -0.93666347861289967 1.1879669427871706 1.0921727418899538 1.1340827941894533 1.0136662125587466 -1.0574715733528135 1.0939444899559023 1.0000000180025095e-35 -1.4404893517494199 1.1689829826354983 -0.83050465583801258 0.89511543512344371 1.2240454554557803 1.0630587339401247 0.99783143401145946 -0.2165730148553848 -0.17998101562261579 1.0391286611557009 -1.0564248561859129 -1.4566136598587034 1.2356017231941225 1.0000000180025095e-35 1.2048696875572207 1.1660736799240115 -0.91132652759551991 -0.21640400588512418 0.95111736655235302 1.0000000180025095e-35 -1.1387632489204405 1.0000000180025095e-35 -0.81820532679557789 -0.86261779069900502 1.0000000180025095e-35 1.0000000180025095e-35 -0.70749711990356434 -0.75950556993484486 0.24158252030611041 -0.90123549103736866 -0.16134698688983914 1.0000000180025095e-35 -0.75509825348854054 1.0000000180025095e-35 1.0000000180025095e-35 -1.1174817681312559 -0.97426837682723988 1.0135145187377932 0.9365641474723817 0.90141975879669201 -0.39270281791687006 -1.3149653673171995 -0.91703024506568898 -0.13994867354631421 0.41635371744632726 1.0680090785026553 0.16479342430830005
decision_type=2 2 2 2 2 2 2 2 2 2 2 2 2 2 2 2 2 2 2 2 2 2 2 2 2 2 2 2 2 2 2 2 2 2 2 2 2 2 2 2 2 2 2 2 2 2 2 2 2 2 2 2 2 2 2 2 2
left_child=13 2 7 4 9 16 8 20 -7 11 27 -3 -12 23 -11 24 31 -8 21 40 55 30 -22 49 26 43 -5 -6 42 -27 56 -4 -18 45 -35 -26 47 -30 -32 -38 41 -20 -23 -9 -42 -17 48 -21 -25 52 51 -48 53 -1 -54 -2 -15
right_child=1 3 5 15 10 6 17 25 -10 14 12 -13 -14 18 -16 33 32 -19 19 36 22 28 -24 46 35 29 -28 -29 37 -31 38 -33 -34 34 -36 -37 39 -39 -40 -41 44 -43 -44 -45 -46 -47 50 -49 -50 -51 -52 -53 54 -55 -56 -57 -58
leaf_value=-2.9111258409427916 -3.2229429383068893 -1.7278700807356999 -1.1121702624231129 -1.9030725854958523 -1.061011133606705 -1.5738259351871324 -2.2291942735034782 -1.9221229917111915 -2.3106454184898708 -2.6237270097113239 -2.4380065298298064 -2.1181848468700828 -2.1006569286672496 -3.2229429383068893 -1.9508028659595511 -3.1900986305010415 -1.5430759231299138 -1.781119117157423 -2.8825041371569462 -3.2229429383068893 -2.1958213783173957 -3.1692071756396207 -3.0998219667214006 -3.2229429383068893 -2.692258366119324 -2.4800853532331182 -2.7469670256007808 -2.9217380007044986 -2.8999258323887167 -1.4908143291697238 -2.1176688191652033 -1.5687504956218428 -2.4683047272691234 -2.6885666088869411 -1.7548662992362831 -1.9878064690923771 -1.4300362606435268 -1.1488174712965062 -0.93584186059148555 -3.2229429383068893 -3.1825207110663998 -1.1740281904477539 -2.5821998597362175 -0.88168332293711416 -2.2823672907509867 -2.8887653965596849 -2.2551576560198709 -1.2742794835808398 -1.1278344778347777 -1.8500561219066407 -0.82784205502486508 -1.0958638355288213 -3.2229429383068893 -3.2229429383068893 -3.2229429383068893 -3.2229429383068893 -3.2229429383068893
leaf_weight=36.25988270714879 38.487858403474092 3654.1880065985024 770.27134495228529 371.77893169224262 129.69881544262171 3406.0924926623702 869.24683852121234 6.9534305073320857 299.9198368601501 388.69610643014312 1636.3273030780256 1187.1814923472703 2024.9710921794176 8.3951387666165793 435.49930506199598 68.84877247735858 1219.5780802369118 592.83784296363592 199.26843835040927 12.734654940664766 724.31981720030308 42.081663366407156 73.465641025453806 2.1900361999869378 272.70922352746129 54.792770206928253 80.764453943818808 15.014961529523132 7.0005279406905165 101.82883680984378 12.275454040616749 190.01377358287573 32.961745992302895 232.74040838703513 46.209241706877947 62.247266821563244 44.143490914255381 28.346186425536871 46.469587188214064 4.2989599481225005 223.76701430603862 5.5182634554803363 112.93339129164815 95.618502017110586 7.2124670073389998 230.06892970204353 2.3365619592368612 1.1604314073920239 1.0793189555406568 1.6471061185002316 5.6647892147302601 5.3154823258519173 515.18573793396354 96.807711284607649 94.536562632769346 36.784496914595366 0.81112451851368028
leaf_count=786 949 37885 3453 4477 518 30298 13177 85 4780 7358 28071 16737 28209 207 5443 1676 10490 6448 4265 314 10749 1016 1725 54 5341 962 1624 327 151 825 173 1681 575 4550 491 800 332 137 130 106 5431 28 2093 218 113 4938 36 7 5 19 10 23 12703 2387 2331 907 20
internal_value=-3.11852 -1.91795 -1.71633 -2.07633 -2.01895 -1.6482 -1.75059 -2.16045 -1.63346 -1.88826 -2.21351 -1.82358 -2.25143 -2.91 -2.26816 -2.47435 -1.40907 -2.04751 -2.65195 -2.86884 -2.36045 -2.23373 -2.27907 -3.16649 -2.26961 -1.4868 -2.05368 -1.25407 -2.51021 -1.8369 -1.4592 -1.20251 -1.56742 -2.75336 -2.5339 -2.56135 -1.91705 -1.49563 -1.1828 -1.58915 -3.005 -2.83647 -2.74155 -0.952216 -3.15441 -2.95817 -1.45058 -3.0602 -2.53128 -3.20472 -1.18526 -1.44986 -3.20772 -3.13798 -3.22294 -3.22294 -3.22294
internal_weight=0 19350.1 8513.17 10836.9 9471.58 7380.92 5168.1 1132.25 3706.01 5665.56 3806.01 4841.37 3661.3 1517.44 824.195 1365.37 2212.82 1462.08 756.417 498.104 873.058 258.313 797.785 761.023 787.5 259.194 452.543 144.714 190.362 156.622 67.9513 960.285 1252.54 577.867 278.95 334.956 62.3375 35.3467 58.745 48.4425 435.766 204.787 155.015 102.572 230.979 298.918 16.5862 13.8951 3.26936 744.437 13.3168 7.65204 742.79 133.068 609.722 75.2724 9.20626
internal_count=268644 235767 87322 148445 124548 70902 54703 16420 35078 67423 57125 54622 56280 32877 12801 23897 16199 19625 14523 10596 14330 3927 12474 18354 12242 2090 6101 845 3397 1787 530 5134 11065 11655 5041 6141 759 288 303 438 9837 4293 3109 303 5544 6614 128 321 59 18226 69 59 18207 3173 15034 1856 227
is_linear=0
shrinkage=1


Tree=1
num_leaves=52
num_cat=0
split_feature=69 120 31 116 130 80 28 32 113 53 101 28 72 35 29 69 73 31 30 6 76 32 1 21 69 97 78 6 54 134 69 42 52 106 24 69 27 20 135 38 22 101 135 99 57 111 51 91 70 31 31
split_gain=11394.1 4172.36 3380.71 3006.48 2739.5 6424.76 2615.18 2422.7 3128.97 2853.1 1693.49 2063.38 963.132 705.732 616.56 964.167 1259.03 467.524 407.406 315.752 313.769 297.771 261.26 220.86 216.974 210.342 180.861 147.447 193.861 159.626 142.963 274.826 636.956 818.957 71.8909 10.9712 240.013 0.0934162 0.0529289 0.0470304 0.0352229 0.319748 0.0249364 0.018094 0.00485845 0.00458379 0.00342836 0.00122425 0.000665331 0.000418311 0.000367218
threshold=-0.032733073458075516 -0.58136495947837818 1.0143964290618899 -1.4089439511299131 1.0000000180025095e-35 -1.2524581551551817 1.1144748330116274 0.89676102995872509 -1.0589444637298582 0.93883344531059276 -0.7631617784500121 1.1252811551094057 -0.59417685866355885 0.9334302842617036 1.06721568107605 -0.0098619493655860407 -0.62847980856895436 0.96263840794563305 1.0591756701469424 0.50369033217430126 -1.0158422589302061 0.97091358900070202 0.30325299501419073 1.2186354398727419 -0.030454086139798161 -0.91220185160636891 -0.9531952142715453 0.54858431220054638 1.0481352806091311 1.0000000180025095e-35 -0.015553551726043223 1.1173594594001772 1.1391749382019045 -0.92376565933227528 1.7274277210235598 -0.0067098885774612418 0.98964872956275951 1.7781856060028078 1.0000000180025095e-35 1.0195688605308535 1.2020905613899233 -0.93666347861289967 1.0000000180025095e-35 -1.0131556391716001 0.99254032969474804 -1.2227230072021482 1.1147911548614504 -1.085537791252136 -0.16134698688983914 0.89511543512344371 0.89511543512344371
decision_type=2 2 2 2 2 2 2 2 2 2 2 2 2 2 2 2 2 2 2 2 2 2 2 2 2 2 2 2 2 2 2 2 2 2 2 2 2 2 2 2 2 2 2 2 2 2 2 2 2 2 2
left_child=1 2 4 30 7 6 -6 8 -1 -9 11 21 18 -7 15 17 -17 -12 -4 26 -20 23 46 -5 -23 -24 -13 29 -29 -16 31 48 33 -33 37 36 -32 40 -34 42 45 -42 -37 47 -38 -3 -14 -39 49 -2 -50
right_child=3 34 12 10 5 13 -8 9 -10 -11 14 19 22 -15 27 16 -18 -19 20 -21 -22 24 25 -25 -26 -27 -28 28 -30 -31 35 32 38 -35 -36 39 44 43 -40 -41 41 -43 -44 -45 -46 -47 -48 -49 50 -51 -52
leaf_value=0.21199250046659179 -0.10439823619930272 -0.11223210252042599 0.72444070900903867 -0.07863837528339962 0.61349485549446281 -0.0013341372735433026 0.30774271078560039 0.47769340267362886 0.34394972675055585 0.35936643295867698 0.15203781226517674 -0.11190757013835043 -0.11378096086465064 0.25729756033911322 -0.11248214329116435 -0.017719995305480633 0.34041419618976332 0.44085130308365078 -0.019704326526771787 0.95154676446291442 0.30536740964901288 0.51089217727328018 0.99358358745270225 0.93384439143444153 0.058470082901069212 0.44228063466181422 0.99988881313860656 -0.11560511433976495 0.76488413488136342 0.62980059735520399 1.010345144665548 -0.10503843156670119 -0.10468076624930023 1.5790664713110205 0.25063400862146185 -0.10407690565356323 -0.1044548562255691 -0.11053217611526467 -0.12819590369086789 -0.11688824466486808 -0.1051014141966862 -0.13204469636619787 -0.11782276816593507 -0.1216691960366181 -0.11247324353089941 -0.10399235294653322 -0.10870919987445829 -0.1138441912310047 -0.10499717596011482 -0.10559804121730305 -0.10425161121661115
leaf_weight=2448.7634534947574 3.6063963957130936 0.67882443219423194 8.0734269171953184 349.77323556318879 301.95563884824514 769.66027622297406 3803.1136620901525 2153.81707412377 6750.7956247664988 37811.43818923831 66.790018998086452 5.1762939020991316 1.7529460452496994 122.26624811068177 58.610792826861143 181.26088749989867 214.12043161690235 348.528579775244 363.35584827512503 25.523619070649147 32.33525288850069 14.481959685683249 8.1911194175481779 2.1678316444158545 39.548758007586002 44.618463605642319 2.0397302359342575 4.8543056398630124 5.1572375446557999 3.0477529615163794 2.0278366394340983 5.0675400011241436 15.645968675613403 6.7120691090822238 5.8265932649373999 506.14389798045158 39.54705623164773 2.5106137357652187 1.0195650197565562 2.8979824855923644 71.283050823956728 4.6946901232004157 1.3231966830790032 3.3900240063667288 0.7703760676085939 124.54690052196383 5.5609750375151634 2.0092215612530708 11.967847120016815 14.960176818072794 14.745964072644709
leaf_count=12642 91 14 8 4743 996 7602 18983 4403 25216 158636 604 59 19 883 632 4085 872 1995 3698 19 205 54 18 7 417 173 6 44 11 10 26 115 376 30 12 13649 987 31 8 35 1723 26 20 27 13 3376 77 19 269 298 382
internal_value=0 0.34389 0.345621 0.097753 0.347923 0.277379 0.330233 0.355093 0.308825 0.365743 0.183311 0.0227419 0.0768108 0.0341194 0.263146 0.288 0.176229 0.394405 0.0212083 0.786421 0.00686002 -0.0388452 0.450214 -0.0724018 0.179734 0.527791 0.20236 -0.0179947 0.337961 -0.0757915 -0.0826795 0.0481222 0.291719 0.854571 -0.095833 -0.100127 -0.051215 -0.105487 -0.106119 -0.104185 -0.105068 -0.106766 -0.104113 -0.116147 -0.104608 -0.104037 -0.109925 -0.112004 -0.104905 -0.105365 -0.104586
internal_weight=0 54840.6 54625.7 1947.52 54161.8 4997 4105.07 49164.8 9199.56 39965.3 1321.08 438.711 463.888 891.927 882.37 810.7 395.381 415.319 403.765 32.7396 395.691 405.972 60.1235 351.941 54.0307 52.8096 7.21602 71.6701 10.0115 61.6585 626.436 73.7255 28.4451 11.7796 214.94 552.71 42.3453 209.113 16.6655 510.365 201.203 75.9777 507.467 7.90986 40.3174 125.226 7.31392 4.51984 45.2804 18.5666 26.7138
internal_count=268644 238787 233559 29857 229361 28464 19979 200897 37858 163039 13558 5305 4198 8485 8253 7556 4957 2599 3911 84 3903 5221 287 4750 471 191 65 697 55 642 16299 1569 529 145 5228 14730 1026 5216 384 13704 5139 1749 13669 77 1000 3390 96 50 1040 389 651
is_linear=0
shrinkage=0.1


Tree=2
num_leaves=52
num_cat=0
split_feature=24 70 100 31 32 130 101 136 118 136 25 102 71 57 50 129 84 19 32 116 77 134 44 133 106 70 5 69 26 111 39 121 105 57 6 33 97 22 115 99 34 20 22 52 32 106 50 0 112 9 1
split_gain=5858.27 2122.92 2004.5 1720.58 1679.97 1924.38 1398.49 966.086 922.158 880.432 713.29 933.911 975.492 597.782 524.464 496.242 452.269 406.004 328.494 247.079 238.911 213.313 204.71 143.581 89.267 303.058 133.655 80.112 158.927 62.059 48.3523 51.7985 41.4805 26.6647 141.207 14.1715 0.344861 0.307008 0.202597 0.114988 0.110024 0.0630647 0.0603733 0.0556317 0.03293 0.0186545 0.018152 0.00550932 0.00167855 0.00014073 2.86518e-08
threshold=1.1331146955490115 -0.20231165736913678 -0.9988395869731902 1.0081307888031008 0.96645832061767589 1.0000000180025095e-35 -0.90001645684242237 1.0000000180025095e-35 -0.99484357237815846 1.0000000180025095e-35 1.2192023992538454 -0.76451200246810902 -0.36149373650550837 1.0245704054832461 1.151588559150696 1.0000000180025095e-35 -1.1820631027221677 1.1559481024742129 0.97029975056648265 -0.94526502490043629 -0.50957959890365589 1.0000000180025095e-35 0.79064953327178966 1.0000000180025095e-35 -0.91612210869789112 -0.14927677810192105 0.16985138505697253 -0.039038293063640588 1.17493611574173 -1.2342087626457212 1.0264382362365725 -1.7243109941482542 -0.83842769265174855 0.95973652601242077 0.55491533875465404 0.81112173199653637 -1.0564248561859129 1.2001838684082033 -1.3780037760734556 -0.70749711990356434 0.90060868859291088 1.7781856060028078 1.2382138371467593 1.0921727418899538 0.90832704305648815 -0.88754788041114796 1.1231218576431277 0.70589473843574535 -1.3151544928550718 0.22353898733854297 -0.26867811381816858
decision_type=2 2 2 2 2 2 2 2 2 2 2 2 2 2 2 2 2 2 2 2 2 2 2 2 2 2 2 2 2 2 2 2 2 2 2 2 2 2 2 2 2 2 2 2 2 2 2 2 2 2 2
left_child=13 2 16 4 5 -4 15 -6 10 -8 11 18 -13 23 17 -5 36 -12 -3 41 29 -16 -21 24 25 26 -1 28 -10 -15 35 -32 -27 37 -35 -31 47 -29 48 49 42 -18 -26 -38 -41 -42 -30 -2 -22 -40 -50
right_child=1 8 3 6 7 -7 9 -9 27 -11 14 12 -14 20 21 -17 19 -19 -20 22 38 -23 -24 -25 40 32 -28 33 46 30 31 -33 -34 34 -36 -37 43 -39 39 44 45 -43 -44 -45 -46 -47 -48 -49 50 -51 -52
leaf_value=-0.10851155629330445 -0.10685010261444983 -0.016409380419341164 0.25195451062225022 0.027242663788704449 0.34417509851970923 0.18628625521401768 0.22703592900540048 0.10884185151665522 0.47281220045125449 0.063565552005355339 0.46822265034790311 0.31271349476331212 0.14474318296936606 0.44840937030421557 0.011424499129783092 0.28549764499164532 -0.11415364930304331 -0.12111906268269478 0.16575808865397501 0.13285349514265021 -0.10831630377126711 0.49291115988545653 0.56198920784576289 0.28151943960040432 -0.10373152197400913 -0.10438136616525927 0.39729431254669123 -0.10538914765879115 -0.12544875201988634 0.2175391088810443 0.28530896268548894 -0.12218543148966272 0.099554775335634227 -0.1068105643139923 0.64873431671153925 0.32626243558389473 -0.11490235500106866 -0.11645417075947349 -0.10368249462203749 -0.12075736904513734 -0.11425635476215115 -0.1326227938593543 -0.11308499269183625 -0.11061321210112436 -0.1329922165842688 -0.12696002362898792 -0.11714232912138983 -0.10367657503911643 -0.10358936837130017 -0.10541699177927107 -0.10361129618893966
leaf_weight=6.8653230071067837 5.9575830586254588 367.9278354011476 55265.321011506021 635.17851831763983 2486.103644028306 4854.5040293298662 3214.1819273680449 187.60488102585077 7.6363718733191517 367.10139427706599 161.19185527041554 458.76597943156958 1403.4602347128093 15.636074028909205 54.23571389913559 84.275936584919691 15.67101050540805 12.603508703410624 135.42391718178988 24.943789020180702 0.86208526045084077 11.081245891749857 20.052134376019239 10.982331242412327 470.10253073275089 107.99966054037213 21.854069475084543 34.032951004803181 6.4683532714843732 24.378207549452782 5.4459096491336787 7.3020356371998805 10.988446183502672 15.25264184176922 2.9524556025862685 23.589486382901669 57.348384581506252 95.268101669847965 1.4387319758534425 3.0372988171875459 3.4638783298432827 2.096101861447095 7.0036054737865916 63.973163802176714 7.9786507189273834 1.7348393648862828 4.434487521648407 66.884252168238163 5.218092918395997 0.69313666597008694 0.67270243540406305
leaf_count=129 111 3502 173823 4651 6607 23396 12794 1025 17 2045 313 1827 12927 11 479 424 163 94 797 110 15 21 63 29 13895 3051 131 761 40 34 23 89 253 304 3 9 565 839 42 33 39 15 89 797 43 15 36 1971 156 18 20
internal_value=0 0.241314 0.244843 0.24591 0.250101 0.246652 0.18472 0.327663 0.155528 0.210279 0.170094 0.153457 0.186123 -0.0420532 0.334691 0.0574943 -0.0339419 0.425484 0.0326017 0.199418 0.19032 0.0931104 0.324095 -0.0769467 -0.0831954 -0.0151764 0.276382 -0.0729632 0.122964 0.270754 0.225002 0.0518958 -0.085548 -0.0975882 0.0157217 0.271007 -0.109375 -0.113542 -0.118274 -0.125505 -0.104026 -0.116333 -0.103869 -0.112641 -0.129619 -0.118496 -0.12207 -0.103936 -0.104195 -0.104246 -0.103592
internal_weight=0 70121.9 67351.2 67094.3 62793.5 60119.8 4300.74 2673.71 2770.74 3581.28 2604.69 2365.58 1862.23 737.247 239.112 719.454 256.926 173.795 503.352 62.763 96.2524 65.317 44.9959 640.995 630.012 147.707 28.7194 166.045 18.5392 76.3517 60.7156 12.7479 118.988 147.506 18.2051 47.9677 194.163 129.301 19.9007 13.1478 482.305 17.7671 477.106 121.322 11.0159 5.19872 10.9028 72.8418 6.75288 2.13187 5.8908
internal_count=268644 250520 228560 224765 204851 197219 19914 7632 21960 14839 19960 19053 14754 18124 907 5075 3795 407 4299 351 493 500 173 17631 17602 3564 260 2000 93 166 155 112 3304 1907 307 43 3444 1600 327 136 14038 178 13984 1362 76 54 76 2082 191 60 176
is_linear=0
shrinkage=0.1


Tree=3
num_leaves=54
num_cat=0
split_feature=24 53 0 29 128 57 31 133 39 28 5 70 105 58 98 73 133 57 106 28 111 53 29 102 31 77 31 129 133 0 106 69 104 73 81 43 122 42 26 108 113 105 115 56 99 34 22 104 32 106 112 49 111
split_gain=3610.2 1674.31 1637.46 1516.02 1372.21 1766.58 1417.55 1095.66 1406.77 1062.17 879.526 865.239 852.143 798.669 656.435 492.535 485.141 482.377 389.32 377.065 368.844 232.187 550.682 181.135 170.408 170.154 149.366 148.589 111.445 107.932 84.8583 220.714 173.586 65.8369 56.5834 41.8634 45.3551 21.6635 15.8416 96.6294 4.53554 0.354364 0.143717 0.0826207 0.0807174 0.0802865 0.0445167 0.0231059 0.0212526 0.0133628 0.00123792 0.000106708 2.11087e-08
threshold=1.1331146955490115 1.0900250077247622 0.34057633578777319 1.2303205132484438 1.0000000180025095e-35 0.91250494122505199 1.0143964290618899 1.0000000180025095e-35 0.99425289034843456 1.1342441439628603 0.79381057620048534 -0.20811225473880765 -0.83523157238960255 0.90134900808334362 -0.95357516407966603 -0.77629008889198292 1.0000000180025095e-35 1.0245704054832461 -0.8790355622768401 1.3931074142456057 -0.90431219339370716 1.0967643260955813 1.0549349188804629 -0.9630138874053954 0.98192024230957042 -0.50957959890365589 1.0100210905075075 1.0000000180025095e-35 1.0000000180025095e-35 0.35996414721012121 -0.91612210869789112 -0.0067098885774612418 -0.78227636218070973 -0.9453299045562743 -1.3615615367889402 1.1843088269233706 -1.8917302489280698 1.137938439846039 1.1765014529228213 -0.84102672338485707 -1.2084194421768186 -0.83050465583801258 -1.3780037760734556 1.0391286611557009 -0.70749711990356434 0.90060868859291088 1.2382138371467593 -0.7397000491619109 0.90832704305648815 -0.88754788041114796 -1.3151544928550718 1.220681428909302 -1.2482749819755552
decision_type=2 2 2 2 2 2 2 2 2 2 2 2 2 2 2 2 2 2 2 2 2 2 2 2 2 2 2 2 2 2 2 2 2 2 2 2 2 2 2 2 2 2 2 2 2 2 2 2 2 2 2 2 2
left_child=17 3 7 4 6 14 9 8 15 -2 23 26 -7 -10 -6 -3 -8 28 -13 20 -12 22 34 24 -5 35 -9 -21 30 -24 31 32 -1 -25 -4 37 -37 40 39 -23 -19 -40 50 -33 51 46 -32 -38 -46 -47 -27 -44 -52
right_child=1 2 21 10 5 12 16 11 13 -11 19 18 -14 -15 -16 -17 -18 25 -20 27 -22 38 29 33 -26 42 -28 -29 -30 -31 45 43 -34 -35 -36 36 47 -39 41 -41 -42 -43 44 -45 48 49 -48 -49 -50 -51 52 -53 -54
leaf_value=-0.10568853677064223 0.23643051180035335 0.15902357494702113 0.33806925382088171 -0.11677435945913855 -0.066445254001262222 0.41493278122208993 -0.030189141756258225 -0.089426691509263107 0.081213722711115974 0.19413310115417659 0.1903215435405341 0.27928212354104692 0.18600752666643552 0.17383045196410535 0.10316794042274072 0.3204709804330646 0.20292820930138508 0.16184189629202331 -0.1180952585221242 -0.054809706505969204 0.57297138685827442 0.39501249310675146 0.034870648830801688 0.23896274742445059 0.36849271682259932 -0.10748926152105057 0.27525561853968999 0.68573548406966223 0.21867503428641 -0.11894652200019383 -0.10336651485710256 -0.10335257696658436 0.29165805738667 -0.083590063199662987 0.66376215090071167 0.20184368259376018 -0.12864470597414057 0.32360301877017777 -0.11370954705125971 -0.11537709741259849 0.2348463841223154 -0.12207516460379915 -0.10331775553312694 -0.11827775050064471 -0.11866411859448034 -0.11276161162836573 -0.11176361079168728 -0.11670287819905359 -0.12889326077699334 -0.12395624335456407 -0.10325591272703552 -0.10490169764967271 -0.10323615876190616
leaf_weight=16.62719171307981 6575.5908787753433 260.75508643873036 9.8743243068456668 11.948534872382881 251.58558790758252 172.82762593775988 366.53242078050971 334.08420070633292 1451.120908215642 61133.627196762711 176.09034651517868 129.92726878449321 2748.1325959861279 2598.1023983210325 2452.3810578398407 686.31987810879946 118.01703448966146 13.71467508561909 30.428840566426516 66.503725297749043 29.395868994295597 4.374356351792815 130.87794272229075 6.4460120573639861 18.349918209016323 0.78574213944375593 11.62178000807762 2.8245439417660227 12.618243228644131 70.026388589292765 426.79187117889524 91.441650290042162 32.455004282295704 345.71066945791245 11.601553514599798 12.449771810323002 3.6034586243331441 28.621993660926819 144.30486643128097 24.402773901820183 22.424441438168287 78.007502943277359 1.305398829281329 3.8657401334494343 2.794250173494218 3.173660920932889 6.4082094784826031 2.9439487084746343 7.4369937628507614 1.6058199256658543 0.61068355105817396 0.63086974434554566 4.7368477843701848
leaf_count=380 19082 1428 33 118 1596 401 3191 2781 8860 167937 664 600 9040 15924 9156 1720 538 49 290 536 34 9 832 60 54 15 72 4 29 568 13895 2928 210 2714 12 24 22 26 1463 269 9 534 42 46 33 39 89 36 43 15 20 18 156
internal_value=0 0.187673 0.136745 0.191759 0.193105 0.145633 0.197021 0.1521 0.166302 0.198241 0.040558 0.0118874 0.199553 0.140639 0.0873866 0.27602 0.026589 -0.0408914 0.203877 0.177023 0.245062 -0.0417047 0.0327065 -0.0574998 0.177122 0.159967 -0.077167 -0.0246387 -0.075345 -0.0187432 -0.0817155 -0.0152331 0.157052 -0.0776859 0.514013 0.220323 0.0897909 0.258613 -0.107608 -0.0377938 0.207141 -0.116645 -0.116265 -0.103958 -0.122556 -0.103633 -0.103491 -0.123275 -0.1261 -0.116523 -0.103783 -0.103834 -0.103238
internal_weight=0 80451.8 5975.83 74476 73818.7 5624.93 68193.8 5502.36 4996.3 67709.2 657.27 506.062 2920.96 4049.22 2703.97 947.075 484.549 697.046 160.356 274.814 205.486 473.47 222.38 382.455 30.2985 102.059 345.706 69.3283 594.987 200.904 582.369 144.39 49.0822 352.157 21.4759 83.7583 18.9972 64.7611 251.089 28.7771 36.1391 222.312 18.3008 95.3074 12.1675 437.98 433.2 6.54741 10.2312 4.77948 6.13327 1.93627 5.34753
internal_count=268644 250520 35395 215125 210941 20193 190748 31675 27932 187019 4184 3743 9441 24784 10752 3148 3729 18124 890 1238 698 3720 1445 2946 172 493 2853 540 17631 1400 17602 3564 590 2774 45 166 82 84 2275 278 58 1997 327 2974 136 14038 13984 58 76 54 191 60 176
is_linear=0
shrinkage=0.1


Tree=4
num_leaves=59
num_cat=0
split_feature=70 52 102 133 72 37 125 29 53 28 74 26 104 35 57 116 72 118 128 120 98 101 32 57 61 71 83 132 108 49 83 61 66 61 69 118 120 35 20 136 16 6 69 69 25 135 132 21 101 22 58 56 22 123 53 24 100 68
split_gain=2706.46 1377.78 2401.85 1632.78 1737.09 1293.8 1194.47 1264.41 1878.62 1867.67 1477.4 1117.65 1103.39 1048.34 1679.14 900.322 870.825 853.881 734.182 669.976 601.492 462.649 445.424 431.685 422.371 403.104 397.147 332.226 277.549 242.421 230.76 217.005 946.324 137.979 120.983 249.277 443.36 115.001 79.0207 57.3596 41.0006 96.7 31.1583 9.00176 81.7358 0.251809 0.0824518 0.0762921 0.525569 0.0681562 0.060796 0.039143 0.0319254 0.015326 0.00418902 0.00351005 0.000634878 5.61509e-08
threshold=-0.17998101562261579 1.0669052600860598 -0.83820265531539906 1.0000000180025095e-35 -0.54294046759605397 0.92163187265396129 -0.41205802559852595 1.1504061222076418 0.95269113779068004 1.271578371524811 -1.0290579199790952 1.2279179692268374 -0.81344434618949879 0.88822016119956981 0.89594981074333202 -1.4089439511299131 -0.47220832109451288 -0.94030690193176258 1.0000000180025095e-35 -1.3665440678596494 -0.97523081302642811 -0.86655575037002552 0.96935057640075695 0.89045643806457531 0.73284980654716503 -0.49707108736038202 -1.3588691949844358 1.0000000180025095e-35 -0.88553759455680836 1.1223282814025881 -0.98159950971603382 0.75172033905982982 0.35788761079311376 0.72830379009246837 -0.015553551726043223 -1.5640818476676939 -1.6825144886970518 0.88323464989662182 1.2743012905120852 1.0000000180025095e-35 0.78675597906112682 0.2335920259356499 -0.020760890096426007 -0.0067098885774612418 1.0574066638946535 1.0000000180025095e-35 1.0000000180025095e-35 1.2104612588882449 -0.93666347861289967 1.7358481884002688 0.94832208752632152 1.0391286611557009 1.2001838684082033 -2.0531647205352779 1.1533682346343996 1.1331146955490115 -0.9988395869731902 0.071866240352392211
decision_type=2 2 2 2 2 2 2 2 2 2 2 2 2 2 2 2 2 2 2 2 2 2 2 2 2 2 2 2 2 2 2 2 2 2 2 2 2 2 2 2 2 2 2 2 2 2 2 2 2 2 2 2 2 2 2 2 2 2
left_child=1 6 5 13 29 11 7 18 10 -10 -9 26 -6 16 -15 34 -4 -13 20 27 -1 38 31 -20 42 -23 -3 30 -26 -5 -17 39 -33 -32 35 36 37 -2 -7 -21 41 -37 -24 44 -36 -42 50 55 49 -49 -45 52 -29 -48 -46 57 -57 -8
right_child=15 2 3 4 12 21 47 8 9 -11 -12 17 -14 14 -16 19 -18 -19 23 22 -22 25 24 -25 28 -27 -28 51 -30 -31 33 32 -34 -35 43 40 -38 -39 -40 -41 45 -43 -44 46 54 -47 53 48 -50 -51 -52 -53 -54 -55 -56 56 -58 -59
leaf_value=0.097434568885949091 -0.10711796236780009 0.14821917280553396 0.22539580421748939 0.031011465228685871 0.19137227370835799 -0.11281569121808324 -0.10291869934801652 0.24408893249172559 0.12496771356153312 -0.040764315721589096 0.15526533128333961 0.12147370621581384 -0.10754596965579602 0.019726581582285026 0.15166025888430484 0.62568243011695257 0.079704890570028386 -0.060140608316667316 0.064639566182465344 -0.095970371995838188 0.18285093854987411 0.20998645598054633 0.067886628106316557 0.18532604202948239 -0.11068346460086408 0.0064738466221056336 0.43953562811294705 -0.10840135764848502 0.32497960264312414 -0.076532876460066734 0.38883794604670907 0.55969506170740491 -0.057554864787113337 0.16857635123888637 0.31589694834084542 -0.1074346581766948 0.97228689610138963 0.21384531075034596 0.025227712472063873 0.17949542392591486 -0.10889449287900606 0.25400026036169143 -0.11468007649860884 -0.10581309294732698 -0.10468095110369108 -0.14328801395763832 -0.10299142436754175 -0.10463427887595987 -0.13752478041798427 -0.13119314077186203 -0.12299345792129675 -0.12339991538430964 -0.11996322689524391 -0.10728321021891879 -0.11181900709053504 -0.10407861227189269 -0.1053912168275722 -0.10294845321655072
leaf_weight=847.88551492244005 19.613388668745756 72.650874149054289 2957.8053854927421 318.26788050681353 873.97312484309077 371.59364699572325 73.79226515814662 2263.3038313612342 8450.6455005966127 739.46715725585818 10847.208897519857 1429.7103390730917 143.80718242749572 1007.1133858710527 22885.275472532958 12.223240066319702 476.33766289800406 316.11909593828022 891.79153900593519 286.04246551729739 29787.252011056989 107.18051044270396 11.914015553891657 443.91149266809225 17.164702221751213 1058.6826856657863 131.50505863130093 33.671669024974108 98.755280520766973 613.8953675031662 30.708411060273647 30.305427763611078 137.67640392668545 385.07104986719787 5.2221949473023406 20.856274891644716 6.2734639830887309 25.910761248320341 46.676451474428177 7.7642910629510871 91.892527740448713 11.474981401115654 43.408477742224932 4.8694283682852966 39.039074201136827 2.1792023666203013 373.14151001162827 62.123307265341282 5.4098828453570595 0.98150873184204002 3.5696706436574459 2.0576739329844704 2.5705797448754302 8.5103498864918929 0.8398403637111177 17.152357652783397 4.6931015364825717 0.63976277597248454
leaf_count=3104 381 329 6683 1737 2500 2671 2678 3758 24596 3580 24806 7747 1064 4569 72584 38 1836 2377 3490 3835 58407 325 64 950 252 5013 142 488 503 4440 74 152 2431 1118 31 418 19 162 337 71 1389 36 483 127 979 16 13338 1603 29 7 43 24 20 196 16 457 98 23
internal_value=0 0.154002 0.137816 0.147216 0.0588095 0.0599431 0.163758 0.164575 0.146299 0.111632 0.170599 0.114478 0.149137 0.153525 0.146099 0.0270681 0.205188 0.0885886 0.177323 0.0812258 0.180487 -0.00718617 0.014224 0.104749 0.151973 0.0251832 0.335868 0.172184 0.260469 -0.0398141 0.197434 -0.0368569 0.0538026 0.184844 -0.0699941 -0.000591058 0.18417 0.0755632 -0.0974109 -0.0886908 -0.0763026 0.0208455 -0.0753633 -0.098413 -0.0561157 -0.109691 -0.103303 -0.105061 -0.107612 -0.105047 -0.11308 -0.109983 -0.109221 -0.103087 -0.104831 -0.103246 -0.104361 -0.102919
internal_weight=0 87246.9 32810.6 29276.5 1949.94 3534.12 54436.3 54271.5 22300.6 9190.11 13110.5 1949.99 1017.78 27326.5 23892.4 1712.73 3434.14 1745.83 31970.8 1099.33 30635.1 1584.13 633.031 1335.7 171.242 1165.86 204.156 466.303 115.92 932.163 428.003 461.789 167.982 415.779 613.393 178.201 51.7976 45.5241 418.27 293.807 126.403 32.3313 55.3225 435.192 45.1011 94.0717 390.091 164.792 68.5147 63.1048 8.4391 38.2999 36.2422 381.652 39.8789 96.2775 21.8455 74.432
internal_count=268644 241940 114354 95413 9741 18941 127586 122691 56740 28176 28564 10595 3564 85672 77153 26704 8519 10124 65951 9553 61511 8346 7791 4440 1302 5338 471 1762 755 6177 1230 6489 2583 1192 17151 2421 562 543 3008 3906 1859 454 547 14730 1026 1405 13704 4895 1639 1610 170 532 508 13534 995 3256 555 2701
is_linear=0
shrinkage=0.1


Tree=5
num_leaves=59
num_cat=0
split_feature=43 106 113 30 5 97 99 32 88 132 51 124 73 69 58 32 133 70 135 106 77 116 106 60 59 54 104 70 101 18 29 124 76 114 31 0 68 30 33 53 104 31 105 113 122 44 42 115 52 22 99 70 34 34 103 68 70 22
split_gain=2021.18 1306.2 1790.17 1695.62 1028.18 1263.36 1012.37 999.917 1006.88 939.773 1425.92 1192.05 842.241 811.285 773.882 1248.64 755.452 751.748 591.185 925.859 570.659 507.045 505.03 485.443 454.074 438.659 282.917 340.382 312.894 277.467 275.444 269.362 249.194 206.466 197.899 187.657 215.44 137.119 225.167 202.196 82.802 59.0956 57.5653 29.1176 256.084 16.9946 95.5481 0.548122 0.374191 0.229161 0.0909042 0.0257902 0.0173951 0.0160903 0.015505 0.00580243 0.000926601 0.000125875
threshold=1.1357943415641787 -0.94371765851974476 -1.1121793389320371 1.0968921184539797 0.59113413095474254 -0.92705333232879628 -0.99858459830284108 0.89029031991958629 -0.95141223073005665 1.0000000180025095e-35 1.0965748429298403 -1.9441506266593931 -0.9453299045562743 -0.15541195869445798 0.85936328768730175 0.91680157184600841 1.0000000180025095e-35 -0.24423657357692716 1.0000000180025095e-35 -0.93090385198593129 -0.50957959890365589 -1.421944200992584 -0.90937602519989003 0.73214447498321544 0.90037721395492565 1.0099082589149477 -0.81867107748985279 -0.16134698688983914 -0.75813999772071827 1.3335564732551577 1.1972474455833437 -1.8580178618431089 -0.59971925616264332 -1.1837251782417295 0.99940392374992382 0.019476789981126789 0.15215650945901874 1.1108805537223818 0.79958766698837291 0.88874033093452465 -0.81820532679557789 1.0135145187377932 -0.82952496409416188 -1.1898689270019529 -1.6498485803604124 1.1676382422447207 1.123018801212311 -1.3780037760734556 1.0926970243453982 1.2001838684082033 -0.70749711990356434 -0.14488182961940763 0.90101742744445812 0.87051430344581615 -0.8428240418434142 0.10462321341037752 -0.13994867354631421 1.0436205267906191
decision_type=2 2 2 2 2 2 2 2 2 2 2 2 2 2 2 2 2 2 2 2 2 2 2 2 2 2 2 2 2 2 2 2 2 2 2 2 2 2 2 2 2 2 2 2 2 2 2 2 2 2 2 2 2 2 2 2 2 2
left_child=1 7 14 4 5 -4 -6 8 37 10 13 -12 34 -9 15 33 -17 25 19 -16 24 -19 -20 29 26 -11 43 28 -28 -10 -14 35 -25 -3 -5 36 -26 39 -39 -1 -29 49 -37 48 -45 46 55 51 -2 -33 57 53 -53 -47 -52 -22 -57 -49
right_child=20 2 3 12 6 -7 -8 9 23 17 11 -13 30 -15 18 16 -18 21 22 -21 45 -23 -24 32 31 -27 27 40 -30 -31 -32 41 -34 -35 -36 42 -38 38 -40 -41 -42 -43 -44 44 -46 47 -48 50 -50 -51 54 52 -54 -55 -56 56 -58 -59
leaf_value=0.20870242173907974 -0.14721666121780269 -0.081805406391877292 -0.0012274325235461822 0.25651909280302426 -0.067964149422763687 0.11749318490807961 0.1391220484497504 0.15004008039924055 -0.13443417896500179 0.19921282368366472 0.16589666133893827 -0.088187199979610831 0.056165141800963575 0.23352757765606219 0.16486594539756316 -0.004996856221270652 0.14317093788103161 0.15712455196819641 -0.037318522234075203 -0.0004282857999576639 -0.10887419029662167 -0.11263065180036735 0.31031202242033729 0.17723061363842518 -0.055170127993876134 0.28220978679534842 -0.060742299256519028 0.36515139400488911 0.096928202690727328 0.0086473259931509113 -0.082705753690235972 -0.10963392083560469 -0.12639925539308025 0.011948140421178765 -0.11764007241811179 0.061176833981455805 0.16735609261446294 -0.090563768769278533 0.30512378364599624 0.071422074030276811 -0.065939298934832663 0.20788784197908614 0.30068854021072883 0.54769181146295043 -0.092048103669646608 -0.10611234666640697 0.42559112640488395 -0.10353527114635051 -0.11993553539466589 -0.12481575516891308 -0.11991216304334268 -0.10266623234762773 -0.11478602817548034 -0.11743606238373423 -0.12972546716282279 -0.1044184755327857 -0.10268872006625095 -0.10523703956945984
leaf_weight=514.17064926587045 5.2845429033040991 769.89930569566786 932.42302004620433 127.76178292930126 237.21379045397043 23165.788707152009 48847.327608752996 7816.0585064664483 217.51276835054159 1536.5706522092223 320.67025439813733 435.29361793771386 189.30937816947699 1367.597222328186 724.42824211716652 551.49427096545696 915.09959356486797 220.09573769196868 51.100131688639522 636.69485456123948 1.867746576666838 101.95872228220105 229.39647807180882 180.16388863325119 54.001315172761679 1087.4861182570457 150.60147970169783 4.5344054438173762 766.19902570173144 359.6012812256813 581.69786671549082 15.294400352984665 31.80132201127708 338.025116186589 15.894829988479612 11.133674766868351 223.89182286337018 46.993846170604229 20.723243020474911 135.57980455458164 256.28614633344114 6.3093177154660216 101.66736287996173 6.7579533830285063 84.433271821588278 10.804653180763124 4.0693767666816703 1.2201661877334107 103.44224808737636 28.412718810141087 1.976094927638768 249.69965695589781 1.1898751184344281 1.4197178594768036 8.6921619251370412 3.8765907157212558 15.396963240578765 0.67515194416046131
leaf_count=672 25 4351 4214 258 4282 79198 105397 14178 1119 1937 909 2963 1073 1107 1864 2198 2338 412 285 4917 27 596 322 219 298 759 1188 6 4024 1310 3743 251 353 1426 162 59 686 263 34 466 5767 9 105 5 663 285 2 37 943 188 15 9911 16 21 58 105 607 18
internal_value=0 0.129607 0.124518 0.128125 0.129816 0.1129 0.138121 0.157296 0.080209 0.166309 0.151606 0.0195919 -0.00718702 0.162473 0.0611354 0.0269242 0.0874543 0.215913 0.114788 0.087546 0.0308358 0.0717232 0.246982 0.00225495 0.0519456 0.233609 0.0236798 0.0423522 0.0710279 -0.0452797 -0.0486081 0.140297 0.131677 -0.0532014 0.21512 0.168269 0.124114 0.165944 0.0305272 0.180057 -0.0584447 -0.0782045 0.277048 -0.0863105 -0.0446386 -0.0967297 -0.0181408 -0.103917 -0.121262 -0.119503 -0.124322 -0.102942 -0.102724 -0.107427 -0.127908 -0.103552 -0.103037 -0.104141
internal_weight=0 92705.8 78313.6 74097.4 73182.8 24098.2 49084.5 14392.3 1506.55 12885.7 9939.62 755.964 914.664 9183.66 4216.14 2574.52 1466.59 2946.11 1641.62 1361.12 2119.14 322.054 280.497 789.079 1818.25 2624.06 1377.54 1177.62 916.801 577.114 771.007 440.711 211.965 1107.92 143.657 390.694 277.893 717.468 67.7171 649.75 260.821 50.0164 112.801 199.918 91.1912 300.888 25.2107 275.677 108.727 43.7071 12.5636 263.114 250.89 12.2244 10.6683 21.1413 19.2736 1.89532
internal_count=268644 243325 216028 198327 193091 83412 109679 27297 4436 22861 19157 3872 5236 15285 17701 10313 4536 3704 7388 6781 25319 1008 607 3001 14217 2696 12621 10985 5212 2429 4816 1596 572 5777 420 1148 984 1435 297 1138 5773 448 164 1636 668 11102 741 10361 968 439 128 10233 9927 306 73 739 712 55
is_linear=0
shrinkage=0.1


Tree=6
num_leaves=60
num_cat=0
split_feature=68 106 113 30 74 28 70 115 79 112 135 30 135 32 52 25 116 27 30 35 2 33 31 69 98 134 75 128 58 26 71 28 115 113 69 38 71 29 32 129 72 31 69 117 36 77 67 59 38 112 135 132 58 80 123 54 27 133 24
split_gain=1586.29 968.058 1856.76 1448.05 1385.34 1174.33 1510.7 1155.92 777.619 1166.44 752.156 748.728 711.035 692.385 770.084 922.764 680.995 942.591 549.554 452.665 449.717 1002.12 368.141 338.57 426.504 335.806 334.52 332.458 437.296 278.62 217.539 190.604 189.568 180.531 157.221 142.015 137.865 225.122 201.562 109.611 79.3392 73.3215 54.4537 66.9192 58.1586 45.7648 25.9056 40.1425 25.5111 10.4457 0.339813 0.0854942 0.0655424 0.0261306 0.0159458 0.0298654 0.00549059 0.00499533 0.00246678
threshold=0.10896819829940797 -0.94038131833076466 -1.0763940215110777 1.088835656642914 -1.0290579199790952 1.1144748330116274 -0.21640400588512418 -0.87516367435455311 -1.0607293248176572 -1.0863852500915525 1.0000000180025095e-35 1.0673210620880129 1.0000000180025095e-35 0.90335115790367138 0.97073677182197582 1.4240758419036867 -1.4089439511299131 1.1368853449821474 1.0981280803680422 0.83551612496376049 0.65157568454742443 0.8589022457599641 1.0083621144294741 -0.018142913468182083 -0.72454455494880665 1.0000000180025095e-35 -0.96416130661964405 1.0000000180025095e-35 0.87310159206390392 1.4692639112472536 -0.59539669752120961 1.1046692132949831 -1.3145522475242613 -1.0794973373413084 -0.0036044123116880651 1.0171528458595278 -0.68826302886009205 1.2417345046997073 0.92854297161102306 1.0000000180025095e-35 -0.82444724440574635 0.99382892251014721 -0.0067098885774612418 -1.5433621406555174 0.91144764423370372 -0.9552631378173827 0.23426876217126849 0.85070103406906139 1.0013222098350527 -1.3151544928550718 1.0000000180025095e-35 1.0000000180025095e-35 0.94832208752632152 -0.54604488611221302 -2.0531647205352779 1.1201034784317019 0.98964872956275951 1.0000000180025095e-35 1.1331146955490115
decision_type=2 2 2 2 2 2 2 2 2 2 2 2 2 2 2 2 2 2 2 2 2 2 2 2 2 2 2 2 2 2 2 2 2 2 2 2 2 2 2 2 2 2 2 2 2 2 2 2 2 2 2 2 2 2 2 2 2 2 2
left_child=1 10 8 5 12 7 -7 -4 27 19 13 40 -5 20 30 -16 42 23 -6 -10 21 -1 25 32 34 31 -11 33 -29 -22 -15 -19 50 -3 -25 -34 37 -13 -38 -26 -12 -42 43 44 56 -27 47 -45 -48 -46 -18 52 57 -54 58 -56 -2 -44 -53
right_child=16 2 3 4 18 6 -8 -9 9 26 11 36 -14 14 15 -17 17 22 -20 -21 29 -23 -24 24 39 45 -28 28 -30 -31 -32 -33 35 -35 -36 -37 38 -39 -40 -41 41 -43 51 46 49 -47 48 -49 -50 -51 -52 54 53 -55 55 -57 -58 -59 -60
leaf_value=0.021159769191035387 -0.11077763610966812 -0.059901859513999393 0.19254461774330245 -0.028357367569979072 0.032929695128732492 0.11407224396821009 0.020512658193502214 -0.10661055588114138 -0.051156491554596964 -0.13534527883928271 0.30222203258087099 0.30963639092263917 0.17839794146093879 0.074666867537886011 0.14337235813045798 -0.033605884238988901 -0.11180335623089349 0.013828643749017775 -0.087463797209613212 0.058588923192080561 0.20824340080078399 0.13932826377696161 0.2073276467668298 0.057290374030693161 0.15032564790615371 0.1282979489570451 0.18583198818070246 -0.083294086136083439 0.30080312077591875 0.098497240899095728 0.2097493525275759 -0.10494253836303641 0.21694522971910982 0.05024545437952524 -0.071474756763974398 0.083638678390055565 0.00094301106989663958 -0.11806721281764368 0.14572968569455108 -0.11916084253949261 -0.12827721306290701 -0.0080869098358205532 -0.10311643614227267 -0.1055143765197768 0.12738213848319654 0.35879468349378424 -0.1060190854304237 0.27980245316680302 0.054313270066503931 0.27690886805082909 -0.14394263112307523 -0.10245288165471574 -0.13252674022499172 -0.11507446053732776 -0.10369368688160462 -0.11862052542300586 -0.10352926051901674 -0.11182604595072146 -0.10445028866593763
leaf_weight=1403.8214139770716 1.2208543121814743 836.01414573378861 2644.855387493968 200.76096893846989 2298.5115458257496 66200.744526414201 1772.0385097637773 135.79391632042825 422.17637780867517 33.707267232239246 5.0064806938171378 66.70945993065834 969.93104000762105 126.16813572123647 9086.6549886390567 304.48452487587929 17.258504822850231 190.35107501968741 454.03857015818357 3424.3942898437381 538.79361433722079 1468.2563080266118 58.240895006805658 184.3506375271827 378.38226938992739 16.394115082919598 855.08545498177409 52.119959613308311 68.725936736911535 405.38078216463327 2163.9742618128657 465.64620598778129 356.63875422999263 181.01928478479385 195.25557346269488 102.99471192806959 159.34680803865194 15.090236023068426 242.44005244970322 15.720168309286235 211.47430466301739 66.786177344620228 3.2925950996577731 5.5900361817330104 8.3964059576392192 18.15097938477993 71.131937587633729 5.2365443333983421 11.53305299580097 10.532540919259189 4.0645698532462111 305.98124054633081 1.6715654172003271 1.7625147532671688 5.7911235671490422 1.74407023191452 7.2572679370641708 0.82314505428075779 6.3104830533266059
leaf_count=4682 14 4360 4990 1280 7580 155244 6462 4261 2598 195 1 117 1598 301 16306 1085 224 1214 3227 13750 547 2461 37 1803 1039 38 1919 421 140 897 1394 3844 842 697 3753 380 616 129 548 192 1197 267 118 118 76 8 1686 3 117 11 24 13182 12 31 179 17 247 9 156
internal_value=0 0.111195 0.106702 0.11096 0.051824 0.114239 0.111633 0.177935 0.0525643 0.0704011 0.133449 0.0367745 0.142942 0.138232 0.150314 0.137634 0.0297463 0.0546761 0.0130706 0.0465439 0.101252 0.0815696 -0.0341127 0.107665 0.0667086 -0.054476 0.173651 -0.0216646 0.135145 0.161124 0.202307 -0.0704786 0.173552 -0.040297 -0.00894171 0.187074 0.1124 0.230735 0.088308 0.139576 -0.0923311 -0.09943 -0.0816711 -0.0243183 0.113092 0.249408 -0.0646002 0.0808537 -0.0836502 0.210583 -0.11793 -0.102851 -0.113369 -0.123569 -0.102603 -0.107149 -0.104573 -0.104858 -0.102493
internal_weight=0 96814.3 80549.9 74676.7 3923.24 70753.4 67972.8 2780.65 5873.24 4735.36 16264.4 766.854 1170.69 15497.5 11681.3 9391.14 2451.72 2003.45 2752.55 3846.57 3816.25 2872.08 748.783 1254.67 773.709 690.542 888.793 1137.88 120.846 944.174 2290.14 655.997 480.957 1017.03 379.606 459.633 483.587 81.7997 401.787 394.102 283.267 278.26 448.275 120.899 27.4071 34.5451 93.4916 10.8266 82.665 18.9289 21.3231 327.377 7.54982 3.43408 319.827 7.53519 8.47812 4.11574 312.292
internal_count=268644 239270 208722 184642 13685 170957 161706 9251 24080 18462 30548 2875 2878 27673 19086 17391 29374 13398 10807 16348 8587 7143 5141 8257 6787 5104 2114 5618 561 1444 1695 5058 1470 5057 5556 1222 1410 246 1164 1231 1465 1464 15976 2272 348 46 1924 121 1803 87 248 13704 170 43 13534 196 261 127 13338
is_linear=0
shrinkage=0.1


Tree=7
num_leaves=62
num_cat=0
split_feature=5 33 124 32 108 29 70 100 39 31 128 104 82 99 119 5 78 77 100 125 136 95 107 125 50 26 43 27 133 112 136 130 33 118 29 136 34 132 20 23 66 61 30 69 129 70 34 11 24 104 71 6 53 101 29 52 30 73 33 101 107
split_gain=1407.93 1325.16 1252.56 1206.02 1107.92 948.793 902.8 997.629 853.059 785.156 719.357 796.445 900.788 781.09 687.673 613.182 608.254 555.471 731.061 540.188 534.491 429.323 720.69 422.587 407.807 433.294 308.561 282.994 244.86 241.788 239.94 239.916 222.552 216.963 200.333 195.557 190.264 170.938 157.314 157.214 243.804 151.492 147.711 144.422 78.2068 83.4554 78.0835 71.9845 57.5144 156.636 53.5629 43.0891 48.7929 3.48268 1.3834 1.01283 0.96754 0.815273 0.614698 0.192859 0.0799988
threshold=0.59113413095474254 0.86146655678749096 -1.8457166552543638 0.96620270609855663 -0.97426837682723988 1.2261209487915041 -0.2115344554185867 -0.8670428693294524 1.0140402317047121 1.0155372619628908 1.0000000180025095e-35 -0.83191233873367298 -1.1131564974784849 -0.92065435647964466 -1.0211749672889707 0.78536930680274974 -0.93998089432716359 -1.1703711748123167 -0.84734150767326344 -1.3432762026786802 1.0000000180025095e-35 -0.75038090348243702 -0.99268490076065052 -1.6557102799415586 1.056478798389435 1.3933669328689577 0.96204453706741344 1.5145016908645632 1.0000000180025095e-35 -0.98192480206489552 1.0000000180025095e-35 1.0000000180025095e-35 0.85795527696609508 -0.936619073152542 1.2356017231941225 1.0000000180025095e-35 0.80094939470291149 1.0000000180025095e-35 1.5042867660522463 1.4307907223701479 0.072881489992141738 0.37119302153587347 1.1108805537223818 -0.1969085484743118 1.0000000180025095e-35 -0.59128537774085987 0.85461983084678661 0.721044421195984 1.3382543325424197 -0.89770430326461781 -0.65210628509521473 0.63912221789360057 1.1003024578094485 -0.93666347861289967 1.2356017231941225 1.0136662125587466 1.0939444899559023 -0.8361697494983672 0.65157821774482738 -0.93666347861289967 -0.95072993636131276
decision_type=2 2 2 2 2 2 2 2 2 2 2 2 2 2 2 2 2 2 2 2 2 2 2 2 2 2 2 2 2 2 2 2 2 2 2 2 2 2 2 2 2 2 2 2 2 2 2 2 2 2 2 2 2 2 2 2 2 2 2 2 2
left_child=1 4 8 6 24 9 7 -4 21 10 11 12 -2 38 30 33 31 18 -5 -15 -8 46 -23 -13 25 26 -1 37 -18 -19 36 -10 35 34 41 -26 -6 42 -12 48 60 -7 -17 -34 45 -29 -3 -32 49 -11 -36 58 -53 54 -35 -27 -55 -50 -16 -39 -41
right_child=5 2 3 17 14 15 20 -9 16 39 13 23 -14 19 51 27 28 29 -20 -21 -22 22 -24 -25 32 55 -28 44 -30 -31 47 -33 43 53 50 -37 -38 59 -40 40 -42 -43 -44 -45 -46 -47 -48 -49 57 -51 -52 52 -54 56 -56 -57 -58 -59 -60 -61 -62
leaf_value=0.25654738097387697 0.097501167419700469 0.10069879800298139 -0.034308480190443601 -0.068431096760455903 0.01824361163217093 0.083161176495139016 -0.020411425469581627 0.076039199333062385 0.19802352850137914 0.37125870506163283 -0.071477623834212384 -0.12856308445482773 0.13447594786465064 0.049404818070717935 -0.10346921452964103 0.14996062043023237 -0.031261411902254004 0.039548567849085274 0.13817712224772685 0.14340411027202363 0.11923954804252856 0.14253654238000218 0.060342198525159818 0.13605713697818742 -0.090312779397144397 -0.14799440738977496 0.043645917745939393 -0.12642094588422081 0.09412778592202653 0.19225776116603044 0.59114752042431362 -0.12445391967782837 -0.13666535829908733 -0.13053691492001407 -0.12783031153617105 0.23830655187582886 0.17423320974710146 -0.12860433365869547 0.1301598365688211 -0.1245303210386694 0.42579054316779691 -0.13184243034164378 -0.04254429216904191 0.052331565505377889 0.30634117382499448 0.28789961477044951 0.21088639555397065 0.30767511688561949 -0.11557791468412987 -0.062035024163614595 0.13903834767450315 0.33539582873571216 -0.11173332822981291 -0.15649564799965776 -0.11103384983774683 -0.12642037396781269 -0.12081976564633234 -0.13046369376844782 -0.11922875499904413 -0.15321200511820399 -0.1107115753020252
leaf_weight=83.121636778116226 37679.139430724084 70.377756386995316 850.61192704737186 177.67534689977765 95.561755500733852 193.99708862602711 1690.629445284605 22256.460325859487 252.56061714142561 9.046738710254429 454.72175414860249 60.700387090444565 7985.2402138970792 1756.8719758093357 36.662049315869808 421.48682023957372 657.5010756123811 1067.3901877198368 4743.8021856956184 937.6378479283303 327.08775953948498 4788.3729107156396 1372.5256820805371 10426.840592363849 970.30610805749893 75.851535819470882 376.04433113336563 77.491104070097208 204.07774182036519 114.83707657083869 12.729918926954268 25.390036754310131 49.412627577781677 113.78042949736118 115.81645396724343 18.45309129729867 430.19592206552625 22.194345273077491 42.290807895362377 8.1417197436094302 16.285091422498226 39.433051440864801 44.022513341158628 222.45639884285629 5.0132072716951361 5.1870475411415091 746.21010916680098 30.23406046256423 83.783358758315444 107.26392932981253 8.0431855879724008 4.7319459915161115 5.0400283932685852 55.821722790598869 53.457866735756397 30.515292935073376 8.8002884164452535 65.600093029439449 76.173657048493624 3.7185271233320227 8.6298676468431932
leaf_count=49 79508 113 4724 799 355 534 11022 67254 477 22 3017 260 10848 4877 1322 935 7349 4433 10321 1603 1068 6752 5004 17748 15435 355 917 607 646 260 12 182 292 659 894 48 845 138 150 55 12 253 225 1612 2 3 682 39 809 677 24 1 79 244 650 188 64 410 654 18 109
internal_value=0 0.0806577 0.0851582 0.0760617 0.0103209 0.104487 0.0663756 0.0719771 0.120155 0.106235 0.10705 0.109674 0.103967 0.0608679 0.11814 0.0152383 0.0399358 0.115933 0.130718 0.0821148 0.00222709 0.133256 0.124225 0.134526 -0.0304962 0.0400579 0.0821869 0.088311 -0.00156112 0.0543822 0.164448 0.168566 -0.0621476 -0.0565896 -0.00770373 -0.0841798 0.145881 0.117841 -0.0543203 -0.0554732 0.150188 0.0468409 0.131756 0.0179811 -0.0771729 -0.100427 0.20139 0.391666 -0.0810608 -0.0283331 -0.1105 -0.0966624 0.104783 -0.131921 -0.124303 -0.141805 -0.151637 -0.122115 -0.114108 -0.132136 -0.11742
internal_weight=0 41863 39345.5 31228.5 2517.49 60810.5 25124.8 23107.1 8117.02 59642.2 59343.4 56151.9 45664.4 3191.52 691.329 1168.26 1139.53 6103.7 4921.48 2694.51 2017.72 6977.49 6160.9 10487.5 1826.16 565.533 459.166 579.114 861.579 1182.23 568.722 277.951 1260.63 589.15 357.29 988.759 525.758 491.422 497.013 298.751 33.0567 233.43 465.509 271.869 87.6914 82.6782 816.588 42.964 265.694 116.311 123.86 122.608 9.77197 231.86 167.238 106.367 64.622 149.383 112.836 25.9129 16.7716
internal_count=268644 143289 121086 99881 22203 125355 84068 71978 21205 120105 118011 108364 90356 9647 3307 5250 8654 15813 11120 6480 12090 12551 11756 18008 18896 1509 966 1928 7995 4693 1251 659 17387 3322 1705 15483 1200 1316 3167 2094 176 787 1160 1904 612 610 795 51 1918 699 918 2056 80 1617 1309 543 308 1219 1976 156 164
is_linear=0
shrinkage=0.1


Tree=8
num_leaves=63
num_cat=0
split_feature=51 101 6 32 75 130 77 130 38 29 76 31 33 31 117 27 120 99 72 30 6 101 5 108 82 2 56 127 55 0 2 115 39 27 134 29 31 129 124 116 101 71 6 27 117 31 105 132 20 65 100 99 124 72 56 82 129 58 113 101 100 74
split_gain=1258.29 1439.98 1079.67 938.821 866.796 855.907 1647.75 842.898 804.894 795.043 760.913 732.614 713.323 673.789 617.152 600.163 556.171 522.845 642.161 508.674 476.405 471.548 429.864 370.797 360.609 346.797 340.799 471.06 332.187 394.675 800.945 299.292 298.052 295.905 252.836 230.706 229.954 213.299 212.995 302.454 207.078 308.322 234.208 211.992 199.808 195.831 186.523 180.398 128.344 220.291 119.257 117.185 110.477 99.1593 83.0629 63.9488 63.7232 43.0077 0.789816 0.0861755 0.0626271 0.0422829
threshold=1.0794255137443545 -0.85616946220397938 0.6186923384666444 0.96324899792671215 -1.0186181664466856 1.0000000180025095e-35 -1.2787940502166746 1.0000000180025095e-35 0.93897178769111644 1.2227716445922854 -1.1667948365211485 1.0083621144294741 0.8589022457599641 0.99851492047309887 -1.0616855621337888 1.2143964171409609 -1.0505446791648863 -1.0131556391716001 -0.81541654467582692 1.0465687513351443 0.8156818449497224 -0.89891251921653736 0.64946684241294872 -0.85825783014297474 -1.370569586753845 0.49209810793399816 0.89895948767662059 -1.6625587344169614 0.97193881869316112 0.43474882841110235 0.51871463656425487 -0.94965311884880055 0.97375744581222545 1.5145016908645632 1.0000000180025095e-35 1.2356017231941225 1.0103703141212466 1.0000000180025095e-35 -1.2368699312210081 -0.92535081505775441 -0.86655575037002552 -0.49707108736038202 0.63912221789360057 1.2263308167457583 -0.92391377687454213 0.97894364595413219 -0.89430782198905934 1.0000000180025095e-35 1.2661642432212832 0.31149947643280035 -0.94440972805023182 -0.92482927441596974 -1.3936893939971922 -0.78119745850563038 0.94635882973670971 -1.3610006570816038 1.0000000180025095e-35 0.85878199338912975 -0.88389939069747914 -0.83352062106132496 -0.98719289898872364 -0.94299882650375355
decision_type=2 2 2 2 2 2 2 2 2 2 2 2 2 2 2 2 2 2 2 2 2 2 2 2 2 2 2 2 2 2 2 2 2 2 2 2 2 2 2 2 2 2 2 2 2 2 2 2 2 2 2 2 2 2 2 2 2 2 2 2 2 2
left_child=5 8 3 7 14 9 13 12 15 11 -9 17 -3 23 -5 24 25 58 -19 46 31 37 -23 55 51 -17 45 -28 59 34 -31 35 -6 47 -30 -11 -18 -13 39 -15 48 43 -43 -42 -40 -21 60 -22 57 -50 -26 -2 -48 -33 -25 -7 -35 -10 -1 -4 -8 -61
right_child=1 2 28 4 32 6 19 10 40 20 -12 21 -14 38 -16 16 36 18 -20 26 33 22 -24 54 50 -27 27 -29 29 30 -32 53 -34 56 -36 -37 -38 -39 44 -41 41 42 -44 -45 -46 -47 52 -49 49 -51 -52 -53 -54 -55 -56 -57 -58 -59 -60 61 -62 -63
leaf_value=-0.12262622681609861 -0.072153544657153582 -0.014981332243359633 -0.14918156040638605 0.17159673275800746 0.36612224807980409 0.3677211940831368 -0.12047144446297885 0.070257920839571678 -0.13520768852197193 0.067538069143287319 -0.02913204207516918 -0.029873703693240713 0.070037418437704432 0.16839891452862707 0.097237382241913778 0.0028718952227966897 -0.07604311182354806 0.1673212086591124 0.098894929118907002 -0.0027632677792499972 0.12389072415315637 0.0406020064419522 0.12574162201241668 -0.141865517709128 -0.031934035226673589 0.16240091477357954 -0.05416468819095277 0.10111509645035346 0.16910042684973919 -0.069525014692622025 0.1193168718610953 -0.1001707034840898 0.03302332689056519 -0.101501646065961 -0.034978422856292928 -0.10444135111029602 0.17920457807745585 0.10510856423572079 0.28158989850239552 -0.12082463014945406 0.17179051494634992 -0.078773312106350399 0.082237768546284756 -0.13332670467917865 0.15336271477921185 -0.11700782573302111 -0.15146964977222332 -0.13168101385274122 -0.074777571596843589 0.2209127134073687 0.22120540053767399 0.090228220603638817 0.19143929195073928 0.17471606617660784 0.25961679012802991 0.099107028461965618 0.24880508059935266 -0.060969371900741344 -0.10449926857818036 -0.14410013255166476 -0.13083104789965019 -0.13367730079035642
leaf_weight=33.535970566794276 68.541398160159588 1032.0989850405604 28.915627166628838 1308.2351286411285 27.20858545601368 17.909626245498657 9.8927165903151053 1303.2233001589775 381.91980627737939 349.73765217140317 1883.6045269686729 770.89586483687162 22516.254984360188 83.310063362121582 7601.5958194267005 274.08449347317219 531.98831608146429 1409.7334262561053 50579.572257963941 203.57439405471087 569.58417003974319 1472.5087639167905 992.87257719784975 136.6418735627085 19.836502077057958 271.00799380242825 509.53863288462162 316.85007504373789 1711.4991421401501 250.51516637206078 2170.9586775898933 375.57539835944772 2111.3634481914341 87.060190413147211 62.940080866217613 100.39244579151273 37.803399983793497 138.02817812748253 141.98209631443024 63.882071122527122 118.61932441592216 482.60979748144746 111.14869421720505 28.181089378893375 843.26860883831978 570.57373552210629 9.993695490062235 29.026379972696304 127.53108535893261 31.398796811699867 301.18207865580916 126.40239047817886 156.93066680431366 13.597895339131354 5.3551216125488272 17.545610249042511 5.5221623331308356 98.07399763725698 84.8593241982162 10.201872341334822 14.228544250130652 6.2931203544139853
leaf_count=271 465 15054 135 1896 27 5 79 3448 2396 1003 8976 3913 72848 108 17389 1748 3157 1791 88258 762 1253 4321 1516 1434 122 944 2218 936 1974 873 3299 2323 9056 674 252 755 297 412 78 265 177 2162 214 167 1251 2715 47 179 847 63 235 272 162 18 1 39 2 659 2532 50 85 36
internal_value=0 0.0704968 0.0752826 0.0699124 0.094433 0.0926038 0.0414443 0.0597792 0.00368562 0.0953868 0.0115125 0.0973482 0.0663111 0.126688 0.108156 0.0512426 0.00997376 0.100272 0.10075 -0.0208805 0.0242867 0.0521917 0.0748899 -0.0544927 0.140416 0.0821862 -0.0392898 0.00537196 0.123123 0.126034 0.0997801 -0.0263437 0.0372613 0.0857665 0.161862 0.0291815 -0.0591084 -0.00937545 0.155078 0.0428746 -0.052537 -0.0165494 -0.0486328 0.113218 0.171841 -0.0869654 0.133348 0.111498 -0.0942492 -0.0163599 0.205563 0.0331355 0.170909 -0.090566 -0.126724 0.234793 -0.0806073 -0.120039 -0.109634 -0.145891 -0.126582 -0.140124
internal_weight=0 45035.2 42024.9 37783.6 11048.4 60114 3101.48 26735.2 3010.33 57012.5 3186.83 55482 23548.4 1309.9 8909.83 1630.85 1114.88 52107.7 51989.3 1791.58 1530.5 3374.31 2465.38 177.452 515.962 545.092 1600.54 826.389 4241.32 4195.91 2421.47 839.303 2138.57 691.193 1774.44 450.13 569.792 908.924 1132.44 147.192 1379.48 740.559 593.758 146.8 985.251 774.148 191.046 598.611 638.924 158.93 321.019 194.944 166.924 389.173 141.997 35.4552 92.5824 479.994 118.395 45.4106 24.1213 16.495
internal_count=268644 149238 135313 128694 28368 119406 10185 100326 13925 109221 12424 103014 87902 3181 19285 7240 6146 92852 90049 7004 6207 10162 5837 1479 1094 2692 6631 3154 6619 6398 4172 4099 9083 2108 2226 1758 3454 4325 1702 373 6685 2720 2376 344 1329 3477 373 1432 3965 910 357 737 209 2341 1435 44 676 3055 2803 221 164 86
is_linear=0
shrinkage=0.1


Tree=9
num_leaves=61
num_cat=0
split_feature=51 102 75 117 124 121 29 130 0 126 20 26 130 33 33 97 78 70 125 86 70 134 126 32 106 20 102 56 0 94 123 5 106 53 12 0 16 102 71 40 36 1 67 31 108 120 78 29 74 107 57 52 52 28 135 115 102 21 101 24
split_gain=1053.71 1145.58 769.393 860.604 859.606 852.753 738.877 1062.74 759.783 894.687 695.209 855.699 684.68 981.416 689.152 645.775 644.143 608.96 605.914 600.307 509.9 439.445 388.851 733.761 611.442 423.771 629.251 358.603 346.301 341.104 318.496 303.099 301.281 270.46 261.367 259.339 225.236 217.389 231.475 343.14 211.188 183.052 179.903 170.481 142.359 261.696 136.66 126.297 89.5363 28.4709 26.0172 1.78796 1.07386 0.57481 0.44236 0.175576 0.159121 0.043113 0.27921 0.000807366
threshold=1.0794255137443545 -0.84472867846488942 -1.0825864076614378 -0.97889035940170277 -1.3396961688995359 -1.11666864156723 1.1273748874664309 1.0000000180025095e-35 0.32908681035041815 -1.7291038632392881 1.2774534821510317 1.2937736511230471 1.0000000180025095e-35 0.92931538820266735 0.8589022457599641 -0.90616667270660389 -1.3296763300895689 -0.44964908063411707 -0.41205802559852595 -1.3117530345916746 -0.33918663859367365 1.0000000180025095e-35 -1.6955854296684263 0.90062820911407482 -0.94371765851974476 1.3111222386360171 -0.868810474872589 0.89895948767662059 0.42599901556968695 -1.0313342809677122 -1.329323887825012 0.62646135687828075 -0.83930662274360646 1.0519641637802126 0.81746500730514537 0.46897381544113165 1.0816324949264529 -0.8751966357231139 -0.4289917647838592 0.98499536514282238 0.92749318480491649 0.48406358063220983 -0.029930163174867627 0.97894364595413219 -0.89712700247764576 -1.1963406205177305 -0.9468935728073119 1.1364297866821291 -0.96131882071495045 -0.99166253209114064 0.89655420184135448 1.0921727418899538 1.0460657477378847 1.1689829826354983 1.0000000180025095e-35 -0.82782325148582447 -1.0089495182037351 1.2104612588882449 -0.93666347861289967 1.1331146955490115
decision_type=2 2 2 2 2 2 2 2 2 2 2 2 2 2 2 2 2 2 2 2 2 2 2 2 2 2 2 2 2 2 2 2 2 2 2 2 2 2 2 2 2 2 2 2 2 2 2 2 2 2 2 2 2 2 2 2 2 2 2 2
left_child=6 10 3 21 19 12 18 8 20 17 37 28 14 -14 -4 -11 32 -10 22 -5 49 30 23 42 -25 26 -24 43 34 -6 -3 -29 47 -30 -12 -27 41 51 39 -39 -40 -7 -1 -18 45 -13 -22 -9 -23 -8 -38 53 -34 -2 -46 -20 -53 59 -59 -57
right_child=1 2 5 4 29 36 7 16 9 15 11 44 13 -15 -16 -17 27 -19 55 -21 46 48 25 24 -26 35 -28 31 33 -31 -32 -33 52 -35 -36 -37 50 38 40 -41 -42 -43 -44 -45 54 -47 -48 -49 -50 -51 -52 56 -54 -55 -56 57 -58 58 -60 -61
leaf_value=0.13517077724427448 -0.1464436992444243 -0.1071475002927834 -0.014678143453224405 0.037300768387551288 0.073554761828746068 -0.094985715694835035 -0.14549633048878857 0.074576013222479393 -0.037270738263720397 0.074728667930977322 0.082213785789829727 -0.074398302844759248 -0.05036448039873246 0.057916760586309096 0.069423845904884637 -0.00059742647602664927 -0.0024807445110191818 0.11394748394030177 -0.15498067769949828 -0.1146722769377865 -0.15412422354622518 -0.14648972129185986 -0.0028297170036066274 0.11967648142243432 0.051715152571140455 0.20133462486184028 0.10741192503508906 -0.054777932325054346 0.08756517144980204 0.12690760793650913 0.14183446267645583 0.078701156744467191 -0.17304388027451703 -0.12810346404356862 0.19547975269109474 0.12584699303558136 0.10701595367922334 0.01789696734808956 0.17701302102936853 -0.080048715307579663 -0.12579141746106082 0.13870928574846417 -0.064581602368294466 -0.10241615713535042 -0.11693835648458346 0.070792016420926793 0.10690725950439717 0.24137893479295927 0.26696299078969432 -0.085235177492009762 0.28519741314011349 -0.10812545859125572 -0.13167086634120295 -0.12906529276050779 -0.1558438541932109 -0.10257323739492485 -0.1176602473407812 -0.10414644876752795 -0.12935575832810325 -0.10334185647224621
leaf_weight=50.662847727537155 26.323086723685265 52.230182215571404 1012.0848826374859 1103.6675151847303 4761.751278873533 494.33127318322659 185.4610388353467 65.385457374155521 275.5088035389781 30371.93914492242 400.38543598540127 279.52301622182131 1280.5594334509224 2416.7644095942378 26112.847104985267 1182.4361056014895 246.65331431478262 7972.4019942842424 0.68183059804141422 339.99028326943517 22.413232415914536 65.501599833369255 544.92357191443443 2930.479807600379 2414.6195263043046 693.55982168018818 10388.675967469811 281.4257537573576 150.68586076796055 1601.2858978100121 3144.852704115212 430.13894452527165 18.394364252686504 94.684594564139843 414.78339314088225 1323.7382953260094 17.498312622308731 678.7684566937387 98.620226763188839 756.1440409924835 30.051156364381313 35.955694869160652 409.69459580257535 554.35065377689898 159.23431467451155 223.3288862593472 190.74016908556223 148.45462558418512 5.6930189132690421 135.81753701716661 15.412831038236616 20.179698873311281 9.5206402540206891 68.722811214625835 2.9771370887756339 70.866425486281514 131.94197757355869 52.884075528010726 4.7915507331490508 16.931332357227802
leaf_count=60 123 226 14982 3415 9409 2107 962 136 935 62220 1424 1896 6518 7168 79850 3302 934 11436 7 1403 104 315 1580 2669 5248 468 14915 1435 532 2473 4660 1181 80 689 564 1304 45 2329 189 3727 245 39 1400 2722 1586 1288 294 125 11 729 4 389 57 444 13 2948 1175 1571 29 555
internal_value=0 0.0619969 0.0665513 0.0892121 0.0711755 0.058555 0.0820429 0.0746671 0.0779809 0.0795712 0.0073124 0.0527315 0.0607832 0.0204138 0.0662858 0.071906 -0.00152563 0.108896 0.0984669 0.00151018 -0.0404602 0.132295 0.100047 0.0785419 0.0889753 0.109688 0.101918 -0.0257508 0.108496 0.0869812 0.137767 0.0259098 0.150042 0.00434204 0.139847 0.1518 -0.0633857 -0.0359709 -0.0221949 -0.0337167 0.106293 -0.0791402 -0.0425986 -0.071643 -0.0361931 -0.00991571 0.0794596 0.190376 -0.113428 -0.120021 0.190461 -0.123118 -0.158933 -0.133878 -0.117652 -0.104354 -0.116395 -0.104117 -0.106241 -0.102721
internal_weight=0 45996.8 42460.4 11075 7806.69 31385.5 60993.6 42091 40336.7 39802.3 3536.35 1725.6 30822.3 3697.32 27124.9 31554.4 1754.32 8247.91 18902.5 1443.66 534.432 3268.28 18756.4 5805.46 5345.1 12950.9 10933.6 1512.57 1060.54 6363.04 3197.08 711.565 241.755 245.37 815.169 2017.3 563.198 1810.75 1563.58 1434.91 128.671 530.287 460.357 801.004 665.063 502.852 213.153 213.84 71.1946 321.279 32.9111 247.168 27.915 95.0459 162.211 146.155 152.122 145.473 57.6756 87.7978
internal_count=268644 149238 132625 21912 16700 110713 119406 86652 79982 77893 16613 7992 108518 13686 94832 65522 6670 12371 32754 4818 2089 5212 27644 9377 7917 18267 16495 6272 3209 11882 4886 2616 398 1221 1988 1772 2195 8621 6490 6056 434 2146 1460 3656 4783 3184 398 261 326 1691 49 2131 137 567 1599 5110 1564 5103 1600 3503
is_linear=0
shrinkage=0.1


Tree=10
num_leaves=63
num_cat=0
split_feature=49 26 100 29 53 26 99 33 63 30 69 27 44 70 113 44 104 51 77 51 36 135 57 30 98 101 136 113 108 135 20 29 30 62 0 29 56 131 33 103 22 118 0 5 75 70 40 113 94 23 52 113 59 44 20 32 63 30 67 63 135 101
split_gain=910.787 1076.17 767.437 747.13 1171.32 1029.76 821.933 764.976 735.572 726.091 695.073 851.948 1249.14 1070.6 689.098 562.242 544.461 523.124 626.007 508.038 505 490.854 490.011 532.175 443.918 421.659 352.472 341.008 336.032 326.176 301.898 283.77 277.017 263.542 216.384 197.584 187.69 179.258 178.374 160.687 156.884 134.25 133.481 263.394 173.44 112.438 133.678 108.103 106.503 93.8602 90.9212 87.3168 73.0828 148.457 71.8061 70.4605 60.8965 44.3654 43.2731 19.2138 1.21639 0.214001
threshold=1.0941986441612246 1.2996493577957156 -0.88519081473350514 1.1504061222076418 0.95269113779068004 1.4026827216148379 -0.94384989142417897 0.83116936683654796 0.40448454022407537 1.0859649777412417 -0.039038293063640588 1.1703772544860842 1.1184479594230654 -0.24077070504426953 -0.91859510540962208 1.0604867339134219 -0.91040286421775807 1.0373863577842715 -1.2680701613426206 1.0547866821289065 0.96076530218124401 1.0000000180025095e-35 0.83319187164306652 1.0621876716613772 -1.0046026706695554 -0.76618474721908558 1.0000000180025095e-35 -1.0900753140449522 -0.9142952263355254 1.0000000180025095e-35 1.3881005048751833 1.2356017231941225 1.0995326042175295 0.45330877602100378 0.4322227686643601 1.1188919544219973 0.93028992414474498 1.0000000180025095e-35 0.91138949990272533 -0.8926696479320525 1.3591360449790957 -0.94524979591369618 0.50229218602180492 0.65739914774894725 -1.2066293954849241 -0.31213267147541041 0.96160492300987255 -1.0164869427680967 -0.94086158275604237 1.3783898353576662 1.075874984264374 -1.0486552715301511 0.75131815671920787 1.0656138062477114 1.3311528563499453 0.82931953668594371 0.44308428466320043 1.0814875960350039 0.091340515762567534 0.40804551541805273 1.0000000180025095e-35 -0.87363481521606434
decision_type=2 2 2 2 2 2 2 2 2 2 2 2 2 2 2 2 2 2 2 2 2 2 2 2 2 2 2 2 2 2 2 2 2 2 2 2 2 2 2 2 2 2 2 2 2 2 2 2 2 2 2 2 2 2 2 2 2 2 2 2 2 2
left_child=3 2 15 6 7 8 19 14 9 -6 11 13 -13 -4 16 34 -5 18 37 24 29 -20 30 -24 59 -22 32 45 36 -12 -19 -16 -9 39 47 -26 54 -8 -36 -7 -38 -28 43 -21 -44 52 58 -2 -10 50 -17 -35 57 -54 -29 -51 -48 -3 -47 -1 61 -30
right_child=1 27 10 4 5 33 17 26 48 -11 20 12 -14 -15 31 49 -18 22 21 42 25 -23 23 -25 35 -27 41 28 60 -31 -32 -33 -34 51 38 -37 40 -39 -40 -41 -42 -43 44 -45 -46 46 56 -49 -50 55 -52 -53 53 -55 -56 -57 -58 -59 -60 -61 -62 -63
leaf_value=-0.11563496813850019 -0.12453478949997242 -0.1349354650201165 0.13573428346265987 0.019671913840956512 0.065192984782475996 -0.11275041330846525 -0.073299705798067702 0.11976888421253418 -0.098267774588306184 -0.0047888580916392101 -0.028402242478020014 0.061612144509553081 -0.00070422062849857998 0.067547612531431295 0.12494911758140166 -0.04549555774642533 0.071550307074835909 -0.0016163061121488677 0.11568102100808822 -0.11651188749952426 -0.048076321154704837 -0.080271737485450911 0.098914088387369814 0.065281768750179769 0.13414399652078721 0.084248063909576953 -0.18231063931350386 -0.13409866623478003 -0.11345341342896238 0.12776984821207968 0.11375387437565908 -0.088727365148951937 0.020784090159699339 -0.12618304941024613 -0.065928938177252303 0.049258808368613391 -0.039209802980077944 0.14217752455378949 0.11450506135180744 -0.024326237333355802 0.15046527912960594 0.022659669060560834 0.13053977433130015 0.091907130213076005 -0.12774733365657259 0.068239782385757855 0.21158575507090982 0.18042666394712045 -0.0056413799422320001 -0.1170734524116685 -0.11626992188486263 0.24660136650945941 0.028921897163447743 -0.11197371239486097 0.036042918854941125 0.23669264990807287 -0.13158479252932645 0.07492317278660332 0.33448683643846971 0.010804077476396398 -0.16581744203733909 -0.12208611490914204
leaf_weight=147.76585239544511 12.545337818562983 314.37675914634019 3172.260016143322 3364.7775428183377 7851.6529680527747 520.41565613076091 237.01342684961855 4887.1199562624097 363.91337374411523 1827.704146053642 1820.1856896113604 28635.081122018397 3623.7293356936425 8399.9132698010653 1825.1764149442315 365.36886918544769 5073.0137779414654 1102.5495531205088 8797.385607149452 111.90239819232374 297.11550408042967 129.71984778344631 10377.04451065138 8607.1471885070205 359.30309758987278 1270.8242524173111 47.106277316808701 48.077347453683615 56.703494638204575 144.34016979113221 285.56064238026738 64.342702217400074 300.08889882266521 7.6879329774528733 132.20478601567447 1157.884046535939 54.078096851706505 46.120517998933792 93.565072700381279 339.63477778434753 225.21133225411177 99.346594117581844 28.743747510015965 132.35458004102111 272.18972561694682 10.433978475630285 6.2046823501586905 158.24305691942573 188.40063720941544 8.5393397379666585 360.72216384485364 34.387785572558641 117.05527411028743 207.08372343890369 51.243861105293036 16.525442406535149 31.037866495549679 10.407220534980295 14.711632259190081 13.08255924656987 5.5356377959251395 58.179118305444717
leaf_count=4099 121 2057 4382 10402 16068 2472 784 5367 1769 6049 23984 69341 14225 21064 2399 1430 8430 2648 9280 661 2052 412 15498 18310 394 6466 199 307 651 258 478 542 1011 55 743 2699 360 47 220 1091 593 221 31 354 1539 34 6 203 679 94 2697 56 708 1619 212 6 203 36 28 59 24 417
internal_value=0 0.0552414 0.0575652 0.0736425 0.0613405 0.0365434 0.0840063 0.0789694 0.0455738 0.0519787 0.0595231 0.0629622 0.054612 0.0862395 0.0630864 -0.0232337 0.0508625 0.0884133 0.108191 0.0253667 0.0168509 0.112834 0.079472 0.0836657 0.0526144 0.0591734 0.109723 -0.0378982 0.0254735 -0.0169278 0.0221175 0.117673 0.114042 -0.0658767 0.0730952 0.0693615 0.0717517 -0.0382 0.00884774 -0.0778316 0.113739 -0.0432686 -0.0584987 -0.00357668 -0.103077 -0.0823574 0.0458672 0.158026 -0.0666719 -0.0740886 -0.0806563 0.178487 -0.0946851 -0.0610925 -0.0463157 0.116168 -0.0744119 -0.128211 0.22401 -0.105351 -0.120031 -0.117825
internal_weight=0 49721.5 48511.2 58600.5 26794.8 11133.8 31805.8 15661 10231.7 9679.36 47363.4 43831 32258.8 11572.2 10327.3 1147.71 8437.79 29582.5 9210.24 2223.23 3532.47 8927.11 20372.3 18984.2 1678.04 1567.94 5333.66 1210.34 499.029 1964.53 1388.11 1889.52 5187.21 902.126 396.558 1517.19 378.611 283.134 225.77 860.05 279.289 146.453 545.19 244.257 300.933 711.311 62.3882 170.788 552.314 751.156 726.091 42.0757 648.923 324.139 99.3212 25.0648 37.2425 324.784 25.1456 160.848 120.418 114.883
internal_count=268644 154541 147286 114103 56810 28239 57293 28571 24565 22117 141772 109012 83566 25446 21773 5514 18832 47457 10523 9836 32760 9692 36934 33808 7251 8518 6798 7255 2564 24242 3126 2941 6378 3674 1287 3093 1472 831 963 3563 953 420 2585 1015 1570 4691 271 324 2448 4227 4127 111 4420 2327 519 100 209 2093 62 4158 1092 1068
is_linear=0
shrinkage=0.1


Tree=11
num_leaves=62
num_cat=0
split_feature=51 28 70 134 132 40 102 59 53 99 133 128 29 130 131 0 78 76 103 53 31 113 108 99 101 68 7 32 71 128 26 108 31 71 69 57 110 30 70 32 39 17 16 63 113 30 108 2 32 33 61 69 33 101 0 29 20 50 52 104 106
split_gain=794.626 936.772 1425.76 1397.63 733.746 648.443 748.98 637.429 929.653 986.631 576.924 566.093 568.149 961.984 718.04 611.328 542.517 512.327 499.446 477.935 458.708 440.804 436.203 408.571 407.808 408.157 360.116 469.794 424.318 358.858 316.663 306.58 301.157 320.496 309.709 302.492 270.326 262.066 218.853 206.156 167.943 166.528 136.367 132.483 112.235 108.416 141.949 103.465 140.059 80.5062 67.8185 66.7917 48.2399 37.2413 28.2872 11.793 7.97559 6.08302 3.1592 1.33777 0.710469
threshold=1.0881814360618594 1.1434162855148318 -0.24314109236001966 1.0000000180025095e-35 1.0000000180025095e-35 1.0228598713874819 -0.83445358276367176 0.82927927374839794 1.0805845856666567 -0.80977472662925709 1.0000000180025095e-35 1.0000000180025095e-35 1.1273748874664309 1.0000000180025095e-35 1.0000000180025095e-35 0.33079007267951971 -1.2766389846801756 -1.1698111891746519 -0.78163141012191761 1.1453391909599306 0.99495658278465282 -1.1763876080512998 -0.87586745619773854 -0.92692705988883961 -0.82830172777175892 0.084044750779867186 0.67308872938156139 0.89676102995872509 -0.45884700119495386 1.0000000180025095e-35 1.2345508933067324 -0.88817462325096119 0.9981767237186433 -0.53578436374664296 -0.088512104004621492 0.89045643806457531 -0.95942354202270497 1.071832060813904 -0.3028541356325149 0.95390704274177562 0.87695047259330761 1.0870093703269961 1.0875676274299624 0.5504041612148286 -1.2084194421768186 1.0382492542266848 -0.87534251809120167 0.61035841703414928 0.94829738140106212 0.86466717720031749 0.68334156274795543 -0.087356910109519945 0.8589022457599641 -0.82893139123916615 0.38157728314399725 1.1051226854324343 1.1415531039237978 1.0510431528091433 1.0921727418899538 -0.84597730636596669 -0.94371765851974476
decision_type=2 2 2 2 2 2 2 2 2 2 2 2 2 2 2 2 2 2 2 2 2 2 2 2 2 2 2 2 2 2 2 2 2 2 2 2 2 2 2 2 2 2 2 2 2 2 2 2 2 2 2 2 2 2 2 2 2 2 2 2 2
left_child=11 2 3 10 5 6 22 24 20 -10 19 12 18 14 15 -14 37 -16 26 -2 -9 -8 -3 45 58 -26 27 -1 -28 30 -7 51 33 40 35 -34 -31 -15 49 -18 -25 55 56 -35 -12 46 -13 59 -49 52 -36 -5 -6 -51 -48 -40 -20 -44 -4 -47 -43
right_child=1 4 7 31 38 29 21 8 9 -11 44 23 13 16 17 -17 39 -19 42 -21 -22 -23 -24 32 25 -27 28 -29 -30 36 -32 -33 34 43 50 -37 -38 -39 41 -41 -42 60 57 -45 -46 47 54 48 -50 53 -52 -53 -54 -55 -56 -57 -58 -59 -60 -61 -62
leaf_value=-0.051548645626561133 0.11318656384084197 0.012774286575397626 -0.17610954415548644 -0.13124736104612802 -0.12802688810483426 -0.013433600126365998 -0.0283436871574098 0.020250622080170113 -0.02268618411261715 0.061115060229812661 -0.087477047185702178 0.19375758073425747 -0.024816746093533633 -0.011058924650932483 0.041987026145386026 0.06848881468279347 -0.07517111367060042 -0.04707247183712869 -0.1032412457568273 -0.088647066388387652 0.13655452229850332 0.049404848515327067 -0.068874848975608166 -0.16001077146777698 0.029695847610857962 -0.052764628907999545 0.10188255253032608 0.074202206383102029 -0.088455999174263444 0.18734003315917414 -0.10834490418880389 0.21383282942572626 0.024614472471586685 -0.12905609460403153 -0.14842821196343067 0.11264543815738191 -0.07938455537640525 0.10714804591457605 0.071013773905469674 0.036590698544283116 0.13344186438256933 -0.19255187177495067 0.1772858940364701 0.22278858273985175 0.076968918935082994 -0.13366411120511376 0.077835095022837641 -0.10502749140907142 0.13851024602550838 0.28442112162748295 0.061770954248133593 -0.0063769758311432783 0.14683897406142341 0.18811586631358179 -0.12223041785338778 0.16628247358052362 -0.15809725429669508 0.069959581801436507 -0.14140040176470764 -0.15163133406199691 -0.15923967961938942
leaf_weight=302.77302644215524 7061.2188797071576 2414.9197707474232 85.923037946224213 313.59379114210606 12.068201560527088 959.34755349159241 779.83588087931275 418.57124029286206 1855.3185260742903 5787.3890458792448 180.35836289823055 31.834973987191916 715.76504343003035 337.24648355320096 2387.9570135157555 37044.761516842991 911.43460929580033 885.43892474099994 37.418256245553493 119.30476986989379 1786.4512564875185 11236.114718176425 897.48184616491199 23.797826699912548 4341.1564359851182 696.56926289759576 7083.5015968885273 15822.470071524382 119.09104440361261 119.92213056981564 554.83423421159387 30.918196400627494 853.07061597332358 233.50499034486711 87.551043942570686 719.61600695550442 55.622397245839238 422.54073666408658 24.958866581320763 201.54410088434815 108.0458043217659 8.7917498201131803 12.05888348631561 11.215877309441565 53.908208176493645 167.8070796020329 8.807163227349518 64.98772431910038 37.092988558113575 46.430273428559303 18.612258672714233 49.612264826893806 13.558717176318167 297.02757039666176 35.771382443606853 27.103008270263672 90.868214942514896 9.3953391164541227 37.742182120680809 55.029786959290504 23.557180278003216
leaf_count=1066 11230 9905 352 1590 81 3590 3600 1611 7344 36032 920 36 2928 1112 6915 66958 4642 3714 1497 1180 2924 29157 4458 119 10944 3060 10306 26994 449 183 2986 35 2361 981 341 977 210 859 40 725 206 36 27 3 233 1004 24 358 63 24 33 176 13 133 887 5 433 23 190 257 104
internal_value=0 0.0470432 0.060386 0.0950411 0.0296174 0.026272 0.032753 0.0423557 0.0572752 0.0407717 0.104795 0.0647253 0.0664698 0.0596266 0.0628254 0.0667202 -0.0104626 0.0178968 0.0789763 0.109833 0.114477 0.044359 -0.00934822 0.0175871 0.01389 0.018294 0.0801448 0.0718411 0.0987354 -0.0325202 -0.0482115 -0.0884579 0.0356071 -0.0452155 0.0537356 0.0648949 0.102827 0.0546796 0.155155 -0.0549327 0.0804735 0.00989296 -0.103071 -0.112931 -0.0496356 -0.0747023 0.0324736 -0.0999077 -0.0165334 0.188377 -0.111577 -0.114191 0.0173994 0.201135 -0.0827045 0.12061 -0.142097 0.130285 -0.165516 -0.138101 -0.168293
internal_weight=0 40289.6 22818 7808.91 17471.6 17018.1 15328.4 15009.1 9847.73 7642.71 7414.79 68841 66384.3 42906.7 41033.9 37760.5 1872.77 3273.4 23477.6 7180.52 2205.02 12016 3312.4 2456.75 5161.39 5037.73 23327.8 16125.2 7202.59 1689.73 1514.18 394.124 2055.41 376.564 1678.85 1572.69 175.545 759.787 453.496 1112.98 131.844 84.4108 149.741 244.721 234.267 401.331 76.4135 324.918 102.081 369.085 106.163 363.206 25.6269 343.458 44.5785 52.0619 128.286 21.4542 123.665 222.837 32.3489
internal_count=268644 132346 77821 15364 54525 54089 47120 62457 47911 43376 13563 136298 128648 87853 80515 69886 7338 10629 40795 12410 4535 32757 14363 7650 14546 14004 38815 28060 10755 6969 6576 1801 5021 1309 3712 3338 393 1971 436 5367 325 185 1980 984 1153 2629 947 1682 421 251 374 1766 94 157 911 45 1930 50 542 1261 140
is_linear=0
shrinkage=0.1


Tree=12
num_leaves=57
num_cat=0
split_feature=106 111 30 74 6 58 36 107 5 99 133 39 113 32 88 132 53 71 31 46 47 108 60 70 30 31 33 133 124 32 0 76 56 107 18 128 52 37 4 53 27 30 53 133 72 108 91 34 51 52 31 72 66 112 50 63
split_gain=730.001 956.583 780.92 770.693 704.295 854.981 943.164 676.337 636.573 578.621 578.303 468.377 459.167 437.009 548.904 535.084 711.252 976.42 409.571 367.232 407.939 330.301 282.063 253.247 237.604 235.205 199.08 237.358 246.678 182.715 177.258 172.729 164.078 211.565 164.013 132.948 130.051 115.501 93.3529 82.2914 126.518 111.246 80.1843 65.2162 155.494 34.4147 31.0673 28.426 2.25994 1.10788 1.05371 0.897822 0.764251 0.288171 0.282957 0.120102
threshold=-0.94371765851974476 -1.1342635154724119 1.0894445776939394 -1.0290579199790952 0.6128394901752473 0.87106254696846019 0.90351888537406932 -0.99381443858146656 0.54246926307678234 -0.99858459830284108 1.0000000180025095e-35 1.0140402317047121 -1.0253309607505796 0.89029031991958629 -0.95141223073005665 1.0000000180025095e-35 0.95770502090454113 -0.41569004952907557 1.0056793093681338 1.1944712996482851 1.1617515087127688 -1.0841935276985166 0.73214447498321544 -0.24423657357692716 1.0995326042175295 0.97205477952957164 0.90016204118728649 1.0000000180025095e-35 -1.9818790555000303 0.90989196300506603 0.48857288062572485 -0.59971925616264332 0.97824430465698253 -0.98609003424644459 1.3335564732551577 1.0000000180025095e-35 1.1214383840560915 0.95830875635147106 0.47721226513385778 0.88874033093452465 1.3466606736183169 1.1108805537223818 1.0190870165824892 1.0000000180025095e-35 -0.45013116300106043 -1.0661055445671079 -0.97686150670051564 0.91457799077034008 1.1159444451332095 1.0926970243453982 1.0143964290618899 -0.40357287228107447 0.3118871301412583 -1.2524966001510618 1.1085157394409182 0.59204170107841503
decision_type=2 2 2 2 2 2 2 2 2 2 2 2 2 2 2 2 2 2 2 2 2 2 2 2 2 2 2 2 2 2 2 2 2 2 2 2 2 2 2 2 2 2 2 2 2 2 2 2 2 2 2 2 2 2 2 2
left_child=11 7 4 18 5 6 -3 19 -7 46 24 13 -11 14 39 16 29 -18 25 20 45 36 34 -23 -5 -4 32 38 -29 -15 -12 -24 42 -34 -16 43 -17 -22 -28 41 -41 -1 -9 48 49 -2 -6 -46 54 -45 -20 55 -50 -53 -13 -21
right_child=1 2 3 10 9 8 -8 26 -10 12 30 35 -14 15 22 21 17 -19 50 51 37 23 31 -25 -26 -27 27 28 -30 -31 -32 -33 33 -35 -36 -37 -38 -39 -40 40 -42 -43 -44 44 47 -47 -48 -49 52 -51 -52 53 -54 -55 -56 -57
leaf_value=0.11384627043047729 0.022693289870498408 0.059766024275600398 -0.075245036829666781 -0.024758760330510048 -0.11571243724783571 0.042011572424569134 0.0096197658869862767 -0.015688347986794329 0.080710995456209134 0.024675925464059636 -0.14474028643195852 -0.18160356284530024 0.06298819451418787 0.071808308046530905 -0.13781085590847492 -0.18688067994769153 0.032473554538437803 0.11983428160491157 -0.13388792049273571 -0.13712230455912547 0.11961044476802818 0.12848677147270313 0.10598307494093305 0.031652155101733491 -0.11374508076735952 0.10191995097092994 -0.10055528637151567 0.16734976885654482 -0.10354644400600442 0.12229901866076985 0.12995315832457188 -0.13239703346690712 0.059813000266077623 -0.062028447548226742 -0.029097418118560571 0.15563897934966367 0.15099765008262259 -0.13034724209324886 0.19258907718971693 0.12000630128392487 -0.057258165421680052 -0.022012495823397794 -0.10783969919427266 -0.17380888432779926 0.24732738746737787 -0.15282292320169125 0.11545917519705867 0.042588040627886542 -0.13244394456725217 -0.13353431645756186 -0.11107849087862075 -0.10412666569799589 -0.11690002451193549 -0.14364208397518607 -0.15312040244554403 -0.12196778325151927
leaf_weight=577.03794974461198 13.352330660447477 5506.9536490989849 80.562527805566788 2175.706294875592 196.50013840291649 11162.286644848064 11760.600680594333 110.68891256302595 6864.3810572568327 3345.4274403220043 25.594209395349026 4.4862782359123257 48176.587397541851 1030.7150376848876 213.44017373397946 49.589602332562208 5828.5837543234229 1639.2044880874455 65.316723238676786 6.4941718392074099 649.49655287526548 2911.8826609030366 179.96907816827297 297.68468482047319 348.06111230514944 1072.972387464717 123.10572863556445 136.27520647644997 44.620756700634956 2352.7296052556485 285.91856826096773 36.573925537988544 200.19253065809608 494.62669652234763 396.71002081036568 24.131083738058805 14.789167881011961 19.027964739128947 11.914790183305739 71.54306048899889 92.090198159217834 67.300340428948402 642.6254279287532 9.0084168761968595 17.317880395799879 68.396312482655048 5.990685172379016 11.145749799907206 54.76750529743731 28.247144557535648 29.355655685067177 71.770694172009826 74.876070022583008 1.8942204117774952 15.669881381094454 26.855826385319233
leaf_count=672 60 16564 306 7372 4412 39066 33653 319 13338 7451 143 19 87875 1555 1118 238 13527 1842 429 41 1809 2509 216 699 2476 1603 698 147 200 1840 424 346 1857 11876 1311 30 3 168 5 116 366 276 4167 39 27 352 13 39 371 171 425 2674 1063 11 77 240
internal_value=0 0.0486867 0.0504004 0.00766084 0.052406 0.041515 0.0256124 -0.0108713 0.0567479 0.0598374 -0.0211642 0.0717984 0.0605005 0.0739083 0.0249584 0.0795731 0.0688823 0.0516495 0.0731365 0.0619925 0.0867108 0.115007 -0.0323291 0.119505 -0.0370312 0.0895468 -0.0462815 0.0256429 0.100529 0.106918 0.107384 0.0657209 -0.0619721 -0.0269233 -0.0671271 -0.0669512 -0.109263 0.112496 -0.074687 0.0835733 0.0202447 0.099656 -0.0942994 -0.091874 -0.00882306 -0.124155 -0.108873 0.167156 -0.12831 -0.143273 -0.126815 -0.111306 -0.123467 -0.105143 -0.15946 -0.124919
internal_weight=0 93723.6 91102.2 4083.49 87018.7 35294.2 17267.6 2621.34 18026.7 51724.5 2835.28 15999.5 51522 15759.8 1634.66 14125.2 10851.2 7467.79 1248.21 857.288 750.273 3273.95 826.693 3209.57 2523.77 1153.53 1764.05 315.916 180.896 3383.44 311.513 216.543 1448.13 694.819 610.15 239.65 64.3788 668.525 135.021 807.972 163.633 644.338 753.314 215.519 65.7192 81.7486 202.491 28.4636 149.8 37.2556 94.6724 107.015 129.644 73.6649 20.1562 33.35
internal_count=268644 240174 215550 13178 202372 102621 50217 24624 52404 99751 10415 28470 95326 26634 4421 22213 18764 15369 2763 5355 2389 3449 2991 3208 9848 1909 19269 1050 347 3395 567 562 18219 13733 2429 1836 241 1977 703 1430 482 948 4486 1806 276 412 4425 66 1530 210 854 2966 1434 2685 96 281
is_linear=0
shrinkage=0.1


Tree=13
num_leaves=62
num_cat=0
split_feature=53 103 132 28 77 53 28 29 42 30 30 98 69 28 68 71 30 20 71 33 69 106 50 130 71 6 25 60 103 132 1 70 120 103 50 31 27 61 105 66 44 51 106 136 71 103 124 125 80 108 5 82 87 106 18 104 53 32 96 53 2
split_gain=702.42 1207.14 893.265 886.779 897.537 860.38 687.919 587.594 554.526 487.616 434.372 424.349 416.616 797.803 779.367 580.418 406.679 401.013 388.181 330.415 330.141 380.63 354.289 327.206 528.566 324.769 322.901 301.811 300.14 294.454 276.06 259.296 245.457 236.655 218.286 208.117 203.019 195.901 173.694 196.355 153.673 139.925 136.024 123.95 190.417 133.847 106.412 111.385 97.7713 115.113 77.8599 65.1239 110.821 55.378 18.5758 18.0762 1.62146 1.34965 0.661698 0.426411 0.241417
threshold=1.0024158954620364 -0.87811487913131703 1.0000000180025095e-35 1.2408470511436465 -1.2680701613426206 0.95012733340263378 1.271578371524811 1.2227716445922854 1.1132660508155825 1.0703926682472231 1.0859649777412417 -0.92080324888229359 -0.032733073458075516 1.116626024246216 0.080888580530881896 -0.37809558212757105 1.071832060813904 1.4176501631736758 -0.59244075417518605 0.95111736655235302 -0.26845550537109369 -0.87219446897506703 1.0181071758270266 1.0000000180025095e-35 -0.57304081320762623 0.8156818449497224 1.4403353333473208 0.79139563441276561 -0.89072948694229115 1.0000000180025095e-35 0.29433579742908483 -0.41623994708061213 -0.95910435914993275 -0.76398533582687367 1.1820775270462038 0.96733602881431591 1.5145016908645632 0.73130658268928539 -0.87844553589820851 0.11672037467360498 1.1696716547012331 1.0421070456504824 -0.97405141592025746 1.0000000180025095e-35 -0.62658685445785511 -0.88701575994491566 -1.1407849192619322 -1.6008463501930235 -1.3348929882049558 -0.87157067656517018 0.67406347393989574 -1.2441726922988889 -1.1532847285270689 -0.97913187742233265 1.086621165275574 -0.91040286421775807 0.99031296372413646 0.89676102995872509 -1.0630493164062498 1.0315081477165224 0.48681747913360601
decision_type=2 2 2 2 2 2 2 2 2 2 2 2 2 2 2 2 2 2 2 2 2 2 2 2 2 2 2 2 2 2 2 2 2 2 2 2 2 2 2 2 2 2 2 2 2 2 2 2 2 2 2 2 2 2 2 2 2 2 2 2 2
left_child=3 2 17 4 16 7 20 9 12 11 23 -5 13 15 -15 -3 48 28 -11 34 22 -22 -7 30 -25 32 41 51 50 33 -6 -30 -9 -29 -14 57 -27 -21 58 -40 -31 -19 53 45 -45 -8 47 -12 49 -1 -2 52 -10 -37 -53 -44 -50 60 -18 -28 -4
right_child=1 8 35 5 10 6 43 25 27 18 46 -13 19 14 -16 -17 38 26 -20 37 21 -23 -24 24 -26 36 59 29 31 40 -32 -33 -34 -35 -36 42 -38 -39 39 -41 -42 -43 55 44 -46 -47 -48 -49 56 -51 -52 54 -54 -55 -56 -57 -58 -59 -60 -61 -62
leaf_value=0.077735979947176903 -0.086598890563497677 0.10885393808179854 -0.1284494757371773 0.040749810272482812 -0.14528174301826821 0.03603211088921953 -0.098262692135343541 -0.0038948862898112815 -0.14158248856534852 0.060672151297356369 0.045467150699490533 -0.07750504719697332 -0.054903238535374814 0.045343721278950921 -0.016197912629251947 0.046443043260108653 -0.13632007691790499 -0.1583122914906504 0.10202908746641881 -0.0069070009506678178 0.072982857137998916 -0.16143756672462486 -0.029202732355104608 0.15165473938740909 -0.12967191709535406 0.06968879796831394 -0.13443911861747657 -0.033638682224439415 0.11140392725628863 0.0748144821714819 0.086621660954528834 -0.024189117286744694 -0.1166772744271017 0.056839752485803946 0.11265952254986121 -0.15257800297766866 -0.086359047529372762 0.12763182581176299 0.083142065803236867 -0.12725244769125324 -0.094819790866720766 0.12204148895679257 0.24659601099743195 0.26540667583599209 -0.092167655798014905 -0.004794937238967587 0.19542240516131751 -0.15102935521326408 -0.20345257405903619 -0.080919877120408018 -0.030529772783801135 -0.1319218951120931 0.19719688485734563 0.13677819099822441 -0.046234857430517057 0.18069251814951615 -0.17165572488173853 -0.20339592971622922 -0.16146724666907364 -0.11646986390567773 -0.15793232842835966
leaf_weight=52.001295030117035 1106.0869262740016 3372.4425481334329 5.1707553546875733 1546.8729350883514 51.515214931219816 2011.4754060953856 662.43667105771601 584.55672293901443 20.552897449582815 8315.1526931170374 38.479009099304676 377.50274610519409 895.52300897147506 57813.954927682877 2133.7528554871678 2669.7448762841523 19.954151436686516 18.867503628134727 3121.5260157212615 204.19681354984641 1622.4976437315345 72.353416472673416 1420.4262181557715 107.75905174762011 175.63874219357967 635.49479211121798 52.39322542399168 411.37907834909856 156.54670479521155 63.566637506708503 14435.665928214788 1423.1564623862505 288.06696880050004 972.43342516291887 85.135895721614361 13.907873347401619 95.961826637387276 230.28334419056773 449.03826858103275 49.220450296998024 334.02500914409757 315.40370086953044 135.59683571383357 27.539469256997108 32.430017732083797 199.30419589579105 13.064886618405579 115.26026922091842 41.4224573969841 379.27694969344884 319.12112230807543 216.51058521773666 18.21162972971797 12.611901789903641 28.647251307964325 60.050273612141609 26.169807158410549 5.9042894300073376 22.000087566673756 17.656245205551386 6.0001655258238316
leaf_count=65 6622 5122 48 3032 1279 3859 2898 2261 138 14026 79 1144 7967 133587 6766 7462 126 88 3238 833 2503 277 4102 136 800 1446 337 2280 398 849 16319 5442 1747 4659 384 86 680 655 727 191 13275 525 44 28 127 552 23 608 169 4755 1415 1753 15 9 171 38 113 25 101 212 28
internal_value=0 0.0409842 -0.015083 0.0578946 0.0756518 0.0443939 0.0125657 0.057258 0.0439288 0.0641238 0.0819032 0.0175519 0.0454927 0.046644 0.0431532 0.0812776 -0.0142147 -0.0281906 0.0719601 -0.00819329 0.0268652 0.0629754 0.00903213 0.0837153 -0.0227004 6.98503e-05 0.0653077 -0.00711146 -0.0407711 0.00814983 0.085797 -0.010752 -0.0411261 0.0299424 -0.0403563 0.171703 0.0492164 0.0644013 0.0459043 0.0623583 -0.0676988 0.106217 0.19756 -0.0669715 0.0720393 -0.0766454 -0.0785651 -0.101849 -0.0793159 -0.06179 -0.0740443 -0.102865 0.0175765 -0.0149701 -0.121909 0.226368 -0.191142 -0.164725 -0.149507 -0.12991 -0.144285
internal_weight=0 73118.8 3648.47 36990.1 15976.5 21013.6 6048.46 14965.1 69470.4 13361.1 14937.4 1924.38 67405 65989.9 59947.7 6042.19 1039.08 3409.23 11436.7 1415.14 5126.75 1694.85 3431.9 14770.6 283.398 1604.08 404.321 2065.33 3004.91 1781.4 14487.2 1579.7 872.624 1383.81 980.659 239.242 731.457 434.48 540.213 498.259 397.592 334.271 222.167 921.71 59.9695 861.741 166.804 153.739 498.871 431.278 1425.21 283.922 38.7645 26.5198 245.158 195.647 67.5923 17.0752 41.9542 70.0495 11.1709
internal_count=268644 201233 15317 67411 25491 41920 14346 27574 185916 21440 19244 4176 162776 152937 140353 12584 6247 15039 17264 9839 10741 2780 7961 18534 936 6134 1162 23140 13877 21063 17598 5840 4008 6939 8351 278 2126 1488 1145 918 14124 613 177 3605 155 3450 710 687 5102 4820 8037 2077 153 95 1924 82 282 101 227 549 76
is_linear=0
shrinkage=0.1


Tree=14
num_leaves=61
num_cat=0
split_feature=53 101 29 76 124 114 118 32 130 79 37 78 135 71 0 0 112 31 4 133 100 72 132 116 38 26 22 42 90 101 73 18 33 29 45 30 59 24 26 108 29 83 106 109 82 101 2 102 0 37 24 77 52 22 131 107 108 0 44 30
split_gain=616.514 816.459 783.788 832.269 676.784 574.058 704.448 571.91 752.347 833.719 679.045 632.965 567.591 560.285 979.049 461.744 453.087 412.643 401.964 400.725 374.214 368.635 449.618 329.118 291.111 323.5 268.661 256.888 249.013 298.361 237.348 217.603 191.733 188.608 180.329 178.769 159.728 218.075 155.334 206.943 144.488 146.938 133.428 123.855 120.988 118.556 116.795 98.5521 102.872 91.4577 86.0146 80.867 71.4911 62.9116 59.8691 55.4326 84.6115 33.095 29.0852 17.9944
threshold=1.0055771470069887 -0.90001645684242237 1.1512296199798586 -1.2092069983482359 -1.2132800221443174 -0.91912135481834401 -0.92332482337951649 0.96251755952835094 1.0000000180025095e-35 -1.2929819822311399 0.94729700684547435 -1.2244004011154173 1.0000000180025095e-35 -0.53578436374664296 0.54972735047340404 0.41034613549709326 -0.97487416863441456 0.99599465727806102 0.69939333200454723 1.0000000180025095e-35 -0.94319498538970936 -0.68864125013351429 1.0000000180025095e-35 -0.9264371097087859 0.91528996825218212 1.3280097246170046 1.3744705319404604 0.94711247086524974 -1.213391840457916 -0.88908809423446644 -0.88365238904952992 1.2312301993370058 0.88973277807235729 1.2356017231941225 1.0369740128517153 1.088835656642914 0.7139667570590974 1.6345023512840273 1.2009545564651491 -0.84365084767341603 1.1672244668006899 -1.3204740881919859 -0.87027680873870839 -0.89368432760238636 -1.3366646766662595 -0.91016012430191029 0.45204362273216253 -0.85175198316574086 0.54972735047340404 0.93740311264991771 1.3595241308212282 -1.1889311075210569 1.0384106040000918 1.5142780542373659 1.0000000180025095e-35 -0.91531485319137562 -0.94497475028038014 0.49704790115356451 0.95607382059097301 1.0621876716613772
decision_type=2 2 2 2 2 2 2 2 2 2 2 2 2 2 2 2 2 2 2 2 2 2 2 2 2 2 2 2 2 2 2 2 2 2 2 2 2 2 2 2 2 2 2 2 2 2 2 2 2 2 2 2 2 2 2 2 2 2 2 2
left_child=2 24 3 23 7 6 13 8 10 -10 -3 16 21 14 -4 -15 -9 38 20 -13 30 45 -23 47 25 26 32 58 29 -19 -7 -29 -2 35 -26 -20 37 -14 49 -40 41 -8 -22 -42 -28 -5 53 59 -49 -6 -38 -35 -48 -27 -30 56 -36 -57 -25 -1
right_child=1 4 5 12 17 18 40 11 9 -11 -12 19 36 15 -16 -17 -18 28 33 -21 42 22 -24 27 34 46 44 31 54 -31 -32 -33 -34 51 55 -37 50 -39 39 -41 43 -43 -44 -45 -46 -47 52 48 -50 -51 -52 -53 -54 -55 -56 57 -58 -59 -60 -61
leaf_value=-0.067719878906546072 -0.085484910178024703 0.040867750346765194 0.0024498827978362858 0.084730206954636261 0.13997173135081692 -0.12015852485177599 -0.17857493794195323 0.12378420117023779 0.030487817097639425 -0.047764762548321023 0.0083932997188934273 0.00066523118945037126 -0.14245086081042976 -0.04344951007712889 0.051629251413573753 0.08739106233457368 0.056730309487515264 0.00012127624749092739 0.12669163531944222 0.12320189193538281 0.096773296861427549 0.080477044711492612 0.018243734061291362 -0.085509781902114335 0.33247087115166019 -0.11828222212261304 0.0088613930352708144 -0.050191203362021354 0.13790100587322673 0.098715971419571016 0.12614823443853812 0.077636862567414366 0.021307419528885048 0.29531741766093705 -0.12973314297184779 0.065987651487220855 -0.19356576671475553 0.17646900612846197 0.055267751611977139 -0.10486119394280297 -0.035797942355359179 0.072849251723725125 0.0084311764266111668 -0.11723688289072172 0.1231222831910268 0.12515715493606391 -0.041560494032698674 -0.12016510499851235 0.15019617465025301 -0.050554105213333027 0.10142816844956229 -0.12242099165911716 -0.11574248249137851 0.25739649412347615 0.25324847979433457 -0.090338692447981858 0.13392177594827062 -0.14825644641346181 -0.1883778325036003 -0.19530292612535535
leaf_weight=12.175509780645369 236.39852616097778 36806.667017208412 6700.5231799501926 1123.8659391365945 91.740130264312029 214.55004942044616 27.293775804340839 1103.1345600374043 3095.5777648054063 2430.5212610540912 7804.2104428317398 2821.4372155070305 186.18086443841457 294.76714070886374 10225.499796688557 3174.5085773989558 11648.815648233518 348.73871986567974 1548.0541061758995 294.76041454821825 460.02738097310066 7873.0265100765973 1361.6954688206315 90.015320594422519 9.8594503384083492 6.1293152747675803 134.1421132273972 193.32020853832364 76.036064278334379 2559.9489501193166 47.848242983222008 428.02086721733212 582.06530470214784 5.1254467740654936 24.446345129981637 706.54855333641171 11.522181071341036 24.231450460851192 132.56414233148098 206.31329175271094 576.77155575528741 156.67464016377926 272.08700351417065 276.1585349291563 299.75962965190411 2046.0268698781729 265.06439818069339 43.461741298437119 20.813379749655724 34.734013706445694 69.534204185009003 48.336625162512064 254.79314963519573 16.343207044526935 110.23068407177925 275.9516960401088 24.242010606452823 153.56122812163085 39.567940101027489 120.09909854829311
leaf_count=31 1225 94023 16199 1381 60 931 117 1578 7220 11275 33546 9915 691 860 18798 3896 24175 855 1346 652 528 9337 2389 3950 33 62 429 542 79 3073 48 745 1880 3 193 1325 49 12 262 738 2338 305 587 1159 457 1700 1024 141 5 103 88 452 1895 13 66 2209 79 907 165 500
internal_value=0 0.0364717 0.0521704 0.0714122 0.0384028 0.0415567 0.0355765 0.036112 0.0308753 -0.00392969 0.0351867 0.0526579 0.0781593 0.0396644 0.0321606 0.0762742 0.0625309 0.0808719 0.0803656 0.0122559 0.0272177 0.0814004 0.0713005 -0.0189983 -0.0223755 -0.00375291 0.0241859 0.0111547 0.0940729 0.0868949 -0.0752446 0.0378652 -0.00953762 0.103266 -0.0908546 0.107668 -0.0597769 -0.105723 -0.00692521 -0.042221 -0.0448294 0.0355477 0.0639413 -0.0621659 0.0877982 0.110824 -0.0682701 -0.134199 -0.0326175 0.087647 0.0594947 -0.0823721 -0.0779187 0.154931 0.206162 -0.0995826 0.00154107 -0.111046 -0.11692 -0.183559
internal_weight=0 71848.2 38378.3 13643.6 69565.4 24734.8 21432.2 66005.1 50137 5526.1 44610.9 15868.1 12696.1 20395.3 16926 3469.28 12752 3560.31 3302.58 3116.2 994.513 12404.6 9234.72 947.474 2282.76 1794.7 1252.37 750.924 3094.95 2908.69 262.398 621.341 818.464 2308.06 488.061 2254.6 291.469 210.412 465.352 338.877 1036.9 183.968 732.114 852.93 433.902 3169.89 542.33 196.55 64.2751 126.474 81.0564 53.4621 519.858 22.4725 186.267 478.201 48.6884 429.513 129.583 132.275
internal_count=268644 198026 70618 21726 187620 48892 43672 182384 146064 18495 127569 36320 15647 39753 34997 4756 25753 5236 5220 10567 2094 14807 11726 6079 10406 6985 3991 5402 4073 3928 979 1287 3105 3126 3421 2671 840 703 1163 1000 3919 422 1115 3497 886 3081 2994 677 146 163 137 455 2919 75 145 3388 272 3116 4115 531
is_linear=0
shrinkage=0.1


Tree=15
num_leaves=62
num_cat=0
split_feature=106 112 82 113 85 110 29 132 107 70 113 38 135 30 33 0 53 105 26 18 130 130 71 41 41 49 44 72 101 134 78 30 30 4 35 84 48 47 84 60 32 56 54 38 69 87 108 75 106 32 74 30 115 31 31 54 66 105 105 62 52
split_gain=567.508 734.467 1040.64 841.578 893.089 658.367 652.058 566.863 725.513 480.708 412.528 458.814 367.525 486.426 372.995 757.016 413.322 572.898 368.411 351.89 333.425 293.222 372.818 449.248 292.04 290.146 286.946 269.097 473.873 238.692 332.181 261.295 211.336 200.941 190.688 176.938 148.792 145.198 119.432 90.6446 162.859 128.401 97.3007 81.8102 80.0228 63.0387 72.7298 53.2647 50.6647 45.2513 41.4618 40.0253 38.2904 8.35201 44.4459 3.76656 0.878707 0.168088 0.0408006 0.036656 0.0272496
threshold=-0.94038131833076466 -1.0468726754188535 -1.1131564974784849 -1.0421517491340635 -1.1198198795318601 -0.96904945373535145 1.163786053657532 1.0000000180025095e-35 -0.98722553253173817 -0.22672149538993833 -1.2084194421768186 0.98537805676460277 1.0000000180025095e-35 1.0673210620880129 0.86146655678749096 0.53351804614067089 0.95770502090454113 -0.946906417608261 1.3964163661003115 1.2947186827659609 1.0000000180025095e-35 1.0000000180025095e-35 -0.42148478329181666 1.0491080880165102 1.0722248554229739 1.1558985114097597 1.1676382422447207 -0.72928243875503529 -0.94775417447090138 1.0000000180025095e-35 -1.1248596906661985 1.035855829715729 1.0923190712928774 0.80016043782234203 0.91651785373687755 -0.99284797906875599 0.99985024333000194 1.0712224841117861 -1.0771239399909971 0.48090520501136785 0.92854297161102306 0.74707740545272838 0.89560538530349743 0.94014999270439159 -0.086221441626548753 -1.0688102245330808 -0.97171670198440541 -1.0995883345603941 -0.94848051667213429 0.96144875884056102 -1.0400680899620054 1.0013408660888674 -1.1248295307159422 0.9992947280406953 0.99962589144706737 1.0052773356437685 0.30027569830417639 -0.83185759186744679 -0.83050465583801258 0.68659460544586193 1.0921727418899538
decision_type=2 2 2 2 2 2 2 2 2 2 2 2 2 2 2 2 2 2 2 2 2 2 2 2 2 2 2 2 2 2 2 2 2 2 2 2 2 2 2 2 2 2 2 2 2 2 2 2 2 2 2 2 2 2 2 2 2 2 2 2 2
left_child=12 7 3 29 5 -5 -6 9 25 10 44 -12 14 48 15 18 45 37 19 -1 35 22 23 -4 -19 56 -27 28 -17 31 -31 -3 -29 38 -24 -11 -20 -18 -10 41 42 50 -41 -42 -2 46 -16 -43 53 51 -15 -50 -47 55 -55 -14 -9 -22 60 -60 -23
right_child=1 2 21 4 6 -7 -8 8 33 20 11 -13 13 39 16 27 17 24 36 -21 57 58 34 -25 -26 26 -28 32 -30 30 -32 -33 -34 -35 -36 -37 -38 -39 -40 40 43 47 -44 -45 -46 52 -48 -49 49 -51 -52 -53 -54 54 -56 -57 -58 -59 59 -61 -62
leaf_value=-0.047207690504623909 -0.10695565471113458 0.044711813400662416 0.11049237317138597 -0.024499485903456176 0.14655370709207224 0.037138544178863551 0.016294907989556302 -0.1482159890411211 -0.18538815402940587 0.017296980978209982 0.022510961558934606 -0.096828788396242024 -0.16356614313210385 0.11777594542376496 -0.20827835232449612 0.083622250450947178 -0.008784243260406303 0.067338060263117436 -0.03250960288170808 0.050964560929251536 -0.1195553619748472 -0.12537740847189685 0.26512545882592548 -0.12067360826954268 -0.049361016010645839 0.084202660168570087 -0.080805735770376072 0.070618086572677569 -0.0790015984849088 -0.13656480172219301 0.054534065375987678 -0.040874121825645059 0.1547537978752872 0.12345585763219645 0.00089114881100940354 0.10004801468052267 -0.13365452048140897 -0.12401662613996406 -0.088358760885891063 0.062878733471159673 0.084772277552984443 -0.15151673042883479 -0.10422495570183542 -0.15198545111560854 0.098967638083388557 0.1053844344181266 0.08968265208759546 0.1987539064406959 0.060308332270983971 0.21466716629872651 -0.13972989881317863 -0.099408207900746864 0.14229566044945577 0.14812984534346818 -0.16457475498273974 -0.13390444761663631 -0.12235294372098948 -0.12854736599177757 -0.13019200964503427 -0.12081779290151762 -0.11929651016005481
leaf_weight=560.65231611393392 350.99212961178273 571.83305751346052 1619.5804694797844 1772.7256750464439 1258.2418119981885 77113.14779365994 553.29264036752284 67.697994664311409 146.97196069732308 336.70411348715425 4344.7418442843482 347.9567937348038 82.042184866964817 9.0795669332146662 13.229276299476622 566.80539526417851 388.8147462438792 9225.0241319369525 343.46656390279531 1046.873171556741 38.361895082518458 14.662327103316786 211.25441414490342 88.672184854745865 219.54466377198696 567.20363575499505 129.43693286646158 710.13103416934609 262.00986586511135 366.26935344561934 121.01562502980232 948.2559735942632 515.10177002847195 41.179554775357246 31.366691868752241 1110.9197196234018 252.26431103982031 152.13348657637835 926.88924716040492 50.078024245798588 266.29053600132465 4.568901114165782 114.55471927672625 15.441124007105826 19.943630941212177 1528.1668139994144 21.514935314655304 87.19691651314497 19.075621018186212 5.8439463078975669 20.083856798708439 88.41536208242178 344.37676282972097 6.0948079526424435 17.878513008356094 89.527594912797213 16.29955811239779 45.380166776478291 17.42042595893145 5.4846403673291197 14.815546274185179
leaf_count=2391 2382 2097 3304 5754 1812 172488 1459 346 579 1381 13570 1870 382 41 58 844 877 14886 927 1764 315 102 134 419 1671 2117 3875 825 941 1690 334 3430 335 30 116 2631 1110 875 13924 114 466 24 472 82 82 987 28 81 54 3 130 421 188 4 85 591 166 321 100 43 116
internal_value=0 0.0346711 0.0374816 0.0357566 0.0373476 0.0357534 0.106769 0.00663144 -0.0415625 0.0204844 0.00563731 0.0136621 0.0545257 -0.00855217 0.0579478 0.0325475 0.0670404 0.0588929 -0.00816786 0.0167253 0.069578 0.108699 0.114968 0.098493 0.0646253 0.0323743 0.0535438 0.0762204 0.0322127 -0.0282018 -0.089106 -0.00867807 0.10599 -0.0933255 0.230965 0.0808009 -0.0753398 -0.0411916 -0.101639 0.0464277 0.0256217 0.123225 -0.0533953 0.0717961 -0.095884 0.109696 -0.0237696 0.181314 -0.10953 -0.0563312 -0.0595596 -0.0710645 0.112173 -0.140363 -0.0850749 -0.148088 -0.143197 -0.124428 -0.124781 -0.127947 -0.122321
internal_weight=0 93198.7 84708 82704.8 80697.4 78885.9 1811.53 8490.68 1895.68 6595 5063.63 4692.7 17026.3 876.172 16150.1 4257.3 11892.8 9985.52 2203.26 1607.53 1531.37 2003.26 1950.87 1708.25 9444.57 780.638 696.641 2054.05 828.815 2007.37 487.285 1520.09 1225.23 1115.04 242.621 1447.62 595.731 540.948 1073.86 567.294 446.364 120.929 164.633 281.732 370.936 1907.29 34.7442 91.7658 308.878 113.335 29.1634 107.491 1872.54 195.543 23.9733 171.57 83.9976 83.7421 52.3829 22.9051 29.4779
internal_count=268644 236987 193398 189064 181513 178242 3271 43589 21037 22552 17904 15440 31657 2950 28707 9137 19570 18309 6192 4155 4648 4334 3973 3723 16557 6504 5992 2945 1785 7551 2024 5527 1160 14533 250 4012 2037 1752 14503 1410 1134 276 586 548 2464 1261 86 105 1540 478 171 475 1175 1062 89 973 512 636 361 143 218
is_linear=0
shrinkage=0.1


Tree=16
num_leaves=63
num_cat=0
split_feature=52 26 69 36 134 59 45 133 68 102 124 133 78 71 134 130 130 92 32 122 3 103 29 3 73 96 101 107 103 38 131 29 135 29 0 74 101 0 91 67 26 109 74 31 37 71 117 49 59 73 55 0 55 127 78 123 39 1 54 32 105 5
split_gain=516.349 826.071 1308.61 837.738 613.037 587.965 889.666 670.598 599.938 720.069 580.025 539.292 1562.47 1001.14 759.168 588.017 516.652 760.384 500.2 493.679 747.952 762.449 638.432 536.286 506.713 469.636 463.669 398.033 380.257 373.619 363.032 348.284 332.658 310.078 798.856 434.438 304.627 555.614 292.016 278.147 328.27 232.83 209.248 181.771 165.357 164.763 158.627 157.641 150.067 129.485 121.503 121.06 103.415 98.2021 97.9129 82.3687 74.2885 34.0182 6.44749 0.713145 0.669338 0.0468776
threshold=1.0566771030426028 1.2372378110885622 -0.11365136131644248 0.92092651128768932 1.0000000180025095e-35 0.81404423713684093 1.1038435697555544 1.0000000180025095e-35 0.098494898527860655 -0.81076389551162709 -1.4164953231811521 1.0000000180025095e-35 -1.184076130390167 -0.41569004952907557 1.0000000180025095e-35 1.0000000180025095e-35 1.0000000180025095e-35 -1.1660914421081541 0.96420052647590648 -1.109737694263458 0.66768917441368114 -0.90205556154251088 1.2142056822776797 0.70945298671722423 -0.84368085861206044 -0.99834901094436634 -0.77570626139640797 -0.8401740789413451 -0.81579357385635365 0.96845385432243358 1.0000000180025095e-35 1.1313518881797793 1.0000000180025095e-35 1.1520687937736513 0.40809835493564611 -1.0102223753929136 -0.86655575037002552 0.50608667731285106 -1.17874139547348 0.12536257505416873 1.2441533803939822 -0.8213001787662505 -1.0112539529800413 1.0012344717979433 0.92356353998184215 -0.40344898402690882 -0.96150976419448841 1.1351370215415957 0.8019239902496339 -0.88837242126464833 0.96767923235893261 0.46897381544113165 0.97193881869316112 -1.6625587344169614 -1.3277177214622495 -1.1145051121711729 0.96518155932426464 0.528762847185135 0.98473745584487926 0.95037716627120983 -0.83050465583801258 0.74102342128753673
decision_type=2 2 2 2 2 2 2 2 2 2 2 2 2 2 2 2 2 2 2 2 2 2 2 2 2 2 2 2 2 2 2 2 2 2 2 2 2 2 2 2 2 2 2 2 2 2 2 2 2 2 2 2 2 2 2 2 2 2 2 2 2 2
left_child=16 2 4 11 27 6 10 -8 9 -7 -4 12 14 18 -3 -14 19 41 -13 25 21 31 38 -24 -23 30 -10 32 -15 -29 46 -21 -2 35 -35 -27 37 42 -22 40 43 54 -19 -5 -6 48 -1 -47 -41 -39 -42 53 -53 -38 55 -18 -32 -56 61 -60 -46 -43
right_child=1 3 5 39 44 8 7 -9 26 -11 -12 13 15 28 -16 -17 17 36 -20 20 22 24 23 -25 -26 33 -28 29 -30 -31 56 -33 -34 34 -36 -37 51 49 -40 45 50 58 -44 -45 60 47 -48 -49 -50 -51 -52 52 -54 -55 57 -57 -58 -59 59 -61 -62 -63
leaf_value=0.067477383137545727 0.09842707860457274 0.015852780049144612 0.13209082545729736 -0.14365176068570634 0.16765655484852682 -0.017609874960323572 -0.037364082571555997 0.084160694853279802 -0.063995808769175017 0.052340463648427517 0.022052232533200305 -0.070999328579491469 0.081344544616452963 0.11082513302542163 -0.052972020720670199 -0.078607531874295242 -0.0012454547201044557 0.12301601928942388 0.21011551918597327 0.066721021684866447 -0.013602285180271191 0.031653435854084172 -0.054432063607775687 0.045122492474102584 -0.057139825814193648 -0.16366850975529357 0.018579409792679927 0.05470001654317598 -0.090890128959296476 -0.12203917777322913 -0.1038274624430342 -0.066841794688484266 -0.15283289313053738 -0.057969569074911444 0.041205509752633658 0.054935064392606661 -0.081970444304846263 -0.039858175270409434 0.074234134605246013 -0.13959806834346752 0.040864885712251234 -0.13326415648194331 0.010692823299777443 0.1067587780972841 -0.13463709835388254 0.10741889642424443 0.13553928164648474 -0.13298964563508411 -0.059343580367043985 -0.14158018808584738 -0.094043197058300665 -0.17780802763564657 0.092755342764191631 0.056326121051134659 0.14780913940804669 0.12927805751848326 0.27201250800684518 -0.14537083651044044 -0.17297273167118091 -0.21325681065581625 -0.14815364557114793 -0.10367159901758403
leaf_weight=509.20410189032555 4655.3429189966992 8962.3601711373776 633.00724627822638 32.850626537576318 19.669163465499878 1652.5905767632648 4167.9333543172106 509.59880285710096 845.63419039919972 13438.178224246949 1969.2021778523922 1878.5492101758718 4374.4713297868147 581.99748624116182 1951.6941495388746 242.57654112484306 53.490321353077888 243.5999133400619 65.503073859959841 223.69313860405236 406.42688246350735 6818.5225342027843 895.21536589413881 1367.8889678604901 709.5729683637619 91.28899846971035 3471.6957477685064 2223.3416757248342 111.331497810781 126.40926259662956 94.802417140454054 1534.7439975123852 53.296104300767183 871.46949655562639 11942.395845994353 21914.950975585729 362.63804823160172 259.12874245457351 5506.974018342793 496.84516591578722 85.398675803095102 0.55159208178520458 519.65261398069561 246.54510661959648 108.57240874506533 77.416552402079105 1045.4964839965105 42.112233620136976 438.74112188071012 242.00845193117857 305.85974184144288 183.65283892303705 15.304032713174818 59.81385762244463 4.9483981132507351 502.98720759525895 5.5680371820926657 19.768045298755169 12.929453998804094 6.6571873277425757 55.295248411595821 18.127154413610697
leaf_count=975 6527 24862 718 190 17 4974 12499 833 4472 30030 3624 9544 9797 750 6637 1592 110 364 64 367 3940 13042 3107 3879 2945 363 29932 3781 529 841 493 5390 261 3167 21642 32592 1587 1003 7554 2259 203 3 1858 334 582 110 705 252 1902 1152 1512 799 19 131 1 455 8 106 54 27 258 920
internal_value=0 0.0269297 0.0364159 0.0107509 0.0741162 0.0261857 0.0019502 -0.0241244 0.0352762 0.0446802 0.04882 0.0170753 0.024175 -0.0247334 0.00354526 0.0729408 0.0406196 -0.00377338 -0.0615274 0.0426815 0.028855 0.00943568 0.0509107 0.00574173 0.0232841 0.0493012 0.00240543 0.0788078 0.0784346 0.045192 0.101347 -0.0498511 0.0955831 0.0468273 0.0344606 0.0540282 -0.0353488 -0.00717244 0.0681972 -0.0558313 -0.00547587 0.0923505 0.0465419 0.0773162 -0.106313 -0.0878384 0.113247 0.0227185 -0.101963 -0.0889816 -0.0645973 -0.0926796 -0.156996 -0.0623894 0.108081 0.116732 -0.0829778 -0.0866742 -0.146579 -0.186665 -0.139198 -0.104545
internal_weight=0 53824 33929.8 19894.3 7241.93 26687.8 7279.74 4677.53 19408.1 15090.8 2602.21 18168.5 15531.1 2637.38 10914.1 4617.05 56443.5 2505.26 1944.05 53938.2 17463 9286.53 8176.51 2263.1 7528.1 36475.2 4317.33 7058.39 693.329 2349.75 1655.07 1758.44 4708.64 34820.1 12813.9 22006.2 1885.8 1264.39 5913.4 1725.77 670.654 619.459 763.253 279.396 183.537 1055.12 1554.7 119.529 935.586 501.137 391.258 621.409 198.957 422.452 581.194 556.478 100.37 24.7164 38.2654 19.5866 163.868 18.6787
internal_count=268644 159886 99349 60537 12267 87082 17674 13332 69408 35004 4342 53775 42888 10887 31499 11389 108758 8589 9608 100169 40224 21744 18480 6986 15987 59945 34404 11410 1279 4622 2181 5757 6788 57764 24809 32955 6913 4377 11494 6762 2239 1676 2222 524 857 4523 1680 362 4161 2155 1715 2536 818 1718 672 565 501 107 1004 81 840 923
is_linear=0
shrinkage=0.1


Tree=17
num_leaves=62
num_cat=0
split_feature=53 103 132 29 77 74 122 0 124 135 69 101 5 101 4 32 37 101 78 117 27 30 4 112 57 20 74 84 96 117 25 103 92 70 23 30 85 56 29 58 78 135 29 24 30 2 101 73 51 2 5 117 106 106 56 104 37 33 121 53 2
split_gain=462.633 823.049 665.24 655.537 716.01 503.722 702.909 587.317 1084.86 486.655 392.032 378.433 414.866 520.612 395.63 376.694 701.216 602.41 560.757 483.781 469.48 362.553 385.161 349.455 324.256 295.498 291.554 889.123 274.203 249.191 233.715 214.179 208.373 202.402 201.394 196.311 168.271 168.269 164.588 197.341 155.229 137.94 132.655 131.219 205.75 121.155 119.217 98.7597 88.412 80.3026 77.9398 74.8522 72.8054 40.2751 28.4315 15.1031 6.76974 1.69637 0.480998 0.323296 0.185128
