tree
version=v4
num_class=1
num_tree_per_iteration=1
label_index=0
max_feature_idx=136
objective=binary sigmoid:1
feature_names=Column_0 Column_1 Column_2 Column_3 Column_4 Column_5 Column_6 Column_7 Column_8 Column_9 Column_10 Column_11 Column_12 Column_13 Column_14 Column_15 Column_16 Column_17 Column_18 Column_19 Column_20 Column_21 Column_22 Column_23 Column_24 Column_25 Column_26 Column_27 Column_28 Column_29 Column_30 Column_31 Column_32 Column_33 Column_34 Column_35 Column_36 Column_37 Column_38 Column_39 Column_40 Column_41 Column_42 Column_43 Column_44 Column_45 Column_46 Column_47 Column_48 Column_49 Column_50 Column_51 Column_52 Column_53 Column_54 Column_55 Column_56 Column_57 Column_58 Column_59 Column_60 Column_61 Column_62 Column_63 Column_64 Column_65 Column_66 Column_67 Column_68 Column_69 Column_70 Column_71 Column_72 Column_73 Column_74 Column_75 Column_76 Column_77 Column_78 Column_79 Column_80 Column_81 Column_82 Column_83 Column_84 Column_85 Column_86 Column_87 Column_88 Column_89 Column_90 Column_91 Column_92 Column_93 Column_94 Column_95 Column_96 Column_97 Column_98 Column_99 Column_100 Column_101 Column_102 Column_103 Column_104 Column_105 Column_106 Column_107 Column_108 Column_109 Column_110 Column_111 Column_112 Column_113 Column_114 Column_115 Column_116 Column_117 Column_118 Column_119 Column_120 Column_121 Column_122 Column_123 Column_124 Column_125 Column_126 Column_127 Column_128 Column_129 Column_130 Column_131 Column_132 Column_133 Column_134 Column_135 Column_136
feature_infos=[-1.7844352722167969:2.1873281002044678] [-1.6962581872940063:2.0962586402893066] [-1.6161398887634277:2.0136351585388184] [-1.5440802574157715:1.9394575357437134] [-1.4800789356231689:1.8737261295318604] [-1.4241359233856201:1.8164401054382324] [-1.3852788209915161:1.7788288593292236] [-1.3575865030288696:1.7939627170562744] [-1.3260828256607056:2.0758624076843262] [-1.2853907346725464:2.0974209308624268] [-1.2320997714996338:1.9855276346206665] [-1.1626077890396118:2.073509693145752] [-1.0779223442077637:2.1457490921020508] [-0.97803342342376709:2.2142360210418701] [-0.86829191446304321:2.2825961112976074] [-0.75375783443450928:2.4052433967590332] [-0.63882678747177124:2.5269482135772705] [-0.65620064735412598:2.5277442932128906] [-0.66012513637542725:2.5302853584289551] [-0.66667592525482178:2.4445860385894775] [-0.8555336594581604:2.3619022369384766] [-0.86833834648132324:2.2948129177093506] [-0.86565589904785156:2.1508355140686035] [-0.6943366527557373:2.1797337532043457] [-0.68053698539733887:2.1696581840515137] [-0.94777458906173706:2.0883691310882568] [-1.2671374082565308:1.9448176622390747] [-1.6690099239349365:1.7314887046813965] [-1.9454965591430664:1.5598906278610229] [-2.2033448219299316:1.3473584651947021] [-2.6534385681152344:1.1459542512893677] [-2.9375624656677246:1.0433628559112549] [-2.8964071273803711:1.0182701349258423] [-2.6209216117858887:1.0153312683105469] [-1.9672813415527344:1.0222163200378418] [-1.2877312898635864:1.0489702224731445] [-0.6631239652633667:1.2523990869522095] [-0.67050886154174805:1.4357191324234009] [-0.67336314916610718:1.5244829654693604] [-0.67729061841964722:1.427788257598877] [-0.67391806840896606:1.3506048917770386] [-0.77278417348861694:1.3033223152160645] [-0.78214722871780396:1.4334096908569336] [-0.67822211980819702:1.6771683692932129] [-0.67593681812286377:1.8418123722076416] [-0.67998087406158447:1.9795904159545898] [-0.67735743522644043:1.8671952486038208] [-0.68031680583953857:1.7601110935211182] [-0.67659062147140503:1.8138210773468018] [-0.67896020412445068:2.0951991081237793] [-0.67633002996444702:2.3221406936645508] [-0.68208664655685425:2.3866791725158691] [-0.6882440447807312:2.3278176784515381] [-0.69760811328887939:2.41339111328125] [-0.68820065259933472:2.0181429386138916] [-0.66555494070053101:1.7058380842208862] [-0.63047897815704346:1.5109990835189819] [-0.79989981651306152:1.3641012907028198] [-0.9627259373664856:1.3483799695968628] [-0.83332031965255737:1.3266682624816895] [-0.62303602695465088:1.3006186485290527] [-0.62908732891082764:1.5017008781433105] [-0.65896600484848022:1.6471337080001831] [-0.67422842979431152:1.5962808132171631] [-0.93073725700378418:1.2496439218521118] [-1.1747497320175171:1.0613176822662354] [-1.3727543354034424:0.98026233911514282] [-1.6713657379150391:0.87500208616256714] [-1.7223098278045654:0.74292320013046265] [-1.8893227577209473:0.59156680107116699] [-1.6470081806182861:0.44254273176193237] [-1.7446892261505127:0.31167539954185486] [-1.674402117729187:0.20973041653633118] [-1.5101885795593262:0.13722024857997894] [-1.3374539613723755:0.2961885929107666] [-1.5821062326431274:0.9557119607925415] [-1.8401819467544556:1.3625956773757935] [-2.0371255874633789:0.97979003190994263] [-2.1728529930114746:1.1285310983657837] [-2.2573421001434326:0.92254304885864258] [-2.3058340549468994:0.73609095811843872] [-2.3315773010253906:0.27998179197311401] [-2.3403120040893555:0.32789856195449829] [-2.3343968391418457:0.37759476900100708] [-2.3124566078186035:0.5232703685760498] [-2.2730567455291748:0.46151745319366455] [-2.2140905857086182:0.49370381236076355] [-2.1362462043762207:0.51996833086013794] [-2.0426793098449707:0.54197138547897339] [-1.9374580383300781:0.55988889932632446] [-1.8240519762039185:0.65060514211654663] [-1.7074116468429565:1.0689502954483032] [-1.6520191431045532:1.4168777465820312] [-1.5958865880966187:1.6287872791290283] [-1.5394163131713867:1.6652539968490601] [-1.4922878742218018:1.6182962656021118] [-1.4547033309936523:1.5608183145523071] [-1.4384253025054932:1.5595740079879761] [-1.4264529943466187:1.5645072460174561] [-1.5819015502929688:1.5648646354675293] [-2.0638625621795654:1.5687597990036011] [-2.4396805763244629:1.5660412311553955] [-2.4470291137695312:1.5687909126281738] [-2.2812330722808838:1.5648857355117798] [-1.8732595443725586:1.5674868822097778] [-1.4165751934051514:1.5623446702957153] [-1.2213733196258545:1.563502311706543] [-1.1155441999435425:1.5619508028030396] [-1.1656886339187622:1.5697338581085205] [-1.225186824798584:1.573341965675354] [-1.3317182064056396:1.5835809707641602] [-1.6010570526123047:1.5861003398895264] [-2.1418814659118652:1.5904401540756226] [-2.4733853340148926:1.5886306762695312] [-2.5047738552093506:1.5883719921112061] [-2.0072333812713623:1.5865405797958374] [-1.577265739440918:1.5868538618087769] [-1.6321159601211548:1.7016431093215942] [-1.6862318515777588:2.5795986652374268] [-1.7458088397979736:2.8008601665496826] [-1.820858359336853:2.5472877025604248] [-1.9268163442611694:1.7180403470993042] [-2.1472852230072021:1.6308574676513672] [-2.3756425380706787:1.6220458745956421] [-2.6391217708587646:1.6080794334411621] [-2.9497678279876709:1.9929251670837402] [-3.3559722900390625:2.7791450023651123] [-3.8503069877624512:3.7871904373168945] [0:1] [0:1] [0:1] [0:1] [0:1] [0:1] [0:1] [0:1] [0:1]
tree_sizes=4582 5787 5548 5761 4361 5011 5326 5682 5335 5108 4935 4856 4694 5244 4870 5131 5168 5174 4939 5113 5134 5051 5178 5139 5073 4834 5251 5378 5170 5291 5323 5165 4954 4835 4816 5149 4778 5017 4735 4981 5054 5362 4958 4757 4902 4856 4854 4228 4819 4341 4205 4630 4440 5028 5036 4102 4224 4796 4231 6540 4487 6905 6932 5483 6923 6186 5059 6587 6901 5685 6713 4887 6622 6925 6864 5293 6070 6525 6969 4664 6755 6254 6164 6864 5889 6376 6896 6128 5853 6391 6823 6426 5883 6607 5314 6807 6123 6263 6795 5907 6249 6570 6940 6208 5974 5987 6809 5845 6975 5571 6558 5821 6615 5385 6948 6897 6844 5499 5782 5772 6582 6918 6899 6184 6142 6442 6950 6635 5933 6923 5368 5279 6709 6579 6366 6606 5047 6823 6475 6927 6909 6227 5601 6787 5811 6786 6627 6925 6049 6685 6666 6176 6938 6725 5427 5961 6510 5606 6783 6356 6272 6683 6892 6484 6519 6319 6368 6290 6946 6451 5993 6928 6260 6803 5562 6856 6905 5253 6229 6823 6909 6325 6915 6955 6317 6915 6836 6593 6934 6511 6596 6583 6426 5896 6514 5869 5668 5579 6416 4984

Tree=0
num_leaves=42
num_cat=0
split_feature=4 78 132 105 50 32 131 130 108 134 32 34 31 129 107 36 82 74 70 31 106 105 38 69 125 105 107 32 31 49 111 71 30 105 22 73 33 6 33 67 35
split_gain=274618 50219.3 39297.9 28357.8 26961.9 24684 12830.4 10882.3 10095.7 9301.31 8459.53 9569.75 7647.47 7589.77 7132.51 6629.67 6390.46 6332.86 5151.3 4706.42 4172.23 3332.17 2732.56 2101.23 1869.28 1501.4 1690.21 1494.74 1132.22 889.377 813.855 765.25 566.157 185.166 101.033 78.4613 32.8053 57.1004 1.90573 3.87349 0.262527
threshold=0.87027448415756237 -1.2146015167236326 1.0000000180025095e-35 -0.84762296080589283 1.1952822804450991 0.95601734519004833 1.0000000180025095e-35 1.0000000180025095e-35 -1.0582305788993833 1.0000000180025095e-35 0.96159371733665477 0.9052509367465974 0.99478986859321605 1.0000000180025095e-35 -0.86390435695648182 0.91372784972190868 -1.2718235254287718 -0.98281848430633534 -0.18290161341428754 1.0020582079887392 -0.86353495717048634 -0.81863084435462941 0.95715144276618969 -0.054053729400038712 -0.41532251238822931 -0.86037632822990406 -0.99475884437561024 0.95952215790748607 1.0000501275062563 1.2156089544296267 -0.96074378490447987 -0.43611472845077509 1.0349417924880984 -0.8757357895374297 0.9317210614681245 -0.94572675228118885 0.77468416094779979 1.0526379346847536 0.76935198903083812 0.032555552199482925 1.0000000180025095e-35
decision_type=2 2 2 2 2 2 2 2 2 2 2 2 2 2 2 2 2 2 2 2 2 2 2 2 2 2 2 2 2 2 2 2 2 2 2 2 2 2 2 2 2
left_child=1 5 6 25 8 9 10 12 -5 13 11 -3 18 17 22 19 30 -1 -7 -11 -15 -12 -9 -16 32 33 -27 -14 -18 -6 -8 -17 35 -4 -26 -2 38 -38 40 -40 -36
right_child=24 2 3 4 29 7 16 14 -10 15 21 -13 27 20 23 31 28 -19 -20 -21 -22 -23 -24 -25 34 26 -28 -29 -30 -31 -32 -33 -34 -35 36 -37 37 -39 39 -41 -42
leaf_value=-2.1219583068057419 -2.1230155672637205 -1.8840212267908563 -2.7796406289251405 -2.66445515959875 -2.4497940458410086 -1.9610167457412579 -1.4526596995884709 -1.5600543344449356 -1.5880959094437643 -2.6630364376150979 -2.0782952428199719 -1.6624340070851997 -2.4582303979656315 -2.0591627160813779 -2.2498472984881568 -1.5025718247991473 -2.3800948196014335 -1.903801192478412 -2.5331369119815106 -2.1883226607960395 -2.6874583491152504 -2.6137754269648235 -2.1265637569389377 -2.7552650432132477 -2.8011210973713787 -2.7839815897825377 -2.1956331976826293 -2.6223154489540019 -2.7109495097907299 -2.7369571477614492 -2.2121880557555631 -2.289776210712632 -1.4617540298221952 -2.6678380742234378 -1.1280569946223009 -2.8011210973713787 -1.1147540780358931 -1.4373523223411064 -1.1874607203198353 -1.1147540780358927 -1.1148132831648216
leaf_weight=3156.758083589375 2.181973710656167 8875.0705219134688 688.81572273373604 97.438148632645607 168.45938088744879 387.46836165338755 71.321692071855068 227.71153046190739 824.56268445402384 546.47656416147947 636.61007954180241 2497.4441577941179 781.03351318091154 167.5122379809618 547.53213796764612 84.317959167063236 217.8859803006053 2300.2429369837046 265.02013543993235 338.03151118010283 286.38569957017899 142.15942037850618 135.99395895004272 96.799111932516098 0.35579444468021293 86.32735987752676 112.40850273519754 1919.7892295867205 196.90571890026331 299.77752045542002 17.586479865014553 14.467813000082968 6.6282431855797759 188.72128558903933 15.034297510981558 7.8274777829647073 14.915699362754824 8.6795267164707166 11.00312155485153 21.934852004051208 3378.0858067721128
leaf_count=33244 23 73774 11478 1519 2289 3499 306 1205 4579 8512 6445 15600 10674 1666 6419 401 2819 19545 3807 3769 4526 2149 1438 1591 6 1442 1261 29174 3155 4876 200 175 29 2948 19 132 17 36 20 25 3852
internal_value=-2.69436 -2.06791 -1.94886 -2.31402 -2.01568 -2.22784 -1.87769 -2.41403 -1.70185 -2.11006 -1.85719 -1.83536 -2.50064 -2.06268 -2.12593 -2.39484 -2.37225 -2.03 -2.19339 -2.48162 -2.45558 -2.17604 -1.77188 -2.32578 -1.12119 -2.69939 -2.4512 -2.57486 -2.53715 -2.63364 -1.6029 -1.61786 -2.1786 -2.7556 -1.11609 -2.6533 -1.11591 -1.23342 -1.1151 -1.13904 -1.11487
internal_weight=0 26377 15121.5 2466.51 1390.24 11255.5 12655 4361.35 922.001 6894.19 12151.3 11372.5 3353.31 5910.9 1008.04 983.294 503.7 5457 652.488 884.508 453.898 778.769 363.705 644.331 3466.65 1076.27 198.736 2700.82 414.792 468.237 88.9082 98.7858 16.6377 877.537 3450.01 10.0095 3449.65 23.5952 3426.06 32.938 3393.12
internal_count=268644 264485 134840 30392 13263 129645 104448 57807 6098 71838 97968 89374 47154 58981 10653 12857 6480 52789 7306 12281 6192 8594 2643 8010 4159 17129 2703 39848 5974 7165 506 576 184 14426 3975 155 3969 53 3916 45 3871
is_linear=0
shrinkage=1


Tree=1
num_leaves=53
num_cat=0
split_feature=32 101 0 80 130 76 107 132 31 57 134 107 84 132 104 30 43 29 131 113 128 35 60 31 103 25 74 114 32 88 62 127 105 3 129 102 102 107 80 71 33 53 87 113 89 102 77 4 30 31 77 2
split_gain=10851.2 7811.42 5331.3 3729.88 4556.19 3713.15 4628.22 7560.21 2889.14 2923.38 2753.76 2691.71 2367.72 2211.07 1984.86 1792.85 1708.27 1474.33 1342.35 1256.18 1010.11 821.296 810.572 774.323 1402.43 981.1 696.578 594.132 579.736 538.604 448.775 445.945 422.251 267.254 231.097 162.609 158.682 141.438 133.698 153.03 304.06 148.902 132.174 106.712 366.683 52.1512 50.1336 0.0304377 0.0412392 0.0046009 0.00252469 4.44089e-16
threshold=0.9581296741962434 -0.5262404978275298 0.6511574685573579 -1.2114528417587278 1.0000000180025095e-35 -1.1296636462211607 -0.98587939143180836 1.0000000180025095e-35 0.99270686507225048 0.95494040846824657 1.0000000180025095e-35 -0.89250937104225148 -1.3579823374748228 1.0000000180025095e-35 -0.85098329186439503 1.0947994589805605 1.1145620942115786 1.2356171011924746 1.0000000180025095e-35 -0.89794760942459095 1.0000000180025095e-35 0.79399114847183239 0.71723222732543956 0.99962374567985546 -0.77426198124885548 1.2652444839477541 -0.93795850872993458 -0.93818822503089894 0.96934276819229137 -0.33557221293449396 0.70501920580863964 -2.0751545429229732 -0.81863084435462941 0.52845606207847606 1.0000000180025095e-35 -0.57628116011619557 -0.90176203846931446 -0.9655604064464568 -1.2079406380653379 -0.40935868024826044 0.94085621833801281 1.0639098286628725 -0.56883350014686573 -0.8610374629497527 -1.2733558416366575 -0.50916132330894459 -1.2802974581718443 0.87027448415756237 1.0366165041923525 1.0000501275062563 -1.1780955195426939 0.49198190867900854
decision_type=2 2 2 2 2 2 2 2 2 2 2 2 2 2 2 2 2 2 2 2 2 2 2 2 2 2 2 2 2 2 2 2 2 2 2 2 2 2 2 2 2 2 2 2 2 2 2 2 2 2 2 2
left_child=1 2 5 4 8 10 7 -7 9 26 11 -1 43 17 -12 -8 19 21 20 -14 22 -4 33 24 -10 -25 -2 -19 -24 45 36 -18 -11 -5 35 37 -22 -31 41 49 -41 51 -37 46 -45 -3 -6 50 -49 -40 -15 -20
right_child=3 29 13 18 12 6 15 -9 23 32 14 -13 16 47 -16 -17 31 27 38 -21 30 -23 28 25 -26 -27 -28 -29 -30 34 -32 -33 -34 -35 -36 42 -38 -39 39 40 -42 -43 -44 44 -46 -47 -48 48 -50 -51 -52 -53
leaf_value=0.20276090189805909 0.62150368277993351 0.29113452847573601 0.40128161225661912 0.25547517116165858 -0.08801243931538355 0.32643248064041441 0.369934637519438 -0.0067003399392515624 0.247828474460147 0.67688272289173579 -0.070218003492553485 0.32738641959905607 0.37741565522780929 -0.11032811162058467 0.21937498976836578 0.50125649005298589 0.33675863867415173 0.37194340477648052 -0.10664736795038439 0.87752104059326419 0.5852220061097716 0.78527823385875428 0.43596802626339859 -0.0056223899061145976 0.021106816974212638 0.13367560898554481 0.35698526868219216 0.59127824973288035 0.18886000611909079 -0.10982500981408867 0.7415522911172826 -0.067891614177554904 -0.010245630855397217 -0.038525328905766557 0.72944821486778677 0.80845146087750719 -0.042682221753220603 0.61936226705252828 -0.10925417871533993 0.97471285110625905 -0.10828158019415322 0.97242849438049284 -0.098640351975733592 -0.028563468494511635 1.0486287505601195 0.64496415479950198 0.28084663837829821 -0.1069352269131888 -0.12318292075127935 -0.10664736795038442 -0.10620727821275866 -0.10664736795038435
leaf_weight=2107.7032451480627 179.06482551246881 7.2827507406473169 10996.128616783768 155.48506508767605 134.1499680057168 3702.0899349376559 17774.189296089113 834.86596657335758 619.53135168552399 9.3454791232943517 301.87670505419374 9750.1400276646018 1205.1794551536441 1.5170197077095497 1095.8049858510494 1104.1926653347909 36.475146092474461 154.8860187381506 1.1689052730798715 52.410438776016235 4.226812668144702 55.982242971658707 1187.2062851674855 1383.3788183964789 487.53525716811419 796.87339938804507 224.20253828912973 609.46187365055084 103.19403932988644 4.7602072469890118 8.6619518250226957 107.50336138904095 207.78812433034182 38.593834862112999 3.5034995749592772 1.6122908890247334 84.201436333358288 6.0292276926338655 7.5202723592519751 4.1004061140120012 7.0491659827530384 2.7421749085187912 437.21973931789398 18.08324816823006 3.829312562942504 9.7321924194693565 3.7888216227293006 3.9197784066200247 2.5972644984722137 67.913396365940571 74.508081220090389 1.2273505367338655
leaf_count=13885 455 36 5950 827 1624 16587 72148 12753 6036 17 4010 57477 6003 20 10105 3353 357 651 20 124 10 76 4189 19206 6095 9158 1630 1310 785 69 26 1475 2537 317 3 7 830 17 97 21 102 19 5351 200 3 16 35 68 17 1162 1354 21
internal_value=0 0.346825 0.350751 0.214895 0.174924 0.331879 0.355821 0.265131 0.117228 0.315156 0.289586 0.305235 0.319316 0.408913 0.156828 0.377616 0.360903 0.412516 0.345542 0.398258 0.367111 0.403227 0.387549 0.0798744 0.147984 0.0452905 0.474441 0.546833 0.416207 -0.0588331 0.0546194 0.0346214 0.0193285 0.197011 -0.0795739 -0.0858779 -0.0126688 0.297651 -0.0263838 -0.0557958 0.290004 0.469212 -0.0953077 -0.0453157 0.15968 0.493518 -0.0778808 -0.106852 -0.11341 -0.106907 -0.10629 -0.106647
internal_weight=0 49040 48569.9 7142.43 5469.14 36670.9 23415.3 4536.96 3907.72 620.401 13255.5 11857.8 1561.42 11899 1397.68 18878.4 1401.57 11816.5 1673.29 1257.59 1581.57 11052.1 1484.48 3287.32 1107.07 2180.25 403.267 764.348 1290.4 470.14 97.0902 143.979 217.134 194.079 453.125 449.621 88.4282 10.7894 91.7217 86.5832 11.1496 5.13843 438.832 159.851 21.9126 17.0149 137.939 82.5421 6.51704 75.4337 76.0251 2.39626
internal_count=268644 205263 199764 63381 54955 190318 104841 29340 45134 4639 85477 71362 9821 9446 14115 75501 7959 7987 8426 6127 6984 6026 6118 40495 12131 28364 2085 1961 4974 5499 866 1832 2554 1144 5447 5444 840 86 1442 1382 123 60 5358 1862 203 52 1659 1459 85 1259 1374 41
is_linear=0
shrinkage=0.1


Tree=2
num_leaves=51
num_cat=0
split_feature=2 32 101 76 31 108 130 106 110 130 72 132 55 78 114 59 78 116 78 133 123 44 47 61 88 115 71 104 27 44 74 30 129 102 0 56 130 32 127 82 76 4 30 0 81 78 72 107 83 28
split_gain=7494.11 3814.8 3629.05 2656.49 2961.71 3963.97 2436.51 2455.58 2217.29 1913.37 1718.97 1568.74 1538.04 731.792 669.941 624.345 595.441 557.563 540.275 485.416 439.199 401.571 351.113 345.63 338.072 332.913 219.701 193.425 322.464 150.664 404.945 165.892 128.193 118.691 79.9289 63.8838 44.7357 41.7013 26.1812 21.2217 20.6093 0.0177813 0.0282882 0.0206111 0.00407683 0.00184687 0.00106407 0.000112381 3.48951e-05 5.19613e-07
threshold=0.69509238004684459 0.96398997306823742 -0.5262404978275298 -1.1578060388565061 0.99511179327964794 -0.88731643557548512 1.0000000180025095e-35 -0.87632322311401356 -1.2005715966224668 1.0000000180025095e-35 -0.48061977326869959 1.0000000180025095e-35 0.88982146978378307 -1.2447146773338316 -1.0127667784690855 0.82696685194969188 -1.1930389404296873 -1.0094909667968748 -1.2691871523857114 1.0000000180025095e-35 -1.5510072708129881 0.93082532286643993 1.0570645332336428 0.68949899077415477 -0.33557221293449396 -1.0079551339149473 -0.27304907143115992 -0.93299332261085499 1.4648720026016238 0.74979797005653392 -1.0424612760543821 1.0833367109298708 1.0000000180025095e-35 -0.57628116011619557 0.6511574685573579 0.98952484130859386 1.0000000180025095e-35 0.93744200468063366 -3.3067401647567745 -1.1083884835243223 -1.1321291327476499 0.87027448415756237 1.0366165041923525 0.6511574685573579 -1.2399997115135191 -1.2049893736839292 -0.86302831768989552 -0.96958446502685536 -1.0889625549316404 1.1915842294692995
decision_type=2 2 2 2 2 2 2 2 2 2 2 2 2 2 2 2 2 2 2 2 2 2 2 2 2 2 2 2 2 2 2 2 2 2 2 2 2 2 2 2 2 2 2 2 2 2 2 2 2 2
left_child=1 2 3 4 5 -1 8 -8 -5 10 19 21 -6 17 16 -16 -15 40 -19 22 26 25 -3 -21 38 27 -12 28 -2 31 -31 -27 33 -26 36 -22 37 -23 -4 -29 -11 43 46 44 -13 -45 -43 -46 -48 -47
right_child=11 9 24 6 12 -7 7 -9 -10 13 20 41 -14 14 15 -17 -18 18 -20 23 35 34 -24 -25 32 29 -28 39 -30 30 -32 -33 -34 -35 -36 -37 -38 -39 -40 -41 -42 42 -44 45 47 49 48 -49 -50 -51
leaf_value=0.04170635585128854 -0.072162295988788316 0.61386757693400629 0.3975694279028491 -0.037554204738489361 0.37155392605944115 0.28359881442466983 0.38729702648179404 0.24293424052561116 0.23485009979530824 -0.11395959420977185 -0.11401439010302655 -0.11403136282966825 0.14073487335487309 -0.05029483439696926 0.24347549654383346 0.56257037195509108 0.29376412701981541 0.09781344047709617 0.418168975727021 0.038499558474871298 0.81288977628077908 0.29984302601051638 0.02397694850992662 0.39462269285309504 0.21077931559781049 0.30406941976381996 0.44979648364779756 0.27304944716488228 0.26097372554000842 0.02832088883342514 0.28406815480316899 0.36644447314331652 0.39932807786806424 -0.092981582370914584 0.42552687189173294 0.57324564534313094 0.69525003174706235 0.61681354845593961 0.18366835152867023 0.44866897517854964 0.039399208360123346 -0.10913587557502841 -0.12049607452465459 -0.10926969134592684 -0.10806707479944958 -0.10565289612917482 -0.10545816918446566 -0.10902038209070329 -0.10619549050286653 -0.10558068700402233
leaf_weight=797.92022273689508 58.270934276282787 10.144448541104792 14.098298445343973 301.48811508342624 300.46169329434633 4487.6042636483908 2170.0201990902424 2578.1340444348752 33639.095601443201 76.530766814947128 14.725546181201937 1.7392642572522188 7364.8905220404267 69.842413768172264 105.64476878941059 146.13801286369562 179.77422270178795 166.18687818199396 77.052641771733761 47.690527714788914 14.371850356459616 7.0547568127512958 1890.3150914758444 63.593301519751549 13.282962653785942 12993.471911646426 13.024276278913019 11.104422688484194 57.954652801156044 69.276014186441898 582.41644037514925 440.85447838902473 5.5745162069797507 407.14820262417197 50.724949300289154 49.222321271896362 25.500006198883057 10.082684285938738 9.6313606202602369 18.089886449277401 9.8959318846464139 1.3655088320374487 2.3997928947210312 1.3858360499143589 1.3452393114566845 1.011730596423148 1.7668074220418928 15.311860866844651 1.0081254094839089 66.383883286267519
leaf_count=5720 361 22 16 3992 1230 19472 4208 8767 131276 789 148 18 50544 678 418 377 741 1232 209 330 19 26 23110 210 86 4546 35 27 187 399 1469 618 3 5358 33 78 14 16 36 22 124 20 17 20 20 20 36 202 19 1326
internal_value=0 0.219982 0.226231 0.228694 0.189492 0.247082 0.241817 0.308911 0.23243 0.10904 0.0582769 0.300973 0.149782 0.2375 0.313589 0.428682 0.197497 0.121774 0.199295 0.0390123 0.482556 0.303641 0.0271257 0.242007 -0.0566053 0.302284 0.150608 0.151754 0.0939524 0.303838 0.256882 0.306116 -0.0770681 -0.0833847 0.510357 0.627404 0.611278 0.48633 0.310752 0.38187 -0.0963999 -0.106829 -0.111857 -0.106451 -0.109424 -0.105656 -0.106851 -0.108943 -0.105726 -0.105582
internal_weight=0 55023.5 52089.4 51639.6 12950.9 5285.52 38688.7 4748.15 33940.6 2934.15 2103.09 14418.5 7665.35 831.066 501.399 251.783 249.617 329.666 243.24 2011.74 91.344 14324.8 1900.46 111.284 449.735 14231.4 27.7498 145.42 116.226 14086 651.692 13434.3 426.006 420.431 93.3624 63.5942 42.6374 17.1374 23.7297 29.1943 86.4267 93.718 6.54023 87.1778 18.3964 68.7814 4.14044 16.6571 2.77493 67.3956
internal_count=268644 259228 230708 225209 76966 25192 148243 12975 135268 28520 23952 9416 51774 4568 2214 795 1419 2354 1441 23672 280 7718 23132 540 5499 7629 183 597 548 7032 1868 5164 5447 5444 89 97 56 42 52 49 913 1698 92 1606 240 1366 75 222 55 1346
is_linear=0
shrinkage=0.1


Tree=3
num_leaves=53
num_cat=0
split_feature=46 32 90 35 30 108 114 132 58 79 81 130 79 31 130 74 105 70 113 119 131 71 131 134 130 114 8 30 83 32 113 52 1 1 81 114 30 22 75 28 102 30 66 86 126 126 113 31 62 30 86 30
split_gain=7136.9 2411.68 2151.06 2079.33 1966 1810.01 2382.52 1812.72 1388.6 1303.45 1108.66 1393.8 1510.91 978.914 950.152 804.148 709.674 854.755 606.378 559.214 488.805 486.149 462.866 439.58 409.372 209.264 201.68 186.412 368.647 149.524 132.833 120.744 222.695 118.514 97.659 96.1148 164.666 83.0546 63.4089 61.1079 98.9035 50.862 47.766 28.6918 26.3714 17.5543 0.718596 0.518113 0.0525424 0.023419 0.004563 0.0012885
threshold=0.7885916829109193 0.95726630091667186 -1.2063161730766294 0.91289243102073681 1.1032462716102602 -1.0599920749664304 -1.398383557796478 1.0000000180025095e-35 0.90341392159461986 -0.97610026597976673 -1.208753705024719 1.0000000180025095e-35 -1.375476539134979 0.99874916672706615 1.0000000180025095e-35 -1.0454533100128172 -0.83654078841209401 -0.19863078743219373 -1.0642657876014707 -1.0799198746681211 1.0000000180025095e-35 -0.39326576888561243 1.0000000180025095e-35 1.0000000180025095e-35 1.0000000180025095e-35 -0.93222913146018971 0.88746613264083873 1.0864357948303225 -1.1781757473945615 0.95899295806884777 -0.88393360376358021 1.0625718832015993 0.51285797357559215 0.48045492172241216 -0.67050582170486439 -0.92439624667167652 1.0753061771392824 1.7783446907997134 -1.0577235221862791 1.3939436674118044 -0.92725130915641774 1.0833367109298708 -0.17888198047876355 -1.3050671219825742 -1.1670181751251218 -1.182991564273834 -0.89794760942459095 0.99478986859321605 0.24238358438014987 0.97539719939231884 -0.77270901203155506 1.0968582034111025
decision_type=2 2 2 2 2 2 2 2 2 2 2 2 2 2 2 2 2 2 2 2 2 2 2 2 2 2 2 2 2 2 2 2 2 2 2 2 2 2 2 2 2 2 2 2 2 2 2 2 2 2 2 2
left_child=9 3 29 4 5 7 -7 -2 14 25 11 12 -4 -13 23 48 20 -18 24 -16 -12 -20 -17 -5 -10 27 42 28 38 31 33 43 -33 -31 46 36 -28 -30 -1 40 -29 -37 45 -3 -41 -27 49 -32 -6 -11 -48 -51
right_child=1 2 10 8 15 6 -8 -9 18 34 16 13 -14 -15 19 22 17 -19 21 -21 -22 -23 -24 -25 -26 26 35 39 37 30 47 32 -34 -35 -36 41 -38 -39 -40 44 -42 -43 -44 -45 -46 -47 50 -49 -50 51 -52 -53
leaf_value=0.068082636927966039 0.16250613558919183 -0.092516129100494157 0.25482739405031629 0.2468104434255714 -0.12657314216755311 0.28139026804150918 0.16749061648535446 -0.079727332372667506 0.14676875086547594 -0.11996113947156005 0.17041320968411111 0.028167698493728945 0.072158805895628619 0.21271015399029569 0.19968840435499607 0.30504518962079658 0.29990642527963896 0.018621338936910051 0.18403885399779241 -0.048679576655383541 -0.052941850751474541 -0.022193574961368163 -0.11519791876312285 0.31137756550314238 0.27604759687804353 0.37079111356069466 -0.13274177076337232 -0.03558756749560589 0.096032490722712999 0.04784981768248122 -0.12109386745571399 0.052074270735058104 0.57451500027092073 -0.086115327779096293 0.56847994488395748 0.25060510853052997 0.20876141640480511 -0.059110149842443317 0.38339024496299096 0.34019559524496701 0.34676746150895332 0.28927758072127485 0.43227781579859742 0.13738792904455358 0.21978401963777094 0.26699672275655056 -0.11252703530026567 -0.11000252518326908 -0.11894565419257833 -0.12792407823139232 -0.10764041772604843 -0.12950833315454358
leaf_weight=7.475193314254283 665.42295508086681 68.556152112782001 503.74069952964783 2387.9149324931204 12.138737067580221 1920.123923279345 42170.665406491607 576.64934648945928 666.69074241444468 3.6490073949098614 1639.4403439313173 337.77022379636765 4478.0475712157786 1929.1806282885373 264.6713742390275 1452.6320831850171 843.26825309172273 123.90431723743677 187.97105717658997 137.87982516735792 104.209493201226 291.6514448672533 26.690808899700642 1888.1775455102324 387.1990622729063 29.311113089323044 16.49743964150548 15.05914042145014 72.726634256541729 147.37949490174651 52.599473737180233 164.63123118877411 8.5844262689352018 119.64687313139439 2.1502470374107352 14100.313816379756 97.948070634156466 65.660324562340975 43.451068300753832 65.463079690933228 12.283314689993857 348.4920040667057 68.545344412326813 5.8950895071029654 25.186418823897839 36.691413179039955 1.9580086097121228 211.33331860601902 35.278420276939869 11.196053244173529 79.39502540230751 9.4811426252126676
leaf_count=30 2230 653 2267 6112 74 4095 160454 8568 1967 34 5111 2812 40759 6149 563 2433 1440 781 531 810 1464 1529 246 2093 494 18 91 68 384 1527 411 1127 22 1482 2 4282 171 448 66 60 9 323 38 44 58 51 23 2643 272 67 1204 54
internal_value=0 0.171318 0.128099 0.180063 0.172856 0.169097 0.172451 0.0500459 0.234427 0.247744 0.140613 0.12021 0.0906296 0.185214 0.261494 0.28447 0.195171 0.263871 0.151845 0.114619 0.157064 0.0586319 0.297463 0.275321 0.194266 0.250233 0.251941 0.168562 0.107074 -0.0319739 -0.0619031 0.0321896 0.077966 -0.0121761 -0.0986923 0.250815 0.159533 0.0224221 0.337108 0.267216 0.136181 0.251538 0.373811 -0.0743122 0.30674 0.313091 -0.112267 -0.112213 -0.120898 -0.127347 -0.107758 -0.128651
internal_weight=0 63809.9 10738.2 53071.8 46859.6 45332.9 44090.8 1242.07 6212.16 15112.9 9959.56 7248.74 4981.79 2266.95 4678.64 1526.74 2710.82 967.173 1533.51 402.551 1743.65 479.623 1479.32 4276.09 1053.89 15005.1 14697.8 307.305 189.313 778.626 530.959 247.667 173.216 267.026 107.829 14563.3 114.446 138.387 50.9263 117.992 27.3425 14448.8 134.548 74.4512 90.6495 66.0025 105.679 263.933 47.4172 24.3262 81.353 20.6772
internal_count=268644 261163 68692 192471 178372 175347 164549 10798 14099 7481 60783 51987 43026 8961 9578 3025 8796 2221 4521 1373 6575 2060 2679 8205 2461 6097 4974 1123 928 7909 6063 1846 1149 3009 1384 4867 262 832 96 195 77 4605 107 697 118 69 1382 3054 346 155 1227 121
is_linear=0
shrinkage=0.1


Tree=4
num_leaves=40
num_cat=0
split_feature=4 93 77 129 132 72 109 31 130 130 75 116 130 31 110 106 70 85 129 106 111 0 127 27 128 29 58 99 68 0 97 33 50 13 77 33 31 1 30
split_gain=7116.96 2026.79 1971.16 2161.23 1348.32 5969.52 2137.1 1213.25 2774.36 2411.39 1135.62 2124 949.161 892.92 830.459 678.331 341.052 65.7026 46.355 15.8131 19.631 24.9016 8.38646 82.6966 57.2551 13.107 35.7506 7.231 50.1301 2.02035 1.78671 1.69915 0.464935 0.417063 0.167144 0.108833 0.0902826 0.064688 0.00798029
threshold=0.87027448415756237 -0.25431139767169947 -1.1632291078567503 1.0000000180025095e-35 1.0000000180025095e-35 -0.39267949759960169 -1.1296308636665342 0.99695557355880748 1.0000000180025095e-35 1.0000000180025095e-35 -1.0905686020851133 -0.9465784728527068 1.0000000180025095e-35 1.0046936869621279 -0.94694948196411122 -0.9034803807735442 -0.18027150630950925 -0.84539884328842152 1.0000000180025095e-35 -0.91779777407646168 -0.80024978518486012 1.0692798495292666 1.0000000180025095e-35 1.0961327552795412 1.0000000180025095e-35 1.0600967407226565 0.47407750785350805 -0.42174579203128809 0.21640028059482577 0.6511574685573579 -1.1395853757858274 0.77468416094779979 1.1952822804450991 1.2926016449928286 -1.1411715149879453 0.76935198903083812 0.90634143352508556 0.49326372146606451 1.0366165041923525
decision_type=2 2 2 2 2 2 2 2 2 2 2 2 2 2 2 2 2 2 2 2 2 2 2 2 2 2 2 2 2 2 2 2 2 2 2 2 2 2 2
left_child=1 2 3 7 12 16 -7 8 -1 -9 11 -5 13 -4 -12 -14 -6 -3 27 20 21 36 23 24 33 26 -25 28 -19 34 -27 35 -29 -21 37 -31 38 -24 -2
right_child=19 17 4 10 5 6 -8 9 -10 -11 14 -13 15 -15 -16 -17 -18 18 -20 22 -22 -23 29 25 -26 30 -28 32 -30 31 -32 -33 -34 -35 -36 -37 -38 -39 -40
leaf_value=0.16943324868337079 -0.10830379352114 0.37093341721093309 0.16217853611281308 0.2463474574121908 -0.092037761225820164 -0.072244518425178511 0.20067346045892975 0.084798735004301282 0.034926537241946221 0.17074118070289587 0.19547754416504903 -0.023906436064714889 0.27447076335042414 0.09535038449520368 -0.045487414939161919 0.18272771026974299 0.024212402536476937 -0.11534793959380961 0.251211967093804 -0.1644897633353517 0.21721704778390213 0.21721704778390208 0.22932114397112824 0.037533837254007447 0.20975571044365215 0.21629201862566402 0.21721704778390213 -0.11517115538549727 0.28695363375383748 0.21721704778390213 0.23349923536911762 0.230998070355691 -0.10744791334100907 -0.12513668824887839 0.2213861634025753 0.22006325498437188 -0.13947490057091858 0.22572699618391279 -0.11835049316184386
leaf_weight=11997.599448651075 2.006780654191973 2.9364489167928687 28243.331344172359 581.54715415835381 1097.2802842929959 314.55392604321241 3265.9193555004895 10580.896841328591 1758.1886397860944 4721.6468065343797 159.8591446056962 581.69844133034348 1150.4474567323923 2151.6931199282408 1358.1437675617635 2691.1939420811832 327.74772717803717 20.794329516589645 3.6335666924715033 6.4160472750663775 11.02734589576721 3.6757819652557373 72.757082939147949 15.249180037528275 7.514980509877204 246.93832006305456 40.43360161781311 182.47821461781859 3.6395010799169532 13534.229196071625 79.858503799885511 90.430426597595215 136.06732745468616 4.6410887390375137 73.749513879418373 135.69376945495605 1.9295200034976003 160.63796806335449 1.3046172261238096
leaf_count=40622 35 2 70195 2066 12685 4736 7429 63749 8642 14801 556 4820 1173 8331 12364 5681 2205 237 2 27 3 1 20 75 3 71 11 1995 16 3682 45 25 2178 35 24 37 11 44 10
internal_value=0 0.14011 0.141293 0.122763 0.15628 0.107802 0.176697 0.13069 0.152241 0.111317 0.0368585 0.111203 0.163367 0.157448 -0.0201117 0.210202 -0.0653009 -0.100096 -0.104087 0.216986 0.128003 0.0176723 0.217108 0.202849 -0.00322174 0.212856 0.168009 -0.107851 -0.0554238 0.217515 0.220497 0.217336 -0.111872 -0.147972 0.225536 0.217245 -0.122281 0.226847 -0.112262
internal_weight=0 71331.3 70981.7 31739.6 39242.2 5005.5 3580.47 29058.3 13755.8 15302.5 2681.25 1163.25 34236.7 30395 1518 3841.64 1425.03 349.549 346.613 14488.5 19.944 8.9167 14468.5 401.052 18.5721 382.48 55.6828 342.979 24.4338 14067.5 326.797 13760.4 318.546 11.0571 307.145 13669.9 5.24092 233.395 3.3114
internal_count=268644 264485 260055 147620 112435 27055 12165 127814 49264 78550 19806 6886 85380 78526 12920 6854 14890 4430 4428 4159 60 57 4099 267 65 202 86 4426 253 3832 116 3744 4173 62 88 3719 56 64 45
is_linear=0
shrinkage=0.1


Tree=5
num_leaves=46
num_cat=0
split_feature=4 105 31 130 77 34 134 43 69 102 77 130 93 71 57 52 52 50 85 133 56 19 73 0 85 110 129 106 111 0 99 127 27 128 29 58 103 0 33 74 77 31 33 1 30
split_gain=7190.84 1674.44 1376.73 2408.05 1851.16 1861.96 2077.77 1468.47 1319.11 1451.41 1268.55 1122.46 961.387 1016.91 896.199 1052.43 872.623 851.763 640.846 438.092 395.189 315.674 290.852 126.121 50.2762 45.2132 38.7183 11.6889 15.2814 20.6714 9.23201 7.33896 63.9402 47.4072 10.2217 29.0191 1.26361 0.950724 0.896373 0.271047 0.120027 0.0632944 0.0557089 0.0319776 0.00561955
threshold=0.87027448415756237 -0.81142666935920704 0.99734213948249828 1.0000000180025095e-35 -1.2914203405380247 0.90485802292823803 1.0000000180025095e-35 0.99406382441520702 -0.11264608800411223 -0.81012812256813038 -1.2271138429641721 1.0000000180025095e-35 -0.25431139767169947 -0.21382281929254529 0.95494040846824657 1.0819237828254702 1.22276908159256 1.1728434562683108 -1.1593794822692869 1.0000000180025095e-35 1.0288405418395998 1.2865695357322695 -0.87435227632522572 0.70818868279457103 -0.84539884328842152 -1.1935839653015134 1.0000000180025095e-35 -0.91779777407646168 -0.80024978518486012 1.0692798495292666 -0.42174579203128809 1.0000000180025095e-35 1.0961327552795412 1.0000000180025095e-35 1.0600967407226565 0.47407750785350805 -0.95234909653663624 0.6511574685573579 0.77468416094779979 -1.0337584614753721 -1.1411715149879453 0.90634143352508556 0.76935198903083812 0.49326372146606451 1.0366165041923525
decision_type=2 2 2 2 2 2 2 2 2 2 2 2 2 2 2 2 2 2 2 2 2 2 2 2 2 2 2 2 2 2 2 2 2 2 2 2 2 2 2 2 2 2 2 2 2
left_child=1 2 4 8 11 6 -6 22 9 -4 -9 21 13 14 15 -3 -16 25 -10 -7 -19 -1 -5 -13 -14 -15 30 28 29 41 -26 32 33 39 35 -34 -36 40 42 -29 43 44 -39 -33 -2
right_child=27 12 3 7 5 19 -8 10 18 -11 -12 23 24 17 16 -17 -18 20 -20 -21 -22 -23 -24 -25 26 -27 -28 31 -30 -31 -32 37 34 -35 36 -37 -38 38 -40 -41 -42 -43 -44 -45 -46
leaf_value=0.31679777841496021 -0.1074987810903842 -0.012455348123470831 0.086584541989239552 0.15308894813614957 0.12470461745111135 0.17686417174573726 0.0047547932155909949 0.051659380043720927 -0.012110717026235772 0.18756688857325657 0.16616780486538565 -0.12626443778062155 0.28161639433863117 0.16887658514192549 -0.025082489728983044 0.10967883536240775 0.22372343376670215 0.24533412135377214 0.10119724236500412 0.083417302685855899 0.00089194359692966951 -0.06148623411227068 0.29712869285141047 0.34915835964453196 -0.037014451739271294 -0.15679807480668684 0.21302110837497376 -0.15285168409451488 0.19433102974554395 0.19433102974554392 -0.11066278950944647 0.202831578867817 0.03332274616766303 0.18711791482938869 0.19178629875474129 0.19433102974554395 0.20490073875453652 0.19433102974554395 0.2042584500615878 -0.11861850947456108 0.19650968830914251 -0.13464362172262692 0.19635931735885281 0.20032375853686415 -0.11630519926867602
leaf_weight=821.8131969422102 1.8287137411534806 858.75493201985955 14791.115256991237 170.31695522367954 32691.737435109913 8196.9088766686618 1510.8454517424107 1298.4460287317634 1839.2953783087432 1574.8556275963783 3795.2701262496412 72.107888713479042 3.446352705359458 4.5426922813057891 1383.8737304620445 3954.3211081810296 156.95009372383356 643.09652849286795 685.06729887798429 534.39832863211632 73.719924084842205 22.66835443675518 792.43445932865143 6.0479383468627921 18.078469406813383 69.193096563220024 3.8431556671857825 6.9770868718624124 11.087619781494139 3.6958732604980469 290.82337723299861 73.947948455810547 15.447438471019266 7.5767604112625113 220.01770501211286 40.654605865478516 110.30412504822016 13608.205345153809 91.934599161148071 3.4597514420747766 74.706302382051945 1.805277422070503 136.77560257911682 162.7504301071167 1.2001552879810331
leaf_count=1159 35 6274 64660 483 98593 13957 6901 5389 15548 3508 7757 439 2 7 9195 20283 222 583 2206 1272 579 133 705 2 157 303 2 32 3 1 4166 20 75 3 80 11 36 3682 25 30 24 11 37 44 10
internal_value=0 0.117392 0.122271 0.103516 0.13294 0.129928 0.119406 0.158386 0.0859235 0.0963018 0.136978 0.273089 0.072394 0.0799458 0.0666381 0.0878875 0.000261169 0.186904 0.0186391 0.171145 0.220195 0.306644 0.271647 -0.0894748 -0.098242 -0.136734 -0.102428 0.194056 0.116918 0.0162936 -0.106353 0.19416 0.180878 -0.00328099 0.189463 0.149998 0.196166 0.19454 0.194417 -0.141504 0.200004 -0.119822 0.194351 0.201107 -0.110988
internal_weight=0 76264 68803.3 24946.8 43856.5 42933.9 34202.6 6056.47 18890.3 16366 5093.72 922.637 7460.64 7144.45 6353.9 4813.08 1540.82 790.552 2524.36 8731.31 716.816 844.482 962.751 78.1558 316.191 73.7358 312.745 14572.4 19.6176 8.53002 308.902 14552.8 404.437 18.0136 386.424 56.102 330.322 14148.3 13836.9 10.4368 311.405 4.83415 13745 236.698 3.02887
internal_count=268644 264485 222712 100256 122456 120723 105494 14334 85922 68168 13146 1733 41773 37446 35974 26557 9417 1472 17754 15229 1162 1292 1188 441 4327 310 4325 4159 60 57 4323 4099 267 65 202 86 116 3832 3744 62 88 56 3719 64 45
is_linear=0
shrinkage=0.1


Tree=6
num_leaves=49
num_cat=0
split_feature=4 32 101 71 132 76 70 51 45 130 72 107 104 57 37 75 114 72 123 90 33 50 114 76 0 121 32 100 46 40 127 73 58 128 100 59 73 33 125 61 29 52 98 0 2 57 76 57
split_gain=7264.77 1404.19 1256.1 1466.43 3731.72 1455.63 1160.5 949.935 883.87 515.882 633.886 392.374 367.029 332.889 342.052 534.901 249.462 239.762 251.126 224.82 222.559 208.971 197.366 694.276 139.802 128.878 51.7833 37.2336 26.0481 23.7836 10.1986 48.8437 53.4813 34.3081 5.20681 13.9094 15.4142 0.500783 0.47971 0.47953 0.418282 0.154905 0.13521 0.210364 0.114244 0.0504443 0.0265232 0.0198602
threshold=0.87027448415756237 0.96378690004348766 -0.54008296132087696 -0.25014430284500117 1.0000000180025095e-35 -1.1236356496810911 -0.18027150630950925 1.1796278357505801 1.182719945907593 1.0000000180025095e-35 -0.50017163157463063 -0.96127495169639576 -0.77045297622680653 0.90798839926719677 0.95387670397758495 -1.039502680301666 -1.4023134112358091 -0.30661350488662714 -2.2700541019439693 -0.99198788404464711 0.92843309044837963 1.2394814491271975 -0.93898117542266835 -1.1962183713912962 -0.061308898031711571 -1.0562515854835508 0.96892330050468456 -0.85899838805198658 1.1013984680175783 1.0792143344879153 1.0000000180025095e-35 -0.91583415865898121 0.47407750785350805 1.0000000180025095e-35 -1.0415228009223936 0.42966626584529882 -0.96658542752265919 0.77468416094779979 -0.41532251238822931 1.0000000180025095e-35 1.093605697154999 1.1392343640327456 -0.99185550212860096 0.6511574685573579 0.69509238004684459 0.49386256933212286 -1.1353935003280637 0.95494040846824657
decision_type=2 2 2 2 2 2 2 2 2 2 2 2 2 2 2 2 2 2 2 2 2 2 2 2 2 2 2 2 2 2 2 2 2 2 2 2 2 2 2 2 2 2 2 2 2 2 2 2
left_child=1 2 3 4 5 -1 -6 8 -5 10 22 -9 19 20 25 -16 17 41 -19 -12 27 24 23 -3 -18 -15 -24 -11 -22 -23 31 34 33 38 40 36 -36 39 -33 44 -2 -4 43 -41 -32 -42 -46 -14
right_child=30 9 16 7 6 -7 -8 11 -10 13 12 -13 47 14 15 -17 21 18 -20 -21 28 29 26 -25 -26 -27 -28 -29 -30 -31 37 32 -34 -35 35 -37 -38 -39 -40 42 45 -43 -44 -45 46 -47 -48 -49
leaf_value=0.089206487684067567 0.18641674124131025 0.30108668671774058 -0.1435819658670528 -0.0040748517206850932 -0.09374298175386192 0.11833409032654184 0.046811538827306709 -0.033512074601992216 0.20770823316970463 0.038451449936258514 0.30200977266492751 0.16717397659064537 -0.11575938574566635 0.21004394211306932 -0.060688936550948196 0.12487824684954026 -0.10953145920214043 -0.12404243977388617 0.16096888860531974 0.073899021817245641 -0.040374208780937094 0.066021350864895648 -0.078651306721327141 0.0043137690235949778 0.25314540986566086 -0.12246313819799459 0.027314819794716706 0.23797315957852275 -0.13658868767160304 0.21989596842026701 0.18532190036911408 -0.11434507479070251 0.17034742561203575 0.20919887993531733 0.16100093973132701 0.18178642478248544 -0.0054672428543059981 0.18520340700699084 -0.14987449700359309 0.18240149007617468 0.17453441206465709 -0.11382811833868328 0.17352719916987336 0.17768601521323263 0.18195404463212247 0.17765954035972911 0.17929275394683927 -0.11056891733993451
leaf_weight=30386.483295556158 54.422184765338898 81.930888943374157 1.7971590869128693 213.27856687456369 1158.2922792881727 39407.559121541679 1191.9142726883292 292.44956736266613 2591.9798185750842 14.667331054806708 135.49322261661291 146.09164392203093 10.08975165337324 324.80376134812832 206.8816747367382 623.44513345509768 382.13292608782649 38.694753654301167 153.76198254153132 63.433712918311357 42.579413004219532 20.949427396059036 318.16739463061094 2081.8640890046954 10.932587489485739 12.090643063187597 53.933754738420248 25.814444005489349 82.964208669960499 19.297787860035896 80.858538866043091 8.4557480178773403 19.745318707078695 3.6918687820434561 11.952372074127199 40.522204458713531 10.404202558100222 91.273386716842651 6.9020827561616906 95.276026010513306 73.323794521391392 66.341519713401794 77.383083194494247 13459.549040794373 76.908252954483032 174.74342179298401 72.990634679794312 27.36515224725008
leaf_count=115738 16 549 12 793 12951 86834 6081 1929 3453 37 159 560 92 587 1351 2019 4851 307 467 245 195 101 3698 19157 9 100 610 16 451 23 22 100 19 1 11 13 57 25 33 26 24 778 26 3697 21 48 20 332
internal_value=0 0.10013 0.103204 0.104437 0.101479 0.105653 -0.0224603 0.17021 0.191607 0.0431638 0.0185812 0.0333427 0.175201 0.0942794 0.113125 0.0786429 -0.0307244 0.0465915 0.103665 0.22927 -0.0382108 -0.0772224 0.00398198 0.0155509 -0.0994441 0.198111 -0.0632922 0.165683 -0.103957 0.139801 0.177367 0.161707 0.055022 -0.0645146 0.173035 0.146852 0.0835307 0.17782 -0.130313 0.177772 0.178478 -0.114613 0.177695 0.177719 0.182292 0.176736 0.180658 -0.111967
internal_weight=0 80187.5 76082 75388 72144.2 69794 2350.21 3243.8 2805.26 4105.52 2772.28 438.541 236.382 1333.25 1167.22 830.327 693.908 260.595 192.457 198.927 166.025 433.313 2535.9 2163.79 393.066 336.894 372.101 40.4818 125.544 40.2472 14358.4 404.163 38.795 19.0497 365.368 62.8788 22.3566 13954.2 15.3578 13863 302.489 68.1387 13632.2 13554.8 230.757 248.067 149.899 37.4549
internal_count=268644 264485 234887 228339 221604 202572 19032 6735 4246 29598 24842 2489 828 4756 4057 3370 6548 1564 774 404 699 4984 24014 19706 4860 687 4308 53 646 124 4159 322 153 134 169 81 68 3837 133 3812 88 790 3749 3723 63 72 41 424
is_linear=0
shrinkage=0.1


Tree=7
num_leaves=52
num_cat=0
split_feature=46 111 79 30 113 129 129 131 31 79 136 74 76 5 32 80 66 131 114 32 2 0 74 113 126 102 97 31 112 81 9 113 26 105 64 81 80 30 107 106 54 113 102 74 30 74 62 30 101 30 86
split_gain=7293.84 1274.76 1184.24 1060.35 1184.44 1930.84 1524.69 877.988 979.551 589.174 564.999 449.79 434.426 391.382 379.233 457.623 299.826 259.735 248.475 240.971 217.316 164.859 327.533 121.506 120.961 120.429 118.85 116.172 114.033 63.5417 61.378 54.6177 52.6526 47.5429 107.362 45.4387 44.1216 39.7267 36.3579 99.8073 32.2989 21.3332 120.318 15.9825 9.11719 1.74183 0.151488 0.0500978 0.0173722 0.00213864 0.00130941
threshold=0.7885916829109193 -0.87118104100227345 -1.375476539134979 1.1032462716102602 -1.0341354012489317 1.0000000180025095e-35 1.0000000180025095e-35 1.0000000180025095e-35 1.0018465518951418 -0.97610026597976673 1.0000000180025095e-35 -1.0454533100128172 -1.2542096376419065 0.61146458983421337 0.95952215790748607 -1.423122704029083 0.24585672467947009 1.0000000180025095e-35 -0.92890840768814076 0.96358790993690502 0.61521157622337352 0.49353298544883734 -1.0398252606391905 -0.86942264437675465 -1.1670181751251218 -0.91293591260910023 -0.99636477231979359 0.98837098479270946 -0.87504830956459034 -1.4978749752044676 0.92367574572563182 -1.0398903489112852 1.2434410452842715 -0.92988744378089894 -0.027573368512094017 -0.67050582170486439 -1.1275261044502256 1.0795999169349673 -0.8360307216644286 -0.83131667971611012 1.0071015954017641 -0.91881939768791188 -0.93858122825622547 -0.98281848430633534 1.089452922344208 -0.8108440339565276 0.24238358438014987 0.97539719939231884 -1.0259778499603269 1.0968582034111025 -0.77270901203155506
decision_type=2 2 2 2 2 2 2 2 2 2 2 2 2 2 2 2 2 2 2 2 2 2 2 2 2 2 2 2 2 2 2 2 2 2 2 2 2 2 2 2 2 2 2 2 2 2 2 2 2 2 2
left_child=9 2 10 4 6 -6 -4 13 12 18 16 46 20 14 15 -3 32 -13 24 -18 -9 22 -10 26 25 31 -15 -14 -16 -25 -20 -1 -2 36 -35 45 -26 -27 39 -12 -23 42 -32 -40 -43 47 -5 -11 -47 -49 -50
right_child=1 7 3 11 5 -7 -8 8 21 35 38 17 27 23 28 -17 19 -19 30 -21 -22 40 -24 29 33 37 -28 -29 -30 -31 41 -33 -34 34 -36 -37 -38 -39 43 -41 -42 44 -44 -45 -46 48 -48 49 50 -51 -52
leaf_value=-0.14325555024921949 -0.12695557864044846 0.11793053576681332 0.093573910618146711 -0.1341174491554766 0.079381025562392071 -0.0073098982224259791 0.18414358308300038 0.22847034966967114 0.26854819040656941 -0.12334905801512329 -0.027581948580923027 0.17124494016261169 0.098495436212903575 0.074040969968230078 -0.00081677348431435741 -0.040737436935002432 0.184700972691139 -0.11846147277012785 0.25241272045967073 0.045063025444866678 -0.13008629588037193 -0.11120142853060951 -0.11570597033496313 0.36162441407626778 -0.13593048452130466 -0.14337792529580637 -0.054045908462350183 -0.13029911553443521 -0.11641566909023045 -0.10115281519615567 -0.099403746947116151 0.15557851877929857 0.060365516874952618 -0.076415399446037924 0.17276495391478039 0.2442536773194092 0.12066336997445655 0.18607258308449554 0.31555570649079151 0.28810139527984119 0.12948774810275523 0.1646076020229808 0.15569577746410648 0.26987809146485447 0.18514912883724222 -0.11908085662491752 -0.12200949159142456 -0.13695691116403172 -0.10806161877210048 -0.13886176020343186 -0.10490594179503271
leaf_weight=6.2659136578440657 44.090439353138208 513.28345725685358 31645.012083217502 13.875743642449377 39378.948264688253 2748.5250472463667 1974.7239975854754 475.73609501123428 41.197431743144989 2.6569537073373821 13.300999306142328 1915.3826062828302 41.433008402585983 94.419646613299847 156.34075570851564 281.44193451851606 632.47178173810244 31.454966157674789 79.682332962751389 153.59465191140771 17.526166558265686 179.84249074012041 48.061984829604626 2.9852678477764121 7.6338664367794982 20.05767006799579 311.22596798092127 47.791169971227646 187.88695627823472 484.33156079426408 20.03800430893898 255.76416155323386 22.746818669140339 78.720976695418358 22.158153094351292 3.6736043244600287 54.855557166039944 4.4771845042705527 208.23408216238022 40.54154372215271 5.7537539526820174 14203.159690998495 239.16386516392231 121.17858384549618 219.40831261873245 0.88821644708514114 40.474324248731136 12.884208269417288 1.3479188680648793 10.863974556326864 53.672141835093498
leaf_count=37 327 1654 84465 74 134806 17991 2697 965 112 26 55 2443 98 378 1178 1502 1368 255 28 1239 99 1069 496 2 66 97 2050 305 1875 3141 69 400 86 369 27 2 227 8 66 19 22 4367 257 42 145 8 284 67 23 54 1204
internal_value=0 0.0859516 0.0883381 0.0867941 0.0848959 0.073725 0.0988937 0.0207107 0.105575 0.161177 0.185446 0.158643 0.179001 -0.0150969 0.0237638 0.0617403 0.140127 0.166564 0.162653 0.157416 0.21573 -0.0500309 0.0616455 -0.0646629 0.0894467 0.128596 -0.0242319 -0.0240538 -0.0639132 -0.0983179 0.164884 0.148433 -0.0632043 0.0207753 -0.0216828 -0.0998473 0.0893172 -0.0832589 0.2863 0.210117 -0.10374 0.164409 0.135975 0.298753 0.16492 -0.115204 -0.125101 -0.136371 -0.105207 -0.137828 -0.104983
internal_weight=0 81873.8 78984.6 77748.4 75747.2 42127.5 33619.7 2889.26 857.342 15297.4 1236.16 2001.19 582.486 2031.92 1138.95 794.725 852.904 1946.84 15211.4 786.066 493.262 274.856 89.2594 892.962 449.933 286.565 405.646 89.2242 344.228 487.317 14761.5 262.03 66.8373 163.369 100.879 85.987 62.4894 24.5349 383.255 53.8425 185.596 14681.8 259.202 329.413 14422.6 82.3134 54.3501 26.4051 55.9083 23.7482 55.0201
internal_count=268644 261163 246217 243015 239959 152797 87162 14946 3166 7481 3202 3056 1467 11780 6209 3156 3020 2698 6097 2607 1064 1699 608 5571 1231 542 2428 403 3053 3143 4866 437 413 689 396 1384 293 105 182 74 1091 4838 326 108 4512 1382 358 147 1235 121 1227
is_linear=0
shrinkage=0.1


Tree=8
num_leaves=49
num_cat=0
split_feature=4 32 114 77 30 75 131 31 76 130 48 74 32 130 72 131 31 68 60 34 104 51 29 61 35 76 75 32 99 115 127 73 58 128 27 7 98 104 71 107 125 33 61 98 0 2 72 76
split_gain=7277.97 967.904 930.638 858.271 838.473 901.169 636.359 913.626 664.91 561.825 470.393 377.863 376.434 352.801 469.157 312.066 301.189 247.578 365.288 337.397 232.039 210.793 158.041 427.793 158.693 140.345 122.78 41.3944 52.2056 22.5297 10.3021 44.4728 44.8653 27.493 4.90323 9.12163 8.37418 1.43335 1.41174 0.811803 0.484845 0.221263 0.20351 0.194963 0.0839659 0.0516902 0.0160067 0.010541
threshold=0.87027448415756237 0.96419268846511852 -0.9011489450931548 -1.2914203405380247 1.1032462716102602 -1.0825589895248411 1.0000000180025095e-35 1.0018465518951418 -1.2422388195991514 1.0000000180025095e-35 0.77893835306167614 -1.0197874903678892 0.96194612979888927 1.0000000180025095e-35 -0.50017163157463063 1.0000000180025095e-35 1.0002769827842715 0.088802944868803038 0.77280887961387645 0.92675885558128368 -0.77045297622680653 1.0625229477882387 1.1090734004974367 0.64938959479331981 0.94112840294837963 -0.87612256407737721 -1.039502680301666 0.96502140164375316 -0.78373318910598744 -1.0167130231857298 1.0000000180025095e-35 -0.91583415865898121 0.47407750785350805 1.0000000180025095e-35 1.2257112264633181 1.1227695345878603 -1.1131893396377561 -0.94672861695289601 -0.70033481717109669 -0.83171516656875599 -0.41532251238822931 0.77468416094779979 1.0000000180025095e-35 -0.99185550212860096 0.6511574685573579 0.69509238004684459 -0.48061977326869959 -1.1353935003280637
decision_type=2 2 2 2 2 2 2 2 2 2 2 2 2 2 2 2 2 2 2 2 2 2 2 2 2 2 2 2 2 2 2 2 2 2 2 2 2 2 2 2 2 2 2 2 2 2 2 2
left_child=1 2 3 9 5 -5 10 8 -8 16 -4 -12 -11 14 22 -6 -1 18 19 -15 25 -9 24 -24 -3 -16 -20 28 -19 -29 31 34 33 40 35 -2 -37 38 -36 -39 -33 42 45 44 -44 -32 -22 -47
right_child=30 13 6 4 15 -7 7 21 -10 12 11 -13 -14 17 20 -17 -18 27 26 -21 46 -23 23 -25 -26 -27 -28 29 -30 -31 41 32 -34 -35 37 36 -38 39 -40 -41 -42 -43 43 -45 -46 47 -48 -49
leaf_value=0.176575058881071 0.15472266667989371 -0.04522302746400278 0.23647991207865401 0.053966013383363001 0.14539077173105511 0.081936903321464666 0.1815534877986516 -0.082672508331411182 -0.054527999639689219 -0.12793994729192482 -0.06671020922768775 0.021374201546100681 0.19387701288641701 0.097609394934555338 0.19362118737728903 -0.11711719489862218 0.044773535654578832 -0.1147872356935532 0.013124623591839491 -0.03349317160538625 -0.11002901167227241 0.054611435484692522 -0.063893518224970344 0.133967168206135 0.011652597697882244 -0.13651212607298918 0.19345948595654666 -0.12616358661904645 0.17861291971769847 -0.023610720842652366 0.16034442935196816 -0.1149133873520887 0.14372742823498735 0.17514085086089232 0.11939826948575515 0.13997028942943543 0.019065472275372506 0.16798776775841162 0.15539981453551674 0.15495503083547119 -0.15058638578509884 0.16030073483198468 0.15824237537724564 0.14996821967739524 0.15516805598830258 0.15795381848299375 -0.1149571220516136 0.15621974271694736
leaf_weight=1584.3373198434711 37.203814029693604 1070.9328332841396 75.423859044909477 14252.658707909286 2114.1866131126881 60042.317832317203 712.18570037558675 296.23947252333164 143.30493159592152 117.24091269075871 880.46081517636776 1089.8167435117066 52.678654000163078 522.77174062281847 206.5185599476099 46.27693422883749 194.68463196605444 10.724545784294607 43.177265521138906 314.32956266030669 23.873132295906544 179.68546668067575 195.1676877476275 248.2900772318244 905.25170512124896 13.733378820121287 300.61055766791105 67.543993040919304 13.956814128905533 31.371683839708567 76.369014024734497 8.4518770985305309 19.324414297938347 3.6244988441467276 20.111704383045435 10.608259439468386 12.454256072640417 66.082557462155819 23.76029372215271 172.70388269424438 6.9371542185544977 86.019483089447021 89.473413944244385 71.91289284825325 12533.620645999908 72.166406631469727 9.1043231412768346 68.166424989700317
leaf_count=2744 11 11227 23 52311 2667 160305 1420 1687 1611 737 4911 5885 128 1320 315 396 1217 128 246 1331 306 956 1756 1509 7839 74 459 522 46 322 22 100 19 1 35 5 35 25 7 51 33 25 26 26 3697 21 87 20
internal_value=0 0.0754705 0.0778133 0.0800273 0.0783568 0.076571 0.0264137 0.0802211 0.142007 0.145558 -0.00860611 -0.0179882 -0.0281699 0.0272971 0.00649067 0.139768 0.162152 0.0699292 0.0840233 0.0483807 0.135996 -0.030841 -0.00706283 0.0468878 -0.0191694 0.173036 0.170811 -0.0647303 0.0511247 -0.0936383 0.154771 0.138568 0.0364227 -0.0726365 0.149988 0.124092 0.0746791 0.155509 0.138896 0.158562 -0.130994 0.155246 0.155212 0.15516 0.15519 0.158251 -0.11139 0.157111
internal_weight=0 85758.9 81781.5 78404.4 76455.4 74295 3377.12 1331.42 855.491 1948.94 2045.7 1970.28 169.92 3977.36 2672.87 2160.46 1779.02 1304.49 1180.89 837.101 253.229 475.925 2419.64 443.458 1976.18 220.252 343.788 123.597 24.6814 98.9157 13379 381.263 38.3379 19.0135 342.925 60.2663 23.0625 282.658 43.872 238.786 15.389 12997.7 12911.7 12695 12623.1 216.702 32.9775 140.333
internal_count=268644 264485 236998 220505 215679 212616 16493 5674 3031 4826 10819 10796 865 27487 23113 3063 3961 4374 3356 2651 782 2643 22331 3265 19066 389 705 1018 174 844 4159 322 153 134 169 51 40 118 42 76 133 3837 3812 3749 3723 63 393 41
is_linear=0
shrinkage=0.1


Tree=9
num_leaves=47
num_cat=0
split_feature=4 101 71 132 76 72 70 134 51 110 45 50 115 114 72 4 72 90 46 126 78 121 129 112 85 25 127 73 58 128 99 13 29 125 30 28 52 44 0 32 49 110 47 2 32 76
split_gain=7210.93 845.118 1180.38 2640.12 1090.59 1029.25 871.112 861.126 755.65 737.278 720.22 670.958 297.324 184.136 180.23 192.564 162.474 160.939 125.257 93.8217 87.7872 56.9441 56.4286 47.9428 45.2532 18.2984 9.87438 38.0373 37.5631 23.762 5.78467 9.64565 14.542 0.327487 0.238659 0.200506 0.161065 0.158939 0.184038 0.160849 0.126395 0.0940457 0.0462896 0.024717 0.0175317 0.00786927
threshold=0.87027448415756237 -0.54008296132087696 -0.25014430284500117 1.0000000180025095e-35 -1.1279879212379453 -0.54082077741622914 -0.18027150630950925 1.0000000180025095e-35 1.1796278357505801 -1.2005715966224668 1.182719945907593 1.1860562562942507 -1.4475054740905759 -1.4023134112358091 -0.30661350488662714 -0.05131824687123298 -0.33996978402137751 -0.31848992407321924 1.2011687755584719 -2.9570591449737544 -0.51557368040084828 -1.7534282803535459 1.0000000180025095e-35 -1.2011067867279051 -0.8152913749217986 1.065598785877228 1.0000000180025095e-35 -0.91583415865898121 0.47407750785350805 1.0000000180025095e-35 -1.0663620233535764 1.2651281952857973 1.1074563860893252 -0.41532251238822931 0.9801175892353059 1.1901090741157534 1.1392343640327456 0.71433380246162426 0.6511574685573579 0.82556512951850902 1.2065964937210085 -1.2005715966224668 1.2202893495559695 0.68364194035530101 0.82177427411079418 -1.1400179266929624
decision_type=2 2 2 2 2 2 2 2 2 2 2 2 2 2 2 2 2 2 2 2 2 2 2 2 2 2 2 2 2 2 2 2 2 2 2 2 2 2 2 2 2 2 2 2 2 2
left_child=1 2 3 4 7 -6 23 -1 9 20 -11 -8 19 14 36 42 -14 21 -17 -10 -4 40 24 -5 -19 -23 27 30 29 33 34 -32 -33 -29 -2 -36 -3 38 43 44 -15 -38 -16 -28 -40 -45
right_child=26 13 8 6 5 -7 11 -9 12 10 -12 -13 16 17 15 18 -18 22 -20 -21 -22 25 -24 -25 -26 -27 37 28 -30 -31 31 32 -34 -35 35 -37 41 -39 39 -41 -42 -43 -44 45 -46 -47
leaf_value=0.059279225010932649 0.15309551095244969 -0.14479583466539489 0.16218851427936889 -0.074620100092500974 0.082964848674052127 0.034748601269354237 0.06462007966854269 0.0030892685092754526 0.24052939484301353 -0.024940430921294426 0.16865264724545992 -0.095782823284151983 -0.044101384218329265 -0.14844887918325869 -0.11847239204906024 -0.097459365074560267 0.11100063551793322 0.24382126092887935 0.15442876108906001 -0.11349990218478692 -0.10179958868195321 0.18655019161731809 0.17244973211638645 -0.11419751348206904 -0.11343292035873037 0.056779975476035797 0.15151012819645254 -0.11339155062151235 0.13220638625066977 0.16306861755582841 0.15647507863742055 -0.028616304426065182 0.12586076038256716 -0.14375767940733378 0.13995872996696829 0.14716362532969254 -0.109323019610561 0.14327253669896728 0.1472263268652387 0.15135467029242555 -0.12514075687659473 -0.11720330130905304 -0.11200396612314585 0.14975107468820129 0.14864551656639 0.14842162861616781
leaf_weight=31223.313430417329 52.163100957870483 1.8219962380826462 13.933339238166807 569.46596474573016 41838.266520883888 4951.1579230763018 960.63357000052929 2988.4472215175629 7.8477608859539023 207.31877578794956 2629.9515924155712 357.94821824878454 95.276599142700434 3.5801406204700452 19.847301013767719 22.967806316912174 231.97897531092167 3.5795359611511222 140.55048432201147 162.19423127546906 131.3275746293366 24.37099115550518 7.2055053710937491 661.75457335263491 374.41975201666355 19.6081922352314 69.68970775604248 7.7449489962309608 18.92781987786293 3.5092906951904288 23.379294157028198 9.7472942210733908 16.258529029786587 6.55943637341261 49.390799820423126 177.20860385894775 22.292458947747946 97.386660575866699 11805.286646366119 95.619967460632324 6.6445239782333374 47.231515951454639 24.997563626617193 141.14869832992554 87.691681146621704 65.040080308914185
leaf_count=113277 16 12 27 6267 88402 14352 3875 16108 17 613 1998 2215 492 17 153 105 607 1 208 1391 1612 17 2 6684 4858 43 21 100 19 1 7 45 26 33 20 55 318 35 3662 29 46 460 308 43 27 20
internal_value=0 0.0662715 0.0671636 0.0647868 0.0679407 0.0778627 -0.0354041 0.054371 0.124229 0.143257 0.154507 0.0210764 0.0101078 -0.0416907 0.0217327 0.0687042 0.0658445 -0.0820634 0.119049 -0.0971608 -0.076478 0.0792711 -0.104765 -0.0958921 -0.11005 0.128692 0.146818 0.130605 0.0341155 -0.0701105 0.141409 0.109864 0.0679609 -0.127316 0.146997 0.145593 -0.115446 0.147296 0.147328 0.14727 -0.133302 -0.114677 -0.114867 0.149882 0.147237 0.149332
internal_weight=0 87749.9 87030.8 83551 81001.2 46789.4 2549.8 34211.8 3479.83 2982.53 2837.27 1318.58 497.298 719.118 279.709 208.363 327.256 439.409 163.518 170.042 145.261 54.2038 385.205 1231.22 377.999 43.9792 12726.8 364.889 36.7415 17.8137 328.148 49.3851 26.0058 14.3044 278.763 226.599 71.346 12361.9 12264.5 11988.6 10.2247 69.524 44.8449 275.878 11893 206.189
internal_count=268644 264485 257937 251180 232139 102754 19041 129385 6757 4250 2611 6090 2507 6548 1564 774 1099 4984 313 1408 1639 123 4861 12951 4859 60 4159 322 153 134 169 78 71 133 91 75 790 3837 3802 3718 63 778 461 84 3689 63
is_linear=0
shrinkage=0.1


Tree=10
num_leaves=45
num_cat=0
split_feature=4 32 35 5 37 58 52 71 45 132 52 12 136 57 136 77 98 69 71 97 73 135 19 10 39 51 99 72 127 73 58 128 100 59 29 125 105 44 27 0 32 2 32 76
split_gain=7078.17 761.972 1030.11 1028.09 1125.5 809.05 804.182 785.347 1914.51 1606.53 1160.16 815.872 727.823 586.765 487.113 480.286 473.222 459.101 382.068 375.471 278.206 243.68 239.259 172.386 131.021 126.809 88.2244 14.8816 9.43775 32.9798 31.6408 20.6816 5.99492 12.5415 28.8182 0.223824 0.191582 0.157041 0.146795 0.117177 0.104792 0.0157455 0.0115653 0.00515015
threshold=0.87027448415756237 0.9581296741962434 0.91514223814010631 0.61663269996643078 0.93610480427742015 0.84312784671783458 1.0926202535629275 -0.43083016574382776 1.182719945907593 1.0000000180025095e-35 1.1531640291213991 0.76692619919776928 1.0000000180025095e-35 0.94545841217041027 1.0000000180025095e-35 -1.1155545711517332 -0.81439992785453785 -0.041258679702877991 -0.43179787695407862 -0.87082648277282704 -0.75720459222793568 1.0000000180025095e-35 1.2222108244895937 0.83418607711792003 1.0111661553382876 1.0914847850799563 -0.88638699054718006 -0.55532586574554432 1.0000000180025095e-35 -0.91583415865898121 0.47407750785350805 1.0000000180025095e-35 -1.0415228009223936 0.42966626584529882 1.104252874851227 -0.41532251238822931 -0.90571597218513478 0.71433380246162426 1.2579224705696108 0.6511574685573579 0.82556512951850902 0.69509238004684459 0.82177427411079418 -1.1407171487808225
decision_type=2 2 2 2 2 2 2 2 2 2 2 2 2 2 2 2 2 2 2 2 2 2 2 2 2 2 2 2 2 2 2 2 2 2 2 2 2 2 2 2 2 2 2 2
left_child=1 2 7 4 5 22 18 9 12 11 -10 -1 -9 19 -7 -8 24 -18 -6 20 -4 -21 -3 25 -15 26 -5 -11 29 32 31 35 36 34 -34 -31 -2 39 -38 41 42 -30 -41 -43
right_child=28 3 13 23 6 14 15 8 10 27 -12 -13 -14 16 -16 -17 17 -19 -20 21 -22 -23 -24 -25 -26 -27 -28 -29 37 30 -32 -33 33 -35 -36 -37 38 -39 -40 40 -42 43 -44 -45
leaf_value=0.091134272766446645 0.13518907881125461 -0.09567307576755088 0.078129053829803161 -0.050531921321632811 0.02351743323954085 0.12212294064910803 0.034434867629813792 -0.015707114393047034 0.11466275467639819 -0.11200966296031699 0.012825046456463887 0.059370812966742438 0.086674357795460011 -0.12971207955051972 0.26409075186361852 0.096165938241739815 0.11416182504603878 0.019757899435934582 -0.047033288555180221 0.13553762769699229 -0.13541895016749828 0.0050826338596308305 0.05065854517098161 0.5651756386162976 -0.004324478611315425 0.40071350726867783 -0.11797903161335324 -0.010098295498091582 0.14419470934660292 -0.1120352860532362 0.12228834334667682 0.15357887272950141 -0.13833853635994289 0.1422277745882356 0.11715205299632242 -0.13808811054861217 0.14634435072619623 0.13670043158270137 0.14053995569492486 0.14076100924854137 0.14418449011162973 0.14282207312379727 0.14194657808548278 0.14170743988443721
leaf_weight=9772.6506772860885 46.73253171145916 150.1821827031672 1102.9880093410611 645.86462013050914 1511.1077489629388 1125.3948214538395 5296.4287489578128 5443.5928283408284 3321.5355115383863 520.56839200854301 1686.7538757175207 46871.816104605794 795.87576833367348 110.35210813581944 307.78366490453482 1653.9251744225621 1329.3519952520728 841.07100534439087 1560.0909097082913 3879.3542255684733 64.578288935124874 148.67296738922596 436.46694487333298 4.3216342180967322 340.39472635835409 5.7396244704723349 277.16302971541882 14.734209291636942 72.29851245880127 7.0884080454707155 18.441935442388058 3.3610687255859366 6.126019902527335 35.009050995111465 15.805450469255446 6.166119948029519 62.148056030273438 92.132597252726555 145.76404500007629 11146.62188243866 90.595583200454712 127.35236549377441 82.893696308135986 61.45718240737915
leaf_count=18995 20 957 2794 5017 8081 2421 27054 21348 6566 6004 9345 123500 1666 507 1136 3361 1701 2251 11448 4465 283 339 1579 5 1158 25 2297 182 23 100 19 1 44 13 24 33 20 35 48 3662 29 41 27 20
internal_value=0 0.0585862 0.0623985 0.0361835 0.0440195 0.112119 0.0302941 0.0584699 0.0343151 0.0632214 0.0803646 0.0648508 -0.00264784 0.0967891 0.152611 0.0491246 0.0582156 0.0775789 -0.0123205 0.116249 0.0663177 0.130723 0.0131976 -0.0649389 -0.0350219 -0.0678709 -0.0707847 -0.109205 0.14033 0.124069 0.032113 -0.0679741 0.134415 0.105082 0.045787 -0.124155 0.140975 0.140813 0.142275 0.140845 0.140797 0.14294 0.14077 0.142459
internal_weight=0 89218.8 76244.3 12974.5 12041.4 2019.83 10021.6 68427.5 11247.8 57179.8 5008.29 56644.5 6239.47 7816.76 1433.18 6950.35 2621.17 2170.42 3071.2 5195.59 1167.57 4028.03 586.649 933.089 450.747 928.767 923.028 535.303 12020 346.643 35.0575 16.6156 311.585 56.9405 21.9315 13.2545 254.645 11673.4 207.912 11581.2 11320.1 261.108 11229.5 188.81
internal_count=268644 264485 201104 63381 56037 6093 49944 187606 38925 148681 15911 142495 23014 13498 3557 30415 5617 3952 19529 7881 3077 4804 2536 7344 1665 7339 7314 6186 4159 322 153 134 169 81 68 133 88 3837 68 3802 3718 84 3689 61
is_linear=0
shrinkage=0.1


Tree=11
num_leaves=44
num_cat=0
split_feature=4 111 77 130 106 31 56 31 131 31 105 32 31 131 72 76 75 115 30 130 73 115 113 76 128 32 47 71 106 81 25 127 26 121 25 31 31 31 33 62 32 33 73
split_gain=6907.62 704.045 776.282 741.288 1464.51 1193.3 1027.08 831.408 812.581 449.27 447.304 368.007 380.988 377.766 510.331 464.143 291.25 199.778 189.133 187.686 184.877 122.378 117.058 144.364 111.937 80.5693 50.3342 29.85 9.64598 23.0384 5.92149 5.46218 31.6583 24.5592 6.36946 0.816167 0.149854 0.0912316 0.0739279 0.0531692 0.0474964 0.0421324 0.0123107
threshold=0.87027448415756237 -0.87118104100227345 -1.2958569526672361 1.0000000180025095e-35 -0.86683598160743702 0.99805858731269848 1.0134896039962771 1.00304651260376 1.0000000180025095e-35 0.99463689327240001 -0.89747697114944447 0.95899295806884777 1.000491261482239 1.0000000180025095e-35 -0.65367734432220448 -1.2505864500999448 -1.1619469523429868 -0.87489449977874745 1.0591211915016177 1.0000000180025095e-35 -0.88370642066001881 -0.89372813701629628 -0.88393360376358021 -1.2297576665878294 1.0000000180025095e-35 0.96038681268692028 1.0945032835006716 -0.43345011770725245 -0.91779777407646168 -1.3612774014472959 1.0000000180025095e-35 1.0000000180025095e-35 1.1269599795341494 -0.3917959183454513 1.2413554787635805 0.99478986859321605 0.99270686507225048 0.91011446714401256 0.77468416094779979 1.0000000180025095e-35 0.96378690004348766 0.93530791997909557 -0.92543867230415333
decision_type=2 2 2 2 2 2 2 2 2 2 2 2 2 2 2 2 2 2 2 2 2 2 2 2 2 2 2 2 2 2 2 2 2 2 2 2 2 2 2 2 2 2 2
left_child=1 2 9 5 10 6 -4 -6 -7 19 -5 12 13 14 -3 -15 21 20 -18 24 -14 -11 23 25 -1 -13 -19 -25 29 -2 -30 32 33 -32 -34 36 -24 42 39 -33 -37 -21 -31
right_child=28 11 3 4 7 8 -8 -9 -10 16 -12 22 17 15 -16 -17 18 26 -20 41 -22 -23 35 27 -26 -27 -28 -29 30 37 31 38 34 -35 -36 40 -38 -39 -40 -41 -42 -43 -44
leaf_value=0.18591811608777312 0.13541127816694429 -0.068470346419957057 0.060031158561095768 0.16246653302513236 0.013702926388698187 0.035761805161768155 -0.0011361515884376432 0.087554162435405439 -0.024357205173801719 0.23922184942312535 0.096648749320607061 0.1345053456280712 0.073539371078723367 0.14778291194772677 0.062234850656971888 -0.078254446052250196 0.058655526870845159 -0.11794012611470375 -0.082379267288110875 -0.13016757332126008 -0.053343983388857742 -0.050212620223971577 -0.13037237439149627 0.085590350672329563 0.10007712019568749 -0.013278179749840994 0.071918157137691063 -0.12364677663559941 -0.19269858488909433 -0.12230409787435702 -0.13170666692566466 0.13672565532546541 0.090605654618034714 0.13226690335744229 0.13444134653174436 -0.11186023733582891 -0.12014332295192438 -0.14460013434183069 0.13862542834502509 0.13540468850724885 -0.1080358650324018 -0.11679849873349575 -0.10989625266298059
leaf_weight=798.10506220161915 11.429800987243654 474.39183917082846 49534.364515308291 1363.4786172956228 3889.3707232810557 18443.533439774066 2906.201962724328 2506.9877405464649 2560.3435409776866 105.82526137679815 4254.4805013090372 56.564102202653885 198.21264843642712 520.92122568935156 806.68421835452318 110.03131859004498 465.65825696289539 257.04240760207176 119.48409634456038 18.892877802252773 272.9964080452919 16.947925969958305 24.671805769205093 7.2987800985574713 187.62128692120314 106.06679617241025 14.765976063907145 103.54184878617525 0.55115549266338248 1.4298448897898204 8.4858651608228666 313.75616240501404 37.784461103379726 6.028185859322547 270.08234321326017 179.99968761205673 34.139412544667721 1.5908885821700094 73.478971481323242 10559.787792503834 39.622854392975569 2.6933420002460471 1.8142326008528455
leaf_count=516 4 2508 124427 1148 12265 67464 12837 5126 14184 173 6669 173 684 765 2631 1470 2290 1538 673 108 1501 75 162 54 304 876 67 884 3 12 58 108 56 4 148 2008 267 9 25 3697 614 24 35
internal_value=0 0.0519853 0.0536781 0.0523412 0.0753686 0.0485743 0.0566413 0.0426482 0.0284334 0.120287 0.112623 0.00596929 0.0214139 0.045028 0.0138338 0.108364 0.0592375 -0.039353 0.0298567 0.163192 2.91116e-05 0.199268 -0.0683301 -0.0218601 0.169579 0.0381219 -0.107626 -0.109869 0.134959 0.0580044 0.13507 0.135086 0.122257 -0.0220693 0.129061 -0.113972 -0.124434 -0.124985 0.135464 0.135443 -0.11117 -0.128499 -0.115365
internal_weight=0 90380.9 87174 85458.8 12014.3 73444.4 52440.6 6396.36 21003.9 1715.23 5617.96 3206.95 2655.05 1912.03 1281.08 630.953 707.916 743.017 585.142 1007.31 471.209 122.773 551.905 273.472 985.726 162.631 271.808 110.841 11286.2 16.2648 11270 11269.4 322.381 14.5141 307.867 278.434 58.8112 4.83497 10947 10873.5 219.623 21.5862 3.24408
internal_count=268644 264485 248283 244120 25208 218912 137264 17391 81648 4163 7817 16202 11164 7374 5139 2235 3211 3790 2963 952 2185 248 5038 1987 820 1049 1605 938 4159 60 4099 4096 266 62 204 3051 429 56 3830 3805 2622 132 47
is_linear=0
shrinkage=0.1


Tree=12
num_leaves=43
num_cat=0
split_feature=4 30 113 53 27 103 58 107 129 130 107 52 30 23 31 73 86 103 71 0 99 72 19 120 136 59 77 114 131 32 60 8 74 20 18 73 40 32 13 82 74 7
split_gain=6700.09 687.773 689.922 1204.63 1219.27 1150.54 1091.6 883.682 1331.18 1262.83 863.673 399.36 369.818 294.005 288.215 253.807 237.431 116.035 178.151 84.6379 54.241 120.449 48.0505 38.4566 33.9373 27.2214 9.51178 56.941 4.96145 4.19814 36.6722 34.146 3.63669 0.569183 0.449467 0.245753 0.182043 0.171997 0.844705 0.0665927 0.0591356 0.0100368
threshold=0.87027448415756237 1.1032462716102602 -1.035932660102844 1.0024639368057253 1.3440269231796267 -0.87816691398620594 0.91440615057945263 -0.89440974593162526 1.0000000180025095e-35 1.0000000180025095e-35 -0.98018577694892872 0.9551195800304414 1.0532764792442324 1.4898082017898562 0.85047012567520153 -0.95427727699279774 -1.088947534561157 -0.92845445871353138 -0.62318125367164601 0.48534609377384191 -0.78005468845367421 -0.50944706797599781 1.1898555159568789 -0.88798007369041432 1.0000000180025095e-35 0.66834956407547008 -1.1358609795570371 -0.95740827918052662 1.0000000180025095e-35 0.82556512951850902 0.41479994356632238 1.1521226763725283 -1.0454533100128172 1.5114792585372927 0.92815917730331432 -0.90896549820899952 0.67685136198997509 0.81797435879707348 1.2119413614273074 -1.2915587425231931 -0.96937972307205189 0.97500866651535045
decision_type=2 2 2 2 2 2 2 2 2 2 2 2 2 2 2 2 2 2 2 2 2 2 2 2 2 2 2 2 2 2 2 2 2 2 2 2 2 2 2 2 2 2
left_child=1 2 3 4 12 14 7 9 -9 -4 -7 -6 -1 16 -5 23 24 18 -17 -19 21 -8 -22 32 28 -18 29 33 -3 34 31 -31 -15 -28 -2 -33 -32 39 -39 -36 -35 -42
right_child=26 13 6 5 11 10 20 8 -10 -11 -12 -13 -14 15 -16 17 25 19 -20 -21 22 -23 -24 -25 -26 -27 27 -29 -30 30 36 35 -34 40 37 -37 -38 38 -40 -41 41 -43
leaf_value=-0.096164420833671396 -0.10930746633760013 -0.17059661703892118 0.002700582731358109 0.05018300227022704 0.022131583742049713 0.024187896423554275 -0.07493240189362925 0.051368122070928612 -0.01826571761538277 0.10027136129638781 0.066034285218713643 0.11239985173307619 -0.0090705629423695044 -0.13342859601900334 0.12286802727896098 0.098325761595853822 0.030606393826391538 0.034363267917112722 -0.14358452661218152 0.14564594726375144 -0.12447034561484682 0.19509450745041035 0.2376610280590534 0.17027585463868164 0.099977255064286105 0.17669109872800401 -0.1836731474123397 0.13222287357537954 -0.1169327113514866 0.13435516960693999 0.1306264585233394 -0.15345251132930041 -0.1983384580899564 -0.12734154007788634 0.13093793854302119 -0.12267759878592509 0.13870319468807452 0.13126957634419426 0.1159762313851686 0.13404532576409742 -0.11757112006814639 -0.10639327093364347
leaf_weight=588.66012752056122 0.077899053692816689 58.740524224936962 10314.933003909886 643.69716370850801 850.97534574568272 6584.0773662216961 379.69899206981063 37685.942849427462 2961.0434643626213 1522.2597002238035 19657.49859989062 1155.7620509751141 2838.2836529836059 28.932918839156628 3577.5882630832493 953.81554741412401 19.8065105676651 73.332321144640446 31.446175172924995 1005.0320519432425 289.6379895247519 17.270535692572594 3.7110358178615561 4.0460566580295554 5.5765026360750189 35.831275470554829 1.6757294237613667 53.585799373686314 24.378477767109871 8.3617677688598633 56.524379789829254 4.7745058536529541 12.301296472549437 4.4480833187699291 10062.029515925795 5.6837622970342636 55.11866021156311 176.89352512359619 45.381501168012619 69.442058086395264 1.2051517982035886 2.4090847745537758
leaf_count=3410 1 262 30938 1239 2348 24002 2334 119352 17941 2052 40507 1703 8103 169 5116 1218 38 191 113 902 2201 56 2 3 10 20 8 27 204 3 22 26 51 37 3778 47 19 66 32 25 12 56
internal_value=0 0.0462613 0.044881 0.0555927 0.0122179 0.0633295 0.0376499 0.0392931 0.0462955 0.0152482 0.0555349 0.0741208 -0.024031 0.100824 0.111784 0.110274 -0.0372525 0.115412 0.0906048 0.138078 -0.0872811 -0.0631846 -0.119889 -0.123925 -0.138835 0.124686 0.130439 0.0917988 -0.154857 0.130672 0.112846 -0.016285 -0.152793 -0.130644 0.130897 -0.136727 0.134614 0.130899 0.128147 0.130959 -0.119622 -0.11012
internal_weight=0 91324.3 89071 35896.5 5433.68 30462.9 53174.5 52484.2 40647 11837.2 26241.6 2006.74 3426.94 2253.24 4221.29 2108.91 144.333 2063.63 985.262 1078.36 690.319 396.97 293.349 45.2803 88.6955 55.6378 10547.6 63.3238 83.119 10484.3 130.463 18.82 41.2342 9.73805 10353.8 10.4583 111.643 10353.7 222.275 10131.5 8.06232 3.61424
internal_count=268644 264485 261304 86428 15564 70864 174876 170283 137293 32990 64509 4051 11513 3181 6355 2647 534 2424 1331 1093 4593 2390 2203 223 476 58 4159 140 466 4019 117 76 220 113 3902 73 41 3901 98 3803 105 68
is_linear=0
shrinkage=0.1


Tree=13
num_leaves=48
num_cat=0
split_feature=4 92 45 132 112 57 31 52 109 134 108 124 110 4 107 71 126 123 36 70 112 85 106 7 113 77 127 73 56 38 13 32 50 102 87 125 44 110 26 0 33 60 132 2 76 64 28
split_gain=6466.94 618.276 842.588 1277.34 850.813 836.529 868.692 710.163 938.059 599.893 560.181 393.443 382.075 338.073 322.355 254.636 85.1788 164.269 77.1402 41.9672 35.3034 34.7849 26.7649 16.2987 10.1779 29.7121 8.77908 27.4151 34.5254 25.1485 7.01248 5.38708 1.83782 1.02052 0.699413 0.226148 0.150125 0.122199 0.0444833 0.0356535 0.0339409 0.040469 0.0123975 0.00497855 0.00180432 0.000622346 0.000158573
threshold=0.87027448415756237 -0.26930944621562952 1.1891027092933657 1.0000000180025095e-35 -1.2955103516578672 0.95270478725433361 0.99600443243980419 1.1511455178260805 -1.1159329414367674 1.0000000180025095e-35 -1.0660259723663328 -2.1153569221496578 -1.2005715966224668 0.41917259991168981 -0.97081986069679249 -0.25715193152427668 -3.0332211256027217 -2.247121930122375 0.95227593183517467 -0.05633368901908397 -1.2924923896789549 -0.8152913749217986 -0.88194894790649403 0.09153407067060472 -1.3675118088722227 -0.36712154746055597 1.0000000180025095e-35 -0.95427727699279774 0.56125479936599743 0.62531152367591869 1.3452610969543459 0.82556512951850902 1.1952822804450991 -0.57628116011619557 -1.4025661945343015 -0.41532251238822931 0.71433380246162426 -1.2005715966224668 1.2840896844863894 0.6511574685573579 0.76935198903083812 0.50844296813011181 1.0000000180025095e-35 0.68364194035530101 -1.1400179266929624 0.34408101439476019 1.2106031775474551
decision_type=2 2 2 2 2 2 2 2 2 2 2 2 2 2 2 2 2 2 2 2 2 2 2 2 2 2 2 2 2 2 2 2 2 2 2 2 2 2 2 2 2 2 2 2 2 2 2
left_child=1 2 3 5 10 6 -1 12 11 -10 -5 -9 18 -7 -6 -14 24 22 -4 21 -21 -19 23 -18 25 -3 27 34 29 30 -29 -24 33 -26 38 -31 39 -27 -2 43 45 -42 -34 -28 -45 -41 -40
right_child=26 16 7 4 14 13 -8 8 9 -11 -12 -13 15 -15 -16 -17 17 19 -20 20 -22 -23 31 -25 32 37 36 28 -30 35 -32 -33 42 -35 -36 -37 -38 -39 46 40 41 -43 -44 44 -46 -47 -48
leaf_value=0.052752620154865718 0.13058390532680988 0.18879538203566734 -0.11215462362328142 -0.10981146377939091 -0.037944443597869137 0.019160455118176919 0.031779725107440773 -0.11603099332842062 0.079579600505419706 -0.1716293759227841 0.12923673570377017 0.15445520431735019 0.063249158774324396 -0.044306677605593786 -0.12896774242805892 0.13676598896921899 -0.15537202145645468 0.20568911078214147 0.15854164577230906 -0.11863483581034079 0.25703240598616167 -0.10531206276843395 0.1816669299481366 0.094249425934108788 -0.16655726845630903 -0.10971145806014831 0.12928435254407858 0.13479870865287133 0.11781698799612078 -0.11743824669914105 -0.0095449832489332854 0.11535045440268368 -0.11414414979902264 -0.12209776117186495 0.11457939432445111 -0.14338701102795814 0.12270129721736922 -0.13164347322603645 0.12698983004322123 0.12713221563183949 0.13072544604357886 0.12717552899820211 -0.10651324577014371 0.12840430417087689 0.12768059366708395 0.12677584083807528 0.12721151855306775
leaf_weight=44563.559141635895 51.221675872802734 4.3594538867473593 86.76717896386981 127.25570446252823 1191.6851747110486 2065.2940218821168 35467.057276021689 429.06314714252949 2345.2635846324265 99.077081099152565 426.83988391235471 61.482161775231361 601.25410537794232 1413.847841180861 577.67493802681565 2177.0271843522787 5.2676190175116044 3.6961913108825675 11.980904310941694 4.1027524694800377 6.4097170382738096 133.19066993147135 21.884401872754097 5.1957130059599876 5.3831802159547797 4.4325046800076953 54.402965545654297 6.6702908463776129 33.018421724438667 6.3199688717722893 6.7936533819884062 27.822031825780869 2.1695643365383139 126.16133048385382 48.653061918914318 7.1677830219268781 75.346067130565643 5.951500102877616 64.380955934524536 9058.4995081424713 57.933181285858154 72.054553508758545 113.9690324626863 109.60719418525696 50.240170240402222 49.268990039825439 64.68278980255127
leaf_count=95772 20 8 1018 1655 9358 4787 120458 3365 4922 414 703 57 1513 7951 5404 1581 47 1 7 39 16 2235 26 15 23 66 21 6 37 67 66 23 21 892 35 39 35 43 26 3647 22 29 2065 43 20 20 26
internal_value=0 0.0412449 0.0418316 0.0393365 -0.0337988 0.0413713 0.0434581 0.0786802 0.0440706 0.0693973 0.074336 -0.0821298 0.113986 -0.00663121 -0.0676625 0.120856 -0.0731571 -0.0252896 -0.0793116 -0.0821275 0.110419 -0.0969145 0.113948 -0.031419 -0.111019 -0.0303001 0.126627 0.109453 0.0492655 -0.0347166 0.0619656 0.144548 -0.115823 -0.123917 0.125219 -0.131228 0.127147 -0.122282 0.12809 0.127183 0.127153 0.128758 -0.106656 0.128458 0.128177 0.12713 0.127101
internal_weight=0 92115.1 91645.1 85833.2 2323.46 83509.8 80030.6 5811.92 2934.89 2444.34 554.096 490.545 2877.03 3479.14 1769.36 2778.28 469.996 207.569 98.7481 147.399 10.5125 136.887 60.1698 10.4633 262.427 14.7435 9816.26 288.909 59.9701 26.9517 13.4639 49.7064 247.683 131.545 228.938 13.4878 9527.35 10.384 180.285 9452.01 9237.76 129.988 116.139 214.25 159.847 9107.77 129.064
internal_count=268644 264485 258965 246088 17120 228968 216230 12877 8758 5336 2358 3422 4119 12738 14762 3094 5520 2402 1025 2291 55 2236 111 62 3118 117 4159 322 215 178 72 49 3001 915 107 106 3837 109 72 3802 3718 51 2086 84 63 3667 52
is_linear=0
shrinkage=0.1


Tree=14
num_leaves=44
num_cat=0
split_feature=125 76 107 129 105 30 72 102 47 134 123 32 118 30 104 30 131 130 62 104 124 55 66 52 74 99 134 21 107 75 31 34 81 113 80 4 7 33 36 32 110 7 86
split_gain=6200.9 631.898 702.415 2361.33 745.824 668.49 642.06 897.448 679.493 616.755 659.562 692.067 636.019 613.686 562.909 1313.72 554.868 542.798 479.829 438.043 405.267 377.235 354.299 300.895 248.111 235.542 101.765 90.8592 69.7491 197.976 32.8715 25.8702 24.3054 23.6862 73.9749 35.4841 1.99484 1.67244 3.25415 0.229518 0.0741306 0.0417035 0.00053612
threshold=-0.41532251238822931 -1.1279879212379453 -0.99036371707916249 1.0000000180025095e-35 -0.79459398984909047 1.0378029942512514 -0.33996978402137751 -0.62846076488494862 1.1940898299217226 1.0000000180025095e-35 -1.0954217314720152 0.95307329297065746 -0.9440709352493285 1.1011668443679812 -0.85098329186439503 1.0657006502151491 1.0000000180025095e-35 1.0000000180025095e-35 0.51398864388465892 -0.82426637411117543 -1.3817752003669737 0.96014919877052318 0.31742627918720251 1.22276908159256 -1.0424612760543821 -0.75539633631706227 1.0000000180025095e-35 1.0356156229972842 -0.86628258228301991 -1.1190447807312009 1.0057910680770876 0.89050439000129711 -0.67050582170486439 -0.89253628253936756 -1.1316677927970884 0.87027448415756237 0.64625173807144176 0.77468416094779979 0.71012189984321605 0.82177427411079418 -0.65765836834907521 -0.25716073811054224 -0.77270901203155506
decision_type=2 2 2 2 2 2 2 2 2 2 2 2 2 2 2 2 2 2 2 2 2 2 2 2 2 2 2 2 2 2 2 2 2 2 2 2 2 2 2 2 2 2 2
left_child=1 9 3 5 6 17 7 -4 -8 10 11 12 -1 16 28 19 -12 -3 -7 -16 -13 -17 26 -24 -15 33 -6 -5 30 -30 -11 -29 36 34 40 -35 41 39 -39 -37 -2 42 -27
right_child=25 2 4 27 22 18 8 -9 -10 14 13 20 -14 24 15 21 -18 -19 -20 -21 -22 -23 23 -25 -26 32 -28 31 29 -31 -32 -33 -34 35 -36 37 -38 38 -40 -41 -42 -43 -44
leaf_value=0.036302809039985222 -0.19556884794134255 -0.056747237103375592 0.048577285319546956 -0.1582917012891947 0.12571232731074664 -0.0048881897693991289 -0.1408515159315486 -0.14394121657863143 0.11573303045976834 -0.11986815623092328 -0.05034278032892564 0.034501471890576479 0.077762244680896708 -0.078047751802628573 -0.061933926408375264 0.16522436042344735 0.033764661913324244 0.15641036889453469 0.063014121002873597 0.03609593293723546 -0.0027376609990451715 -0.10704733044481568 -0.071178945177376954 0.092534859819237369 0.11373411889193163 -0.10595514730531067 -0.16090063979644431 0.20968882906921704 -0.11867198494282323 0.35822775475102109 -0.031923844661501243 0.17186224238353598 0.14066676302891498 0.19381677021538921 0.11983074908392158 0.12392314170408172 -0.1693228624471913 0.078183560221410486 0.12484965409420939 0.11943844232736707 -0.17842511031977731 -0.12851255318660423 -0.10358413217824283
leaf_weight=12831.824894499034 4.865015432238577 2265.4471340812743 44046.939318438992 7.5942707508802405 159.42801682651043 2844.1256794445217 108.59883252903819 243.47724310308695 2080.1713757328689 502.78149120509624 2362.3143165968359 6238.6458744592965 5199.5117877796292 77.819444745779037 1468.1171203404665 520.62456376850605 1174.2654501721263 126.1142220646143 1641.2081069126725 661.08339027315378 5497.7769783474505 56.399572782218456 916.27646822854877 127.94084510207176 506.62636914104223 0.97682289779186149 13.43193197250366 337.13695952296257 29.657778225839138 12.321135580539702 46.425952032208443 389.90559580922127 4.1650938689708701 72.861087083816528 35.691145587712526 8887.1695059984922 5.2709898054599753 23.646194741129875 40.598580852150917 115.60141728818417 5.2376903891563416 0.68534588813781638 40.218339875340462
leaf_count=33241 20 14498 96030 33 216 7534 432 1454 2504 3580 8773 26975 12055 432 7807 1414 3431 62 3083 2508 28007 303 7349 199 589 22 58 120 229 30 237 133 3 20 39 3859 23 36 18 58 22 4 1204
internal_value=0 0.0368289 0.0436063 0.0153959 0.0481082 -0.00280877 0.0501317 0.047519 0.103002 0.0267487 0.0307659 0.0359566 0.048258 -0.00672884 -0.0145377 0.00477366 -0.0224162 -0.0455068 0.0199576 -0.0314972 0.0170573 0.138612 -0.029168 -0.0511202 0.0881982 0.122756 0.103441 0.185809 -0.102938 0.0213018 -0.112434 0.189403 -0.09089 0.12395 0.0522104 0.124309 -0.111344 0.123751 0.107674 0.123866 -0.186681 -0.104047 -0.10364
internal_weight=0 92494 55307.8 7611.53 47696.3 6876.9 46479.2 44290.4 2188.77 37186.2 33888.8 29767.8 18031.3 4121.03 3297.41 2706.22 3536.58 2391.56 4485.33 2129.2 11736.4 577.024 1217.08 1044.22 584.446 9236.99 172.86 734.637 591.186 41.9789 549.207 727.043 51.3166 9185.67 45.7939 9139.88 47.1515 9067.02 64.2448 9002.77 10.1027 41.8805 41.1952
internal_count=268644 263316 133705 25463 108242 25177 100420 97484 2936 129611 113503 100278 45296 13225 16108 12032 12204 14560 10617 10315 54982 1717 7822 7548 1021 5328 274 286 4076 259 3817 253 1256 4072 81 3991 1253 3971 54 3917 42 1230 1226
is_linear=0
shrinkage=0.1


Tree=15
num_leaves=47
num_cat=0
split_feature=3 31 30 52 29 128 70 38 57 97 131 103 29 4 133 33 74 130 73 2 94 105 23 114 103 106 75 32 73 114 127 26 46 125 30 30 106 78 73 61 32 30 33 0 27 78
split_gain=5908.34 553.589 645.531 523.603 1768.98 1055.71 689.84 1449.84 518.311 457.824 415.982 208.349 223.409 173.492 172.911 203.135 163.94 162.066 130.401 126.936 161.839 61.6214 56.4088 35.2627 24.186 12.5051 30.4403 11.5456 43.2094 103.974 4.73152 21.732 40.396 2.79926 13.2117 0.61809 0.380222 0.346522 0.220713 0.205411 0.0853347 0.0302738 0.0264715 0.0130217 0.0110462 0.00877572
threshold=0.83754843473434459 1.0127750039100649 1.1011668443679812 1.0674996972084048 1.1197057962417605 1.0000000180025095e-35 -0.27120375633239741 0.97282835841178905 0.92653635144233715 -0.97918608784675587 1.0000000180025095e-35 -0.9187505543231963 1.2228714823722842 0.65462514758110057 1.0000000180025095e-35 0.93756285309791576 -0.97023305296897877 1.0000000180025095e-35 -0.95427727699279774 0.45667472481727606 -0.92302376031875599 -0.91515108942985524 1.4856682419776919 -0.93475082516670216 -0.7817193567752837 -0.91779777407646168 -1.0584835410118101 0.9577850103378297 -0.89515140652656544 -0.9253263771533965 1.0000000180025095e-35 1.1733995079994204 0.64868164062500011 -0.41532251238822931 1.0349417924880984 1.1032462716102602 -0.94470652937889088 -1.2146015167236326 -0.90723204612731922 0.51286843419075023 0.96398997306823742 1.0451585650444033 0.77468416094779979 0.6511574685573579 1.2419238090515139 -1.2134786844253538
decision_type=2 2 2 2 2 2 2 2 2 2 2 2 2 2 2 2 2 2 2 2 2 2 2 2 2 2 2 2 2 2 2 2 2 2 2 2 2 2 2 2 2 2 2 2 2 2
left_child=1 2 3 4 9 -6 8 -8 -5 -1 14 12 13 -4 15 16 -3 22 -14 20 -16 -21 -13 -19 -17 26 -2 35 29 -29 31 32 38 34 -33 37 -28 -12 -27 42 -30 -38 43 -32 -35 -37
right_child=25 10 11 6 5 -7 7 -9 -10 -11 27 17 18 -15 19 24 -18 23 -20 21 -22 -23 -24 -25 -26 30 36 28 40 -31 39 33 -34 44 -36 45 41 -39 -40 -41 -42 -43 -44 -45 -46 -47
leaf_value=0.056157133580529123 0.13284487031719569 -0.021654373226195536 0.11320304737388764 0.058678946366999857 0.035036227653083313 -0.083863736914804088 -0.012064612660790933 0.042193572324942592 0.0070765008148917022 -0.038590422140433955 -0.13575889629220791 0.0047360156233141474 -0.089375837799872862 -0.027061428611814681 0.13905859400268031 -0.1344119234205938 0.073132594809513438 -0.21259737147486613 0.090952748044404175 -0.16978496231745832 -0.11844467959688043 -0.033770270891096583 0.13838205649753474 0.078984106956428352 0.051934415035684856 -0.15239836880235 -0.16621324801300363 0.4062897663337639 -0.11649792214691407 -0.11612328697054389 0.12200715999717926 -0.012651733610824532 0.12266931490354577 0.12297823705145119 0.13423811442292521 -0.11639066807547774 -0.10551493731890348 -0.1251261732454817 -0.1214271684212096 0.12798140363149188 -0.11175306641793355 -0.12345356715050659 0.12335936527630127 0.12111275652579052 0.12118032297858122 -0.1116375008452925
leaf_weight=569.43306628987193 12.00607752799988 279.86584517359734 115.61898892372847 18778.546076253057 34659.731366863474 763.20530914515257 6485.1518066115677 20468.889350842685 2171.5709669291973 4885.4889191333205 157.31023345142603 32.966508567333221 41.385744899511337 371.60930508375168 52.441541098058224 81.998411700129509 524.3111801110208 16.79632851481438 1291.4028738886118 104.51801304519176 45.65628781914711 48.889443710446358 751.79741789400578 5.5075995922088614 7.611554540693759 3.4260625243186951 2.5206792131066331 5.616061486303809 78.53598065674305 11.844970636069773 166.21324491500854 8.9395767748355883 15.577687978744505 44.31043267250061 19.435487510636449 14.391903787851335 1.5257177166640743 38.068146757781506 7.0068166553974169 44.203487634658813 73.261332642287016 2.4538793303072453 53.67626166343689 7881.7921431064606 149.35561203956604 5.320253610610961
leaf_count=1900 5 1020 125 41752 88762 3032 25785 65179 5244 22798 828 92 180 1004 77 530 1029 70 1502 443 200 175 717 9 27 20 16 14 666 105 76 62 7 20 14 120 38 241 62 20 803 21 24 3701 70 59
internal_value=0 0.0330717 0.0340701 0.0326245 0.0243111 0.0324745 0.0397186 0.029139 0.0533301 -0.0286998 -0.0265899 0.0829229 0.0641697 0.00622325 0.00361983 0.0242313 0.0401453 0.125213 0.0853532 -0.0696283 0.0192125 -0.126438 0.132768 -0.140596 -0.118583 0.120588 0.0384759 -0.11661 -0.0970716 0.0519025 0.120769 0.107163 0.0206824 0.117294 0.0879604 -0.131984 -0.135824 -0.133687 -0.131598 0.121183 -0.114208 -0.116576 0.121146 0.121131 0.121592 -0.115108
internal_weight=0 92938.7 91409.1 88782 40877.9 35422.9 47904.2 26954 20950.1 5454.92 1529.64 2627.08 1820.02 487.228 1145.29 893.787 804.177 807.068 1332.79 251.505 98.0978 153.407 784.764 22.3039 89.61 8412.44 18.5064 384.349 169.258 17.461 8393.94 248.052 26.0106 222.041 28.3751 215.091 6.50028 195.378 10.4329 8145.89 151.797 3.9796 8101.68 8048.01 193.666 19.7122
internal_count=268644 264488 258151 254452 116492 91794 137960 90964 46996 24698 6337 3699 2811 1129 3501 2606 2049 888 1682 895 277 618 809 79 557 4156 80 2836 1588 119 4076 255 89 166 76 1248 75 1069 82 3821 1469 59 3801 3777 90 179
is_linear=0
shrinkage=0.1


Tree=16
num_leaves=47
num_cat=0
split_feature=4 32 38 71 132 128 112 92 110 114 128 133 93 52 40 34 62 58 36 123 129 62 129 75 0 108 62 128 18 125 94 33 30 37 72 22 33 36 80 32 63 26 53 99 29 73
split_gain=5617.37 537.308 543.91 1601.25 1020.94 736.59 440.16 417.584 411.758 458.186 708.334 419.188 251.872 246.363 265.73 215.339 200.107 194.409 189.147 143.492 134.164 129.769 122.668 121.953 244.686 118.687 99.8538 45.4479 35.21 26.0929 27.1176 18.5924 12.9714 17.9605 6.24055 4.45678 1.66518 3.2151 0.32783 0.251689 0.701703 0.212584 0.0665323 0.058103 0.0387138 0.00305048
threshold=0.87027448415756237 0.96482154726982128 0.9752195179462434 -0.42071409523487086 1.0000000180025095e-35 1.0000000180025095e-35 -1.3019793629646299 -0.68114933371543873 -1.197062015533447 -1.0537040233612058 1.0000000180025095e-35 1.0000000180025095e-35 -0.64904215931892384 1.0936853289604189 1.0261397361755373 0.92255106568336498 0.71361073851585399 0.85690495371818554 0.89490640163421642 -1.3621988892555235 1.0000000180025095e-35 0.62427693605422985 1.0000000180025095e-35 -1.0898778438568113 0.37618978321552282 -0.89395579695701588 0.59333717823028576 1.0000000180025095e-35 1.0144956707954409 -0.41532251238822931 -1.0128908157348631 0.88771167397499096 1.0349417924880984 0.5943889617919923 -0.55532586574554432 0.9317210614681245 0.77468416094779979 0.71012189984321605 -1.2026724219322202 0.82177427411079418 0.24756239354610446 1.1990169882774355 0.80446740984916698 -0.9133399724960326 1.18297815322876 -0.93305087089538563
decision_type=2 2 2 2 2 2 2 2 2 2 2 2 2 2 2 2 2 2 2 2 2 2 2 2 2 2 2 2 2 2 2 2 2 2 2 2 2 2 2 2 2 2 2 2 2 2
left_child=1 2 3 4 5 -1 18 -8 12 11 -11 -10 31 15 20 17 21 25 -5 -19 26 -16 -14 24 -17 -3 -15 -25 -18 30 32 -4 33 -2 -6 -31 39 -38 -22 43 -41 -35 44 -37 45 -32
right_child=29 13 8 6 34 -7 7 -9 9 10 -12 -13 22 14 16 23 28 19 -20 -21 38 -23 -24 27 -26 -27 -28 -29 -30 35 42 -33 -34 41 -36 36 37 -39 -40 40 -42 -43 -44 -45 -46 -47
leaf_value=0.034760672720964107 0.16070426393024514 -0.099365928880874532 0.22900206120725472 -0.040115506293578879 -0.11089074349466128 -0.017299130631899261 -0.015505126600003062 -0.080471659393999154 0.065783764878592971 -0.00076395361581079401 0.069244471042726283 -0.014049681369471193 -0.08578256127270012 -0.1455098471381106 -0.070110503478630806 0.48251524116517469 0.022310457208516168 0.19243291706026255 0.12403232855694815 0.021210836122351921 -0.11019748759629414 0.0030016300097251833 0.12239810091181194 -0.11745530993550091 -0.030590245237331865 0.015235611081908624 0.13798411801787114 -0.060137293931545904 0.16350362778191996 -0.12559392309083039 -0.11261986695203313 0.11007746725874108 0.13089909468079883 -0.11114287773529129 -0.065775106864618349 0.11873075833151613 0.070732370898415484 0.12013129052327183 -0.14557724651361953 0.10071176441460308 0.11911095714866336 -0.15242667700882742 -0.13494972176092099 0.11500930016015372 -0.12343764590386008 -0.10561545458877397
leaf_weight=62933.552771776915 3.602166876196863 174.70394226163626 20.618357360363007 96.079420138150454 488.05440598726273 2840.4904727675021 3222.2503055781126 1427.7788184992969 10817.065093651414 3653.2148244194686 2391.2073528580368 700.29848679900169 394.89317259192467 13.079096667468546 277.15212075412273 9.8805660977959615 22.326338611543179 74.166178714483976 260.60413091629744 143.92882835119963 23.091114096343521 1956.9030347876251 30.489432722330093 385.01693617925048 156.51658582314849 187.20742913708091 248.22574400156736 215.91064199060202 84.539443586021662 0.74796266853809257 0.86616716906428193 36.273200765252113 18.243203639984131 3.8698846884071827 32.714938040822744 7537.8078219741583 21.278934627771378 34.596106767654419 2.9540764391422263 29.498398676514626 69.715729951858521 1.8405188545584676 2.4784776866436005 42.18870684504509 3.0977903958410025 2.2035240456461906
leaf_count=155538 2 1244 11 674 6123 10243 11076 8665 20848 13651 6207 1650 4315 80 1638 28 75 130 675 776 290 11367 35 3302 1549 1251 584 1948 41 6 11 38 10 49 419 3835 36 17 14 23 35 11 14 23 30 57
internal_value=0 0.0296144 0.031215 0.0272899 0.0314082 0.0325124 -0.027241 -0.0354529 0.0467249 0.0492282 0.0269318 0.0609296 -0.0444324 -0.00635697 0.0114664 -0.0411253 0.000326043 0.00485764 0.079816 0.0794372 0.102222 -0.00606851 -0.0708611 -0.075883 -0.00012234 -0.0400855 0.123794 -0.0968612 0.134006 0.118099 0.0333995 0.153178 0.0818793 -0.0141498 -0.108057 0.118496 0.118519 0.101319 -0.11421 0.118645 0.11364 -0.124449 -0.121112 0.11871 -0.115551 -0.107592
internal_weight=0 93321.2 89345.6 71301.5 66294.8 65774 5006.71 4650.03 18044.1 17561.8 6044.42 11517.4 482.274 3975.6 2628.27 1347.33 2340.92 580.006 356.684 218.095 287.35 2234.06 425.383 767.325 166.397 361.911 261.305 600.928 106.866 7772.04 36.2017 56.8916 27.5558 9.31257 520.769 7735.83 7735.09 55.875 26.0452 7679.21 99.2141 5.7104 8.64596 7580 6.16748 3.06969
internal_count=268644 264485 240168 193413 172323 165781 21090 19741 46755 42356 19858 22498 4399 24317 14089 10228 13121 3401 1349 906 968 13005 4350 6827 1577 2495 664 5250 116 4159 184 49 72 62 6542 3975 3969 53 304 3916 58 60 112 3858 98 68
is_linear=0
shrinkage=0.1


Tree=17
num_leaves=47
num_cat=0
split_feature=3 76 108 130 79 95 105 30 107 129 113 132 48 120 32 21 129 36 46 47 135 113 109 135 53 113 22 115 51 112 106 125 105 30 128 33 15 58 5 31 32 63 98 30 74 91
split_gain=5310.78 521.103 758.495 1014.87 829.009 643.75 614.466 522.246 515.288 1867.34 560.536 958.178 756.076 511.208 450.327 483.146 434.443 409.32 316.208 284.345 273.439 462.829 285.267 231.022 218.859 98.0028 79.2392 68.2948 54.2331 40.8276 40.1496 25.8517 26.652 13.2405 15.9249 2.06586 4.63636 2.05112 0.424982 0.320507 0.300816 0.771996 0.0443419 0.0399311 0.0108546 0.00944841
threshold=0.83754843473434459 -1.1430221796035764 -0.88816258311271656 1.0000000180025095e-35 -1.2667182087898252 -0.96341934800147999 -0.78961417078971852 1.1032462716102602 -0.99036371707916249 1.0000000180025095e-35 -1.3391795158386228 1.0000000180025095e-35 1.2226392030715945 -1.5260799527168272 0.95307329297065746 1.2729615569114687 1.0000000180025095e-35 0.95515325665473949 1.2432975172996523 1.0493413805961611 1.0000000180025095e-35 -0.93115800619125355 -0.90426945686340321 1.0000000180025095e-35 0.93870407342910778 -1.3027243018150327 1.0710945129394533 -1.4524381160736082 1.1986119747161867 -0.95293110609054554 -0.81576198339462269 -0.41532251238822931 -0.92710372805595387 1.0349417924880984 1.0000000180025095e-35 0.77468416094779979 1.1332053542137148 0.95276314020156871 0.90815448760986339 0.92552354931831371 0.82177427411079418 0.24756239354610446 -0.9656962752342223 0.98453959822654735 -0.96937972307205189 -1.2301316857337949
decision_type=2 2 2 2 2 2 2 2 2 2 2 2 2 2 2 2 2 2 2 2 2 2 2 2 2 2 2 2 2 2 2 2 2 2 2 2 2 2 2 2 2 2 2 2 2 2
left_child=1 2 3 7 14 19 8 16 9 13 12 -12 -10 -3 15 -4 -1 -16 23 -5 22 -22 -6 27 -9 37 -11 -8 -25 -7 -27 32 39 34 43 38 -37 -20 -33 42 45 -42 -2 -34 -44 -40
right_child=31 6 4 5 20 29 18 24 10 26 11 -13 -14 -15 17 -17 -18 -19 25 -21 21 -23 -24 28 -26 30 -28 -29 -30 -31 -32 35 33 -35 -36 36 -38 -39 40 -41 41 -43 44 -45 -46 -47
leaf_value=-0.039045673667063005 -0.13232938451226092 -0.068483773400077039 0.067928331348342738 0.14076711661298524 0.14996249482969035 -0.16330868482977035 0.0005886198554384349 0.10811435091136955 0.096736679633483952 -0.15900390533250033 0.03691140402687438 -0.036807268591461953 -0.077542080711408432 0.0049531759526083817 -0.0033016559212173378 0.022382198712231974 0.067040343678845329 0.060067860702134906 -0.19680357464892931 0.043893473164434357 0.22226048393145659 0.038656555464133963 -0.0033515498289419378 0.12750833421837476 -0.13315249937754342 0.14122658696537987 0.16614173432437718 -0.09352262120429132 -0.077667179728342861 -0.03921987205796755 0.027130241458636239 0.12750498375108479 -0.10979060421324993 0.1302134677062852 0.15579613796421715 0.1175512586703098 0.054477463853364987 -0.10965850634127224 0.11660312977334297 -0.1583505444475633 0.096905816889429119 0.1169716290759534 -0.11646261643892027 -0.12855507452907095 -0.10499189570337936 0.11745653057939526
leaf_weight=6091.5645685233176 1.3323096446692932 1135.8311243653297 3076.3229406699538 612.62340816855431 198.44983742386103 106.40760982036591 86.27753628231585 371.00563246011734 2570.2528385929763 7.5755632221698752 48764.212950337678 1829.2991280201823 275.62382936663926 5729.4656240679324 8228.3765858225524 9587.7871848270297 412.14341032505035 1163.4197742156684 3.1926682740449932 599.49639542400837 380.09461742639542 214.93222492933273 312.43594254925847 69.492423638701439 41.838256910443306 108.39358669519424 706.71254813671112 725.60288634523749 15.814727544784544 35.314604014158249 43.107136376202106 35.557369589805603 4.566558066755535 16.900320524349809 3.4012422561645508 35.297853708267212 17.398487165570259 17.534217726439238 6799.767208468169 3.131115548312664 27.685909047722816 62.360365271568298 1.6463100779801596 1.5087520051747558 1.6535449996590625 132.25696241855621
leaf_count=24226 10 10242 6285 605 150 431 554 476 3132 33 105479 10469 1777 14936 39980 27834 1294 5082 13 1159 208 518 917 78 308 88 253 7443 54 89 98 18 69 10 1 19 35 277 3765 20 23 34 20 15 46 71
internal_value=0 0.026586 0.0160947 -0.00990158 0.0253773 0.0692761 0.0318971 -0.0253998 0.0332141 0.00881354 0.036675 0.034246 0.0798577 -0.00719662 0.0211409 0.0334461 -0.0323229 0.00454832 -0.0432484 0.0928549 0.109865 0.15594 0.0562022 -0.0670728 0.083664 0.0808608 0.162693 -0.0835215 0.0894717 -0.132388 0.108762 0.116036 0.0292256 0.0771595 -0.017456 0.116453 0.0967265 -0.123082 0.1166 -0.133637 0.116545 0.110802 -0.116932 -0.114451 -0.110715 0.116619
internal_weight=0 93520.6 31432.2 8270.39 23161.8 1353.84 62088.4 6916.55 61019 7579.58 53439.4 50593.5 2845.88 6865.3 22055.9 12664.1 6503.71 9391.8 1069.42 1212.12 1105.91 595.027 510.886 897.188 412.844 172.228 714.288 811.88 85.3072 141.722 151.501 7144.46 34.1402 26.3769 9.47655 7110.32 52.6963 20.7269 7057.63 7.76328 7022.07 90.0463 4.63216 6.07531 3.29986 6932.02
internal_count=268644 264488 109562 28588 80974 2284 154926 26304 146321 25464 120857 115948 4909 25178 79181 34119 25520 45062 8605 1764 1793 726 1067 8129 784 476 286 7997 132 520 186 4156 191 95 85 3965 54 290 3911 96 3893 57 76 84 66 3836
is_linear=0
shrinkage=0.1


Tree=18
num_leaves=45
num_cat=0
split_feature=125 113 32 75 136 31 76 76 113 130 31 131 5 131 99 106 31 0 32 130 107 29 105 61 92 52 26 114 77 113 54 80 81 111 4 44 33 109 92 32 32 81 110 86
split_gain=4998.99 496.672 472.691 443.719 457.245 1431.54 565.727 293.084 327.608 429.571 257.977 266.223 233.518 201.169 178.538 162.718 384.267 240.6 150.851 92.168 177.204 125.231 91.8793 150.456 97.3875 77.0613 57.7444 44.7573 67.0888 36.5108 29.505 55.689 22.892 22.5984 18.6877 15.7244 2.32688 4.94639 1.52092 0.510433 0.344778 0.0740725 0.059216 0.000300903
threshold=-0.41532251238822931 -0.88393360376358021 0.96820542216300975 -1.1619469523429868 1.0000000180025095e-35 1.0083937644958498 -1.1592637896537779 -1.2542096376419065 -0.87260985374450672 1.0000000180025095e-35 1.000491261482239 1.0000000180025095e-35 0.70531070232391369 1.0000000180025095e-35 -0.75539633631706227 -0.79816132783889759 0.99896618723869335 0.34966428577899938 0.95846787095069896 1.0000000180025095e-35 -0.83171516656875599 1.1054792404174807 -0.88485485315322865 0.68949899077415477 -0.91800782084465016 1.0620089769363406 1.1781665086746218 -0.88395214080810536 -1.3248163461685178 -0.8610374629497527 0.99250137805938732 -1.1316677927970884 -0.67050582170486439 -0.87832134962081898 0.87027448415756237 0.80560868978500377 0.77468416094779979 -0.59647369384765614 -0.54637256264686573 0.9581296741962434 0.82177427411079418 -0.6876385211944579 -0.65765836834907521 -0.77270901203155506
decision_type=2 2 2 2 2 2 2 2 2 2 2 2 2 2 2 2 2 2 2 2 2 2 2 2 2 2 2 2 2 2 2 2 2 2 2 2 2 2 2 2 2 2 2 2
left_child=1 2 3 12 6 -6 -5 8 9 18 11 -10 13 -1 30 22 26 -18 -3 27 21 -21 23 -4 -24 -12 -17 28 -9 -22 34 42 38 -14 -2 -29 40 -38 -16 -11 -36 -40 -32 -43
right_child=14 7 15 4 5 -7 -8 19 10 39 25 -13 33 -15 32 16 17 -19 -20 20 29 -23 24 -25 -26 -27 -28 35 -30 -31 31 -33 -34 -35 36 -37 37 -39 41 -41 -42 43 -44 -45
leaf_value=-0.14172565677393037 0.16487279647412156 0.14254881232581232 -0.096694186972320045 0.0055216728243506034 0.035048567821786066 0.18071974498665666 0.027032958603202664 0.032113097590076273 -0.029031547562773815 -0.13876725914678562 -0.10636256183939348 0.081762509972106115 -0.14243825090623452 0.16168085022944412 -0.16542183806185518 -0.08801456524441334 0.61671465291521077 0.077399355978245071 -0.11601869624301966 0.31082312321158617 -0.1280334899503914 0.01674084524801275 -0.036316506574069561 0.14768014897582463 -0.14205641361918742 0.0061828851397509772 0.35997478310762304 0.11742418750990272 -0.096203970174927447 0.15349838000788116 -0.18977851900041898 0.094727441923717098 0.13589986131068951 0.056235922704633956 0.11480081556466362 -0.13305126447596138 0.050637762216378716 0.11655349297926197 -0.12844176258030485 -0.11550213871647635 0.10838809731965111 -0.10487800541190594 -0.17401046465390746 -0.10293168925736351
leaf_weight=23.109219670295715 74.643486551940441 329.41077778488398 41.098301582038403 15216.938033275306 10564.495516546071 720.63477265834808 62194.41250744462 51.701339960098267 678.33120466768742 66.257748357951641 349.67664985358715 318.8049488067627 32.943009600043297 402.02283228188753 4.5228142738342276 50.176597718149424 18.127851143479347 15.214686885476111 24.222255133092403 16.407639928162098 110.32627100497484 123.26173915714025 1306.9109095223248 65.103923663496971 93.320989012718201 73.653390515595675 3.0522544458508483 2.5339625701308242 192.2841882109642 4.8071563839912406 4.8113188743591291 30.744715131819248 4.1526945978403083 6.9295640885829917 6408.5660943388939 230.0455566495657 17.730264097452164 31.807875633239746 1.1819544434547413 10.995290674269198 84.952269777655602 0.81372988224029441 4.7163329124450684 33.315534137189388
leaf_count=121 27 520 257 56096 27165 1557 155301 297 3222 337 2093 524 164 516 20 416 30 110 257 16 794 469 9080 84 509 430 6 2 1288 11 20 34 3 17 3859 1529 36 18 7 98 58 22 20 1204
internal_value=0 0.0238614 0.025092 0.0260566 0.0255458 0.0443507 0.0228044 -0.0193804 0.00179257 0.0781703 -0.021376 0.00639159 0.123486 0.145188 0.113274 -0.0289007 0.10442 0.370617 0.124838 -0.0729766 -0.0244275 0.0512881 -0.0365623 0.0531118 -0.0433637 -0.0867813 -0.0623259 -0.0989341 -0.0690132 -0.116279 0.1146 0.0292655 -0.087531 -0.10791 0.11512 -0.130322 0.114552 0.0929615 -0.110824 -0.135456 0.114717 -0.10383 -0.181973 -0.102978
internal_weight=0 93337.2 90754.5 89161.5 88696.5 11285.1 77411.4 2582.72 1851.35 430.886 1420.47 997.136 465.005 425.132 6701.96 1593.01 86.5714 33.3425 353.633 731.368 254.803 139.669 1506.43 106.202 1400.23 423.33 53.2289 476.565 243.986 115.133 6657.97 40.2724 43.9867 39.8726 6617.7 232.58 6543.06 49.5381 39.834 77.253 6493.52 35.3112 9.52765 34.1293
internal_count=268644 263316 251429 240937 240119 28722 211397 11887 7481 1212 6269 3746 818 637 5328 10492 562 140 777 4406 1290 485 9930 341 9589 2523 422 3116 1585 805 4072 74 1256 181 3998 1531 3971 54 1253 435 3917 1233 40 1226
is_linear=0
shrinkage=0.1


Tree=19
num_leaves=47
num_cat=0
split_feature=4 29 122 118 118 52 122 129 101 30 30 75 31 131 102 103 2 43 4 30 113 97 30 113 105 104 54 103 125 76 115 30 37 75 33 15 29 32 63 1 72 76 115 98 0 84
split_gain=4690.9 453.838 728.318 519.635 433.6 873.82 736.782 635.008 487.195 468.916 339.814 328.115 303.994 347.474 251.789 203.338 277.397 207.433 211.816 139.37 99.384 97.7336 90.8737 142.763 66.4872 63.6555 48.3008 23.4095 21.9569 21.7444 19.3165 9.76711 13.8864 4.26631 2.62054 5.16209 1.2087 0.400003 1.01246 0.188483 0.161364 0.125727 0.0616442 0.0192537 0.015212 0.00770105
threshold=0.87027448415756237 1.2301985025405886 -1.0385704636573789 -0.91355362534522999 -0.94151389598846424 0.9786345660686494 -1.0836927890777586 1.0000000180025095e-35 -0.96272718906402577 1.1032462716102602 1.1061148643493655 -1.1190447807312009 1.0032738447189333 1.0000000180025095e-35 -0.9510514736175536 -0.92682918906211842 0.56525003910064708 0.8043881654739381 0.747951239347458 1.1107170581817629 -0.91705602407455433 -1.0139747262001035 1.091502368450165 -0.93339660763740528 -0.93972465395927418 -0.91029044985771168 1.0040301084518435 -0.93240326642990101 -0.41532251238822931 -1.0619464516639707 -0.92357239127159108 1.0349417924880984 0.5943889617919923 -1.0832325816154478 0.77468416094779979 1.1332053542137148 1.250243663787842 0.82177427411079418 0.24756239354610446 0.4997448474168778 -0.76557299494743336 -1.0645662546157835 -1.0860365629196165 -0.96456393599510182 0.17779158800840381 -1.1030407547950742
decision_type=2 2 2 2 2 2 2 2 2 2 2 2 2 2 2 2 2 2 2 2 2 2 2 2 2 2 2 2 2 2 2 2 2 2 2 2 2 2 2 2 2 2 2 2 2 2
left_child=1 2 4 10 6 11 8 -7 -1 -8 14 -6 13 -5 -4 17 33 18 19 -3 -20 27 23 -18 -23 -24 -14 -19 29 31 -12 32 -2 39 37 -36 -35 41 -39 -17 -34 44 -31 -44 -30 -45
right_child=28 15 3 12 5 7 9 -9 -10 -11 30 -13 26 -15 -16 16 22 21 20 -21 -22 24 25 -25 -26 -27 -28 -29 34 42 -32 -33 40 36 35 -37 -38 38 -40 -41 -42 -43 43 45 -46 -47
leaf_value=0.11999112477240986 0.1450993612528573 -0.11458321495771134 0.092189622720263598 -0.019201659597128346 -0.06696832910971455 0.035633062477884267 -0.061362937250472642 -0.093752162536444569 0.02084908754123525 0.095525405357392235 0.057009947999181826 0.11894656221902732 -0.094786969720853168 0.055508203722768781 -0.09645968863828891 -0.1164830233870604 -0.074933114574047041 -0.17272421094768414 0.0092948181323341608 0.092612072526912934 0.098426487331887969 0.12789064403304778 0.096227584534334387 0.079446031843546205 0.025506980006184073 0.15658602864943261 0.00031488465788402219 0.091622698465585503 0.11548505137396924 -0.13960983668347596 0.15098061915580974 0.12227769486093637 -0.14935215929933676 -0.22475329129561744 0.11403497592423142 0.044570025090047052 -0.1779867607335581 0.088943589621089239 0.11353901332458394 -0.14794685315674524 -0.10881042289687846 0.10687748961952059 -0.12633053486546406 -0.11554926101456252 0.1131723532426801 -0.10804561277053032
leaf_weight=498.89499069750309 3.3219304345548206 188.37727656960487 75.264112424105406 1304.2783118356019 100.89241242408752 5691.2784184217453 1609.247082715854 406.41080192476511 76517.90980123356 216.08942529559135 35.96477934718132 1605.9633430596441 321.25531031936407 1191.0200392156839 1179.5890327394009 4.9857635721564275 67.066803738474846 16.47384396195412 456.89932448975742 39.224370807409286 172.26437965035439 278.53274482116103 637.15518946200609 560.68188899755478 82.129960630089045 240.74704828858376 64.052028473466635 4.20511570572853 28.581032514572144 1.0950113981962228 55.835593476891518 15.718046166002749 1.3657063692808149 19.302823439240459 29.986034274101257 16.631072267889977 7.7434190213680258 24.183604076504707 54.352321028709412 3.080148383975029 3.4920369684696198 31.787219986319542 1.0574328303337122 2.5947320815175794 5817.3566161841154 2.8923904411494648
leaf_count=582 2 619 213 4442 391 15924 5682 2587 217721 273 72 2303 1812 3488 4461 44 209 96 1050 39 165 211 649 656 160 149 308 4 17 7 39 9 7 80 19 35 36 23 35 20 53 23 8 35 3823 63
internal_value=0 0.0214687 0.0202514 -0.0202797 0.0222288 0.0447128 0.0200031 0.0270095 0.0214913 -0.04279 -0.071558 0.107957 0.00369243 0.0164578 -0.0851448 0.0612772 0.0855257 0.031101 0.00379328 -0.0788756 0.033699 0.0924538 0.0920054 0.0629526 0.104576 0.11278 -0.0789776 -0.118969 0.112433 0.0292113 0.114166 0.0761594 -0.0124615 -0.192328 0.11287 0.0892527 -0.211364 0.113055 0.105965 -0.128498 -0.120208 0.11315 -0.117649 -0.113975 0.113184 -0.111594
internal_weight=0 93652.8 90873.9 4227.26 86646.7 7804.54 78842.1 6097.69 77016.8 1825.34 1346.65 1706.86 2880.61 2495.3 1254.85 2778.87 1540.76 1238.11 856.765 227.602 629.164 381.342 1505.65 627.749 360.663 877.902 385.307 20.679 6034.42 31.5373 91.8004 23.8977 8.17967 35.1122 6002.88 46.6171 27.0462 5956.26 78.5359 8.06591 4.85774 5877.72 7.63957 6.54456 5845.94 5.48712
internal_count=268644 264485 260298 14835 245463 21205 224258 18511 218303 5955 4785 2694 10050 7930 4674 4187 1843 2344 1873 658 1215 471 1663 865 371 798 2120 100 4159 184 111 71 62 180 3975 54 116 3921 58 64 60 3863 113 106 3840 98
is_linear=0
shrinkage=0.1


Tree=20
num_leaves=47
num_cat=0
split_feature=4 31 30 131 114 53 28 29 58 107 103 29 105 54 136 130 129 5 133 83 73 75 7 74 3 125 94 73 38 109 30 37 103 33 47 32 32 61 32 76 32 72 114 74 20 22
split_gain=4389.09 401.531 470.203 465.619 430.175 909.046 899.65 729.396 728.562 796.31 306.075 259.447 217.05 251.192 172.629 168.7 151.643 148.358 124.42 93.0423 69.8104 69.5874 60.8037 50.5139 31.518 20.1896 19.1511 15.7182 100.648 129.596 8.10036 11.9357 4.1928 2.92326 5.8384 2.9088 0.461474 1.1203 0.336058 0.155451 0.132132 0.103317 0.0490187 0.015226 0.0141179 0.00325532
threshold=0.87027448415756237 1.0116387605667116 1.0980541706085207 1.0000000180025095e-35 -1.0618482828140257 0.99420866370201122 1.2346508502960207 1.1955034732818606 0.91440615057945263 -0.89440974593162526 -0.91637325286865223 1.2141335010528567 -0.91515108942985524 0.94171544909477245 1.0000000180025095e-35 1.0000000180025095e-35 1.0000000180025095e-35 0.6942863166332246 1.0000000180025095e-35 -1.2203652262687681 -0.78360885381698597 -0.9377213418483733 0.63062098622322094 -0.99369320273399342 0.63430818915367138 -0.41532251238822931 -1.0128908157348631 -0.89515140652656544 0.91604265570640575 -0.8892005681991576 1.0349417924880984 0.5943889617919923 -0.8944154381752013 0.77468416094779979 0.71083489060401928 0.9581296741962434 0.82177427411079418 0.40613859891891485 0.95601734519004833 -1.0645662546157835 0.96398997306823742 -0.76557299494743336 -1.1329452991485593 -0.96937972307205189 0.98211973905563366 1.7076953053474428
decision_type=2 2 2 2 2 2 2 2 2 2 2 2 2 2 2 2 2 2 2 2 2 2 2 2 2 2 2 2 2 2 2 2 2 2 2 2 2 2 2 2 2 2 2 2 2 2
left_child=1 2 4 12 5 7 -7 -1 9 -6 11 17 18 23 -15 16 -12 -4 20 -13 -3 -10 -20 -14 -17 26 30 28 32 -30 31 -2 -5 36 -35 38 39 -38 -29 44 -37 -33 -28 -44 -27 -45
right_child=25 3 10 27 8 6 -8 -9 21 -11 15 19 13 14 -16 24 -18 -19 22 -21 -22 -23 -24 -25 -26 33 42 35 29 -31 -32 41 -34 34 -36 40 37 -39 -40 -41 -42 -43 43 45 -46 -47
leaf_value=-0.03717378381717093 0.1373274126575294 0.027233879073691 0.054710252627369976 -0.12767202804179265 -0.0085340624616716265 0.029081163851190625 0.098748473620072622 0.079439460215203705 -0.091805036181185254 0.02105461144889632 0.11066853425014518 -0.049718639080187324 -0.0088766807621648899 -0.0091588586061397553 0.11144969816139959 -0.1962667671865608 -0.19589791998912176 -0.073515760474362299 -0.051084068675663265 0.056468375013948108 -0.17426780682856186 0.10887649094754781 -0.1706776284377152 0.17076995372818415 0.0033643833593579864 0.10957681071835282 -0.13756152709382038 -0.13577099398390968 0.31869283325885278 -0.12877494074966453 0.1163585621328503 -0.14220415157505559 -0.085465475900557558 0.037001614506276349 0.11303093713769859 -0.11616146156191705 0.085303862642981121 0.11209409313228975 -0.12547989061633566 0.10447495971922593 -0.11066434885659537 -0.1079164203167786 -0.117705946347601 -0.11199687398068953 0.11177965442497816 -0.10501677578726853
leaf_weight=3225.5661606620997 3.1627611294388833 122.18958096206188 129.47332515567541 107.02720577269793 11567.709876980633 27566.249377960339 1987.2213621884584 643.35667524673045 697.86649494990706 42560.813001334667 1076.2095630764961 86.462259989231825 17.982178032398224 1009.1793025657535 134.48943988233805 21.008979350328445 16.380753666162491 297.70512864738703 67.854986414313316 1807.8524519093335 20.008909046649933 17.717581447213888 113.82657957077026 120.7930798381567 12.683104321360586 29.253921531140804 0.93695203959942119 103.01907170563936 13.038990512490274 12.852068729698656 14.82134649902582 1.2137620747089393 30.171770434826612 15.767766937613485 28.100075006484985 93.989344287663698 22.733763054013252 49.807872653007507 45.855777867138386 29.390024229884148 81.764939650893211 3.1845626197755328 3.205196654424074 1.0735979592427549 5323.9445552527905 1.7691833600401878
leaf_count=10582 2 250 202 702 30976 66722 2478 952 4592 134291 1239 278 57 3162 435 87 68 995 224 2574 88 27 482 90 25 24 5 555 16 87 10 7 162 35 19 812 23 35 289 23 986 53 35 19 3816 53
internal_value=0 0.0192824 0.020271 -0.0240153 0.0188558 0.0277986 0.0337657 -0.0177824 0.0134061 0.0147313 0.0564996 0.0357465 0.00196779 0.0204407 0.00502407 0.0992761 0.106072 -0.0346518 -0.0711781 0.0516217 -0.00111965 -0.0868362 -0.126011 0.147492 -0.121117 0.110973 0.0282784 -0.109592 -0.084264 0.0965742 0.0733904 -0.0108364 -0.11839 0.111414 0.0857031 -0.122316 0.111621 0.103698 -0.132601 0.111728 -0.113604 -0.117378 -0.116278 -0.112981 0.111768 -0.107653
internal_weight=0 93808.3 91714.3 2094.04 88266.5 33422.4 29553.5 3868.92 54844.1 54128.5 3447.78 2321.49 1606.32 1282.44 1143.67 1126.28 1092.59 427.178 323.88 1894.31 142.198 715.584 181.682 138.775 33.6921 5528.37 29.3674 487.719 163.09 25.8911 22.3824 7.56109 137.199 5499 43.8678 324.629 5455.13 72.5416 148.875 5382.59 175.754 4.39832 6.98493 6.04798 5353.2 2.84278
internal_count=268644 264485 256088 8397 250620 80734 69200 11534 169886 165267 5468 4049 4788 3744 3597 1419 1307 1197 1044 2852 338 4619 706 147 112 4159 184 3609 967 103 72 62 864 3975 54 2642 3921 58 844 3863 1798 60 112 107 3840 72
is_linear=0
shrinkage=0.1


Tree=21
num_leaves=46
num_cat=0
split_feature=4 32 38 71 132 53 56 134 71 130 122 106 112 136 71 130 57 68 36 47 129 33 103 102 34 52 46 125 76 56 30 37 72 33 40 102 32 62 76 71 105 114 20 98 102
split_gain=4093.02 375.009 449.933 1271.99 764.67 515.403 360.661 642.312 633.703 349.311 578.719 522.467 323.888 399.087 188.451 239.096 184.928 214.813 155.101 138.257 124.839 119.88 111.15 97.3108 36.3264 22.9879 46.3345 18.602 17.0813 11.4811 7.44199 10.6806 6.5675 3.23463 6.41469 0.808812 0.530137 1.51341 0.188785 0.087198 0.0489904 0.0318536 0.0173631 0.0121726 0.00382673
threshold=0.87027448415756237 0.96398997306823742 0.9752195179462434 -0.42164480686187739 1.0000000180025095e-35 1.0494000911712649 1.0118208527565005 1.0000000180025095e-35 -0.37453332543373102 1.0000000180025095e-35 -1.2648260593414304 -0.91694524884223927 -1.3019793629646299 1.0000000180025095e-35 -0.31404133141040796 1.0000000180025095e-35 0.90798839926719677 0.088802944868803038 0.89172416925430309 1.0558010339736941 1.0000000180025095e-35 0.92843309044837963 -0.75082129240036 -0.77349171042442311 0.91584023833274852 1.1473308801651003 1.2086907625198366 -0.41532251238822931 -1.0619464516639707 0.99032241106033336 1.0349417924880984 0.5943889617919923 -0.55532586574554432 0.77468416094779979 0.68844258785247814 -0.75686755776405323 0.82177427411079418 0.32525749504566198 -1.0645662546157835 -0.59294268488883961 -0.7957744002342223 -1.1169599890708921 0.98211973905563366 -0.96000421047210682 -0.93310999870300282
decision_type=2 2 2 2 2 2 2 2 2 2 2 2 2 2 2 2 2 2 2 2 2 2 2 2 2 2 2 2 2 2 2 2 2 2 2 2 2 2 2 2 2 2 2 2 2
left_child=1 2 3 4 5 -1 9 8 -8 11 -11 -4 18 -14 15 19 21 -18 -5 -3 25 -17 29 -21 -9 35 -27 28 30 -22 31 -2 -6 36 -35 -16 38 -38 42 -33 -24 -30 -29 -43 -45
right_child=27 14 6 12 32 -7 7 24 -10 10 -12 -13 13 -15 20 16 17 -19 -20 23 22 -23 40 -25 -26 26 -28 33 41 -31 -32 39 -34 34 -36 -37 37 -39 -40 -41 -42 43 -44 44 -46
leaf_value=0.014250242393110183 0.13263529625200696 0.24024672258446633 -0.0047492524521180711 -0.091056186211783838 -0.10988430859126724 0.033685292303891716 0.086117102850021554 -0.17644627210828023 -0.012887092681752374 0.026705631504757861 -0.12666536687183408 0.053924195458420254 -0.05312969659900732 0.020651960022184706 -0.16207064796238668 0.080895885089287731 0.044709011401946802 -0.087544087097066139 0.089060438786585164 -0.019652997268831712 0.21314011566931423 -0.12244522726285455 -0.12740536206052552 -0.058195879608206713 -0.071904295135874485 0.13528932750258804 -0.15107489719436162 0.10798075106722736 -0.13157704065313502 0.14373852225007958 0.11438725828263525 -0.140071398099434 -0.061789764438035501 0.03019428371698557 0.11208299747252171 -0.12195309537772772 0.077330382605932252 0.11085675936743292 0.10215776124345732 -0.10729023648355435 -0.1100026447197 -0.12076647923452832 0.11053113175211943 -0.10761556524741663 -0.11484551288950762
leaf_weight=46735.766267288476 2.9730352051556173 18.85728657990694 1765.8096937201917 57.021822117269039 448.98320901952684 19271.6506966874 908.09657646715641 188.18069224059582 2244.4175169616938 1161.3139718100429 312.15689444169402 10799.667439524084 3909.031323838979 902.34068111330271 8.3525117412209529 36.90463725477457 1205.6749435476959 136.74343378469348 295.89225945994258 2158.7416407801211 30.943253047764301 135.2434613853693 1.8107985705137277 940.4024108722806 40.368818715214729 12.618247717618944 10.231932468712328 26.841416291892529 0.91767725348472851 103.78972171619534 13.755738928914068 1.1123094633221633 30.3095180131495 15.047665998339651 26.259095907211304 12.616554684936998 18.665579274296761 48.318782091140747 27.165760561823845 2.9999182075262061 15.163186304271219 1.1241133511066461 4868.9272740185261 3.5210628351196669 0.92424073442815879
leaf_count=121148 2 23 7682 478 6116 42674 1187 745 9275 2632 1578 21069 17210 2794 39 45 2848 1036 872 16387 11 619 11 7053 109 11 51 24 6 63 9 6 396 35 19 110 21 37 23 54 213 11 3816 87 9
