tree
version=v4
num_class=1
num_tree_per_iteration=1
label_index=0
max_feature_idx=136
objective=binary sigmoid:1
feature_names=Column_0 Column_1 Column_2 Column_3 Column_4 Column_5 Column_6 Column_7 Column_8 Column_9 Column_10 Column_11 Column_12 Column_13 Column_14 Column_15 Column_16 Column_17 Column_18 Column_19 Column_20 Column_21 Column_22 Column_23 Column_24 Column_25 Column_26 Column_27 Column_28 Column_29 Column_30 Column_31 Column_32 Column_33 Column_34 Column_35 Column_36 Column_37 Column_38 Column_39 Column_40 Column_41 Column_42 Column_43 Column_44 Column_45 Column_46 Column_47 Column_48 Column_49 Column_50 Column_51 Column_52 Column_53 Column_54 Column_55 Column_56 Column_57 Column_58 Column_59 Column_60 Column_61 Column_62 Column_63 Column_64 Column_65 Column_66 Column_67 Column_68 Column_69 Column_70 Column_71 Column_72 Column_73 Column_74 Column_75 Column_76 Column_77 Column_78 Column_79 Column_80 Column_81 Column_82 Column_83 Column_84 Column_85 Column_86 Column_87 Column_88 Column_89 Column_90 Column_91 Column_92 Column_93 Column_94 Column_95 Column_96 Column_97 Column_98 Column_99 Column_100 Column_101 Column_102 Column_103 Column_104 Column_105 Column_106 Column_107 Column_108 Column_109 Column_110 Column_111 Column_112 Column_113 Column_114 Column_115 Column_116 Column_117 Column_118 Column_119 Column_120 Column_121 Column_122 Column_123 Column_124 Column_125 Column_126 Column_127 Column_128 Column_129 Column_130 Column_131 Column_132 Column_133 Column_134 Column_135 Column_136
feature_infos=[-1.8014661073684692:2.1873281002044678] [-1.7160434722900391:2.0962586402893066] [-1.6382262706756592:2.0136351585388184] [-1.5680137872695923:1.9394575357437134] [-1.5054070949554443:1.8737261295318604] [-1.4504051208496094:1.8164401054382324] [-1.4123568534851074:1.7937201261520386] [-1.3844102621078491:1.9274762868881226] [-1.3517893552780151:2.0758624076843262] [-1.3099035024642944:2.0974209308624268] [-1.2559221982955933:2.0118343830108643] [-1.1870334148406982:2.073509693145752] [-1.1039742231369019:2.1457490921020508] [-1.0067610740661621:2.2142360210418701] [-0.90047705173492432:2.2825961112976074] [-0.78966546058654785:2.4052433967590332] [-0.67814630270004272:2.5269482135772705] [-0.65474224090576172:2.5277442932128906] [-0.6578325629234314:2.5653238296508789] [-0.66444498300552368:2.5221147537231445] [-0.8555336594581604:2.4413206577301025] [-0.86833834648132324:2.3840618133544922] [-0.86565589904785156:2.2409591674804688] [-0.7797551155090332:2.1797337532043457] [-1.0841877460479736:2.1696581840515137] [-1.4308524131774902:2.0883691310882568] [-1.6366665363311768:1.9448176622390747] [-1.8254417181015015:1.7312250137329102] [-1.9202775955200195:1.5516149997711182] [-2.2033448219299316:1.3473584651947021] [-2.6534385681152344:1.1459542512893677] [-2.9375624656677246:1.0652625560760498] [-2.8855924606323242:1.0182701349258423] [-2.3245775699615479:1.0153312683105469] [-1.6179424524307251:1.0222163200378418] [-0.8696785569190979:1.0987448692321777] [-0.66342759132385254:1.3781088590621948] [-0.67050886154174805:1.4172744750976562] [-0.67336314916610718:1.4686216115951538] [-0.67729061841964722:1.427788257598877] [-0.67367839813232422:1.3506048917770386] [-0.77278417348861694:1.3033223152160645] [-0.78214722871780396:1.4334096908569336] [-0.67815649509429932:1.6771683692932129] [-0.67529547214508057:1.8418123722076416] [-0.67887544631958008:1.9795904159545898] [-0.67573755979537964:1.8671952486038208] [-0.68056988716125488:1.8940913677215576] [-0.67851173877716064:2.0411467552185059] [-0.68057990074157715:2.1347439289093018] [-0.67868822813034058:2.1180493831634521] [-0.68411111831665039:2.0443711280822754] [-0.6882440447807312:2.3278176784515381] [-0.69760811328887939:2.41339111328125] [-0.68820065259933472:2.0181429386138916] [-0.66555494070053101:1.7058380842208862] [-0.62813276052474976:1.5109990835189819] [-0.6819922924041748:1.3641012907028198] [-0.83747786283493042:1.3483799695968628] [-0.6445356011390686:1.3266682624816895] [-0.58463895320892334:1.3006186485290527] [-0.6056399941444397:1.6912268400192261] [-0.63135004043579102:1.8743280172348022] [-0.66003769636154175:1.7138135433197021] [-0.93073725700378418:1.3433690071105957] [-1.1305865049362183:1.0751444101333618] [-1.2528316974639893:0.99085426330566406] [-1.6713657379150391:0.88485002517700195] [-1.706031322479248:0.75389385223388672] [-1.8947262763977051:0.60495084524154663] [-1.7363165616989136:0.45876148343086243] [-1.6730015277862549:0.33052113652229309] [-1.5550380945205688:0.23037496209144592] [-1.4075071811676025:0.15855956077575684] [-1.4517455101013184:0.30397361516952515] [-1.6804615259170532:0.9557119607925415] [-1.8599822521209717:1.4404212236404419] [-2.0371255874633789:1.2026444673538208] [-2.1728529930114746:1.1285310983657837] [-2.2573421001434326:0.92254304885864258] [-2.3058340549468994:0.73609095811843872] [-2.3315773010253906:0.28676301240921021] [-2.3403120040893555:0.33890664577484131] [-2.3343968391418457:0.39074629545211792] [-2.3124566078186035:0.5232703685760498] [-2.2730567455291748:0.47703936696052551] [-2.2140905857086182:0.50853937864303589] [-2.1362462043762207:0.53271615505218506] [-2.0426793098449707:0.67684948444366455] [-1.9374580383300781:0.56802195310592651] [-1.8240519762039185:0.65060514211654663] [-1.8478662967681885:1.0689502954483032] [-1.6396095752716064:1.4172115325927734] [-1.5815147161483765:1.6290324926376343] [-1.5243273973464966:1.6652539968490601] [-1.4861346483230591:1.6182962656021118] [-1.4531639814376831:1.5608183145523071] [-1.4315723180770874:1.5595740079879761] [-1.414076566696167:1.5645072460174561] [-1.410072922706604:1.5648646354675293] [-1.8966314792633057:1.5687597990036011] [-2.4619696140289307:1.5660412311553955] [-2.648137092590332:1.569068431854248] [-2.5047333240509033:1.5662518739700317] [-2.1062953472137451:1.5674868822097778] [-1.4475361108779907:1.5623446702957153] [-1.1187688112258911:1.563502311706543] [-1.1215335130691528:1.561995267868042] [-1.168958306312561:1.5723429918289185] [-1.225764274597168:1.5757462978363037] [-1.3164699077606201:1.5835809707641602] [-1.504082202911377:1.5861003398895264] [-1.9974493980407715:1.5904537439346313] [-2.3280599117279053:1.5896482467651367] [-2.4821960926055908:1.5896980762481689] [-1.8389110565185547:1.5826603174209595] [-1.6131480932235718:1.5835590362548828] [-1.6321159601211548:1.6058655977249146] [-1.6864286661148071:2.4495923519134521] [-1.7459897994995117:2.6529664993286133] [-1.820858359336853:2.5047237873077393] [-1.9280952215194702:1.7488086223602295] [-2.1567583084106445:1.5756756067276001] [-2.3918964862823486:1.5728672742843628] [-2.6616356372833252:1.8138364553451538] [-2.9761693477630615:2.1645474433898926] [-3.3559722900390625:3.0688047409057617] [-3.8531808853149414:4.2020993232727051] [0:1] [0:1] [0:1] [0:1] [0:1] [0:1] [0:1] [0:1] [0:1]
tree_sizes=4799 6763 5793 5756 6020 5755 5629 4957 5176 5150 5801 4756 4770 4636 4747 4872 5099 5060 4927 4950 5061 4832 4821 4844 4713 5154 4943 4737 5401 5438 5192 4927 5276 4498 5162 4932 4129 5100 4757 4897 4802 4621 4719 5045 4991 4652 4751 4184 4910 5216 4671 4358 4006 4344 5143 4087 4453 4909 3896 4429 6648 4226 6741 6236 6248 5816 5514 6658 6812 5151 6671 6623 6701 6927 6734 6783 6166 6836 6942 6484 6193 6676 6515 6939 6245 6324 4344 6916 6328 6823 6179 5170 6361 4716 6073 6900 6868 6760 6940 6162 6706 5344 6588 5792 6398 5902 6473 5787 6795 6967 6894 6894 6578 4554 6578 6789 6845 6799 6751 6927 6333 6617 6259 6479 5982 6472 6818 6321 6922 6620 6940 6372 5949 4665 5984 5973 6948 6848 6057 6938 6511 6250 6728 6946 6726 5605 4765 6433 5634 5064 5620 6917 6849 6000 6228 4709 6946 6898 6924 5627 6577 6356 6831 6822 5449 6961 6165 5719 6679 5745 6828 5563 6742 5731 5601 4951 6548 6048 6377 6258 6385 6476 6916 6849 6257 6957 6309 5814 6836 6801 5793 6172 6331 6587 5887 6193 5924 5770 5090 6219

Tree=0
num_leaves=44
num_cat=0
split_feature=4 78 132 105 51 32 131 130 108 32 134 34 129 31 30 74 69 37 81 107 31 105 54 79 125 32 105 107 53 111 49 3 86 22 71 19 33 65 49 15 69 0 74
split_gain=275308 49794 39284.3 27799.7 27689.2 24741.8 13426.8 11335.6 10822.8 9449.23 8961.4 7995.79 7813.7 7733.42 6719.18 6430.09 6196.95 6148.03 6099.71 4326.22 4044.18 3890.79 3793.56 2301.86 1851.32 1363.9 1323.08 1463.9 1229.65 1039.46 895.408 636.613 571.671 861.784 191.684 5.53678 2.63631 11.1968 0.505085 2.32831e-10 1.81899e-12 8.88178e-16 8.88178e-16
threshold=0.86658430099487316 -1.2146664857864378 1.0000000180025095e-35 -0.84792932868003834 1.177354693412781 0.95629659295082103 1.0000000180025095e-35 1.0000000180025095e-35 -1.0581656694412229 0.96093103289604198 1.0000000180025095e-35 0.90573522448539745 1.0000000180025095e-35 0.9943586289882661 1.0549303889274599 -0.98289960622787464 -0.01809732615947723 0.93487268686294567 -1.2730600237846372 -0.87605851888656605 1.0014473199844363 -0.81859648227691639 1.0203185677528384 -1.2586835026741026 -0.35378064215183253 0.95955023169517528 -0.86074709892272938 -0.99706143140792836 1.1076046824455263 -0.94717827439308155 1.2132231593132021 0.47399803996086126 -1.1053141355514524 1.3854053020477297 -0.38451005518436426 0.96225848793983471 0.76979637145996105 0.15217578411102298 0.84045475721359264 1.128554165363312 -0.11451147496700285 0.70735192298889171 -0.95474210381507862
decision_type=2 2 2 2 2 2 2 2 2 2 2 2 2 2 2 2 2 2 2 2 2 2 2 2 2 2 2 2 2 2 2 2 2 2 2 2 2 2 2 2 2 2 2
left_child=1 5 6 26 8 10 9 13 -5 11 12 -3 15 16 23 -1 -7 20 29 -14 -12 -11 -16 -9 32 -15 34 -28 -20 -8 -6 -19 33 -2 -4 -26 38 -38 39 -37 -39 -34 -43
right_child=24 2 3 4 30 7 18 14 -10 21 17 -13 19 25 22 -17 -18 31 28 -21 -22 -23 -24 -25 35 -27 27 -29 -30 -31 -32 -33 41 -35 -36 36 37 40 -40 -41 -42 42 -44
leaf_value=-2.1243158559535913 -2.8011210973713787 -1.8756346696433668 -2.7948538850106814 -2.6821174295495864 -2.4047338105532829 -1.9277023812163536 -1.4957281358860905 -2.4288155652431374 -1.5770716834598526 -2.0827793349332424 -2.6478518821667802 -1.6665433753915244 -1.9837267349722505 -2.4615163541071321 -2.2409287786836476 -1.9061975361502836 -2.5885898176547522 -2.8011210973713787 -2.6075792246230169 -2.6594460052791677 -2.2279026412076961 -2.655639351431319 -1.591868282680643 -1.911581647452079 -1.2541570903251986 -2.6207947750183096 -2.8011210973713787 -2.2457694029926714 -2.0233708033547528 -2.8011210973713787 -2.7176836963611501 -1.4839358606994919 -2.8011210973713787 -1.2131350979949134 -2.7006071797284967 -1.1147540780358927 -1.2305515171413084 -1.1147540780358924 -1.1316785816945303 -1.1147540780358927 -1.1147540780358929 -2.8011210973713787 -2.8011210973713787
leaf_weight=3185.243501059711 4.9218231514096322 8981.6986672580242 472.17434310168028 99.466409184038639 123.18023341149092 370.99531108140945 74.808245413005352 480.87553302198648 813.5100336894393 708.55591291934252 511.6438235938549 2296.5288423299789 133.95128419995308 740.66525790840387 134.70379351824522 2347.7356899306178 229.74066959321499 3.8544398173689833 366.95524384081364 323.75388612598181 415.57796375453472 142.38568572700024 271.63308584690094 104.79055393487215 2.8693785369396201 1961.0360400229692 78.571273200213909 119.89227810502052 39.950839586555958 6.6414963006973258 354.66311793774366 76.385136350989342 1.8382712975144375 11.181018777191637 397.45170430094004 1241.5126234292984 10.362923771142958 19.30266976356506 17.725778825581074 2136.4545851945877 23.689640164375309 2.1347666680812858 2.6684583351016022
leaf_count=33614 83 73958 7935 1567 1622 3235 351 6440 4434 7203 7897 14433 1238 10145 1568 20001 3419 65 5526 5032 4787 2208 1518 898 7 29773 1325 1401 384 112 5705 350 31 23 6330 1415 23 22 23 2435 27 36 45
internal_value=-2.69436 -2.06819 -1.94926 -2.31492 -2.02026 -2.22697 -1.878 -2.41592 -1.69746 -1.8573 -2.11102 -1.83306 -2.06461 -2.50497 -2.11949 -2.03176 -2.18045 -2.38696 -2.3921 -2.46169 -2.45963 -2.17863 -1.80704 -2.33627 -1.12123 -2.57713 -2.69861 -2.46563 -2.55022 -1.60217 -2.63701 -1.54721 -2.02047 -1.6985 -2.75178 -1.1153 -1.11519 -1.13724 -1.11484 -1.11475 -1.11475 -2.80112 -2.80112
internal_weight=0 26369 15076.4 2458.91 1390.82 11292.6 12617.5 4294.44 912.976 12129.2 6998.15 11278.2 5990.68 3302.44 992.003 5532.98 600.736 1007.46 488.356 457.705 927.222 850.942 406.337 585.666 3474.66 2701.7 1068.09 198.464 406.906 81.4497 477.843 80.2396 22.7443 16.1028 869.626 3451.92 3449.05 53.3552 3395.69 3377.97 42.9923 6.6415 4.80323
internal_count=268644 264474 134494 30319 13328 129980 104175 56996 6001 97802 72984 88391 59885 46572 10424 53615 6654 13099 6373 6270 12684 9411 3086 7338 4170 39918 16991 2726 5910 463 7327 415 218 106 14265 3952 3945 72 3873 3850 49 112 81
is_linear=0
shrinkage=1


Tree=1
num_leaves=62
num_cat=0
split_feature=32 92 32 132 76 130 31 134 109 105 104 68 82 130 84 73 114 113 41 124 4 131 46 78 115 108 69 112 129 108 30 136 91 71 105 31 34 115 122 118 53 104 31 45 31 97 81 72 32 104 53 51 127 43 108 79 132 49 108 49 127
split_gain=11426.1 7603.17 5641.08 9128.75 4217.23 3573.78 4301.95 2985.23 2794.36 2534.83 2534.6 2449.15 2218.62 2163.34 2033.19 1998.95 2287.32 1341 1549.05 1470.97 1180.88 945.868 907.204 727.331 1429.58 988.877 725.66 623.689 516.649 503.487 499.945 3005.01 336.924 437.526 312.395 301.126 236.323 228.824 157.242 404 147.212 82.6451 171.45 103.832 52.0758 50.4432 41.6973 37.0965 26.2292 75.0908 13.581 0.509448 0.830316 0.122226 0.0367189 0.0255004 0.0156857 0.0149365 0.00903424 0.00762165 0.00434335
threshold=0.958866447210312 -0.26800486445426935 0.86212110519409191 1.0000000180025095e-35 -1.1287289857864378 1.0000000180025095e-35 0.9979693889617921 1.0000000180025095e-35 -1.1321626901626585 -0.85130068659782399 -0.7833881378173827 0.08892791718244554 -1.2089213728904722 1.0000000180025095e-35 -1.35619580745697 -0.75252741575241078 -0.91818776726722706 -1.3539478182792661 1.1019107699394228 -2.42905580997467 0.41953913867473608 1.0000000180025095e-35 1.1923531889915469 -1.2693734765052793 -0.93719172477722157 -0.87434384226799 -0.0068420905154198399 -0.99261847138404835 1.0000000180025095e-35 -0.96605059504508961 1.0614536404609682 1.0000000180025095e-35 -0.2299103960394859 -0.20112546533346173 -0.86863455176353443 1.0007157325744631 0.84658035635948192 -1.4314611554145811 -1.1480719447135923 -0.95374011993408192 1.1304800510406496 -0.7930442988872527 0.99352505803108226 1.1668066382408144 1.0032057166099551 -0.9825632870197295 -1.2102686762809751 -0.2886678278446197 0.96733734011650097 -0.77662578225135792 1.0935665369033816 1.177354693412781 -3.3589259386062618 1.1582850217819216 -1.0581656694412229 -1.2586835026741026 1.0000000180025095e-35 1.2132231593132021 -1.0549009442329405 1.2132231593132021 -3.305601835250854
decision_type=2 2 2 2 2 2 2 2 2 2 2 2 2 2 2 2 2 2 2 2 2 2 2 2 2 2 2 2 2 2 2 2 2 2 2 2 2 2 2 2 2 2 2 2 2 2 2 2 2 2 2 2 2 2 2 2 2 2 2 2 2
left_child=1 2 8 4 7 6 10 -4 37 34 20 14 30 -6 38 16 -12 18 -10 -19 29 27 -11 24 -16 -25 -22 -14 -17 -2 35 -32 33 53 -5 -8 40 50 39 -7 -35 42 43 -13 -44 -40 -23 -38 55 -50 -1 52 58 54 -3 -43 -53 -58 -34 -55 -54
right_child=5 32 3 9 13 11 12 -9 17 22 15 41 21 -15 23 28 -18 19 -20 -21 26 46 -24 25 -26 -27 -28 -29 -30 -31 31 -33 51 36 -36 -37 47 -39 45 -41 -42 48 44 -45 -46 -47 -48 -49 49 -51 -52 56 60 59 -56 -57 57 -59 -60 -61 -62
leaf_value=-0.003299501656973779 0.2672517838179459 -0.10720314739870013 0.31059415737064772 -0.064288129048455753 0.35581290612620564 -0.025839086882814645 0.085815532477133971 0.15897791762638613 0.54067179983111491 -0.019700133918305399 0.49766937361955899 0.73604915155815842 0.24886252203042991 0.46494767012913157 0.11601961884991624 0.15073458947554488 -0.022475209017622452 0.08132201622657266 -0.021954833840904797 0.39705421664879453 0.31512038567206924 0.22423416679692601 0.30558150041636889 0.41473371028164685 0.55384376632401444 0.80965843019656669 0.93238338826582334 0.6136681076196685 -0.037215374591512085 0.67960193966167937 -0.041265630351353028 0.5755437541363686 -0.11412271925581996 0.53369350792893211 0.069486827002601254 -0.007073414714131184 0.22650698698816718 0.47042732157588685 0.091809129335229972 0.9486633269943161 0.063134772236494302 -0.10881411496281784 -0.11143755250902979 0.1288934569371514 0.29799809595871962 -0.11044416853233326 -0.089597312019290942 -0.11363819492313064 -0.10989414160974281 0.25630717143416398 -0.10710362030512628 -0.11532576936747066 -0.11111575392469886 -0.10993963823921814 -0.11963322062480855 -0.11235495242209621 -0.10902894664692389 -0.10660275031672106 -0.120657916098806 -0.10676464462718978 -0.10736433243284738
leaf_weight=14.249192219227551 34.897577621042728 2.8017726503312614 11486.077909685671 631.56933658570051 16457.875831738114 17.73425376415253 464.71301703900099 1464.1730429306626 970.35113090276718 105.47328241169453 300.66085230559111 5.2335148155689222 611.14384561777115 2041.6716829091311 213.05110313743353 323.11409384012222 117.61576756834984 149.01111694052815 51.534367352724075 15140.489774778485 453.22436503320932 4.4619729295372954 458.28922579064965 1032.4879892393947 114.74315829575062 67.551802679896355 19.880963370203972 50.756856299936771 267.20191991329193 195.47632180154324 265.58898408710957 112.41730244457722 2.154094483703374 29.417884014546871 241.2429408878088 1401.5406748950481 4.3400507904589203 7.594640038907527 14.4506414309144 5.5967470407485953 8.5896322131156904 65.730818204581738 22.81598895043135 6.0991614833474159 3.596063718199729 84.083313763141632 82.736643686890602 12.273862700909374 18.167028471827511 8.0943096429109556 109.1493616104126 2.4198519363999358 3.210919599980115 10.853067345917223 15.657883320003746 29.452904015779495 33.723813146352768 102.49123232066631 117.49115431308746 24.923534672707319 79.497989520430565
leaf_count=224 205 46 70163 10907 67263 220 6030 14711 1434 806 1558 15 3693 6024 1878 3433 1400 1110 769 23251 3368 56 2388 4371 310 259 73 113 3581 327 3796 868 25 36 3161 19281 36 33 126 20 112 883 260 46 21 1045 1271 146 233 79 1802 21 44 151 119 335 444 1764 828 425 1247
internal_value=0 0.346138 0.34987 0.325959 0.337219 0.204333 0.15935 0.293452 0.397695 0.0794443 0.28578 0.328193 0.0870372 0.367857 0.366562 0.184164 0.351409 0.40139 0.512298 0.393977 0.431469 0.236052 0.244725 0.400025 0.269278 0.438985 0.341059 0.276837 0.0656605 0.617138 0.0372984 0.142171 -0.0631168 0.0900535 -0.0273131 0.0160567 0.289826 -0.0623283 -0.0255087 0.207929 0.427348 -0.0453302 0.0839145 0.409283 -0.0556919 -0.0807824 -0.0735385 -0.0247821 -0.0854991 0.00297699 -0.0951171 -0.112015 -0.115214 -0.111138 -0.117747 -0.10991 -0.107345 -0.107203 -0.12054 -0.107728 -0.10751
internal_weight=0 49778.6 49328.8 32886.4 31449.8 6414.32 4705.43 12950.3 16442.4 1436.57 1712.07 1708.89 2993.36 18499.5 1549.7 1008.59 418.277 16311.4 1021.89 15289.5 703.479 749.099 563.763 1427.83 327.794 1100.04 473.105 661.901 590.316 230.374 2244.26 378.006 449.847 108.858 872.812 1866.25 54.6214 130.993 121.865 23.331 38.0075 159.19 37.7447 11.3327 26.4121 98.534 87.1986 16.6139 121.445 26.2613 123.399 340.989 202.354 54.2363 18.4597 95.1837 138.635 136.215 119.645 35.7766 82.7089
internal_count=268644 209490 204046 175423 158161 59154 49053 84874 28623 17262 13945 10101 35108 73287 8229 9972 2958 26564 2203 24361 3973 5133 3194 6818 2188 4630 3441 3806 7014 532 29975 4664 5444 1071 14068 25311 330 2059 1411 240 148 1872 342 61 281 1171 1327 182 1530 312 2026 4373 2144 741 165 1218 2229 2208 853 576 1291
is_linear=0
shrinkage=0.1


Tree=2
num_leaves=53
num_cat=0
split_feature=0 32 91 76 107 129 132 106 31 130 30 74 30 67 96 35 29 109 57 33 122 53 104 131 37 77 9 96 75 130 103 121 8 32 61 38 49 51 127 4 79 32 132 49 108 127 109 75 62 25 0 126
split_gain=8381.43 4466.49 3559.35 2166.21 2284.38 5642.05 1956.19 1878.28 3049.29 1630.16 1505.89 1260.73 1183.77 726.724 722.672 662.227 608.815 918.938 537.23 589.705 443.325 365.887 353.031 307.405 467.679 294.945 281.795 220.471 215.739 143.832 126.743 115.778 42.0345 37.2569 24.5532 101.568 19.5361 0.363988 0.588075 0.0584122 0.170093 0.0129677 0.0112607 0.010806 0.00616007 0.0032438 0.00183794 0.00101029 7.02558e-05 1.44131e-06 1.42109e-14 8.88178e-16
threshold=0.64427542686462413 0.96362254023551952 -0.2299103960394859 -1.1235101819038389 -0.98586124181747425 1.0000000180025095e-35 1.0000000180025095e-35 -0.88922786712646473 0.99514469504356395 1.0000000180025095e-35 1.1032887697219851 -0.85324594378471363 1.0915722846984866 0.21145997941493991 -0.84171468019485463 0.79193630814552318 1.2356392145156863 -0.89175292849540699 0.94006982445716869 0.93969577550888073 -1.0034348368644712 1.0744394659996035 -0.9203885793685912 1.0000000180025095e-35 0.93622285127639782 -1.1986958980560301 0.4824007004499436 -0.91436836123466481 -1.0422456860542295 1.0000000180025095e-35 -0.91888850927352894 1.0000000180025095e-35 0.87116760015487682 0.9640130102634431 0.74493470788002025 1.0098273158073428 1.1498172879219057 1.177354693412781 -3.3589259386062618 0.86658430099487316 -1.1199809312820432 0.86212110519409191 1.0000000180025095e-35 1.2132231593132021 -1.0549009442329405 -3.305601835250854 -0.9212963581085204 -0.88967707753181446 0.39947888255119329 1.5709828138351443 0.70735192298889171 -0.97855341434478749
decision_type=2 2 2 2 2 2 2 2 2 2 2 2 2 2 2 2 2 2 2 2 2 2 2 2 2 2 2 2 2 2 2 2 2 2 2 2 2 2 2 2 2 2 2 2 2 2 2 2 2 2 2 2
left_child=1 2 3 7 5 -5 15 10 -9 11 -1 23 -6 18 21 16 17 20 19 -11 -2 -13 27 24 -3 -20 -16 -18 -24 30 32 -19 -17 -25 36 -36 -15 38 44 41 -41 47 -39 -44 -4 -40 48 50 -43 -42 -8 -51
right_child=6 9 37 4 12 -7 39 8 -10 13 -12 14 -14 34 26 29 22 31 25 -21 -22 -23 28 33 -26 -27 -28 -29 -30 -31 -32 -33 -34 -35 35 -37 -38 42 45 40 49 46 43 -45 -46 -47 -48 -49 -50 51 -52 -53
leaf_value=0.10834118955556205 0.22195870719246238 0.26017397873452081 -0.11267145900260488 0.15566027293597173 0.25227754342772313 0.5002838960257765 -0.10909177885534389 0.26673981166538335 0.18178068623946853 0.27147472346685408 0.35035520679353155 0.0098377562375450492 0.34056300752682173 0.043190054063978349 0.28087406613889537 -0.11884338666738413 0.31693455130808701 0.30459489441105381 0.13840617158445648 0.073760255675116626 0.0078964705895192815 0.43234800523412309 0.43396220828061927 0.055642585779393267 0.027344725636017232 0.43669683522041458 0.047120907042578729 -0.12252726486235846 0.14740705940072993 0.66685216523005797 0.52747205416158038 0.43598577253922316 0.34592250711117128 -0.093598198618090378 0.38772292482157755 -0.11005323708247841 -0.10999353066634061 -0.1136564220649339 -0.11000732148594981 -0.14287213731648854 -0.10892109305597825 -0.10573178892393408 -0.10809630027566103 -0.10593509502157646 -0.11830988225859368 -0.10661510750146352 -0.11033103444607209 -0.11165544182114731 -0.10658710576443185 -0.10903497302335395 -0.10909177885534389 -0.10903497302335381
leaf_weight=2775.0641427822411 434.46096710860729 91.322183102369308 1.9729232415556897 5125.4433200620115 23279.258375648409 523.5875775963068 43.850715756416321 7026.4300234466791 10594.055809658021 406.38764299452305 283.35956104099751 23.79992962628603 1624.7636124826968 9.7253915593028051 70.464154034852982 4.9953421950340289 393.74461685121059 12707.554021507502 40.887105479836464 239.91144041717052 124.464230902493 147.65118955820799 645.79794797301292 18.127214923501015 1560.2541348561645 175.1371052339673 192.36074929311872 11.756742149591444 27.387352019548416 60.329578876495361 20.580005086958408 67.42064705491066 3.1878150850534439 216.63423288986087 5.8580105230212238 13.651846304535864 57.84186627715826 2.2200778797268859 2.9331368468701831 1.9893515482544897 1.4949254468083371 14.151038378477095 30.764368414878845 93.292517110705376 108.3112907409668 72.412406697869301 0.94681353867054063 1.5644819438457478 1.0302642658352859 2.8118819221854201 44.232690632343292 1.5199361741542823
leaf_count=15106 1567 743 25 28995 76081 310 574 30871 66922 1567 877 200 4019 119 322 38 1008 4377 295 1631 696 440 921 256 18523 376 1762 79 113 32 28 31 11 3431 27 181 750 21 44 10 20 276 444 1764 828 1247 12 19 19 37 579 20
internal_value=0 0.218857 0.226047 0.228098 0.245014 0.187602 0.304085 0.203103 0.215659 0.105526 0.130764 0.0603647 0.258037 0.215912 0.213981 0.307323 0.305643 0.299797 0.243715 0.198082 0.17429 0.373697 0.377904 0.0249989 0.0402188 0.380239 0.109791 0.304193 0.422304 0.57912 0.395104 0.305288 0.0622099 -0.0820745 -0.059411 0.0394085 -0.0879448 -0.110739 -0.113557 -0.109283 -0.117625 -0.108667 -0.106597 -0.106471 -0.118209 -0.106747 -0.106056 -0.109137 -0.10579 -0.109006 -0.109092 -0.109035
internal_weight=0 54813.9 51543.9 51232 30553.1 5649.03 14615.3 20678.9 17620.5 3270.01 3058.42 2320.61 24904 949.4 434.276 14501.7 14412.6 13333.9 862.323 646.299 558.925 171.451 1078.69 1886.34 1651.58 216.024 262.825 405.501 673.185 89.0927 28.7632 12775 8.18316 234.761 87.0771 19.5099 67.5673 311.907 185.63 113.592 7.8161 105.776 126.277 124.057 110.284 75.3455 16.1281 89.6479 15.1813 5.82674 88.0834 4.33182
internal_count=268644 258177 227554 223181 109405 29305 10467 113776 97793 30623 15983 25677 80100 4946 2724 8901 8792 6671 3869 3198 2263 640 2121 22953 19266 671 2084 1087 1034 109 77 4408 49 3687 1077 208 869 4373 2144 1566 87 1479 2229 2208 853 1291 307 1172 295 77 1153 57
is_linear=0
shrinkage=0.1


Tree=3
num_leaves=53
num_cat=0
split_feature=46 32 126 113 110 71 79 131 53 130 75 93 68 60 120 80 131 30 9 75 32 114 83 30 8 30 114 31 28 27 9 81 91 98 100 6 48 9 61 7 105 55 51 131 91 91 75 3 97 90 104 72
split_gain=7605.38 2605.29 1974.77 1946.11 1602.27 1419.08 1123.64 1050.51 1581.78 1002.13 873.318 590.633 527.235 495.722 398.295 394.738 385.583 316.441 260.76 230.131 207.954 175.393 199.046 246.839 166.39 147.03 172.975 146.808 99.4033 81.4875 75.0724 95.9017 48.1769 37.8411 34.0136 28.7232 23.4415 140.423 27.3993 16.9725 16.7688 73.744 0.675679 0.557411 0.143811 0.110578 0.0418481 0.0211008 0.0202099 0.00346002 0.00223118 0.000642818
threshold=0.78891482949256908 0.96306422352790844 -3.0326881408691402 -0.88148394227027882 -1.2006540298461912 -0.24948661029338834 -0.97754868865013111 1.0000000180025095e-35 1.0309664011001589 1.0000000180025095e-35 -0.95900359749793995 -0.64782175421714772 0.08892791718244554 0.74538883566856395 -1.2722123265266416 -1.3127328753471372 1.0000000180025095e-35 1.0586975216865542 0.4824007004499436 -0.92758873105049122 0.97183391451835643 -0.93721488118171681 -1.1780599951744077 1.0915722846984866 0.88695383071899425 1.088869094848633 -0.92422649264335621 1.0067673325538637 1.3934236168861391 1.4925310015678408 0.96147307753562938 -1.178927421569824 -1.091201603412628 -0.86377254128456105 -0.95368310809135426 0.80238762497901928 1.1555802226066592 0.58238995075225841 0.74493470788002025 0.8333425521850587 -0.78248709440231312 1.053556025028229 1.177354693412781 1.0000000180025095e-35 -0.2299103960394859 -0.2299103960394859 -0.52662721276283253 0.70981648564338695 -0.90936523675918568 -0.9051302671432494 -0.95868277549743641 -0.68106326460838307
decision_type=2 2 2 2 2 2 2 2 2 2 2 2 2 2 2 2 2 2 2 2 2 2 2 2 2 2 2 2 2 2 2 2 2 2 2 2 2 2 2 2 2 2 2 2 2 2 2 2 2 2 2 2
left_child=6 2 40 4 11 -6 21 13 -9 10 16 -4 15 -5 18 27 17 -3 -12 -16 -17 22 30 29 32 26 -26 -11 -25 -24 -1 -32 39 -18 -27 -34 37 -14 -38 -23 41 45 44 47 -42 -2 -44 50 -49 -50 -8 -45
right_child=1 9 3 7 5 -7 43 8 -10 12 14 -13 36 -15 19 20 33 -19 -20 -21 -22 24 23 28 25 34 -28 -29 -30 -31 31 -33 35 -35 -36 -37 38 -39 -40 -41 42 -43 46 51 -46 -47 -48 48 49 -51 -52 -53
leaf_value=0.39643873049212841 -0.1288586836724854 0.035047431546835012 0.34461877948342634 -0.041169696495130491 0.17807987212220677 0.25129269076149208 -0.12603628908986481 -0.0050398279949191178 0.34058918488545969 -0.025088137334366559 0.20506029804800951 -0.075363292330512657 0.53564749769294773 0.10102092943840205 0.18305155365717959 0.22511614451849948 -0.10688927859983309 0.15165649460243133 -0.0488723478684066 0.3741805727394647 -0.0099468769976102239 0.43443420163815971 -0.11906524887007022 0.00076906790845307276 0.10064901026604887 0.28928216494445563 0.25161653618648355 0.14824467487900175 0.32483473709188943 0.082958724857724819 -0.12759793372760014 0.43878902109010876 0.18255702731206244 -0.018601365412662729 0.3560991336262212 0.3426742615781988 -0.10947808198210479 -0.10910493901077573 0.02172077714645021 0.34602486901287077 -0.12734728862117978 0.22544396770136862 -0.1202034857736996 -0.10805434984065375 -0.11626097449406708 -0.11532940622874242 -0.10638199917018393 -0.12922733256907309 -0.11915194350828458 -0.12318290060948084 -0.12948762413250209 -0.10595131312343456
leaf_weight=45.001149833202362 12.551312536001204 1848.6979171261191 37.419456951320171 673.38056347519159 54797.677050482482 2781.8769794814289 2.9169304966926575 243.80711522698402 289.80219411849976 100.96944148093462 76.514437541365623 318.50681005045772 4.4943074882030514 385.58126191049814 136.12473906204104 886.03203093260527 178.1231144554913 266.23018369451165 85.770891141146421 117.2677394002676 39.305180422961712 60.325118601322174 24.283578999340534 11.183665096759794 76.30229552090168 160.9564491584897 14233.155792377889 94.687768705189228 61.603515937924385 112.28759670257568 6.932062588632105 5.2563511356711388 18.732580542564392 66.735406875610352 144.65955364704132 27.874998599290848 60.116644900292158 13.598968330770729 21.650174021720886 33.926586017012596 13.453452557325361 8.1499873735010606 2.2326385304331771 1.4887682758271683 89.818976495414972 11.64700833708048 116.38186369091272 3.0299953594803801 9.1997255161404592 2.7707655951380721 5.2342604845762271 61.232494097203016
leaf_count=35 75 20436 51 4999 204181 5791 20 1551 1003 983 285 4132 8 2478 732 2711 2988 2023 663 140 229 27 233 48 256 223 4429 332 80 530 51 10 45 1039 93 21 828 182 225 29 82 28 17 24 747 109 2148 18 72 19 30 1155
internal_value=0 0.170898 0.176124 0.177312 0.18031 0.181617 0.249806 0.0682567 0.182671 0.0927272 0.0595152 -0.0312095 0.168231 0.0106037 0.193167 0.187845 0.0359722 0.0497263 0.0708521 0.271504 0.215131 0.251868 0.171472 0.126307 0.25332 0.252277 0.250812 0.0587958 0.275042 0.0470371 0.336812 0.116661 0.361485 -0.0828267 0.320909 0.27832 -0.0519481 0.0510493 -0.0747393 0.402611 -0.101985 -0.0347228 -0.111791 -0.110896 -0.117705 -0.122347 -0.106642 -0.124157 -0.121932 -0.120085 -0.128253 -0.106001
internal_weight=0 63778.6 59782.3 59528.1 57935.5 57579.6 15108.4 1592.57 533.609 3996.32 2775.46 355.926 1220.85 1058.96 415.678 1120.99 2359.79 2114.93 162.285 253.392 925.337 15022.5 266.548 209.358 14755.9 14615.1 14309.5 195.657 72.7872 136.571 57.1896 12.1884 140.859 244.859 305.616 46.6076 99.8601 18.0933 81.7668 94.2517 254.235 32.3483 221.887 85.8729 103.272 24.1983 118.615 23.1517 15.0005 11.9705 8.15119 62.7213
internal_count=268644 261196 227392 224186 214155 209972 7448 10031 2554 33804 28306 4183 5498 7477 1820 4255 26486 22459 948 872 2940 6110 987 891 5123 5001 4685 1315 128 763 96 61 122 4027 316 66 1243 190 1053 56 3206 212 2994 1338 829 184 2165 159 109 91 50 1179
is_linear=0
shrinkage=0.1


Tree=4
num_leaves=55
num_cat=0
split_feature=46 32 5 35 71 132 45 109 75 56 28 113 32 104 79 57 130 107 131 70 103 134 46 101 8 129 32 130 113 31 114 5 38 106 7 114 101 29 28 116 71 110 72 44 102 48 131 3 96 90 104 72 1 3
split_gain=7450.85 1970.14 1668.58 1526.2 1652.13 2955.21 2573.72 1915.42 1701.43 1497.06 1406.41 1612.91 952.259 846.431 832.526 705.028 642.482 620.701 465.266 419.422 384.572 367.703 359.297 279.448 245.376 232.786 223.087 192.29 180.141 152.455 193.751 158.095 98.019 81.6644 63.6298 47.6604 134.249 47.8549 33.3917 82.3465 31.8851 38.2587 20.7886 12.282 11.4049 8.54697 0.397037 0.0145517 0.016766 0.00240008 0.00143358 0.000474435 7.10543e-15 1.77636e-15
threshold=0.78891482949256908 0.95699903368949901 0.61633348464965831 0.91254785656929027 -0.43340112268924708 1.0000000180025095e-35 1.182701110839844 -1.1294601559638975 -1.0628639459609983 0.98869195580482494 1.1688564419746401 -1.0375158786773679 0.92059054970741283 -0.85552641749382008 -0.97754868865013111 0.96107068657875072 1.0000000180025095e-35 -0.85941100120544422 1.0000000180025095e-35 -0.20233165472745893 -0.75958681106567372 1.0000000180025095e-35 1.1227545738220217 -0.84793034195899952 0.76033267378807079 1.0000000180025095e-35 0.95801660418510448 1.0000000180025095e-35 -0.92654216289520253 0.93051022291183483 -0.97023257613182057 0.83211043477058422 0.98251381516456615 -0.89831531047821034 0.84776279330253612 -0.92422649264335621 -0.94593900442123402 1.2418932318687441 1.3934236168861391 -0.93562608957290638 -0.70714366436004628 -0.91559019684791554 -0.5553317368030547 1.0854998230934145 -0.9332199990749358 0.77985224127769481 1.0000000180025095e-35 0.70981648564338695 -0.91436836123466481 -0.9051302671432494 -0.95868277549743641 -0.68106326460838307 -0.69218170642852772 -0.71770697832107533
decision_type=2 2 2 2 2 2 2 2 2 2 2 2 2 2 2 2 2 2 2 2 2 2 2 2 2 2 2 2 2 2 2 2 2 2 2 2 2 2 2 2 2 2 2 2 2 2 2 2 2 2 2 2 2 2
left_child=14 3 10 4 5 8 12 -8 -2 16 11 20 -6 27 28 -13 21 19 -15 -11 -3 -5 -18 24 26 -19 -4 -12 29 30 31 -1 43 -32 40 36 -36 -37 39 -31 41 -30 -7 -25 -40 -42 47 50 -49 -50 -16 -48 -53 -54
right_child=1 2 23 9 6 42 7 -9 -10 17 13 15 -14 18 46 -17 22 25 -20 -21 -22 -23 -24 32 -26 -27 -28 -29 34 38 33 -33 -34 -35 35 37 -38 -39 44 -41 45 -43 -44 -45 -46 -47 51 48 49 -51 -52 52 53 -55
leaf_value=0.24538996764000745 0.12969367129021889 0.19009785296906737 0.099256188347868965 0.21065586076907286 -0.0073435888715580044 -0.10979326322500663 -0.069540741785911131 0.17680254168580817 0.17012293816054844 0.18351902319265578 0.021084976735314578 0.08338156517994702 0.085766635808890712 0.23903188725675917 -0.12304853431184955 -0.064968908717763743 0.35742855153629605 0.056693198009444862 -0.040741603967143582 0.084327912261465895 -0.058181620348110509 0.27167204197434325 0.046425997083583408 -0.10923748446686508 0.53131970188526034 -0.12076016925431723 -0.025098306961536046 0.19598562656111551 0.30001558977741305 -0.0340263898668796 -0.081089527234547765 -0.018710939204700624 0.56681071786995663 0.09172413930440404 -0.13847426519528935 0.21726381622502286 0.19972964262934312 0.25130042570809014 0.23187236670694597 0.23380536870757385 0.32437223880940297 0.063153100497805731 0.034058052424265697 -0.019915017820241149 0.30066283697292207 0.27614555113194356 -0.10724565408988405 -0.12698269347602284 -0.11705545656713144 -0.12053240171149485 -0.12592204467749943 -0.10535301880503761 -0.10535301880503758 -0.10535301880503763
leaf_weight=96.708683934062719 19019.623803786933 1773.3463726341724 196.88186866044998 2270.6540618874133 1774.1674556285143 437.33903960511088 342.70431218296289 3995.7053148932755 22993.505193047225 1263.0408749580383 292.78700436279178 6969.5698075629771 2883.7477787956595 1413.8777412548661 2.7001156434416771 335.78720072284341 43.022435374557972 290.27773400396109 62.04992613941431 643.46947319805622 64.662129685282707 1747.9655608013272 272.01662567257881 283.52392743900418 9.0749208070337755 99.183108307421207 539.76819531992078 80.045003361999989 13.202101171016695 15.210360504686831 57.031214855611324 29.60481796041131 2.1916523426771155 52.533064767718315 14.131446562707422 14577.887108579278 69.265146613121033 425.12564104795456 55.257707223296165 46.799884401261806 60.085867449641228 14.104816451668738 10.282313760370014 16.277607105672359 42.744085267186165 94.613635063171387 1.3567318990826596 2.4305153787136087 8.8513756319880468 2.5593717247247669 4.8632888048887279 47.360480688512325 5.1122311130166054 3.2313158921897394
leaf_count=175 74174 4646 1151 5049 12126 5650 4433 11341 58877 2252 1755 47172 9926 3408 20 3142 96 1098 664 1901 493 1733 938 2890 20 781 4972 168 5 73 318 294 18 176 72 4195 118 413 71 56 25 38 131 191 14 67 24 15 75 19 30 982 106 67
internal_value=0 0.139037 0.102221 0.146668 0.140849 0.149097 0.101922 0.157343 0.15182 0.191827 0.113714 0.0976298 0.0503016 0.193262 0.215164 0.0765627 0.226415 0.126541 0.22727 0.150041 0.181363 0.237196 0.0888972 -0.018361 0.0145042 0.0115016 0.00813748 0.0586352 0.216791 0.150194 0.0990823 0.183491 -0.0995167 0.00176988 0.218518 0.217809 0.142421 0.218228 0.225538 0.168109 0.277292 0.177669 -0.106489 -0.104388 0.261876 0.294877 -0.109755 -0.121369 -0.119442 -0.117835 -0.124896 -0.105398 -0.105353 -0.105353
internal_weight=0 70126.5 12039.8 58086.7 51457.1 42460.8 8996.32 4338.41 42013.1 6629.63 10992.1 9143.37 4657.92 1848.76 15742.8 7305.36 4333.66 2295.97 1475.93 1906.51 1838.01 4018.62 315.039 1047.72 745.725 389.461 736.65 372.832 15664.3 395.89 235.878 126.314 301.993 109.564 15268.4 15086.4 83.3966 15003 160.012 62.0102 182.006 27.3069 447.621 299.802 98.0018 154.7 78.4654 21.4047 13.8413 11.4107 7.5634 57.0608 55.704 8.34355
internal_count=268644 261196 70690 190506 176658 138832 37826 15774 133051 13848 61448 55453 22052 5995 7448 50314 7816 6032 4072 4153 5139 6782 1034 9242 6143 1879 6123 1923 6110 1177 963 469 3099 494 4933 4798 190 4608 214 129 135 43 5781 3081 85 92 1338 159 109 94 50 1179 1155 173
is_linear=0
shrinkage=0.1


Tree=5
num_leaves=53
num_cat=0
split_feature=45 31 130 41 76 126 69 101 68 131 74 30 24 30 76 0 85 80 45 31 33 78 73 52 117 114 125 43 102 30 32 99 26 106 9 122 30 45 105 55 112 51 51 113 91 91 75 2 95 61 72 72
split_gain=7390.89 1528.86 4121.6 2062.9 1493.75 1427.56 1174.1 1669.28 1088.16 1081.8 1607.26 1442.94 1015.57 1009.27 870.546 759.926 704.071 590.141 523.344 508.248 380.876 368.523 334.869 497.899 228.573 211.191 189.166 128.245 109.068 104.324 84.4737 74.0799 65.9112 46.2747 32.0313 25.3755 20.8354 55.8454 14.1776 53.5438 7.29648 6.54958 0.760666 0.320132 0.132792 0.0976551 0.0460949 0.015064 0.0119149 0.00539093 1.06592e-05 7.10543e-15
threshold=0.77335944771766674 0.99670517444610607 1.0000000180025095e-35 0.95124369859695446 -1.178194463253021 -3.0326881408691402 -0.11253569275140761 -0.81448015570640553 0.0040151807479560384 1.0000000180025095e-35 -1.0209341645240781 1.1011595129966738 1.4668052792549136 1.0337044000625613 -1.2275222539901731 0.29549096524715429 -1.1474580168724058 -0.97579672932624806 1.0358377099037173 1.0007157325744631 0.94624006748199474 -1.3513392210006712 -0.87435290217399586 0.97662809491157543 -0.9386686086654662 -0.92422649264335621 -1.110641300678253 0.99107477068901073 -0.9141748547554015 1.0958606004714968 0.79275035858154308 -1.0125426054000852 1.5833106040954592 -0.97885605692863453 0.93271306157112133 -0.98454010486602772 1.0894973874092104 0.73834490776062023 -0.78248709440231312 1.053556025028229 -0.91484808921813954 0.74944746494293224 1.177354693412781 -0.89783313870429982 -0.2299103960394859 -0.2299103960394859 -0.52662721276283253 0.68391677737236034 -0.91389808058738697 0.2081490904092789 -0.68106326460838307 -0.67982169985771168
decision_type=2 2 2 2 2 2 2 2 2 2 2 2 2 2 2 2 2 2 2 2 2 2 2 2 2 2 2 2 2 2 2 2 2 2 2 2 2 2 2 2 2 2 2 2 2 2 2 2 2 2 2 2
left_child=17 5 6 22 21 38 7 12 -6 10 11 -7 -3 -12 27 -9 19 25 -16 -8 -18 -5 23 -4 -24 26 28 -11 32 31 -30 -28 -1 -19 41 -31 37 -36 39 45 -38 -27 44 47 -40 -2 -44 49 -49 -35 -45 -52
right_child=1 2 3 4 8 9 16 15 -10 14 13 -13 -14 -15 18 -17 20 33 -20 -21 -22 -23 24 -25 -26 34 29 -29 30 35 -32 -33 -34 43 36 -37 40 -39 42 -41 -42 -43 46 50 -46 -47 -48 48 -50 -51 51 -53
leaf_value=0.06490254561461295 -0.12827332752581083 0.069839948969575308 0.35539219335706851 -0.050851175279828555 0.20811958512271034 0.0055631441985699529 0.042012524298017197 0.0037517939905311794 0.10482737283101354 0.15844017245869205 0.10884953637632239 0.2312757310683432 0.17537312953842177 0.14100436147924586 0.076692699287621735 0.19811368805043214 0.15465235151270923 0.25031145964324869 0.19795551787111709 -0.040618966742788837 -0.072844767882625228 0.077083899559579783 0.30747057095173203 0.018995083192333465 0.44941190784055868 0.22376850618185973 0.2388823842596374 0.3332915281450165 -0.13518582988701719 0.095814048205574237 0.26773935154977535 -0.027778579804832212 0.19792922168884397 -0.12117119865149073 0.19450685729481204 0.25645755321413927 0.19502791283440926 0.10846460857781526 -0.12774635805732928 0.1593843220596185 0.23146990264686049 0.26987116684721713 -0.12110517980258487 -0.10516367044459406 -0.11720124459180326 -0.11548390723363094 -0.1068163120355516 -0.12387904196769313 -0.1162063491526179 -0.12674530606913634 -0.10481775089898659 -0.10481775089898659
leaf_weight=41.868299808353186 12.446742683649061 14759.884944565594 84.572339832782745 304.36289280653 2828.0826331675053 1811.0788684561849 1648.0555424802005 228.24869783967733 1595.1799375005066 46.472043797373772 15167.928717583418 335.73325936496258 971.90936205536127 27386.095268420875 493.94994032382965 1695.2052276991308 522.9491552002728 3.780095722526311 1273.467725597322 1357.4850354120135 85.644612360745668 865.20102997869253 622.55880975723267 91.710104905068874 138.73198334872723 64.775289297103882 11.482531096786259 430.81020420789719 19.336617685854439 18.051859363913536 7.1188046783208838 112.36509087309241 337.38318448513746 3.6518724411726025 14795.685996197164 21.597469061613083 75.215227782726288 75.819986343383789 13.691948235034941 9.4149071797728521 203.84726999700069 58.775790005922318 2.2997688949108115 0.90674006938934226 93.423519607633352 11.473870642483236 123.27625335752964 2.6121470630168924 8.9878213666379416 3.3055791631340981 1.5347678959369648 49.11257266998291
leaf_count=165 75 65666 71 2275 4735 8488 11476 893 5553 148 54615 533 1996 71239 1938 3463 1435 6 3054 14346 552 3766 649 439 93 18 17 570 103 42 6 640 448 27 4311 12 75 137 82 28 125 23 17 20 747 109 2148 17 77 21 35 1120
internal_value=0 0.116422 0.097817 0.167307 0.144294 0.127377 0.0764814 0.0871116 0.170869 0.128686 0.125284 0.0408616 0.0763598 0.129543 0.196427 0.17505 0.0245525 0.191446 0.164066 0.00469111 0.122638 0.0437906 0.304579 0.180383 0.333337 0.192761 0.132953 0.316267 0.169549 0.042142 -0.026764 -0.00305511 0.183243 -0.0905028 0.19499 0.183319 0.194576 0.194068 -0.103621 -0.0426285 0.221648 0.2457 -0.112359 -0.108878 -0.118549 -0.122139 -0.107078 -0.120141 -0.117934 -0.12382 -0.104824 -0.104818
internal_weight=0 75011.3 27799.8 6530.4 5592.83 47211.6 21269.4 17655.2 4423.26 46945.5 44700.8 2146.81 15731.8 42554 2244.7 1923.45 3614.13 15917.2 1767.42 3005.54 608.594 1169.56 937.573 176.282 761.291 15843.3 569.204 477.282 405.707 163.497 26.4554 123.848 379.251 73.8916 15274.1 39.6493 15150.6 14871.5 266.027 33.3355 279.062 123.551 232.691 70.1115 107.115 23.9206 125.576 18.5574 11.6 6.95745 51.5541 50.6473
internal_count=268644 261199 117408 17581 16329 143791 99827 72018 10288 140585 134875 9021 67662 125854 5710 4356 27809 7445 4992 25822 1987 6041 1252 510 742 6122 1433 718 722 711 109 657 613 1323 4689 54 4648 4448 3206 212 200 41 2994 1317 829 184 2165 142 94 48 1175 1155
is_linear=0
shrinkage=0.1


Tree=6
num_leaves=51
num_cat=0
split_feature=45 113 129 132 114 109 51 133 73 31 4 80 116 53 36 58 108 33 105 107 130 29 80 71 130 71 111 114 125 99 109 80 102 107 30 32 104 106 38 10 121 3 75 41 113 135 79 2 72 70
split_gain=7375.31 1351.91 1690.41 1237.73 2996.53 2234.02 1559.07 1418.83 1632.91 1183.02 1038.08 1605.5 1312.52 1025.67 994.199 984.036 870.022 846.697 779.997 720.909 1953.08 1350.38 474.557 465.43 443.881 380.377 278.346 213.451 134.828 91.9619 91.1925 84.0461 78.3145 76.8447 66.8434 66.5854 64.5383 47.6409 46.8494 18.6073 11.329 34.4537 5.19416 4.11817 0.375887 0.20739 0.104899 0.0153074 7.89167e-06 7.10543e-15
threshold=0.77335944771766674 -1.0338811278343198 1.0000000180025095e-35 1.0000000180025095e-35 -1.3873591423034666 -1.1294601559638975 1.1837909221649172 1.0000000180025095e-35 -0.65367627143859852 0.9979693889617921 0.60935500264167797 -1.3934090137481687 -0.93463465571403492 1.0026059150695803 0.91004246473312389 0.91447949409484874 -0.87275084853172291 0.87695983052253734 -0.91534093022346485 -0.89194524288177479 1.0000000180025095e-35 1.1670802235603335 -1.0041317343711851 -0.53564471006393422 1.0000000180025095e-35 -0.42719672620296473 -0.96780145168304432 -0.92422649264335621 -1.110641300678253 -0.95506146550178517 -1.1321626901626585 -1.1441723704338072 -0.9141748547554015 -0.97783321142196644 1.1106624007225039 0.79275035858154308 -0.82777839899063099 -0.88544470071792591 0.99113601446151745 0.92752483487129223 -0.96269148588180531 0.74848324060440075 -1.165196359157562 0.67270776629447948 -0.89783313870429982 1.0000000180025095e-35 -0.97754868865013111 0.68391677737236034 -0.68106326460838307 -0.67111065983772267
decision_type=2 2 2 2 2 2 2 2 2 2 2 2 2 2 2 2 2 2 2 2 2 2 2 2 2 2 2 2 2 2 2 2 2 2 2 2 2 2 2 2 2 2 2 2 2 2 2 2 2 2
left_child=22 3 15 7 5 30 -7 9 13 18 11 12 -4 -9 33 19 23 -16 -2 20 -3 -21 27 -12 -11 -10 -13 28 32 31 -5 -30 37 -6 44 -34 -17 -1 -38 -29 43 -42 -18 -41 46 -31 -24 -48 -46 -50
right_child=1 2 10 4 14 6 -8 8 25 24 16 26 -14 -15 17 36 42 -19 -20 21 -22 -23 34 -25 -26 -27 -28 39 29 45 -32 -33 35 -35 -36 -37 38 -39 -40 40 41 -43 -44 -45 48 -47 47 -49 49 -51
leaf_value=0.14309153895120499 0.20373620767732953 0.057411543141643789 0.24706056556433997 -0.10436871354975114 -0.058839206418781667 0.1832770222475105 -0.085364451197400493 0.066082134573407295 0.11391265183099662 0.054217824436559647 0.11257505218436775 0.025441475521443546 -0.053918206885008015 0.13283320555232422 0.11130299753165324 0.19237052054487497 -0.074650849832085461 -0.06838180833359811 0.14297023469470738 0.095955750996773073 0.1755440387713626 0.16434158271809879 -0.13869377440123545 0.29278141840304617 0.15806371509633643 -0.025996689379489752 -0.065580237389084417 0.22842639016506716 -0.039497904809226742 -0.11614925913153117 0.0098519713574937492 0.12754347185530543 -0.13082126898842278 -0.11349813387985862 0.18569239603023791 0.22101505319539189 -0.13096995275261519 0.24414070546316041 -0.052687216745450051 0.18522143790055851 0.14614940750409353 0.17790983625414075 -0.11809471530621179 0.22223035214563247 -0.10465051196145292 -0.13518336746001988 -0.12129877437307848 -0.11528909108606245 -0.10433833284473709 -0.10433833284473615
leaf_weight=339.31657017022371 2653.8834217265248 10007.216823551804 388.60144981741905 345.88954127207398 452.64134544879198 2710.1416000723839 234.74410001933575 3404.0908307507634 232.39178243279457 1796.9029874838889 443.25200673192739 416.99253319203854 231.02643011510372 7109.5491852685809 714.41992133483291 9.065781753510235 38.090706348419189 414.33480617776513 10352.679296452552 27319.40358909592 1627.0791389122605 3228.788405906409 2.7795078828930881 211.80959931015968 533.91451861709356 1186.1954470053315 1728.9895097538829 71.851603269577026 44.991852086037397 8.2158428616821784 87.601705074310303 91.13144139200449 17.722274735569957 595.73961993679404 8.6767476648092252 7.7229786664247504 112.70950258523226 54.094864211976528 237.62898383289576 50.221916109323502 349.76895688474178 14548.23662353307 99.174556635320187 74.921634465456009 0.82427016645669837 18.875836282968521 7.2352791614830521 10.232360515743492 45.230422616004937 0.7970118522644104
leaf_count=579 3447 33479 1060 4961 4984 3662 2131 9457 582 6193 1276 1866 1898 15509 2338 30 354 3811 18455 105460 2471 7699 15 359 871 4588 14479 20 204 92 632 300 101 6122 14 6 554 22 1625 44 414 4177 846 33 20 100 54 95 1135 20
internal_value=0 0.0992182 0.0881744 0.114728 0.0717065 0.130664 0.161863 0.123493 0.0976322 0.143612 0.0219595 -0.0069522 0.134842 0.111221 -0.0197802 0.0937122 0.122875 0.0453456 0.155369 0.0951161 0.0739326 0.103184 0.174161 0.170844 0.0780055 -0.00307686 -0.0478935 0.175367 0.115946 0.0388455 -0.0812865 0.0723325 0.145989 -0.089899 -0.0754899 -0.0240342 -0.0710553 0.156986 -0.077872 0.177659 0.177416 0.177164 -0.106039 0.207378 -0.109264 -0.129411 -0.12065 -0.117778 -0.104344 -0.104338
internal_weight=0 78924.9 46099.8 32825.1 5555.51 3378.38 2944.89 27269.6 11932.2 15337.4 3557.94 2765.61 619.628 10513.6 2177.14 42541.9 792.327 1128.75 13006.6 42182.5 11634.3 30548.2 15752.8 655.062 2330.82 1418.59 2145.98 15677.1 582.072 163.215 433.491 136.123 418.857 1048.38 75.7756 25.4453 359.404 393.411 350.338 15095 15023.1 14898 137.265 125.144 67.0989 27.0917 20.2471 17.4676 46.8517 46.0274
internal_count=268644 261199 173456 87743 28641 11386 5793 59102 30136 28966 22138 19303 2958 24966 17255 151318 2835 6149 21902 149109 35950 113159 7445 1635 7064 5170 16345 6092 1404 696 5593 504 708 11106 1353 107 2209 601 2179 4688 4668 4591 1200 77 1339 192 164 149 1175 1155
is_linear=0
shrinkage=0.1


Tree=7
num_leaves=45
num_cat=0
split_feature=4 77 30 130 105 108 130 31 130 68 74 57 71 106 31 48 112 115 56 26 131 129 4 77 90 104 106 32 31 125 22 113 22 49 127 22 85 0 78 46 30 75 19 67
split_gain=7336.02 1321.63 1218.16 1134.79 1433.78 1047.5 1430.65 1148.83 2296.33 1072.99 1437.61 943.089 925.771 909.963 799.989 705.235 594.919 414.751 405.471 400.346 356.444 342.264 530.01 402.859 222.234 202.439 125.852 118.285 110.399 52.7556 78.7783 79.8658 1.29538 0.588067 0.487703 3.9518 0.240148 0.176659 0.0407221 0.0073494 0.0051308 0.00148855 3.023e-06 1.77636e-15
threshold=0.86658430099487316 -1.2004745602607725 1.1011595129966738 1.0000000180025095e-35 -0.79315853118896473 -0.88816609978675831 1.0000000180025095e-35 0.99543851613998424 1.0000000180025095e-35 0.0049472614191472539 -0.95968058705329884 0.9585237205028535 -0.23134446889162061 -0.90079283714294422 0.9997527301311494 1.054299592971802 -0.96252951025962818 -0.98912030458450306 0.84186223149299633 1.2556266784667971 1.0000000180025095e-35 1.0000000180025095e-35 0.60935500264167797 -1.2147981524467466 -1.1436764597892759 -0.92460641264915455 -0.90275767445564259 0.94189515709877025 0.98634326457977306 -0.35378064215183253 1.3854053020477297 -0.95509508252143849 0.96441221237182628 0.84045475721359264 1.0000000180025095e-35 1.2771088480949404 -1.1242406368255613 0.64427542686462413 -1.2146664857864378 0.78891482949256908 1.1032887697219851 -1.1745424270629881 1.2309157252311709 -0.079019606113433824
decision_type=2 2 2 2 2 2 2 2 2 2 2 2 2 2 2 2 2 2 2 2 2 2 2 2 2 2 2 2 2 2 2 2 2 2 2 2 2 2 2 2 2 2 2 2
left_child=1 5 3 4 12 6 21 8 11 10 -9 -7 -3 27 -15 28 -11 -17 -10 -6 24 23 -23 -1 26 -26 -4 -5 -8 30 41 36 -31 34 35 -34 -32 -36 -22 -38 -40 42 -2 -44
right_child=29 2 20 13 19 7 15 9 18 16 -12 -13 -14 14 -16 17 -18 -19 -20 -21 38 22 -24 -25 25 -27 -28 -29 -30 32 31 -33 33 -35 37 -37 39 -39 40 -41 -42 -43 43 -45
leaf_value=-0.040127011808941009 -0.12830494141383947 0.085708242526555511 -0.11241170147372437 0.21476718538106848 -0.049440780429882446 0.13054068725194798 -0.13666147776971074 0.060603400291060532 0.16714989695004107 0.20534515852821583 0.18080603834904774 -0.075398715355913429 0.14988623784710445 0.07388092393068986 0.15199743729807275 -0.063611885793999942 0.0090992722656988347 0.12012752818206536 -0.04293278772969112 0.24777778779799495 -0.13536768377980957 -0.0930996992550851 0.18104576063797262 0.024302912274420153 0.14616854118278422 0.20613679145065544 0.15723605190410173 0.15052902369866517 0.23839701890453396 0.14535140209876377 -0.14731289896663916 0.19163186125722909 0.12746290619764958 0.17419548637476204 0.16812552626248323 0.16516863179133623 -0.10932548463224355 0.16518035004399623 -0.12025894292856364 -0.11690540673150202 -0.12410065715307649 -0.12598327459756306 -0.1284172196528903 -0.12841721965289021
leaf_weight=1840.7833491154015 3.4380788356065732 45069.616624824703 42.625346951186657 1129.9482788741589 910.47734919562936 7532.6756684333086 7.996052771806716 6183.137171767652 100.39055113494396 160.61946742981672 1185.7969882190228 229.13282396644354 2365.6396125517786 2796.5276580117643 2467.9324265085161 179.80926489830017 4037.7528964541852 387.83373588323593 1082.5878703407943 47.693257510662079 3.2524102479219428 100.64406635984778 235.62347461283207 2052.5748703591526 1137.8597434572875 1114.0950827300549 29.142764866352081 384.07556205242872 424.20168155431747 33.005038902163506 2.3553086519241297 43.923072192817926 31.204127371311188 72.072443082928658 206.82802486419678 254.48531341552734 6.2063127458095568 13311.081490039825 3.8648239821195594 1.6112365089356897 34.594062313437462 3.3449731618165961 4.3079935014247885 3.618714541196824
leaf_count=9857 20 127668 185 890 8027 20567 41 25792 208 770 2479 1889 4433 6667 4000 738 29171 870 4981 29 17 776 487 9615 1873 1209 54 491 440 15 11 21 20 21 58 72 84 3766 28 15 222 21 25 21
internal_value=0 0.0864167 0.0948428 0.09183 0.0864625 0.0675826 0.0276308 0.0777681 0.104681 0.0569572 0.0799462 0.124461 0.0889089 0.13015 0.110501 0.135209 0.0166072 0.0619254 -0.0251046 -0.0346466 0.165115 0.00220046 0.0989947 -0.00615962 0.170315 0.175836 -0.00291626 0.198471 0.231458 0.164707 0.0773593 0.133156 0.165139 0.165186 0.165139 0.16105 -0.119321 0.165225 -0.124623 -0.110888 -0.123715 -0.127838 -0.128383 -0.128417
internal_weight=0 83278.9 57537.3 55171.9 48393.4 25741.6 5229.47 20512.1 8944.79 11567.3 7368.93 7761.81 47435.3 6778.48 5264.46 999.841 4198.37 567.643 1182.98 958.171 2365.43 4229.63 336.268 3893.36 2323.72 2251.95 71.7681 1514.02 432.198 13977.5 68.8057 54.0959 13908.7 13875.7 13803.6 285.689 10.1729 13517.9 41.7113 7.81755 38.4589 14.7098 11.3648 7.92671
internal_count=268644 264474 155793 152205 140157 108681 22824 85857 27645 58212 28271 22456 132101 12048 10667 2089 29941 1608 5189 8056 3588 20735 1263 19472 3321 3082 239 1381 481 4170 218 131 3952 3937 3916 92 110 3824 267 99 250 87 66 46
is_linear=0
shrinkage=0.1


Tree=8
num_leaves=47
num_cat=0
split_feature=4 78 129 92 107 129 132 75 36 108 130 78 107 114 107 83 112 132 42 77 30 116 4 68 21 91 71 34 125 22 113 22 43 34 67 49 51 127 85 0 132 46 3 75 102 20
split_gain=7311.03 1109.23 982.82 976.598 840.488 2068.12 1232.25 818.546 1289.72 764.706 929.876 887.755 1184.58 778.733 715.66 633.712 622.868 1047.34 855.254 550.453 470.434 443.482 206.747 197.711 128.777 112.869 159.093 64.1306 45.6404 66.3865 65.6542 1.16468 0.55867 0.462548 3.74788 0.337382 0.281267 0.464427 0.164464 0.106376 0.00852845 0.00531132 0.00254632 0.000984961 2.20179e-06 1.29401e-09
threshold=0.86658430099487316 -1.1958678960800169 1.0000000180025095e-35 -0.26800486445426935 -0.99041831493377674 1.0000000180025095e-35 1.0000000180025095e-35 -1.0792377591133115 0.95326685905456554 -0.9034096598625182 1.0000000180025095e-35 -1.2411053776741026 -0.86901119351387013 -0.9404640495777129 -0.89580443501472462 -1.2808370590209959 -1.2957630753517149 1.0000000180025095e-35 1.1326068639755251 -1.1969887018203733 1.0337044000625613 -1.0256236791610716 0.66743549704551708 0.1131381466984749 1.0443036556243899 -0.2299103960394859 -0.20112546533346173 0.84658035635948192 -0.35378064215183253 1.3854053020477297 -0.95509508252143849 0.96441221237182628 1.1582850217819216 0.73499169945716869 0.057197425514459617 0.84045475721359264 1.177354693412781 -3.305601835250854 -1.1242406368255613 0.64427542686462413 1.0000000180025095e-35 0.78891482949256908 0.98690116405487072 -1.1745424270629881 -0.93173065781593312 1.2185933589935305
decision_type=2 2 2 2 2 2 2 2 2 2 2 2 2 2 2 2 2 2 2 2 2 2 2 2 2 2 2 2 2 2 2 2 2 2 2 2 2 2 2 2 2 2 2 2 2 2
left_child=1 2 9 4 5 6 -3 8 15 10 19 12 -11 -13 22 -4 18 -18 -6 -1 -10 -12 -9 -16 -7 26 32 -28 29 43 38 -30 -5 35 -35 39 37 -27 -31 -33 -38 -40 -36 44 -2 -46
right_child=28 3 7 25 16 24 -8 14 20 11 21 13 -14 -15 23 -17 17 -19 -20 -21 -22 -23 -24 -25 -26 36 27 -29 31 30 -32 33 -34 34 42 -37 40 -39 41 -41 -42 -43 -44 -45 45 -47
leaf_value=-0.06990590329773802 -0.12489425451158967 0.054776216255701088 -0.01938935436609919 -0.12995764695071294 0.16392450375208867 -0.176820337824174 -0.069469570429236016 0.073510594371209229 0.20154515724450306 0.026381511013103695 0.0011443275687933437 0.11386384311806513 0.077834332250422328 0.018614593391045361 -0.092232669632047959 0.14277439169926501 0.093694718359954715 0.02495783535097891 -0.027481089096302244 0.027564136690166503 0.60159480809624766 0.16333805702175413 0.31209785231335596 -0.0056421874404897418 0.21491203956546509 -0.11615371438145877 0.13634747114316048 -0.061567838019643412 0.13608055623001819 -0.14090991890702681 0.17481334305711421 0.15758318189381881 -0.11066576194326372 0.11795028922151903 0.15596938934376567 0.16226231317692139 -0.11229404892331962 -0.1039033091267158 -0.10836919287706624 0.15525319665388804 -0.10558385488349356 -0.1150979246141815 0.15524609362917807 -0.12293553567489762 -0.12499522304792972 -0.12499254808811884
leaf_weight=700.20144408196211 3.1911722570657721 5380.6375529915094 1081.8435464240611 22.66421214863658 2084.1772253364325 8.4862021654844266 937.29479997232556 108.87329377233982 265.13835399597883 6255.8094554021955 224.39942505210638 6984.0502948947251 15714.360280334949 978.62680441141129 968.83364133909345 310.04480566084385 35438.264882791787 2364.617241114378 262.8917789645493 3358.3623062670231 33.060051262378693 677.71767315268517 54.501545876264572 362.2941126935184 755.28406627476215 102.6942681632936 66.075581468641758 21.765128679573536 31.790660202503204 2.2229093313217128 43.358605720102787 198.99476957321167 44.452432733029127 30.200901985168457 71.461699247360229 69.751723900437355 1.9291670843958844 44.295188385993242 5.6627228036522883 12793.259540081024 104.16518701612949 1.4796243719756601 152.62284278869629 3.0978015810251227 3.1996330171823493 4.1592568159103394
leaf_count=3913 20 14196 7652 165 1866 35 10671 316 384 25547 628 18829 60083 3512 7888 693 72517 11963 1626 12131 105 836 19 3367 253 897 148 182 15 11 21 58 576 20 21 21 21 1247 84 3772 2208 15 45 21 20 26
internal_value=0 0.0753953 0.0626713 0.0855655 0.0868963 0.0551332 0.0363438 0.00949172 0.0571665 0.0675248 0.0311602 0.0735514 0.0631836 0.102158 -0.0444222 0.0167328 0.0924987 0.0893951 0.142485 0.0107482 0.245897 0.122993 0.153103 -0.0686653 0.21056 -0.0684761 -0.00126192 0.0873081 0.154787 0.0720678 0.122951 0.155198 -0.11718 0.155244 0.15102 0.155326 -0.10963 -0.112462 -0.117156 0.155289 -0.105706 -0.109763 0.155477 -0.124503 -0.124964 -0.124994
internal_weight=0 85717.8 38078.1 47639.7 47231.7 7081.7 6317.93 3184.59 1690.09 34893.5 4960.68 29932.8 21970.2 7962.68 1494.5 1391.89 40150 37802.9 2347.07 4058.56 298.198 902.117 163.375 1331.13 763.77 408.041 154.957 87.8407 13414.5 66.3717 52.7239 13348.1 67.1166 13316.3 254.285 13062 253.084 146.989 9.36526 12992.3 106.094 7.14235 224.085 13.6479 10.5501 7.35889
internal_count=268644 264474 145903 118571 113127 25155 24867 20424 8834 125479 17508 107971 85630 22341 11590 8345 87972 84480 3492 16044 489 1464 335 11255 288 5444 1071 330 4170 218 131 3952 741 3937 86 3851 4373 2144 110 3830 2229 99 66 87 66 46
is_linear=0
shrinkage=0.1


Tree=9
num_leaves=47
num_cat=0
split_feature=4 30 114 56 53 28 28 126 129 64 107 131 135 2 97 34 26 109 19 88 102 125 22 113 36 22 90 127 29 78 0 111 85 129 32 32 32 2 90 46 80 20 75 16 62 103
split_gain=7219.67 942.584 944.341 1085.29 896.146 1130.97 1088.6 727.098 619.666 1053.37 820.198 508.452 498.067 392.432 362.556 237.046 237.626 207.728 196.978 167.184 113.66 39.9035 56.5299 54.8062 35.2389 1.09868 0.758191 0.490182 4.04981 0.257961 0.204615 0.125996 0.11376 0.0777555 0.0648486 0.0500431 0.0378547 0.00693042 0.00389799 0.00384857 0.00160367 0.00108069 0.000659921 0.000354677 1.52427e-06 3.7927e-10
threshold=0.86658430099487316 1.1032887697219851 -1.0515584945678709 0.99664506316185009 1.0026059150695803 1.2782050371170046 1.2345354557037356 -3.0326881408691402 1.0000000180025095e-35 0.50261941552162182 -0.8943524658679961 1.0000000180025095e-35 1.0000000180025095e-35 0.66230100393295299 -1.0358759760856626 0.91072547435760509 1.22076952457428 -1.0473644137382505 1.4275849461555483 -1.0422950983047483 -0.93488422036170948 -0.35378064215183253 1.3854053020477297 -0.95509508252143849 0.87909972667694103 0.96441221237182628 -1.1436764597892759 1.0000000180025095e-35 1.0440595149993899 -1.2146664857864378 0.64427542686462413 -0.55110573768615712 -1.1242406368255613 1.0000000180025095e-35 0.95337286591529857 0.8254818618297578 0.86212110519409191 0.59702959656715404 -1.1239212751388548 0.78891482949256908 -1.1405529975891111 1.4360712766647341 -1.1745424270629881 1.3889254331588747 0.24199490994215014 -0.89434370398521412
decision_type=2 2 2 2 2 2 2 2 2 2 2 2 2 2 2 2 2 2 2 2 2 2 2 2 2 2 2 2 2 2 2 2 2 2 2 2 2 2 2 2 2 2 2 2 2 2
left_child=1 2 4 8 5 12 7 -6 10 -10 -4 14 -1 -7 26 24 -17 -8 19 -16 -20 22 42 32 -5 -23 33 28 -27 34 31 -29 -24 -3 37 -32 -28 -13 41 -34 -40 -31 44 -30 45 -2
right_child=21 11 3 15 6 13 17 -9 9 -11 -12 29 -14 -15 18 16 -18 -19 20 -21 -22 25 23 -25 -26 27 36 30 43 38 35 -33 39 -35 -36 -37 -38 -39 40 -41 -42 -43 -44 -45 -46 -47
leaf_value=-0.0094634563264625257 -0.12205807785028176 -0.13579485397973945 0.037137346143041566 0.10823873394143223 -0.10163715602216222 0.12959447930569337 0.077516384781381342 0.080631573676689175 -0.0094305112593016435 0.14467235301914666 0.068656528280305718 -0.13719092928019508 0.084570010261215245 -0.042684348623299811 -0.075384175107167564 -0.031935060802251773 0.13027747239660156 0.1752543142424477 0.12840087005662318 0.15095696687446289 0.17791011784176733 0.12825759749512372 -0.13559244993373365 0.16160208695877779 -0.14177486800074154 0.1076218865216241 -0.17388837310930363 0.14866927818946077 0.14757788983928088 -0.11975202359950482 0.14729454946941253 0.15348696697380182 -0.10751737120048405 -0.14856945293227161 -0.12213491096123036 0.14936655934165441 -0.1632891629964377 -0.1341733824013098 -0.12325319620320446 -0.11350258395390185 -0.12561892908962974 -0.12193931046623817 -0.12030424803452507 0.14730218185693997 -0.12197120491965277 -0.12205657249628564
leaf_weight=2932.6286535747349 2.9611786603927603 20.032994747161869 10787.33270625025 5.8035224080085746 220.59117820300162 1328.0842989571393 254.97727128863335 27905.11088450253 2695.7938995175064 530.9282107912004 35182.775130227208 23.049205839633942 697.18966469168663 146.83998695760965 70.728179939091206 959.03272477537394 99.695562474429607 1477.6855397373438 839.73931273072958 60.589672908186913 1035.4839668348432 30.427311033010483 2.0861142575740779 42.267245307564735 197.1946112960577 28.796912968158722 4.8793909251689902 170.32673420011997 64.640226602554321 3.1594357490539533 12036.950401306152 79.679464340209961 5.1623615473508853 6.2516142427921286 3.6263239979743949 117.70275354385376 10.889511466026304 11.363577291369436 19.410304814577103 1.356670696288347 3.3616362959146526 7.9246982634067535 2.8611428141593924 167.7308406829834 2.9530515670776367 3.8493645638227454
leaf_count=11072 20 107 31306 19 3195 2089 562 66851 16427 2015 116750 117 1371 622 260 6334 229 1580 1161 74 998 15 11 21 927 20 20 53 20 23 3732 24 84 29 28 36 46 60 127 15 21 54 21 52 20 26
internal_value=0 0.0663253 0.0646904 0.0559382 0.0773215 0.038602 0.0839412 0.079202 0.0582868 0.0159257 0.0612602 0.132185 0.00859782 0.112443 0.141358 -0.0356399 -0.0166603 0.160871 0.147448 0.029049 0.155739 0.146842 0.0677655 0.114769 -0.134627 0.147237 -0.149233 0.147283 0.142995 -0.129203 0.147373 0.150205 -0.115267 -0.138833 -0.134854 0.147315 -0.166569 -0.136194 -0.122854 -0.108763 -0.123602 -0.121316 -0.12164 0.147379 -0.122031 -0.122057
internal_weight=0 87542.2 85421.7 50458.6 34963.1 5104.74 29858.4 28125.7 49196.8 3226.72 45970.1 2120.49 3629.82 1474.92 2048.59 1261.73 1058.73 1732.66 2006.54 131.318 1875.22 12759.8 63.4971 50.8724 202.998 12696.3 42.0535 12665.8 261.168 71.8952 12404.7 250.006 8.60515 26.2846 38.0391 12154.7 15.7689 34.4128 33.8561 6.51903 22.7719 11.0841 12.6247 232.371 9.76359 6.81054
internal_count=268644 264474 261349 174007 87342 15154 72188 70046 166498 18442 148056 3125 12443 2711 2695 7509 6563 2142 2493 334 2159 4170 218 131 946 3952 202 3937 92 430 3845 77 110 136 205 3768 66 177 225 99 148 77 87 72 66 46
is_linear=0
shrinkage=0.1


Tree=10
num_leaves=53
num_cat=0
split_feature=46 32 76 109 30 130 56 30 32 3 125 130 91 88 90 131 102 61 69 72 3 38 61 72 81 96 37 95 114 109 74 57 69 36 112 122 80 59 3 119 10 22 33 77 80 113 126 127 130 83 105 72
split_gain=7119.11 861.695 918.032 1139.9 790.1 903.246 1018.57 967.611 741.424 882.897 696.34 442.241 536.536 345.866 249.234 206.473 203.207 164.321 225.907 164.489 155.912 134.723 164.567 122.887 107.085 143.396 104.189 96.2054 72.1895 67.5054 65.9466 54.7895 43.3188 31.9937 17.9755 31.4947 55.9045 76.2816 27.5065 37.8454 10.8591 17.3091 8.12278 6.98722 1.9351 0.115334 0.0667516 0.123801 0.0296845 0.0186543 0.0159433 2.02374e-05
threshold=0.75382810831069957 0.96793183684349071 -1.1572425961494444 -0.90338650345802296 1.0980605483055117 1.0000000180025095e-35 1.0212929844856264 1.0614536404609682 0.95377761125564586 0.62796244025230419 -1.4050689339637754 1.0000000180025095e-35 -1.1152286529541013 -1.0855440497398374 -1.1701722145080564 1.0000000180025095e-35 -0.9221697449684142 0.69523254036903392 -0.071817241609096513 -0.59588599205017079 0.70500513911247265 0.97536540031433117 0.68256056308746349 -0.50496047735214222 -1.3186529874801634 -0.87655958533287037 0.95442754030227672 -0.73709791898727406 -0.90276420116424549 -0.92696794867515553 -0.94286653399467457 0.92001658678054821 -0.67690074443817128 0.94961071014404308 -0.91484808921813954 -0.99824649095535267 -1.1405529975891111 0.40319222211837774 0.72768619656562816 -0.92385125160217274 0.92752483487129223 0.93239331245422374 0.77524888515472423 -1.1131894588470457 -0.98249855637550343 -0.89783313870429982 -1.1442884206771848 -1.2587757706642149 1.0000000180025095e-35 -1.2278877496719358 -0.91717043519020069 -0.68106326460838307
decision_type=2 2 2 2 2 2 2 2 2 2 2 2 2 2 2 2 2 2 2 2 2 2 2 2 2 2 2 2 2 2 2 2 2 2 2 2 2 2 2 2 2 2 2 2 2 2 2 2 2 2 2 2
left_child=13 2 3 11 5 6 -4 -7 9 -5 -10 14 -13 34 -2 16 -6 21 24 -20 44 22 26 -21 48 -26 -3 33 29 30 -22 -24 -31 -23 35 38 37 -37 39 -1 -36 -42 -43 -38 46 -46 47 -15 -19 -17 -48 -47
right_child=1 17 4 8 15 7 -8 -9 10 -11 -12 12 -14 20 -16 49 -18 18 19 23 28 27 31 -25 25 -27 -28 -29 -30 32 -32 -33 -34 -35 40 36 43 -39 -40 -41 41 42 -44 -45 45 51 50 -49 -50 -51 -52 -53
leaf_value=-0.054156979330609811 0.064512371574365596 -0.047855098052835152 0.060850415286116614 0.077752823416937303 0.096543803662412775 0.064816670783513927 -0.014553085451889311 0.13365868748738086 0.04394785761570006 0.016984338953988775 -0.024965934731375389 0.16063073412263609 -0.089109024211246821 -0.13883432799447673 -0.055194158891376369 -0.1290892557728742 0.14803586514628062 -0.1096069193728744 0.44047556957397405 -0.033395791836399846 0.15864552993124034 -0.11855502013924486 0.51421299394254205 0.074723824200796207 0.19419929169940192 -0.012547192320930219 0.37368260290658067 0.26936907942964994 0.16467578881792366 0.10411112942738561 -0.12270062780466096 0.15055436001741215 -0.076114457257857704 -0.058214940191060272 0.17976404497604351 -0.16491963406668148 0.18721388510596751 0.11948761032567215 0.19133174328453409 0.19325210859779701 -0.30106912917388012 0.14080490634414336 0.10493320519633889 0.10305615718541589 -0.12159256293581866 -0.1041307315665821 -0.14293447334411594 -0.16230673555207664 -0.1180555254259542 -0.12129224512079446 -0.13455727808540688 -0.10359112436469338
leaf_weight=12.944835364818575 193.07824875041842 167.44642960652709 50567.315359359607 10280.231977447867 2032.6919242143631 4900.2739948146045 1857.2576346024871 3499.9810404628515 4946.1358025372028 3115.3994430154562 2084.0617501996458 249.47972850501537 131.29874683916569 4.6655749827623367 1753.6740217581391 3.3779136538505545 1230.2578363493085 13.364019494503738 7.9466519057750693 681.76437075436115 47.231196664273739 248.5775907151401 4.7169458195567122 124.28668569773436 119.27862555161119 46.675025425851345 6.0761767923831931 7.2944287657737723 53.608419641852379 17.294214144349098 10.115575090050696 34.045335307717323 58.277841191738844 135.92043794319034 71.163000106811523 19.272310242056847 19.426304027438164 18.467197418212891 53.823750860989094 11.835824638605116 0.88730502128600974 12223.347405970097 63.452572345733643 20.045131772756577 3.9176143109798423 0.70775005593895812 3.9111936539411545 4.334720581769945 6.0375174805521956 33.495855689048767 5.4202963262796384 38.651521950960159
leaf_count=44 711 1350 135759 28491 3231 10615 9161 4105 23441 11452 11969 321 509 24 9221 20 1435 173 37 5540 62 2182 26 534 270 224 38 10 18 71 81 101 329 1045 20 89 10 20 33 7 4 4202 72 32 29 20 20 19 49 234 29 1155
internal_value=0 0.0581786 0.0595192 0.0422623 0.0656425 0.0630571 0.0581791 0.0934998 0.0498179 0.06362 0.0235188 -0.0240437 0.0745163 0.13807 -0.0433217 0.113299 0.115958 -0.0144622 0.0104268 -0.0122612 0.0211613 -0.0556373 0.00851961 -0.0167246 0.110062 0.136051 -0.0330943 -0.0903995 0.0667172 0.0272088 0.109018 0.194808 -0.0348709 -0.0972247 0.140388 0.106635 0.061272 -0.0257497 0.151193 0.0640114 0.140813 0.140588 0.14062 0.144475 -0.116764 -0.10523 -0.143995 -0.150139 -0.112236 -0.122007 -0.138068 -0.103601
internal_weight=0 88481.4 86878 22753.4 64124.7 60824.8 52424.6 8400.26 20425.8 13395.6 7030.2 2327.53 380.778 12762.8 1946.75 3299.82 3262.95 1603.43 999.353 813.998 248.136 604.077 212.285 806.051 185.355 165.954 173.523 391.792 186.527 132.919 57.3468 38.7623 75.5721 384.498 12514.7 155.815 77.2109 37.7395 78.6044 24.7807 12358.9 12287.7 12286.8 39.4714 61.6087 43.2769 18.3318 9.0003 19.4015 36.8738 9.33149 39.3593
internal_count=268644 262254 250675 86115 164560 159640 144920 14720 75353 39943 35410 10762 830 6390 9932 4920 4666 11579 6827 6111 1857 4752 1515 6074 716 494 1388 3237 561 543 143 127 400 3227 4533 235 151 109 84 51 4298 4278 4274 42 1296 1204 92 43 222 254 49 1175
is_linear=0
shrinkage=0.1


Tree=11
num_leaves=43
num_cat=0
split_feature=4 31 130 84 39 32 102 56 93 69 34 134 105 6 108 34 4 43 56 53 44 118 75 110 53 125 22 113 22 127 24 82 47 51 127 77 33 73 24 27 29 33
split_gain=6941.84 874.724 1607.47 935.796 704.315 691.31 782.091 865.345 630.306 588.892 553.614 1884.95 1225.83 874.257 835.069 517.987 478.495 474.052 434.972 427.447 379.322 195.328 529.994 145.897 119.536 39.1607 49.2822 44.4748 1.11282 0.533542 4.31381 0.287888 0.234191 0.156098 0.27338 0.0987021 0.0462922 0.0261522 0.00388586 0.000901154 0.000335732 0.000198517
threshold=0.86658430099487316 0.99615758657455455 1.0000000180025095e-35 -1.35619580745697 0.98016375303268444 0.95835125446319591 -0.80883863568305958 0.97104653716087352 -0.25345487892627711 -0.14921298623085019 0.90491262078285228 1.0000000180025095e-35 -0.81466710567474354 0.52537539601326 -1.0599506497383115 0.89862629771232616 0.55951520800590526 1.0655538439750674 0.9894886612892152 1.0594975948333742 1.0106999874114992 -0.8961392045021056 -1.1617051362991331 -0.88049980998039235 1.0347374677658083 -0.35378064215183253 1.3854053020477297 -0.95509508252143849 0.96441221237182628 1.0000000180025095e-35 1.2606623172760012 -1.0815147161483762 0.7682117521762849 1.177354693412781 -3.3589259386062618 -1.0804286599159239 0.76979637145996105 -0.44402548670768732 1.5761424303054812 1.0683555603027346 1.0962701439857485 0.77524888515472423
decision_type=2 2 2 2 2 2 2 2 2 2 2 2 2 2 2 2 2 2 2 2 2 2 2 2 2 2 2 2 2 2 2 2 2 2 2 2 2 2 2 2 2 2
left_child=1 8 5 21 20 6 9 -8 10 -3 11 14 18 -14 -1 -13 17 -7 -12 -6 -5 23 -23 -4 -18 26 39 35 -27 30 -30 -10 36 34 -33 -28 -31 -35 -37 -2 -32 -41
right_child=25 2 3 4 19 16 7 -9 31 -11 12 15 13 -15 -16 -17 24 -19 -20 -21 -22 22 -24 -25 -26 28 27 -29 29 32 40 33 -34 37 -36 38 -38 -39 -40 41 -42 -43
leaf_value=-0.0095897170345643906 -0.12010891992432232 0.038358833495442002 0.30476354377005044 0.15885614493901526 -0.078651076953560259 0.12118656613122757 0.11116102018767077 -0.12489964275813639 -0.15869280078259332 -0.0073886943699661249 0.11664466503997682 -0.092292568135591599 -0.033030931757757939 0.064561317873762805 0.062105014722146093 0.02144465609783329 -0.084467153709606002 0.0054864945883617809 0.068203690465515387 0.057028503719572632 0.093740837300346408 -0.073761091087570493 0.37883507687559714 -0.081312035219023665 -0.028224617908048123 0.11519266437790077 -0.13445692076611515 0.14475802152259562 0.092369833015974692 0.13547072809180863 0.13574478733400078 -0.1138182918114775 0.14118024767291243 -0.11911741633553191 -0.10383079883489005 -0.11338874792618142 0.13711052863750381 -0.10507180658436155 -0.10698943828742098 -0.12249539396927041 0.13546005282941051 -0.12157731064581881
leaf_weight=1694.9596014656126 3.1080379858613005 14781.295791275799 10.003500387072561 1142.3605660945177 261.80166332423687 387.79364229366183 2015.4947803542018 168.25292643159628 1.1423534303903569 3475.4513215795159 5691.0974992439151 1041.7950971350074 1300.0721588283777 3122.8316647671163 39139.550058178604 650.40356011688709 560.06675586104393 4079.0726621896029 2749.1138784922659 2053.2400426790118 4125.3631204664707 81.165905065834522 37.980006106197834 454.77927202731371 1161.78241359815 27.225411221385002 1.8769492954015703 39.307793863117695 26.076642632484436 10752.276636123657 57.396364450454712 86.489283425733447 72.990266010165215 1.3449021317064751 40.11951070651412 1.1762390546500698 174.95854830741882 92.57156622223556 4.9096091091632843 5.0971999913454038 148.68495464324951 4.3782520592212677
leaf_count=10691 23 45659 14 1125 1032 1285 3392 692 5 12726 7426 4488 7552 9800 92106 1609 4513 25365 4838 5610 7061 442 57 2860 9775 15 10 21 20 3760 20 835 25 12 1252 13 60 2252 87 34 52 30
internal_value=0 0.0518875 0.0394523 0.0782641 0.0876578 0.0275495 0.0364152 0.0929731 0.0596682 0.0296501 0.0603416 0.0548433 0.0785197 0.035875 0.0591291 -0.0485772 -0.00173266 0.0155311 0.100867 0.0416849 0.107862 -0.0437195 0.0705125 -0.0730025 -0.0465187 0.134957 0.054284 0.101101 0.135386 0.135435 0.13069 -0.108621 0.135535 -0.108362 -0.110653 -0.114409 0.135497 -0.105273 -0.108226 -0.121587 0.135539 -0.122071
internal_weight=0 90407.4 34795.9 8166.69 7582.77 26629.2 20440.5 2183.75 55611.5 18256.7 55389.8 42526.7 12863.1 4422.9 40834.5 1692.2 6188.72 4466.87 8440.21 2315.04 5267.72 583.929 119.146 464.783 1721.85 11319.5 59.8541 47.2706 11259.6 11232.4 232.158 221.668 11000.2 220.525 126.609 7.9628 10927.2 93.9165 6.08585 12.5835 206.081 9.47545
internal_count=268644 264474 121608 18201 14828 103407 62469 4084 142866 58385 138510 108894 29616 17352 102797 6097 40938 26650 12264 6642 8186 3373 499 2874 14288 4170 218 131 3952 3937 92 4356 3845 4351 2087 110 3820 2264 100 87 72 64
is_linear=0
shrinkage=0.1


Tree=12
num_leaves=43
num_cat=0
split_feature=125 78 56 129 106 107 30 38 132 71 107 130 136 31 130 69 56 130 35 4 31 0 54 56 39 34 104 107 74 78 19 112 73 4 46 76 127 29 47 43 72 71
split_gain=6727.61 773.541 774.649 695.268 1370.25 1242.16 1141.03 661.205 1636.95 618.588 565.439 893.108 909.883 833.503 1843.04 866.551 496.165 482.112 404.833 297.456 264.899 244.146 202.893 200.542 179.251 148.033 112.862 105.496 96.6359 26.1001 20.0953 9.22765 22.1488 14.8467 3.11172 1.01255 0.987218 12.2726 0.247824 0.0325033 0.000109449 7.10543e-15
threshold=-0.35378064215183253 -1.1760106682777403 0.99664506316185009 1.0000000180025095e-35 -0.91002246737480152 -0.9870476722717284 1.0341396927833559 0.97489687800407421 1.0000000180025095e-35 -0.3137472122907638 -0.89243218302726735 1.0000000180025095e-35 1.0000000180025095e-35 0.99514469504356395 1.0000000180025095e-35 -0.12724181264638898 1.0133796930313113 1.0000000180025095e-35 0.85742694139480602 0.7083556354045869 1.0003992915153506 -0.28400868177413935 1.0680544376373293 0.88816413283348095 1.0461699366569521 0.91072547435760509 -0.7549573779106139 -0.9263806641101836 -0.86796066164970387 -1.1776928901672361 1.1131025552749636 -0.80792111158370961 -0.98296350240707386 0.86658430099487316 0.81155043840408336 -1.1329135894775388 1.0000000180025095e-35 1.0224518179893496 0.7682117521762849 1.0000000180025095e-35 -0.68106326460838307 -0.6740853190422057
decision_type=2 2 2 2 2 2 2 2 2 2 2 2 2 2 2 2 2 2 2 2 2 2 2 2 2 2 2 2 2 2 2 2 2 2 2 2 2 2 2 2 2 2
left_child=1 2 10 5 20 6 17 8 -7 22 11 12 -1 14 -12 -15 -9 -3 -8 -13 27 34 -6 -22 -11 29 28 -5 -27 35 -28 32 -23 -33 39 -4 37 -35 -38 40 -2 -42
right_child=21 3 25 4 9 7 18 16 -10 24 13 19 -14 15 -16 -17 -18 -19 -20 -21 23 31 -24 -25 -26 26 30 -29 -30 -31 -32 33 -34 36 -36 -37 38 -39 -40 -41 41 -43
leaf_value=-0.012282611983818895 -0.10426500999544559 -0.048845945481897343 -0.13717913198019371 0.17344219173956532 -0.019303500174971552 0.057666273559999738 0.018779890495750629 0.09425536146988954 -0.063557695679162182 0.19383231637425533 0.075363900226968761 0.067042181599400494 0.098734819014884234 0.046430645973006522 -0.034103781680076328 0.0053883562936064304 0.04383352195541261 0.1760758704568956 0.074395627806245521 0.18396951170272377 0.12161807440106041 -0.0030350763381430021 -0.15019293642794737 -0.11338022994297477 -0.01164833866830174 0.0014711860821161639 -0.10439340159447762 0.027191655539506684 -0.092950725471165951 0.048704787077329524 0.069398588364540992 0.17458448814952196 0.13280947776147775 0.043386177170256279 -0.17658498113823895 -0.15414116989182208 0.13100031274411214 0.13124301337836283 0.137039549583231 -0.1262750068202618 -0.10291842075090669 -0.10291842075090568
leaf_weight=6012.576795194298 0.61525676026939891 2356.4871650692075 66.265567027032375 1522.8906173408031 386.52334463596344 22048.297049835324 3056.3785688206553 7896.1379706468433 1173.2045710813254 160.06015719473362 13303.193145558238 904.51226271688938 841.58264230191708 15046.661574102938 1739.0867633000016 7816.906491369009 2592.2943929843605 99.314593657851219 2289.0513351485133 286.47181758284569 94.159914314746857 17.428501430898905 170.74358776211739 59.111075043678284 57.779592379927635 685.97843409702182 187.60458258539438 50.973047807812691 128.73175925388932 7.2227164655923835 6.897893674671649 78.380024194717407 38.55072633177042 17.283926486968994 7.0427641570568076 75.053609035909176 10219.9821164608 198.51012682914734 68.403216123580933 0.60831327736377616 31.106789737939835 0.71636539697647705
leaf_count=21058 20 15369 359 783 1119 42529 8109 12250 9175 56 30427 1410 1881 49375 5955 42248 8015 56 4774 126 125 38 748 230 205 3724 1698 113 1103 18 22 22 28 21 30 344 3824 74 24 4 1129 26
internal_value=0 0.0461862 0.0372804 0.0557183 0.10691 0.0526325 0.0166738 0.0609541 0.0515418 -0.00355298 0.0393159 0.0152373 0.00134858 0.0444263 0.062708 0.0323986 0.0817932 -0.0397499 0.042596 0.0951671 0.156484 0.130081 -0.0594073 0.0309877 0.139331 -0.0435065 -0.0297881 0.168706 -0.0134484 -0.136711 -0.09823 0.131009 0.0905158 0.131224 -0.116235 -0.146188 0.1309 0.124206 0.13104 -0.103373 -0.102944 -0.102918
internal_weight=0 91122.2 47108.7 44013.4 2502.24 41511.2 7801.23 33709.9 23221.5 775.107 45951 8045.14 6854.16 37905.8 15042.3 22863.6 10488.4 2455.8 5345.43 1190.98 1727.13 10678.6 557.267 153.271 217.84 1157.75 1009.21 1573.86 814.71 148.542 194.502 10638.5 55.9792 10582.6 40.0895 141.319 10504.2 215.794 10288.4 33.0467 32.4384 31.8232
internal_count=268644 263404 159748 103656 3379 100277 28308 71969 51704 2128 152480 24475 22939 128005 36382 91623 20265 15425 12883 1536 1251 5240 1867 355 261 7268 6547 896 4827 721 1720 4031 66 3965 1209 703 3943 95 3848 1179 1175 1155
is_linear=0
shrinkage=0.1


Tree=13
num_leaves=42
num_cat=0
split_feature=125 29 53 29 128 75 46 70 38 114 56 56 79 64 30 74 97 129 2 103 112 0 75 34 74 29 9 113 124 96 113 73 4 131 46 127 28 47 43 72 72
split_gain=6471.94 712.604 781.667 1650.81 1126.51 901.144 731.1 694.96 1557.92 748.582 675.315 439.434 925.43 535.941 379.961 422.007 347.461 329.833 293.425 262.999 232.969 213.947 157.604 149.895 119.041 112.559 37.0922 27.9908 25.783 13.7769 11.7378 23.4201 9.64685 5.23496 2.12924 0.987662 11.9302 0.171541 0.0234545 8.23642e-05 7.10543e-15
threshold=-0.35378064215183253 1.2229090332984927 1.0425890088081362 1.1196556091308596 1.0000000180025095e-35 -1.1064730286598203 1.1084687709808352 -0.26826320588588709 0.97301143407821666 -1.0515584945678709 0.98033827543258678 0.97834426164627086 -1.0442760586738584 0.4302156418561936 1.0915722846984866 -1.0141664147377012 -0.97949355840682972 1.0000000180025095e-35 0.55525958538055431 -0.91643610596656788 -0.92372086644172657 -0.28400868177413935 -1.0685017704963682 0.90225622057914745 -1.0398997664451597 1.2418932318687441 0.72825053334236156 -0.91874936223030079 -1.0563460588455198 -1.0213202834129331 -0.81491196155548085 -0.98296350240707386 0.86658430099487316 1.0000000180025095e-35 0.81155043840408336 1.0000000180025095e-35 1.0947462916374209 0.7682117521762849 1.0000000180025095e-35 -0.68106326460838307 -0.67478829622268666
decision_type=2 2 2 2 2 2 2 2 2 2 2 2 2 2 2 2 2 2 2 2 2 2 2 2 2 2 2 2 2 2 2 2 2 2 2 2 2 2 2 2 2
left_child=1 2 3 6 5 -5 16 11 10 -10 -9 13 -13 -4 15 25 -1 -8 26 24 22 34 -17 -6 -20 29 -16 -21 -22 -3 31 -23 -32 -28 38 36 -34 -37 39 -2 -41
right_child=21 14 7 4 23 -7 17 8 9 -11 -12 12 -14 -15 18 20 -18 -19 19 27 28 30 -24 -25 -26 -27 33 -29 -30 -31 32 -33 35 -35 -36 37 -38 -39 -40 40 -42
leaf_value=0.039592249755941417 -0.10385878650881374 -0.058287145552431134 0.058802949837712518 0.0041102276222956336 -0.091439615181171677 0.047053876840624453 0.027711251109327158 0.0084376994167802838 0.065529905501462538 0.025708840329421858 -0.075532561963719269 -0.05045444853195407 0.084176735828511234 0.10684437624521514 0.14895654831678218 -0.16935948741979573 -0.053792470796667172 0.18582676921144556 -0.054113353613761711 0.18198466466865459 0.11467920139367403 -0.026983175771531864 0.025909473031706095 0.11896088264962093 0.097399832004960066 0.080772367715926052 -0.19303606566901946 0.086756372047420205 0.071652762092078062 -0.16155463045316049 0.16291141874664666 0.12336013672850572 0.039750809168319225 -0.12309565593791512 -0.16504107746891955 0.12719452372860859 0.12745984544091796 0.132390976750481 -0.12325771508293125 -0.10263300280458493 -0.10263300280458497
leaf_weight=448.23541291058064 0.55877387337386863 14.473198123276232 18125.290151093155 5929.2969410568476 746.63487948477268 27783.818526614457 796.53074035793543 4443.2814359534532 11969.626721657813 7795.1661484315991 1220.9298671167344 1028.9838747419417 1013.4010747745633 2663.3356222733855 4.1010944098234168 45.658095553517342 3585.9647646956146 158.12037083134055 53.165443725883961 448.05071997642517 410.09104599058628 14.760571729391812 436.38128142803907 35.469121001660824 2104.636739179492 24.947609923779964 26.961770817637444 33.14994765818119 210.89328463375568 120.2939034178853 75.729661703109741 34.766300603747368 16.906915038824081 17.745405294001102 6.7943687438964835 9512.2763757705688 187.44834232330322 63.953451156616211 0.56320086121559043 17.947376329451806 10.923403142020105
leaf_count=1710 20 53 43454 21704 3039 67573 2707 18331 28821 35781 6151 3398 1601 5141 3 190 17483 82 194 275 441 37 1155 159 2817 39 110 54 290 527 22 27 21 121 30 3825 75 24 4 718 437
internal_value=0 0.0412781 0.0394075 0.0289727 0.0367487 0.0395012 -0.0247944 0.0479448 0.0365742 0.0498246 -0.00966223 0.0606093 0.0163475 0.0649578 0.0828244 0.037578 -0.0434166 0.0539002 0.104081 0.108575 0.059576 0.12622 0.00741387 -0.0818978 0.0936667 -0.114345 -0.138872 0.175424 0.100067 -0.150464 0.127114 0.0785531 0.127358 -0.165275 -0.114494 0.127082 0.120203 0.127229 -0.103043 -0.102656 -0.102633
internal_weight=0 91694.6 87744.1 39484.1 34495.2 33713.1 4988.85 48260 25429 19764.8 5664.21 22831 2042.38 20788.6 3950.55 1262.74 4034.2 954.651 2687.81 2639 1103.02 9942.63 482.039 782.104 2157.8 159.715 48.8083 481.201 620.984 134.767 9905.84 49.5269 9856.31 44.7072 36.7871 9780.59 204.355 9576.23 29.9928 29.4296 28.8708
internal_count=268644 263404 257135 114457 92475 89277 21982 142678 89084 64602 24482 53594 4999 48595 6269 2695 19193 2789 3574 3340 2076 5240 1345 3198 3011 619 234 329 731 580 4031 64 3967 231 1209 3945 96 3849 1179 1175 1155
is_linear=0
shrinkage=0.1


Tree=14
num_leaves=43
num_cat=0
split_feature=125 112 77 76 108 0 30 130 131 53 76 136 31 134 32 130 32 0 1 44 97 128 128 31 30 75 127 6 76 107 106 115 113 85 4 32 46 127 22 47 43 72
split_gain=6204.92 600.978 912.956 695.999 823.514 643.656 609.119 626.144 454.388 675.439 454.94 451.962 485.404 418.208 336.302 335.57 193.371 188.237 173.537 401.474 237.571 173.438 158.049 157.495 105.729 94.4541 163.242 143.654 65.5974 60.0446 45.3688 25.6749 14.1723 25.4652 6.40077 2.74875 1.47737 1.0293 14.7072 0.120046 0.016977 6.19002e-05
threshold=-0.35378064215183253 -0.87707850337028492 -1.2957784533500669 -1.1594350934028623 -0.88418227434158314 0.4757832139730454 1.0980605483055117 1.0000000180025095e-35 1.0000000180025095e-35 1.0309664011001589 -1.2540056109428404 1.0000000180025095e-35 0.9943586289882661 1.0000000180025095e-35 0.96382042765617382 1.0000000180025095e-35 0.95835125446319591 -0.28400868177413935 0.4542186707258225 1.0983748435974123 -0.93914818763732899 1.0000000180025095e-35 1.0000000180025095e-35 1.000504791736603 1.0707564949989321 -1.1695173382759092 -1.5956463217735288 0.61539179086685192 -1.2474986314773557 -0.8369920253753661 -0.83291110396385182 -0.87543576955795277 -0.83733472228050221 -1.0666862130165098 0.86658430099487316 0.95629659295082103 0.81155043840408336 1.0000000180025095e-35 1.2206943035125735 0.7682117521762849 1.0000000180025095e-35 -0.68106326460838307
decision_type=2 2 2 2 2 2 2 2 2 2 2 2 2 2 2 2 2 2 2 2 2 2 2 2 2 2 2 2 2 2 2 2 2 2 2 2 2 2 2 2 2 2
left_child=1 2 11 4 13 -6 7 -5 18 23 16 14 30 -4 15 -1 -11 36 19 20 -3 -8 -21 24 -10 27 -27 -20 -16 -14 -13 -25 33 -19 -34 -12 40 38 -36 -39 41 -2
right_child=17 8 3 6 5 -7 21 -9 9 10 35 12 29 -15 28 -17 -18 32 25 22 -22 -23 -24 31 -26 26 -28 -29 -30 -31 -32 -33 34 -35 37 -37 -38 39 -40 -41 -42 -43
leaf_value=0.11487343338707962 -0.10349143477272067 -0.13395640711098752 -0.0040896907699192143 0.035289163219243184 0.014762167160570997 0.059324833635771457 0.08425264989743203 0.063559015683401457 -0.027214181748263035 0.15694803313527572 -0.16263524987368813 0.14183224949339357 -0.14419163762082327 -0.089240986617645526 0.4191615683984658 -0.0095506553461838593 -0.079957696752816623 -0.051268825145451218 0.098031325775068012 -0.11904617382866295 0.19237924342311824 -0.17890417481529075 0.012049588371543126 -0.071175315189976232 0.1997251682138875 -0.10770114974114775 -0.010380521729425819 -0.10902218978875944 -0.069490164327641032 0.1165240609546655 0.2446947805683912 -0.1351656140834423 0.15366765108556202 0.11618195210343299 0.017060448725387097 -0.12108328862121509 -0.15583766392107387 0.12394663154688652 0.12430933004674126 0.12845163305185478 -0.12063969370505755 -0.10237616765111211
leaf_weight=1270.6746360994875 0.5073027908802058 26.559686187654734 4190.7985286526382 56246.661072516814 8312.158499430865 5312.9858038723469 3426.6484774798155 9102.7328591682017 62.810554593801498 506.47702042758465 31.547790139913559 49.061296418309212 42.26190372556448 668.83042848110199 2.7975138090550891 261.33819878846407 36.968854069709778 12.854400247335432 36.347173750400543 167.2124892808497 139.3606391325593 25.229083672165871 204.35205863043666 118.12716125696898 30.497224345803261 237.25940675288439 630.03670809417963 429.00585802271962 152.69685716927052 11.167988643050192 340.26455342769623 133.63515280932188 72.425317287445068 30.944708455353975 13.783985778689383 32.139000557363033 6.4915542155504218 8825.5087127685547 176.65544295310974 59.549726486206055 0.5200926810502996 26.185559090226892
leaf_count=3121 20 166 15300 155367 33352 14739 4981 16460 231 659 137 72 207 4198 23 981 276 34 94 1123 299 105 815 589 54 1739 3362 2423 1416 26 105 705 22 28 20 279 30 3827 76 24 4 1155
internal_value=0 0.0369055 0.0383395 0.036761 0.0195334 0.0321389 0.0413895 0.039227 -0.00852809 0.0477036 0.111199 0.10302 0.192944 -0.0158091 0.0794263 0.0936486 0.140832 0.122921 -0.0371592 0.010807 0.140141 0.0823293 -0.0469465 -0.0640128 0.0469599 -0.0565049 -0.0370038 -0.0928499 -0.0606988 -0.0896965 0.231732 -0.105141 0.123786 0.0670376 0.124057 -0.141666 -0.112972 0.123821 0.116547 0.123977 -0.102746 -0.102397
internal_weight=0 92238.6 89416.3 87286 18484.8 13625.1 68801.3 65349.4 2822.34 952.203 607.133 2130.26 442.756 4859.63 1687.51 1532.01 543.446 9225.43 1870.13 537.485 165.92 3451.88 371.565 345.07 93.3078 1332.65 867.296 465.353 155.494 53.4299 389.326 251.762 9191.72 43.7991 9147.92 63.6868 33.7045 9075.5 190.439 8885.06 27.213 26.6929
internal_count=268644 263404 250453 244502 67589 48091 176913 171827 12951 2930 1351 5951 410 19498 5541 4102 935 5240 10021 2403 465 5086 1938 1579 285 7618 5101 2517 1439 233 177 1294 4031 62 3969 416 1209 3947 96 3851 1179 1175
is_linear=0
shrinkage=0.1


Tree=15
num_leaves=44
num_cat=0
split_feature=4 32 76 134 104 30 132 72 50 43 72 123 53 30 133 108 61 16 59 106 65 17 39 14 128 107 73 41 56 125 22 113 128 22 33 33 95 77 61 30 118 23 59
split_gain=5923.64 566.613 509.607 557.959 710.748 1039.13 447.388 1963.17 1181.32 425.133 729.95 387.826 518.407 406.466 340.021 135.951 114.109 216.788 195.733 92.3061 90.296 125.362 82.0701 120.591 120.174 70.8884 70.8573 70.1734 38.5052 30.0197 42.1332 37.397 27.9113 1.41062 0.833648 0.205431 0.412261 0.0755371 0.0317128 0.00442812 0.000363063 0.000233218 0.000156998
threshold=0.86658430099487316 0.96825668215751659 -1.1295772194862364 1.0000000180025095e-35 -0.85149371623992909 1.0656812787055971 1.0000000180025095e-35 -0.3916450291872024 1.19724977016449 1.1642059087753298 -0.54299473762512196 -1.0924185514450071 0.95803502202034008 1.1032887697219851 1.0000000180025095e-35 -1.0210468173027036 0.69523254036903392 0.98292016983032238 0.81632754206657421 -0.79970747232437123 0.46623760461807257 0.97351002693176281 0.99669122695922863 0.88685640692710888 1.0000000180025095e-35 -0.8667861521244048 -0.63546812534332264 1.0801854729652407 0.96178704500198375 -0.35378064215183253 1.3854053020477297 -0.95509508252143849 1.0000000180025095e-35 0.96441221237182628 0.77524888515472423 0.76979637145996105 -1.2998342514038084 -1.0804286599159239 1.0000000180025095e-35 1.0501813292503359 -0.58847999572753895 1.1690865755081179 0.35576103627681738
decision_type=2 2 2 2 2 2 2 2 2 2 2 2 2 2 2 2 2 2 2 2 2 2 2 2 2 2 2 2 2 2 2 2 2 2 2 2 2 2 2 2 2 2 2
left_child=1 2 3 11 25 -6 9 15 -9 10 -4 12 -1 -13 -11 -8 22 20 -19 -20 27 -22 23 28 -25 -5 32 -18 -3 30 40 37 -24 -31 35 38 -37 -32 -35 -39 42 -42 -2
right_child=29 16 6 4 5 -7 7 8 -10 14 -12 13 -14 -15 -16 -17 17 18 19 -21 21 -23 26 24 -26 -27 -28 -29 -30 33 31 -33 -34 34 -36 36 -38 39 -40 -41 41 -43 -44
leaf_value=0.068765011682603405 -0.12070327265450094 -0.12590417867494602 0.045837315345554276 -0.11994357650434762 -0.024918896272040175 0.12680977229197804 -0.056702726562492693 0.073820430052607744 -0.061680405889502049 0.11442683804160912 0.0035734164478515695 -0.012951825797094186 0.027751388981227029 0.090770939119208749 -0.14281757786068361 -0.11659236106954228 -0.0071177143287499758 0.68362843381116956 0.065391754650241121 0.51503363264044044 0.037788024448094121 0.49942893707114822 -0.11332679214241222 -0.094150089620475774 0.16386836822007675 -0.0062566849704586303 0.19526072328853608 -0.068649102643720747 0.16251133981060817 0.095018031556049376 -0.13152467309125856 0.13303553582630445 -0.048708379433808693 0.12264753320028624 0.10728606973940968 0.1220803872478308 0.10834046173368404 -0.10641916294536069 0.12114694893307916 -0.1133291912537559 -0.11836734246912387 -0.119678421159813 -0.11971143822595667
leaf_weight=3502.0823887661099 2.9790060520172119 5.2150899134576312 43250.037838419899 578.20669382810593 2053.8823707029223 578.50572575628757 1116.6255708970129 3620.8155542481691 782.43866084143519 1123.7587094791234 4512.9346116110682 3367.9044014625251 25684.843350596726 425.55057346820831 53.844232082366943 573.81404211372137 392.08145211264491 5.5595556646585456 146.12216487899423 4.7128449939191333 36.882541377097368 6.9986316189169875 274.26021016016603 120.80034316331148 21.222736738622189 60.59504009783268 8.4554904550313932 351.50952719151974 41.184839740395546 20.869547918438911 1.7814525067806215 37.281356155872345 88.387260925024748 143.32807874679565 43.781715452671051 52.513283729553223 37.383289441466331 4.406061667948963 8099.8495215028524 1.1746160872280595 2.561623699963091 2.8845995962619781 3.4375088214874268
leaf_count=7679 21 42 87175 3632 10046 1742 9242 8636 6657 1277 12419 11447 87087 685 211 5703 2788 9 673 21 137 12 2182 1020 153 294 10 2586 88 15 10 21 821 65 26 24 22 87 3800 13 20 21 25
internal_value=0 0.0330591 0.0340619 0.0248559 -0.0145365 0.00842569 0.0401259 0.0145742 0.0497425 0.0433074 0.041844 0.0287631 0.0326725 -0.00131618 0.102665 -0.0770321 -0.0278329 -0.00662103 0.100919 0.0794408 -0.0279788 0.111415 -0.0636153 -0.0098673 -0.055594 -0.10916 -0.0909052 -0.0362048 0.130095 0.120495 0.0478516 0.0923636 -0.0975775 0.120984 0.121049 0.121121 0.116367 -0.113597 0.121173 -0.107874 -0.119662 -0.119062 -0.120172
internal_weight=0 92789.2 91285.8 36251.6 3271.19 2632.39 55034.3 6093.69 4403.25 48940.6 47763 32980.4 29186.9 3793.45 1177.6 1690.44 1503.39 943.867 156.395 150.835 787.472 43.8812 559.526 188.423 142.023 638.802 371.103 743.591 46.3999 8454.23 56.5062 44.6435 362.647 8397.73 8376.86 8333.07 89.8966 7.36213 8243.18 5.58068 11.8627 5.44622 6.41651
internal_count=268644 264474 253932 122612 15714 11788 131320 30238 15293 101082 99594 106898 94766 12132 1488 14945 10542 6226 703 694 5523 149 4316 1303 1173 3926 3013 5374 130 4170 218 131 3003 3952 3937 3911 46 110 3865 100 87 41 46
is_linear=0
shrinkage=0.1


Tree=16
num_leaves=46
num_cat=0
split_feature=4 31 130 44 121 69 102 136 50 85 34 134 57 130 37 69 109 112 135 107 31 104 28 68 128 109 32 32 92 31 72 125 22 113 36 22 33 33 95 77 61 24 118 23 59
split_gain=5622.73 511.161 1255.18 626.704 545.506 539.868 779.023 902.599 606.423 507.962 488.414 1794.72 1024.45 825.591 543.097 598.168 515.241 721.847 450.621 436.729 398.999 398.427 313.153 287.408 274.254 262.579 304.826 224.409 181.817 165.746 117.817 27.79 36.7261 32.2543 23.5863 1.48096 0.90331 0.225822 0.42106 0.0530495 0.0225807 0.00322414 0.000251299 0.000160455 0.000109529
threshold=0.86658430099487316 0.99723812937736522 1.0000000180025095e-35 1.0106999874114992 -1.0427842140197752 -0.1291278079152107 -0.81006059050559986 1.0000000180025095e-35 1.1296633481979372 -1.1716352105140684 0.90109685063362133 1.0000000180025095e-35 0.94548141956329357 1.0000000180025095e-35 0.96349319815635692 -0.041265333071351044 -1.1321626901626585 -1.2957630753517149 1.0000000180025095e-35 -0.8712029457092284 0.99996080994606029 -0.86101591587066639 1.1311182975769045 0.071958865970373168 1.0000000180025095e-35 -0.98623600602149952 0.90852928161621105 0.94569945335388195 -1.1560465693473814 1.0156148076057436 -0.73489177227020253 -0.35378064215183253 1.3854053020477297 -0.95509508252143849 0.85934805870056163 0.96441221237182628 0.77524888515472423 0.76979637145996105 -1.2998342514038084 -1.0804286599159239 1.0000000180025095e-35 1.5761424303054812 -0.58847999572753895 1.1690865755081179 0.35576103627681738
decision_type=2 2 2 2 2 2 2 2 2 2 2 2 2 2 2 2 2 2 2 2 2 2 2 2 2 2 2 2 2 2 2 2 2 2 2 2 2 2 2 2 2 2 2 2 2
left_child=1 10 5 29 20 6 7 -3 -8 24 11 16 13 21 23 -16 18 -18 -1 -15 -5 -12 -11 -14 -7 26 -13 -27 -6 30 -4 32 42 39 -31 -33 37 40 -39 -34 -37 -41 44 -44 -2
right_child=31 2 3 4 28 9 8 -9 -10 22 12 25 14 19 15 -17 17 -19 -20 -21 -22 -23 -24 -25 -26 27 -28 -29 -30 34 -32 35 33 -35 -36 36 -38 38 -40 41 -42 -43 43 -45 -46
leaf_value=-0.090742256913753039 -0.1183507628770171 0.0014118787602890551 0.049178494172819526 -0.012925387404112688 0.0011045361656247775 -0.045627336724652162 0.11625431828276485 0.059410857256326138 -0.16457480543038999 -0.12683580788633594 -0.035991290313583689 -0.17070042768772109 -0.015802012657845463 0.058054588522099507 0.070314169757487097 -0.0063744622826063958 0.087517206231466596 0.03150464747165186 0.17619204724097967 -0.077458284934464258 0.062084748557084471 0.07923785844359954 0.042794354821702928 -0.13339220452321907 0.013348131712543447 -0.12608000234950015 0.075371877794514056 -0.028555751642965504 -0.1086362966034886 -0.2022109412856814 0.14298991897486818 0.091130087705622323 -0.1276815836582624 0.12649265456314135 0.040993500604955074 0.12004985818327665 0.1037939008111366 0.11954476624717299 0.10512813144725371 -0.11204676961824832 0.11873214719396386 -0.10580561495664675 -0.11632546696871118 -0.11745897691985091 -0.1174877742327616
leaf_weight=526.42427099309862 2.7463282644748688 14488.976355306804 156.21592451632023 817.96167713403702 346.19340462237597 3709.3863652050495 1087.2474845647812 3293.0427275896072 82.74587282538414 116.98234518617392 309.608726978302 68.100693792104721 590.8889978826046 409.64489992707968 1850.1484470926225 2258.8905291296542 2444.0769847612828 39241.123120564967 71.876381456851959 566.99125842750072 5330.2296611145139 9740.5510054044425 1561.7184135019779 320.64450766891241 1001.3802626430988 866.49571445584297 193.0429363399744 324.23769254237413 267.72565036267042 17.136879414319996 936.05367523431778 19.647802352905273 1.657916195690629 35.387299001216888 5.1969381123781195 132.34970366954803 40.879747092723846 48.471711158752441 34.806367293000221 1.0407199934124962 7470.4037371128798 4.0442462470382452 2.3564410880207998 2.6568669825792313 3.1662172898650169
leaf_count=5916 21 50198 317 2632 1676 24116 1439 8347 386 642 827 283 1406 604 3332 9631 4441 97416 104 2477 10157 17900 3705 1299 7353 4312 332 1028 1410 72 707 15 10 21 9 65 26 24 22 13 3800 87 20 21 25
internal_value=0 0.0296613 0.0197157 0.0545821 0.0431302 0.00887836 0.0173532 0.0121527 0.0963931 -0.0162592 0.0351877 0.0297126 0.0501094 0.0671583 0.0126646 0.0281556 0.0334663 0.0347888 -0.0586743 -0.0206181 0.0521053 0.0756881 0.0309735 -0.057166 -0.0330908 -0.0796083 0.0112015 -0.0995241 -0.0467526 0.124059 0.129573 0.118056 0.0459293 0.0882986 -0.145619 0.11855 0.11862 0.118698 0.113519 -0.112148 0.118755 -0.107083 -0.117447 -0.116926 -0.117889
internal_weight=0 93000.9 33218.2 7876.71 6762.11 25341.5 18952 17782 1169.99 6389.47 59782.7 43735.4 16047.4 11026.8 5020.57 4109.04 42283.5 41685.2 598.301 976.636 6148.19 10050.2 1678.7 911.534 4710.77 1451.88 261.144 1190.73 613.919 1114.6 1092.27 7799.62 53.056 42.1302 22.3338 7746.56 7726.91 7686.03 83.2781 6.74288 7602.75 5.08497 10.9259 5.01331 5.91255
internal_count=268644 264474 113166 16980 15875 96186 60370 58545 1825 35816 151308 113832 37476 21808 15668 12963 107877 101857 6020 3081 12789 18727 4347 2705 31469 5955 615 5340 3086 1105 1024 4170 218 131 81 3952 3937 3911 46 110 3865 100 87 41 46
is_linear=0
shrinkage=0.1


Tree=17
num_leaves=46
num_cat=0
split_feature=3 29 122 118 32 38 71 56 32 30 100 131 103 30 2 112 75 103 73 102 98 105 105 97 32 104 61 71 125 19 114 32 106 131 127 22 30 5 75 78 48 33 28 33 27
split_gain=5311.92 511.584 534.652 609.067 447.495 560.823 1552.84 480.094 347.155 313.234 266.425 264.191 257.861 220.188 196.598 192.766 216.452 170.057 124.636 108.564 102.553 99.7958 108.222 66.7715 65.6509 48.8302 45.1029 34.7711 30.4089 32.8071 42.0945 22.8799 13.4138 5.04044 1.38601 16.9985 0.385747 0.180684 0.0347087 0.0292068 0.0248796 0.0119874 0.00209561 7.53393e-05 4.03972e-05
threshold=0.83610641956329357 1.2262521982192995 -1.0330789089202879 -0.91359636187553395 0.96362254023551952 0.97584611177444469 -0.42624814808368677 1.0117227435112002 0.94630727171897899 1.0814436078071596 -0.95692932605743397 1.0000000180025095e-35 -0.77417686581611622 1.0894973874092104 0.55804949998855602 -0.92372086644172657 -1.0765012502670286 -0.91643610596656788 -0.88503712415695179 -0.95654350519180287 -1.0306183099746702 -0.95937180519103993 -0.90257772803306568 -0.87375560402870167 0.95273214578628551 -0.90081861615180958 0.29054144024848944 -0.70021262764930714 -0.35378064215183253 1.4326711893081667 -0.95724588632583607 0.9640130102634431 -0.90773522853851307 1.0000000180025095e-35 1.0000000180025095e-35 1.2206943035125735 1.0819090604782107 0.90588885545730602 -1.165196359157562 -1.1030618548393247 0.81286790966987621 0.77524888515472423 1.1846732497215273 0.77524888515472423 1.3181673288345339
decision_type=2 2 2 2 2 2 2 2 2 2 2 2 2 2 2 2 2 2 2 2 2 2 2 2 2 2 2 2 2 2 2 2 2 2 2 2 2 2 2 2 2 2 2 2 2
left_child=1 2 4 10 5 6 -1 -7 9 -5 19 12 -6 15 23 21 25 20 -12 -4 -16 26 -23 33 -10 -17 -3 -18 29 38 36 -13 -19 -15 35 -30 39 -36 43 -31 41 -39 -37 -2 -44
right_child=28 13 3 8 11 7 -8 -9 24 -11 18 31 -14 14 17 16 27 32 -20 -21 -22 22 -24 -25 -26 -27 -28 -29 34 30 -32 -33 -34 -35 37 42 -38 40 -40 -41 -42 -43 44 -45 -46
leaf_value=0.029384834175468257 -0.11583760599321427 -0.055628905539910491 0.10769614030787455 0.044343782658820642 0.016815764232461877 0.053350578693451833 -0.023370136757854695 0.010985178050042788 -0.041062970392475785 -0.055461699027112343 -0.14163412886166249 -0.0041930255528053661 -0.037643152467005447 -0.19246770374996158 -0.16903920056325117 -0.12417476955627747 0.065368017836017978 0.10896266317653143 0.17543295719814223 -0.044209552378189548 0.075147028992715484 -0.098908323250088581 0.04566406232171201 0.16089101892857099 -0.12147826615276597 0.12182616543299832 0.16589743004922897 0.12453375889416947 -0.0070936138341202801 -0.12148645700359191 0.13163433666214652 -0.10060814699298055 0.15587235080995529 -0.12290465625815089 0.12351462015123471 0.11753296152378329 -0.16862491424861292 0.11664341088018995 -0.12928731720995065 -0.10716065898006888 0.1191267667688323 0.11845128061531791 0.11661012595100391 -0.11522734585383143 0.11674176624783678
leaf_weight=58320.592124249786 3.7759719267487508 13.09208085387945 57.129175290465355 1776.3424039464444 3619.5034629888833 13386.461025081575 6169.8338992334902 3342.8365350812674 266.94013323634863 382.09640847891569 491.73938200250268 26.993314322084188 1144.3432270102203 24.938394635915756 17.346571490168571 70.043425962328911 340.8985503911972 76.576977655291557 12.718382649123667 266.60916898399591 2023.3233145475388 205.26795237511396 69.245010398328304 7.4537189006805411 163.83088245242834 9.1194538176059705 30.843068167567253 140.17200711369514 12.01466755568981 2.0144289135932878 32.14637778699398 279.11266836896539 298.84975843131542 17.887474596500397 38.756357431411743 37.413784027099609 1.4199968725442884 6859.2137355804443 2.35916544497013 4.8483797367662218 40.899778723716736 36.873977541923523 65.065331339836121 4.3575299829244614 36.326892256736755
leaf_count=149410 32 56 131 5279 18317 30931 24897 11105 1167 1572 2165 258 8493 102 75 274 453 69 14 1001 2725 839 138 3 1039 9 15 105 20 15 15 3533 181 122 20 20 7 3790 17 96 21 19 36 38 20
internal_value=0 0.0266662 0.0252344 -0.0135586 0.0267708 0.02857 0.0243377 0.0448852 0.0103177 0.0266758 -0.0882037 -0.00205252 0.00373396 0.0650641 0.0803778 0.0220799 0.0573928 0.0844507 -0.13364 -0.0174032 0.0730713 -0.0400449 -0.0624404 -0.115336 -0.0716465 -0.0958358 0.0998856 0.0826074 0.11595 0.0389484 0.0798393 -0.092106 0.146304 -0.163413 0.116501 0.107016 -0.121182 0.116706 -0.118608 -0.111366 0.116668 0.116653 0.116893 -0.115511 0.116657
internal_weight=0 93052.1 89707.1 3417.41 86289.7 81219.7 64490.4 16729.3 2589.21 2158.44 828.196 5069.95 4763.85 3345.06 2466.38 878.682 560.233 2416.1 504.458 323.738 2040.67 318.448 274.513 50.2796 430.771 79.1629 43.9351 481.071 7177.49 50.9219 40.4292 306.106 375.427 42.8259 7126.56 150.821 8.28281 6975.74 10.4927 6.86281 6936.99 6896.09 138.806 8.1335 101.392
internal_count=268644 264478 259312 12368 246944 216343 174307 42036 9057 6851 3311 30601 26810 5166 3277 1889 841 3050 2179 1132 2800 1048 977 227 2206 283 71 558 4166 220 133 3791 250 224 3946 96 118 3850 87 111 3830 3809 76 70 56
is_linear=0
shrinkage=0.1


Tree=18
num_leaves=45
num_cat=0
split_feature=3 31 30 114 129 107 106 57 107 131 73 31 131 104 58 70 10 57 70 31 125 19 114 21 36 65 72 74 32 127 27 32 106 30 5 78 32 75 78 48 33 28 33 105
split_gain=5005.5 462.225 552.243 453.657 736.103 1053.21 862.213 629.831 541.219 260.989 211.611 174.602 123.789 106.387 166.58 120.518 170.997 92.3214 87.8348 71.8879 27.7295 28.9062 36.8529 23.1212 15.713 61.8423 17.4188 5.97077 1.9103 1.45733 16.5435 0.695059 0.340181 0.262943 0.138377 0.0951376 0.0460705 0.0262073 0.0208708 0.0178255 0.00847271 0.00199799 5.31954e-05 2.90641e-05
threshold=0.83610641956329357 1.0135630369186404 1.1032887697219851 -1.0616323947906492 1.0000000180025095e-35 -0.98586124181747425 -0.91002246737480152 0.95498013496398937 -0.8943524658679961 1.0000000180025095e-35 -0.95424261689186085 0.98156908154487621 1.0000000180025095e-35 -0.90006235241889943 0.74700194597244274 -0.3866011351346969 0.73976805806159984 0.84362870454788219 -0.46651785075664515 0.95815688371658336 -0.35378064215183253 1.4326711893081667 -0.95724588632583607 1.3653725981712344 0.885839343070984 0.21182631701231006 -0.73087903857231129 -1.0425255894660947 0.9586913287639619 1.0000000180025095e-35 1.1420451998710635 0.95801660418510448 -0.8946995437145232 1.0819090604782107 0.90588885545730602 -1.2146664857864378 0.958866447210312 -1.165196359157562 -1.1030618548393247 0.81286790966987621 0.76979637145996105 1.1846732497215273 0.77524888515472423 -0.89616373181343068
decision_type=2 2 2 2 2 2 2 2 2 2 2 2 2 2 2 2 2 2 2 2 2 2 2 2 2 2 2 2 2 2 2 2 2 2 2 2 2 2 2 2 2 2 2 2
left_child=1 2 3 4 5 -1 -6 8 -5 13 19 -9 18 15 23 16 -3 -16 -12 -4 21 37 33 -15 31 -26 -27 -21 -17 30 -22 32 -11 38 -31 -14 -33 42 -23 40 -36 -32 -2 -43
right_child=20 9 10 7 6 -7 -8 11 -10 24 12 -13 35 14 17 28 -18 -19 -20 27 29 22 -24 -25 25 26 -28 -29 -30 34 41 36 -34 -35 39 -37 -38 -39 -40 -41 -42 43 -44 -45
leaf_value=-0.0018225406110217613 -0.11410542173073852 0.16158686532294753 0.10879953441455659 0.0017358385895024143 0.1342515931531873 0.039781746120032262 -0.011887093140138048 -0.13795653490598844 0.025154292010964831 -0.12979449420846853 0.087954350081791255 -0.036118225988919929 -0.13456622588913672 0.25539006130452274 -0.10358600548495255 -0.17632501633201761 -0.074719526992477234 0.010468193084047842 -0.05067632314884038 -0.15125611676671857 -0.0080606472138350267 -0.11908873654477894 0.1272185964378007 0.12466929372231741 0.36033989851401632 0.029669324683850026 -0.11229949009966181 -0.24370521432909156 -0.14386621074733619 0.1210722615059585 0.11571394787179967 -0.12304763721523343 -0.13838970615928101 -0.15868408762367436 0.114804584872576 -0.12149280320815192 -0.11452491172750506 -0.12627542139347134 -0.10645411318203775 0.11700201933219145 0.11571499270649455 0.11489806408481845 -0.11357010951847862 0.1147815625814306
leaf_weight=8194.0099006406963 3.4658378511667252 40.463930398225784 11.728860720992087 12895.293824499473 1399.8585712909698 23637.487339274958 567.34887431561947 201.59541344642639 42045.883742125705 92.977271474897861 1912.069907322526 1021.0353715457022 7.5716441124677685 20.649687051773071 82.231146283447742 54.567848369479179 125.90281424671412 518.28111749887466 46.822499245405197 37.60799315571785 11.932875230908392 1.8575347289442978 30.044406067579988 39.247976303100586 3.0455257035791865 9.6409553289413434 83.436755307018757 8.5796762704849225 27.154357850551605 35.739171862602234 34.524810433387756 9.4520379826426524 91.225660294294357 1.3610713109374044 6230.4221416711807 21.018136724829674 19.279927745461464 2.1829491779208166 4.4146255850791922 37.645047664642334 103.92856991291046 33.371325612068176 3.9974314793944359 59.762032866477966
leaf_count=28945 32 28 9 34133 863 50103 1462 1080 133788 542 2187 6172 40 6 312 226 420 1673 122 184 20 15 15 43 8 62 1034 36 138 20 20 64 468 7 3749 148 182 17 96 21 60 20 38 36
internal_value=0 0.0239449 0.024755 0.0235868 0.0327408 0.029072 0.0921047 0.018078 0.0196577 -0.0372657 0.076135 -0.05291 0.0816257 -0.010262 0.0107119 -0.0660942 -0.0172448 -0.00514982 0.0846407 -0.112287 0.114096 0.0378234 0.0773684 0.169735 -0.116645 -0.0830854 -0.0975944 -0.168429 -0.16554 0.114647 0.104539 -0.131795 -0.134051 -0.118842 0.114867 -0.124955 -0.117329 -0.116638 -0.110196 0.114832 0.11482 0.115064 -0.113819 0.114823
internal_weight=0 93225.5 92007.9 89962.5 33798.7 31831.5 1967.21 56163.8 54941.2 1217.56 2045.4 1222.63 1987.48 908.499 660.41 248.089 166.367 600.512 1958.89 57.9165 6594.65 47.3239 37.6776 59.8977 309.058 96.1232 93.0777 46.1877 81.7222 6547.33 139.591 212.935 184.203 7.63323 6407.73 28.5898 28.732 9.64622 6.27216 6372 6334.35 127.658 7.46327 93.1334
internal_count=268644 264478 259272 256546 81373 79048 2325 175173 167921 5206 2726 7252 2497 2846 2034 812 448 1985 2309 229 4166 220 133 49 2360 1104 1096 220 364 3946 96 1256 1010 118 3850 188 246 87 111 3830 3809 76 70 56
is_linear=0
shrinkage=0.1


Tree=19
num_leaves=45
num_cat=0
split_feature=3 29 5 72 103 132 128 110 113 136 114 85 37 30 74 135 2 103 111 103 22 81 29 31 73 113 125 19 114 9 96 131 127 22 78 30 5 75 78 48 33 28 33 136
split_gain=4699.17 414.987 507.872 1030.43 678.109 610.165 440.365 430.875 546.988 328.515 239.528 235.491 237.434 208.385 303.481 198.482 191.26 208.458 172.203 188.398 107.456 102.386 83.2318 72.8212 51.3451 30.4949 25.2819 25.5351 32.3658 24.0659 12.7288 3.51407 1.53772 15.9084 0.435607 0.181039 0.105876 0.0197945 0.0149718 0.0128288 0.00605801 0.00154969 3.77592e-05 2.11904e-05
threshold=0.83610641956329357 1.2229090332984927 0.57745715975761425 -0.61759281158447255 -0.87879711389541615 1.0000000180025095e-35 1.0000000180025095e-35 -1.2006540298461912 -1.3539478182792661 1.0000000180025095e-35 -1.0163951516151426 -1.1907747983932493 0.91814991831779491 1.0915722846984866 -1.0141664147377012 1.0000000180025095e-35 0.55525958538055431 -0.91643610596656788 -0.92318275570869435 -0.95224058628082264 1.2381359934806826 -1.1814692020416258 1.2418932318687441 1.0047216415405276 -0.89860430359840382 -0.91790321469306935 -0.35378064215183253 1.4326711893081667 -0.95724588632583607 0.729812651872635 -1.0213202834129331 1.0000000180025095e-35 1.0000000180025095e-35 1.2206943035125735 -1.2146664857864378 1.0819090604782107 0.90588885545730602 -1.165196359157562 -1.1030618548393247 0.81286790966987621 0.77524888515472423 1.1846732497215273 0.77524888515472423 1.0000000180025095e-35
decision_type=2 2 2 2 2 2 2 2 2 2 2 2 2 2 2 2 2 2 2 2 2 2 2 2 2 2 2 2 2 2 2 2 2 2 2 2 2 2 2 2 2 2 2 2
left_child=1 2 4 5 9 6 -4 20 -9 10 -1 12 -5 14 22 -13 29 21 19 -16 -6 -18 30 -11 -20 -19 27 37 35 -15 -3 -31 33 -28 -7 38 -34 42 -29 40 -38 -35 -2 -43
right_child=26 13 3 11 7 34 -8 8 -10 23 -12 15 -14 16 18 -17 17 25 24 -21 -22 -23 -24 -25 -26 -27 32 28 -30 31 -32 -33 36 41 -36 -37 39 -39 -40 -41 -42 43 -44 -45
leaf_value=0.0824005537194933 -0.11258446192348409 -0.054291040718227927 0.01989116171757109 0.080403601233845101 -0.099216877573163886 -0.13222711973607901 -0.024781605143957022 0.079467800549283207 0.022763072598127959 -0.13689298773030864 -0.15554726138961833 -0.11155016373611418 -0.042428850613972752 0.10336152012797328 0.087115108422468779 0.077710783817812892 0.026391084346717632 0.13994072500211735 0.057173323297267598 -0.071316749733365103 0.13017427503842202 0.074427196644477264 0.059197861293848124 0.16695511619767175 0.14594610813105408 0.034454039653419276 -0.0076644806478156878 -0.11699364565807067 0.12333267229505424 -0.17865836285729594 -0.15447470255685705 -0.11790379579283446 0.11891269205360051 0.11403398798365685 -0.11217491979954718 -0.15056407211453926 0.11320454556193026 -0.12360836286092436 -0.10581964653007768 0.11514376244490619 0.11460242276942985 0.11328210261322019 -0.11211328989502541 0.11317822516809797
leaf_weight=2905.8516984432936 3.1762084886431694 14.249767877161501 37958.570920787752 175.46004002168775 335.08984881825745 11.176912635564802 2342.8078807704151 1774.3743274752051 41214.537243178114 87.001956254243851 42.930174816399813 702.73855993896723 1526.218901257962 3.8934428691864005 111.05515181273222 60.154686614871025 638.51252365112305 441.89243133366108 659.2437214627862 231.55156666040421 21.746303308755159 1454.4338027015328 24.026023365557194 8.6739794313907606 72.299144476652145 29.217159509658813 11.954584106802939 1.709314398467537 27.99751399084926 26.366329416632652 115.28643775358796 14.900656998157499 32.895219326019287 31.719955921173096 352.64978847652674 1.2944514676928518 5777.5843431949615 2.0156373158097249 4.0172461457550517 34.584065794944763 31.16939103603363 30.605804443359375 3.6616113185882568 54.799990177154541
leaf_count=4273 32 53 104386 355 4101 66 8792 3377 115958 316 226 3178 9199 4 251 91 1200 277 969 778 82 1807 39 8 52 52 20 15 15 110 527 120 20 20 3831 7 3790 17 96 21 19 20 38 36
internal_value=0 0.0215171 0.0201368 0.0123252 0.0273994 0.0161304 0.0172942 0.0241952 0.0251036 0.0730193 0.0789364 -0.0504607 -0.0297636 0.0537213 0.0197472 -0.0966268 0.0697071 0.0733002 0.0385459 -0.0199614 -0.0852373 0.0597724 -0.111747 -0.109346 0.0659468 0.133399 0.112466 0.0368292 0.0751896 -0.134298 -0.143454 -0.156721 0.113018 0.102221 -0.112791 -0.116789 0.113255 -0.114899 -0.109155 0.113223 0.113212 0.113437 -0.112332 0.113215
internal_weight=0 93356.9 89520 43129.8 46390.2 40665.2 40301.4 43345.7 42988.9 3044.46 2948.78 2464.57 1701.68 3836.93 1227.71 762.893 2609.22 2564.06 1074.15 342.607 356.836 2092.95 153.562 95.6759 731.543 471.11 6049.19 43.872 35.0185 45.1604 129.536 41.267 6005.31 129.08 363.827 7.02101 5876.23 8.85346 5.72656 5843.34 5808.75 117.126 6.83782 85.4058
internal_count=268644 264478 258239 129898 128341 117075 113178 123518 119335 4823 4499 12823 9554 6239 2669 3269 3570 3336 2050 1029 4183 3007 619 324 1021 329 4166 220 133 234 580 230 3946 96 3897 118 3850 87 111 3830 3809 76 70 56
is_linear=0
shrinkage=0.1


Tree=20
num_leaves=46
num_cat=0
split_feature=3 31 30 53 29 128 70 38 129 47 131 103 72 76 129 130 0 107 89 74 76 99 74 125 19 113 22 68 71 127 22 3 130 32 107 30 5 32 72 78 48 33 28 33 108
split_gain=4396.26 370.842 422.141 409.283 1117.4 712.452 595.141 953.199 765.403 465.331 229.988 168.81 205.098 191.341 161.515 115.367 95.8733 89.0716 109.458 118.497 103.979 122.836 33.9699 23.0534 22.6058 28.5281 14.0147 51.2675 13.1234 1.62667 15.258 1.38945 1.10648 0.584365 0.235811 0.125694 0.0808993 0.0232336 0.015016 0.0107484 0.00926767 0.00432778 0.00110947 4.99732e-05 1.53074e-05
threshold=0.83610641956329357 1.0135630369186404 1.1011595129966738 1.0425890088081362 1.1222494244575503 1.0000000180025095e-35 -0.23704428970813748 0.97489687800407421 1.0000000180025095e-35 1.1433614492416384 1.0000000180025095e-35 -0.9326820671558379 -0.76019030809402455 -1.1057724952697752 1.0000000180025095e-35 1.0000000180025095e-35 0.50952497124671947 -0.93415406346321095 -0.99881377816200245 -0.86610352993011464 -1.1987243890762327 -0.85272946953773487 -0.94452196359634388 -0.35378064215183253 1.4326711893081667 -0.95509508252143849 1.3339734673500063 -0.11269475892186163 -0.55765643715858448 1.0000000180025095e-35 1.2206943035125735 0.58573916554451 1.0000000180025095e-35 0.95835125446319591 -0.89194524288177479 1.0819090604782107 0.90588885545730602 0.958866447210312 -0.62004441022872914 -1.1030618548393247 0.81286790966987621 0.76979637145996105 1.1846732497215273 0.77524888515472423 -0.8042660355567931
decision_type=2 2 2 2 2 2 2 2 2 2 2 2 2 2 2 2 2 2 2 2 2 2 2 2 2 2 2 2 2 2 2 2 2 2 2 2 2 2 2 2 2 2 2 2 2
left_child=1 2 3 4 9 -6 8 -8 -5 -1 17 12 13 -4 15 -13 -14 18 22 -20 32 -22 -3 24 38 35 27 -12 -29 30 -25 -16 -19 34 -28 39 -31 -35 43 -26 41 -38 -32 -2 -44
right_child=23 10 11 6 5 -7 7 -9 -10 -11 26 14 16 -15 31 -17 -18 20 19 -21 21 -23 -24 29 25 -27 33 28 -30 36 42 -33 -34 37 -36 -37 40 -39 -40 -41 -42 -43 44 -45 -46
leaf_value=-0.032560687523287384 -0.11128932049688536 -0.049367078687895326 -0.03866849974110783 0.03664120474328076 0.020489990183054557 -0.082708911058343756 -0.057192856494810179 0.01827709574480257 -0.029722754368882959 0.13841292288536319 0.30483595041358041 0.085973401842797517 0.072769125263642515 0.072337096452382094 -0.1686981727578083 -0.11879689862033856 -0.1743237890591969 -0.12110319446175405 0.088989162557312665 -0.10062027537654379 0.036701381481667045 -0.10837852090131316 -0.15692340352241965 -0.006865290186094517 -0.11515577027440474 0.11991305575334779 -0.12737209257970597 0.0017309997424499611 -0.11120875617987454 0.11699599624626028 0.11252452291271604 -0.22176685797420129 -0.152210767896553 -0.12112057509228286 -0.13500704366651348 -0.14384404469771156 0.11178623024465491 -0.11330661589179054 -0.12121430529880471 -0.10526469858013993 0.11351229256862516 0.11249566883253358 0.11186014304787102 -0.11072338159852041 0.11176788186701346
leaf_weight=5925.5720649398863 3.0977453291416168 43.045975655317307 216.04267724603415 30775.785475760698 34119.199525855482 682.34712405502796 1895.5811386760324 14286.890931492671 1841.9163294732571 163.58000303059816 3.3264185339212409 1614.7642850130796 20.279867932200432 552.11056496202946 8.3039256036281603 27.990583553910255 69.575171962380409 24.378187272697687 74.277772054076195 59.252919539809227 523.99193019792438 65.673889920115471 92.389140143990517 12.008580654859541 1.570065755397078 26.023051586002115 109.74391189217567 11.970510885119436 73.220632791519165 30.227398276329041 29.066634297370911 12.155747801065443 21.535242989659309 4.5479544997215298 64.070156991481781 1.2231059223413465 5231.6228923797607 23.29846477881074 1.872650071978567 3.6590484883636223 31.719594120979309 87.424563884735107 28.02785861492157 3.143648624420166 50.178009390830994
leaf_count=26364 34 125 614 72455 85061 2732 10553 49748 8564 117 3 1947 27 657 35 92 255 200 101 260 1354 320 385 20 15 15 676 85 981 20 20 51 101 33 341 7 3749 241 17 96 21 60 20 36 36
internal_value=0 0.0193488 0.020066 0.0189316 0.0115519 0.0184666 0.0251152 0.0094367 0.0328936 -0.0279676 -0.0360073 0.0604215 0.0243951 0.0411168 0.0790066 0.0824844 -0.118556 -0.0111568 -0.0593949 0.00485186 0.00925678 0.0205431 -0.122738 0.111027 0.0359401 0.0732433 -0.113472 -0.0803009 -0.0953392 0.111581 0.100031 -0.200228 -0.135694 -0.128032 -0.130186 -0.114985 0.111837 -0.114583 -0.113361 -0.108235 0.111808 0.111798 0.111997 -0.111004 0.111801
internal_weight=0 93406.8 92212.1 89690.9 40890.7 34801.5 48800.2 16182.5 32617.7 6089.15 1194.72 2521.22 858.008 768.153 1663.21 1642.75 89.855 904.545 268.966 133.531 635.579 589.666 135.435 5540.86 40.5893 32.4753 290.178 88.5176 85.1911 5500.28 119.281 20.4597 45.9134 201.66 173.814 6.45222 5380.99 27.8464 8.11404 5.22911 5350.77 5319.05 107.273 6.24139 78.2059
internal_count=268644 264478 259272 255594 114274 87793 141320 60301 81019 26481 5206 3678 1553 1271 2125 2039 282 2846 871 361 1975 1674 510 4166 220 133 2360 1069 1066 3946 96 86 301 1291 1017 118 3850 274 87 111 3830 3809 76 70 56
is_linear=0
shrinkage=0.1


Tree=21
num_leaves=44
num_cat=0
split_feature=3 32 93 71 132 48 52 72 113 0 106 31 0 61 17 61 5 75 128 125 19 114 127 22 113 51 30 82 5 108 44 91 82 78 48 58 31 128 33 28 31 33 104
split_gain=4100.55 355.362 340.833 478.234 993.547 703.547 649.955 576.1 492.626 162.265 137.379 230.844 328.283 75.34 96.5926 50.8791 43.6324 41.5016 26.5388 21.0273 20.0492 25.2099 1.72433 14.6683 0.234015 0.259391 0.0878942 0.0844084 0.0617151 0.0516441 0.0318148 0.016966 0.0121145 0.00772486 0.00671681 0.00521875 0.00625591 0.00393061 0.00311477 0.000797386 1.12204e-05 9.13165e-06 6.26777e-06
threshold=0.83610641956329357 0.96940192580223095 -0.25345487892627711 -0.23134446889162061 1.0000000180025095e-35 1.1907531619071963 1.165948808193207 -0.42574977874755854 -1.0554191470146177 0.64427542686462413 -0.7980404496192931 0.99899262189865123 0.34957621991634374 0.67756840586662304 1.0674892067909243 0.68174713850021373 0.52049532532691967 -0.74932476878166188 1.0000000180025095e-35 -0.35378064215183253 1.4326711893081667 -0.95724588632583607 1.0000000180025095e-35 1.2206943035125735 -1.3395907282829282 1.177354693412781 1.0819090604782107 -1.0815147161483762 0.90588885545730602 -1.0581656694412229 1.0000000180025095e-35 -0.2299103960394859 -1.501593232154846 -1.1030618548393247 0.81286790966987621 0.90912115573883068 0.99514469504356395 1.0000000180025095e-35 0.77524888515472423 1.1846732497215273 0.86534231901168834 0.77524888515472423 -0.82687699794769276
decision_type=2 2 2 2 2 2 2 2 2 2 2 2 2 2 2 2 2 2 2 2 2 2 2 2 2 2 2 2 2 2 2 2 2 2 2 2 2 2 2 2 2 2 2
