tree
version=v4
num_class=1
num_tree_per_iteration=1
label_index=0
max_feature_idx=136
objective=binary sigmoid:1
feature_names=Column_0 Column_1 Column_2 Column_3 Column_4 Column_5 Column_6 Column_7 Column_8 Column_9 Column_10 Column_11 Column_12 Column_13 Column_14 Column_15 Column_16 Column_17 Column_18 Column_19 Column_20 Column_21 Column_22 Column_23 Column_24 Column_25 Column_26 Column_27 Column_28 Column_29 Column_30 Column_31 Column_32 Column_33 Column_34 Column_35 Column_36 Column_37 Column_38 Column_39 Column_40 Column_41 Column_42 Column_43 Column_44 Column_45 Column_46 Column_47 Column_48 Column_49 Column_50 Column_51 Column_52 Column_53 Column_54 Column_55 Column_56 Column_57 Column_58 Column_59 Column_60 Column_61 Column_62 Column_63 Column_64 Column_65 Column_66 Column_67 Column_68 Column_69 Column_70 Column_71 Column_72 Column_73 Column_74 Column_75 Column_76 Column_77 Column_78 Column_79 Column_80 Column_81 Column_82 Column_83 Column_84 Column_85 Column_86 Column_87 Column_88 Column_89 Column_90 Column_91 Column_92 Column_93 Column_94 Column_95 Column_96 Column_97 Column_98 Column_99 Column_100 Column_101 Column_102 Column_103 Column_104 Column_105 Column_106 Column_107 Column_108 Column_109 Column_110 Column_111 Column_112 Column_113 Column_114 Column_115 Column_116 Column_117 Column_118 Column_119 Column_120 Column_121 Column_122 Column_123 Column_124 Column_125 Column_126 Column_127 Column_128 Column_129 Column_130 Column_131 Column_132 Column_133 Column_134 Column_135 Column_136
feature_infos=[-1.7844352722167969:2.1873281002044678] [-1.6962581872940063:2.0962586402893066] [-1.6161398887634277:2.0136351585388184] [-1.5440802574157715:1.9394575357437134] [-1.4800789356231689:1.8737261295318604] [-1.4241359233856201:1.8164401054382324] [-1.3852788209915161:1.7937201261520386] [-1.3575865030288696:1.9274762868881226] [-1.3260828256607056:2.0758624076843262] [-1.2853907346725464:2.0974209308624268] [-1.2320997714996338:2.0118343830108643] [-1.1626077890396118:2.073509693145752] [-1.0779223442077637:2.1457490921020508] [-0.97803342342376709:2.2142360210418701] [-0.86829191446304321:2.2825961112976074] [-0.75375783443450928:2.4052433967590332] [-0.63881856203079224:2.5269482135772705] [-0.65620064735412598:2.5277442932128906] [-0.66012513637542725:2.5302853584289551] [-0.66667592525482178:2.4445860385894775] [-0.66607785224914551:2.3591430187225342] [-0.67332524061203003:2.2909350395202637] [-0.78228282928466797:2.1508355140686035] [-0.7797551155090332:2.0641701221466064] [-1.0841877460479736:2.0889520645141602] [-1.4308524131774902:1.9925726652145386] [-1.6366665363311768:1.8694267272949219] [-1.8254417181015015:1.7314887046813965] [-1.9454965591430664:1.5598906278610229] [-2.2033448219299316:1.3473584651947021] [-2.6534385681152344:1.1459542512893677] [-2.9375624656677246:1.0691677331924438] [-2.8855924606323242:1.0182701349258423] [-2.1581358909606934:1.0153312683105469] [-1.5155016183853149:1.0222163200378418] [-0.85442560911178589:1.096311092376709] [-0.66409575939178467:1.2523990869522095] [-0.67050886154174805:1.4357191324234009] [-0.67336314916610718:1.5244829654693604] [-0.67729061841964722:1.3777114152908325] [-0.67391806840896606:1.3165556192398071] [-0.67623704671859741:1.2273765802383423] [-0.67480045557022095:1.2687077522277832] [-0.67822211980819702:1.5027958154678345] [-0.67549598217010498:1.6759111881256104] [-0.67939788103103638:1.7528411149978638] [-0.67687302827835083:1.7343066930770874] [-0.68056988716125488:1.6915385723114014] [-0.67851173877716064:1.8138210773468018] [-0.68057990074157715:2.0951991081237793] [-0.67868822813034058:2.3221406936645508] [-0.68411111831665039:2.3866791725158691] [-0.6882440447807312:2.2922041416168213] [-0.69760811328887939:2.324758768081665] [-0.68820065259933472:2.0119130611419678] [-0.66555494070053101:1.5468263626098633] [-0.62813276052474976:1.3939603567123413] [-0.6819922924041748:1.3468891382217407] [-0.88048118352890015:1.3174220323562622] [-0.65868782997131348:1.2997530698776245] [-0.58480948209762573:1.2808957099914551] [-0.6056399941444397:1.5017008781433105] [-0.63135004043579102:1.6471337080001831] [-0.66003769636154175:1.5433529615402222] [-0.79600465297698975:1.1429597139358521] [-1.0305129289627075:1.0751444101333618] [-1.2195744514465332:0.99085426330566406] [-1.6538451910018921:0.88367986679077148] [-1.8910553455352783:0.75060045719146729] [-2.0949718952178955:0.59843027591705322] [-1.9126988649368286:0.44751104712486267] [-1.723555326461792:0.31280896067619324] [-1.5349674224853516:0.20973041653633118] [-1.4212013483047485:0.13722024857997894] [-1.4517455101013184:0.30397361516952515] [-1.6804615259170532:0.9557119607925415] [-1.8599822521209717:1.4404212236404419] [-1.985605001449585:1.2026444673538208] [-2.0616223812103271:1.1271375417709351] [-2.1171634197235107:0.52897804975509644] [-2.1664650440216064:0.23138503730297089] [-2.193009614944458:0.27734678983688354] [-2.2026488780975342:0.32789856195449829] [-2.1982688903808594:0.37759476900100708] [-2.1793761253356934:0.42312100529670715] [-2.1451029777526855:0.46151745319366455] [-2.0946900844573975:0.49370381236076355] [-2.0287144184112549:0.51996833086013794] [-1.9487637281417847:0.67684948444366455] [-1.8579472303390503:0.55988889932632446] [-1.767259955406189:0.64909452199935913] [-1.8478662967681885:1.0685811042785645] [-1.6520191431045532:1.4172115325927734] [-1.5958865880966187:1.6290324926376343] [-1.5394163131713867:1.6652539968490601] [-1.4922878742218018:1.6182962656021118] [-1.4547033309936523:1.5608183145523071] [-1.4384253025054932:1.5595740079879761] [-1.4264529943466187:1.5645072460174561] [-1.5819015502929688:1.5648646354675293] [-1.8966314792633057:1.5687597990036011] [-2.4585905075073242:1.5680602788925171] [-2.604130744934082:1.5700795650482178] [-2.5047333240509033:1.5659784078598022] [-2.1062953472137451:1.5674868822097778] [-1.4475361108779907:1.5623446702957153] [-1.2213733196258545:1.563502311706543] [-1.1215335130691528:1.5619508028030396] [-1.1656886339187622:1.5697338581085205] [-1.225764274597168:1.5734660625457764] [-1.369315505027771:1.5827798843383789] [-1.5506553649902344:1.5860384702682495] [-2.1400496959686279:1.5904537439346313] [-2.4733853340148926:1.5886306762695312] [-2.4821960926055908:1.5883719921112061] [-1.9469403028488159:1.5826603174209595] [-1.5763039588928223:1.5835590362548828] [-1.6279804706573486:1.6058655977249146] [-1.6828017234802246:2.4495923519134521] [-1.7428308725357056:2.6529664993286133] [-1.8188323974609375:2.5047237873077393] [-1.9257277250289917:1.7488086223602295] [-2.1471917629241943:1.5763181447982788] [-2.3753566741943359:1.5743108987808228] [-2.643824577331543:1.8138364553451538] [-2.951240062713623:2.1645474433898926] [-3.3342947959899902:3.0688047409057617] [-3.8531808853149414:4.2020993232727051] [0:1] [0:1] [0:1] [0:1] [0:1] [0:1] [0:1] [0:1] [0:1]
tree_sizes=6029 6618 6450 6348 6731 6648 6516 6758 6669 6858 6939 6744 6908 6584 6761 6915 6293 6897 6518 6203 6575 6857 6798 6724 5489 6350 6946 6090 6818 6755 5174 6281 6500 6909 5627 6211 6716 5846 6010 6989 6485 5279 6778 4961 6968 6727 5723 6235 5374 6018 6838 5473 6800 6808 5525 6835 6155 3708 5248 5270 6602 6862 5741 6981 3889 5716 5744 6905 6825 5861 6759 6455 5062 6938 6804 6850 5852 6835 4823 6938 6279 6660 5910 5768 6928 6945 4617 5564 6701 6224 6660 6334 6612 6955 6953 6078 4116 6841 6895 6963 6706 4504 5173 5299 6951 6856 6627 5577 5899 6955 5658 6369 6969 5721 5997 6151 6376 6282 6805 5440 4422 6687 6932 6926 6153 6519 6941 4871 6735 6941 6684 6930 6825 6959 6932 6790 6795 5026 5717 6261 6460 5945 5463 6496 6052 6474 5460 5686 5905 5935 6159 4982 6913 4583 5719 6344 6713 6130 5886 6749 6838 5683 6670 6590 6009 5227 6504 6783 3535 4793 4291 6773 6355 6821 6054 6272 6865 6171 6383 6150 4085 6823 6600 6707 6683 6696 6411 6084 6251 3357 6370 5946 6834 6501 5067 6856 6338 6363 6564 5266

Tree=0
num_leaves=56
num_cat=0
split_feature=53 104 111 130 135 71 130 131 101 54 72 27 52 110 73 107 38 31 101 101 82 68 129 30 123 36 30 8 71 2 29 113 73 75 112 75 55 106 73 74 67 10 109 40 53 122 34 96 41 33 77 56 5 0 12
split_gain=95657.9 25143.1 17969.2 14922.9 14618.3 14456.6 11957.9 10653.6 8945.49 17705.8 10263.2 7404.13 6872.61 5681.82 6397.3 4866.3 4922.59 4609 4039.44 3762.64 3634.71 3570.12 3356.42 2646.74 2431.94 2335.25 2095.58 1857.5 1840.13 1897.09 1174.25 1000.21 987.927 953.8 858.531 1486.39 762.558 574.45 287.88 237.008 554.356 220.58 159.26 145.487 134.423 251.073 133.264 114.453 77.6557 110.963 68.2266 25.4136 17.0717 2.84217e-14 1.77636e-15
threshold=1.0314368009567263 -0.73493424057960499 -1.2784126996994016 1.0000000180025095e-35 1.0000000180025095e-35 -0.63718563318252552 1.0000000180025095e-35 1.0000000180025095e-35 -0.79951873421668995 1.0558134913444521 -0.61937034130096424 1.1899024844169619 1.0438047051429751 -0.8236543834209441 -0.88364985585212696 -0.97814816236495961 1.0050597786903384 1.0044490694999697 -0.83171790838241566 -0.87715807557106007 -1.2559139132499693 -0.094260677695274339 1.0000000180025095e-35 1.0810761451721194 -1.1387678980827329 0.91573011875152599 1.0636284947395327 0.060342861339449889 -0.69398361444473255 0.64559376239776622 1.2097424268722536 -0.95353692770004261 -0.9125283658504485 -1.0578355789184568 -1.3201500773429868 -0.40644039213657374 1.050479054450989 -0.9237520396709441 -0.91594743728637684 -0.91270351409912098 0.2800381481647492 0.95759606361389171 -1.1297715306282041 1.0825486779212954 1.1149161458015444 -2.0127129554748531 0.87848383188247692 -0.36441992223262781 1.1036053299903872 0.82926872372627269 -0.46761436760425562 1.0214012861251833 0.48147033154964453 0.21002901345491412 0.28886003792285925
decision_type=2 2 2 2 2 2 2 2 2 2 2 2 2 2 2 2 2 2 2 2 2 2 2 2 2 2 2 2 2 2 2 2 2 2 2 2 2 2 2 2 2 2 2 2 2 2 2 2 2 2 2 2 2 2 2
left_child=3 2 36 4 7 28 8 12 10 -10 -4 53 22 14 30 27 34 24 -14 -13 23 -22 -1 -7 -8 -19 33 48 38 -30 32 -28 -5 -16 35 -17 44 46 -6 52 -41 -32 54 -36 50 -46 -38 -39 49 -3 -2 -50 -18 -9 -29
right_child=1 15 6 13 5 20 17 11 9 -11 -12 19 18 -15 26 16 39 25 -20 -21 21 -23 -24 -25 -26 -27 31 42 29 -31 41 -33 -34 -35 43 -37 37 47 -40 40 -42 -43 -44 -45 45 -47 -48 -49 51 -51 -52 -53 -54 -55 -56
leaf_value=-2.5433782407396088 -1.3165215591279718 -1.1970830671595003 -1.9151564220713118 -1.2765650502982522 -2.6868680568227652 -1.5717533482855175 -1.6583033434975947 -2.7991276814542987 -2.1816184793995808 -1.8366162904150234 -1.7085841787625458 -1.9368651331930522 -2.0864381408142849 -2.7991276814542987 -1.6226545759776319 -2.7991276814542987 -1.2224858653875246 -2.1868315960863765 -2.5347552275780281 -2.4890477821271908 -2.1043695258166113 -1.6722529975703695 -2.1684552836889388 -2.0046325115699659 -1.3816489492537094 -1.7606224580463408 -2.0159429785723422 -2.7991276814542987 -2.5938806577999634 -2.2264378769936157 -2.7991276814542987 -2.3523306036168457 -1.6027932671450851 -2.2189209561386889 -2.779973236796057 -1.485298556447745 -2.7991276814542982 -1.8436543200993261 -2.3924865454057782 -2.7991276814542987 -1.6827382271337412 -1.9448937691013368 -1.602099181764489 -2.2618482521538694 -1.1891013167233169 -1.6302428131708215 -1.6570934605651422 -1.3420811672657489 -1.1574060235884533 -1.9778215574938831 -1.1419193124415066 -1.3383035531325163 -1.4505745487265282 -2.7991276814542987 -2.7991276814542987
leaf_weight=2938.8557022698224 23.903452098369598 3.6868932060897341 4784.207876201719 169.72196653857827 197.30716042220592 403.03516762703657 2803.5922297686338 70.92729590088129 2357.8091797083616 4030.2256979867816 4836.6385009102523 905.9230750463903 716.88729992136359 60.234738729894161 141.83114632591605 20.969292674213648 6.5560185275971872 229.10643919557333 279.27301604673266 142.86400256305933 986.18751480430365 237.18003329634666 259.89284777641296 217.45518805459142 358.35796702280641 292.90966907516122 211.16843410208821 7.7818054966628534 187.05600424483418 564.67665892839432 7.2471776381134969 152.02768442034721 204.89467187970877 33.085352558642626 385.45671185478568 14.61098989099264 4.8710538223385837 6.1818232126534012 39.944459430873394 5.108666203916072 34.390049081295729 5.1858460418879986 1.2335895523428906 5.4967369697988024 47.691999297589064 17.686075400561094 1.2929926477372644 17.228627379983664 21.586731377989054 3.5958379171788692 351.07045088708401 12.129935335367916 6.569893978536129 63.977133739739656 3.4453795328736305
leaf_count=42466 72 7 41111 448 3115 2173 17378 1194 26118 31681 32247 7968 7305 1014 832 353 14 2549 4013 1992 10214 1501 2847 2050 1297 2095 2013 131 2791 6491 122 1926 1164 378 6420 67 82 49 521 86 221 46 7 65 87 105 8 56 33 33 486 39 28 1077 58
internal_value=-2.69236 -1.83817 -1.82025 -2.22577 -2.2699 -2.08605 -1.83484 -2.36673 -1.87222 -1.96396 -1.81131 -2.10178 -2.44149 -1.85805 -1.79678 -2.51634 -2.6173 -1.6724 -2.21212 -2.01208 -1.9206 -2.02059 -2.51292 -1.72346 -1.62695 -1.94768 -2.0198 -1.61141 -2.3945 -2.31787 -1.48673 -2.15675 -1.45499 -1.73544 -2.72989 -2.25961 -1.20913 -1.70068 -2.63731 -1.70479 -1.82713 -2.44282 -2.68062 -2.77269 -1.17612 -1.30844 -2.55957 -1.47453 -1.28645 -1.58257 -1.15305 -1.22249 -1.33665 -2.79913 -2.79913
internal_weight=0 20695.4 20162.8 9196.84 8211.44 2832.84 19692.8 5378.6 16008.9 6388.03 9620.85 1183.69 4194.91 985.397 925.162 532.619 479.158 3683.97 996.16 1048.79 1843.86 1223.37 3198.75 620.49 3161.95 522.016 538.113 53.4602 988.984 751.733 387.05 363.196 374.617 174.916 426.534 35.5803 469.926 29.5745 237.252 52.6246 39.4987 12.433 12.4608 390.953 440.352 65.3781 6.16405 23.4105 40.9994 7.28273 374.974 33.7167 13.1259 134.904 11.2272
internal_count=268644 162983 155421 105661 97718 28856 154476 68862 131157 57799 73358 12231 56631 7943 6929 7562 7254 23319 11318 9960 15938 11715 45313 4223 18675 4644 5149 308 12918 9282 1780 3939 1612 1210 6905 420 945 195 3636 349 307 168 196 6485 750 192 90 105 112 40 558 72 42 2271 189
is_linear=0
shrinkage=1


Tree=1
num_leaves=61
num_cat=0
split_feature=52 37 103 34 52 36 104 134 136 83 134 79 30 133 136 127 0 33 29 84 74 86 116 115 30 40 100 4 127 40 113 115 102 61 46 2 71 106 74 90 56 98 76 76 64 71 102 70 113 115 110 131 50 89 49 110 129 131 52 73
split_gain=10988.7 4903.72 5991.77 6151.38 4848.22 3643.9 4038.34 3433.18 3719.83 3635.12 3088.53 2233.93 2113.77 1571.71 1360.03 1113.46 1862.16 1091.86 1028.56 880.105 1805.26 1143.7 798.141 711.454 689.494 664.328 1328.97 812.021 477.866 383.053 373.793 428.467 356.862 347.291 334.433 307.287 276.535 248.504 247.614 288.581 247.523 251.089 236.791 235.77 234.363 232.763 173.965 733.207 171.076 111.474 109.32 59.8171 58.9806 44.3151 39.9374 69.7469 0.0169417 0.013044 0.00276802 0.00117314
threshold=1.0452093482017519 0.97715216875076305 -0.86695623397827137 0.83373460173606884 0.80859118700027477 0.90475350618362438 -0.8139379322528838 1.0000000180025095e-35 1.0000000180025095e-35 -1.0400497913360593 1.0000000180025095e-35 -0.96464598178863514 1.0902070403099062 1.0000000180025095e-35 1.0000000180025095e-35 -2.03978419303894 0.28728933632373815 0.77437788248062145 1.1747764945030215 -1.2827581763267515 -0.98380225896835316 -1.2728145122528074 -1.0026246309280393 -1.2488358020782468 1.0641087889671328 1.0564463734626772 -0.78635290265083302 0.47371283173561102 -2.1342328786849971 1.0770674943923952 -0.9338681399822234 -0.94512891769409169 -0.7631370723247527 0.75845918059349071 1.1664502024650576 0.57470408082008373 -0.33430846035480494 -0.95099535584449757 -0.99380785226821888 -1.0708125233650205 0.97888034582138073 -0.7783292531967162 -1.1977023482322691 -1.1513459682464597 0.56538823246955883 -0.53727146983146656 -0.83311727643012989 -0.32512585818767542 -1.1717424392700193 -0.91752481460571278 -0.89230012893676747 1.0000000180025095e-35 1.0871358513832095 -0.63075119256973255 0.81997618079185497 -0.89801850914955128 1.0000000180025095e-35 1.0000000180025095e-35 1.0438047051429751 -0.91772401332855214
decision_type=2 2 2 2 2 2 2 2 2 2 2 2 2 2 2 2 2 2 2 2 2 2 2 2 2 2 2 2 2 2 2 2 2 2 2 2 2 2 2 2 2 2 2 2 2 2 2 2 2 2 2 2 2 2 2 2 2 2 2 2
left_child=4 2 14 22 30 10 -7 8 9 12 -5 24 -6 -11 18 16 28 52 23 20 42 -22 37 -2 -10 26 33 -28 29 -3 31 48 34 -17 -18 -19 -34 -4 49 -40 43 -42 -9 -27 -30 -20 47 -21 -1 -33 -24 -50 -16 -13 56 59 57 -32 -48 -56
right_child=1 15 3 5 7 6 -8 19 11 13 -12 53 -14 -15 17 25 32 35 45 46 21 -23 50 -25 -26 40 27 -29 44 -31 54 38 36 -35 -36 -37 -38 -39 39 -41 41 -43 -44 -45 -46 -47 58 -49 51 -51 -52 -53 -54 -55 55 -57 -58 -59 -60 -61
leaf_value=1.1957003565265523 0.25669365546160638 0.32700672758855176 0.1740214566408462 0.29913408364729355 0.34185195562285003 0.39300736507716472 0.31479289524382165 -0.084041885528333068 0.17051860422491419 0.29217650402928269 0.0853129852802368 0.9978556559070576 0.21059080929316074 0.056537298669483996 0.34202025515142398 0.51066423567087971 0.088339877236994921 0.059692925271514388 -0.078024100745120673 -0.061913357888572544 0.93436327993894397 0.27797691074813591 0.53993854077141989 0.48745523299108406 -0.050957051999108507 0.87033432025861934 0.51902816254993855 0.17992962939056489 0.5088489832921782 0.4413282228155298 -0.10750271831018623 -0.10802988073157985 -0.043733952489536577 0.12673990151105752 0.43088192232679356 0.63456618476290427 0.25577609681085728 -0.070044216595044145 0.91173679890423753 0.1042929359759785 0.52785819378224508 0.029373434218363872 0.20049655660455917 0.5714961316865973 0.19064750039050651 0.56489225249656583 -0.10786004212816372 0.28782530343382245 -0.063051372355215948 0.79369705137978086 0.1606663604885413 0.40601265962388838 0.60950006837501458 1.3185905624972583 -0.10680938720065054 0.64201852581157803 -0.11143540781732293 -0.10623837064352062 -0.10929772600141641 -0.11060816927022239
leaf_weight=1.1327758878469456 138.47261752560735 499.66952453926206 46.242349527776241 6949.2228490523994 6873.6680789105594 14142.982028942555 12379.427875254303 123.69253163039684 206.54570712894201 428.25228468328714 748.28168026357889 8.012774661183359 1493.3767147883773 834.89777436852455 9.6411811597645265 925.52598210424185 50.961947321891785 160.50074639171362 40.846257731318474 256.25145076960325 39.663737133145332 80.262514784932137 26.943824551999569 3800.0077167004347 440.02878472954035 40.614100761711597 97.594405315816402 255.4800796546042 675.07569712772965 708.92820942029357 252.14730517193675 8.738835334777832 103.69616628810763 24.176942769438028 64.67362642288208 9.8700085952877981 43.867571130394936 426.34908712282777 13.014869563281538 6.707524958997964 1479.7620411105454 10.174204330891369 38.304176010191441 75.43961950391531 23.968313407152891 6.5317434445023528 141.1374049410224 78.246892966330051 65.007639802992344 1.6260559558868415 10.585398472845553 2.8373595476150504 56.877638459205627 9.3166745826601964 1.9697137735784052 1.9639195837080468 9.2088498175144178 120.63727270811796 14.795797117054461 1.384268254041672
leaf_count=3 704 2140 366 35250 37881 51090 50627 1796 2428 3562 5687 36 12265 11003 40 2430 383 1166 367 3643 194 857 49 11324 6214 73 230 1639 1588 2110 3951 131 875 139 194 26 257 5079 43 60 3270 78 455 261 123 22 2089 820 893 1 60 12 79 14 33 11 100 2210 197 16
internal_value=0 0.359509 0.347458 0.333782 0.249931 0.338921 0.3565 0.263512 0.278769 0.294552 0.278348 0.0498232 0.318424 0.136427 0.459935 0.451922 0.397726 0.227145 0.47377 0.060169 0.200963 0.495066 -0.0109139 0.479342 0.0197925 0.492368 0.439307 0.273661 0.432129 0.394064 -0.0590731 0.114267 0.148381 0.500891 0.27992 0.0929968 0.045304 -0.0461628 0.429159 0.637128 0.535411 0.524454 -0.0167627 0.676077 0.497939 0.0106112 -0.0207658 0.0198986 -0.0230851 0.0334341 0.432962 -0.0434345 0.570732 1.17029 -0.103409 0.168747 -0.107198 -0.107094 -0.107996 -0.108377
internal_weight=0 44032.4 38952.8 34730 11552.8 34219.9 26522.4 11066.5 10294.1 9630.19 7697.5 663.904 8367.04 1263.15 4222.75 5079.61 2170.84 236.89 3985.86 772.355 281.923 119.926 510.121 3938.48 646.574 2908.77 1302.78 353.074 1907.64 1208.6 486.376 99.0651 263.199 949.703 115.636 170.371 147.564 472.591 30.0873 19.7224 1605.99 1489.94 161.997 116.054 699.044 47.378 490.432 334.498 68.9778 10.3649 37.5292 67.845 66.5188 17.3294 387.311 5.3179 381.993 372.785 155.933 3.35398
internal_count=268644 177726 161936 148208 90918 142654 101717 83454 73403 64711 40937 8692 50146 14565 13728 15790 7670 1311 12417 10051 3302 1051 5554 12028 8642 8120 4438 1869 5961 4250 7464 1143 1709 2569 577 1192 1132 5445 235 103 3682 3348 2251 334 1711 389 6749 4463 908 132 109 905 119 50 6321 60 6261 6161 2286 49
is_linear=0
shrinkage=0.1


Tree=2
num_leaves=59
num_cat=0
split_feature=53 51 104 136 99 52 103 134 32 127 103 110 30 101 35 132 106 132 30 32 51 100 118 53 76 136 104 74 113 96 33 72 92 76 117 106 43 70 5 126 103 107 131 47 131 31 30 69 114 40 38 109 75 131 52 129 73 52
split_gain=5339.68 3070.49 3015.92 2002.03 2444.95 1898.79 5066.87 3922.6 4985.95 1953.35 1906.75 3524.76 1617.82 1512.75 1915.72 1253.34 1777.96 1120.9 1180.82 897.063 797.539 977.47 714.9 703.136 701.045 683.626 584.367 470.818 432.064 429.684 402.079 388.492 324.37 258.721 275.376 251.065 250.971 205.346 191.146 115.242 101.385 92.4948 88.5692 82.3068 72.5377 95.102 51.4639 33.9095 15.2928 100.038 0.155361 0.0772966 0.0366002 0.025057 0.017776 0.0122182 0.00628786 0.00357524
threshold=1.0386360287666323 0.83948138356208812 -0.72136098146438588 1.0000000180025095e-35 -0.84438872337341297 1.0960277915000918 -0.79609391093254078 1.0000000180025095e-35 0.95249611139297496 -2.0822691917419429 -0.7274830937385558 -1.2105581164360044 1.063388526439667 -0.85552111268043507 0.9045124650001527 1.0000000180025095e-35 -0.96324247121810902 1.0000000180025095e-35 1.0850078463554385 0.91835230588912975 1.1007644534111025 -0.82898858189582814 -1.6109011769294737 1.0983585715293886 -1.196583032608032 1.0000000180025095e-35 -0.9217076003551482 -0.91645866632461537 -0.9338681399822234 -0.67949971556663502 0.92423313856124889 -0.29894733428955073 -1.0477255582809446 -1.1871803402900694 -0.95499861240386952 -0.9116699993610381 1.1039711236953738 -0.12424098700284956 0.76816508173942577 -1.938012897968292 -0.96948543190956105 -0.95529425144195546 1.0000000180025095e-35 0.80219537019729625 1.0000000180025095e-35 0.93556949496269237 0.78356498479843151 0.086503021419048323 -1.4187139868736265 1.0825486779212954 1.0050597786903384 -1.1428195834159849 -0.40644039213657374 1.0000000180025095e-35 0.80859118700027477 1.0000000180025095e-35 -0.9256053864955901 0.80859118700027477
decision_type=2 2 2 2 2 2 2 2 2 2 2 2 2 2 2 2 2 2 2 2 2 2 2 2 2 2 2 2 2 2 2 2 2 2 2 2 2 2 2 2 2 2 2 2 2 2 2 2 2 2 2 2 2 2 2 2 2 2
left_child=1 28 5 4 17 6 13 10 37 -10 23 -12 24 25 -15 19 -17 18 -3 -6 36 -22 31 -7 30 -2 -26 -19 32 -24 -5 51 35 34 -14 57 -8 -9 -37 -35 42 47 -34 54 45 -45 -43 -33 49 -31 -50 -4 -53 -42 55 -30 -56 -1
right_child=2 3 22 12 15 7 20 8 9 -11 11 -13 33 14 -16 16 -18 27 -20 -21 21 -23 29 -25 26 -27 -28 -29 43 48 -32 41 40 39 -36 38 -38 -39 -40 -41 53 46 -44 44 -46 -47 -48 -49 50 -51 -52 52 -54 -55 56 -57 -58 -59
leaf_value=-0.10898333332306827 0.31400159865049665 0.24120836541294205 -0.13098194601660443 0.33427853409213043 -0.052229722968027914 0.27889619827651518 -0.013121960922754528 -0.090435494638425845 0.012822461456846929 0.3628747015508903 0.3186360387986254 0.11980663080361054 0.29931911465114253 0.18897542737215928 0.26438341551504135 0.51223877292553188 0.08810414761878238 -0.06872228681922464 0.17487649853958293 0.11363741786705772 0.28283573823246955 0.087349821141190831 0.36280350856685534 0.31440009773600136 0.36617210931671368 0.20170524236976531 0.05976488937349074 0.15823392209724726 -0.1063728844844542 -0.11030218311265415 0.027816105720344389 0.33006527758449672 0.039225040174325515 0.35438724465984878 0.010038603508352671 0.033671768942261551 0.26485775213125939 0.40893534043536639 0.39419796150965647 -0.079323765403774088 -0.1090667403525736 0.39205173794202675 0.52883188117429747 0.16593671831201129 0.6154507579188726 -0.11099681950835771 -0.11299476450254382 0.48598090571052216 -0.10748794209397004 0.68420200585921553 -0.12458325169217635 -0.10849014055679845 -0.12201636247539466 -0.12054125718068337 -0.10955369545387117 -0.11022953634756927 -0.11753312075044982 -0.11180788161297542
leaf_weight=7.9779998250305679 4204.8767762556672 12513.358314435929 1.8381214961409593 300.66012413054705 442.43413813784719 12980.970089443028 653.89886519312859 667.13345467299223 210.41662013530731 657.60895954072475 1719.8418602645397 1851.3843018785119 39.079563960433006 5559.5791370794177 8550.2005843222141 170.0759668648243 235.95573319494724 174.61385557055473 3416.4717443063855 1239.6756852902472 329.52462770044804 1143.0089523792267 21.084527686238289 9781.2584055177867 73.153404459357262 622.34499377012253 417.31717353314161 191.81222409009933 338.35989330708981 11.095901653170584 49.919208869338036 50.851800881326199 19.706968165934089 6.2176818475127211 208.33641365915537 19.744365200400352 34.176081165671349 8.3374819010496122 57.628550842404366 417.59451039135456 61.356989569962025 2.9006860181689245 4.5473322272300711 21.184073280543089 2.0155854895710936 29.907195191830397 6.6275020763278008 19.221537716686726 301.01171211898327 1.8488535359501828 5.4116101786494246 22.107143700122837 2.1994939297437659 1.9640138894319523 2.169442400336266 8.418991416692732 1.812718704342841 10.224589727818964
leaf_count=118 10024 55282 13 1230 4913 36844 4018 4483 1264 1607 1563 9205 220 21730 22960 827 2096 1889 22067 8236 821 6680 39 20856 344 2518 3037 1655 6143 149 299 66 237 18 2504 161 125 15 230 5209 843 16 5 170 3 357 84 14 4815 3 37 311 18 14 28 100 18 113
internal_value=0 0.194202 0.254925 0.200853 0.20995 0.257283 0.234649 0.274413 0.119472 0.278019 0.283494 0.215559 0.0902528 0.251203 0.234671 0.108074 0.265763 0.223005 0.226982 0.0700105 0.0895647 0.131096 -0.00388208 0.294153 0.182653 0.299524 0.105465 0.050082 -0.0312029 -0.0744265 0.290641 0.223237 0.0961953 -0.0255249 0.0557307 0.223585 0.000685048 -0.0842717 0.302197 -0.0729609 -0.0428314 0.333085 0.131019 -0.088977 0.0270418 0.00382868 0.0407576 0.372834 -0.103292 0.00317404 -0.10779 -0.111209 -0.109714 -0.109423 -0.106543 -0.106467 -0.113186 -0.11057
internal_weight=0 20483.7 49420.8 19896.7 18384.4 48974.6 21097.6 27877 1543.5 868.026 26333.5 3571.23 1512.28 18937 14109.8 2088.14 406.032 16296.3 15929.8 1682.11 2160.61 1472.53 446.199 22762.2 841.05 4827.22 490.471 366.426 587.019 340.453 350.579 105.746 183.151 671.228 247.416 95.5755 688.075 675.471 77.3729 423.812 87.5753 79.6015 24.2543 403.868 53.1069 51.0913 9.52819 70.0733 319.368 12.9448 306.423 26.1448 24.3066 63.321 350.761 346.779 3.98216 18.2026
internal_count=268644 118366 150278 109826 96965 144713 68876 75837 7369 2871 68468 10768 12861 57232 44690 16072 2923 80893 77349 13149 11644 7501 5565 57700 4910 12542 3381 3544 8540 5043 1529 522 1721 7951 2724 622 4143 4498 391 5227 1099 180 242 6819 530 527 100 80 5004 152 4852 342 329 857 6289 6243 46 231
is_linear=0
shrinkage=0.1


Tree=3
num_leaves=58
num_cat=0
split_feature=52 103 37 136 134 104 23 101 102 70 130 49 134 126 104 134 102 31 55 127 91 130 111 30 133 30 37 111 45 100 26 71 23 136 67 11 72 82 73 33 53 38 75 58 106 26 66 70 103 68 105 102 38 108 34 57 75
split_gain=3366.63 2236.41 2122.49 2188.97 2210.12 1811.39 1468.18 1397.24 1020.39 2669.86 2012.64 1169.82 3075.41 1492.2 1046.72 719.378 877.887 754.892 685.995 681.114 1437.29 720.283 709.738 623.216 607.245 838.847 834.228 552.703 546.457 541.392 520.024 496.361 488.841 452.079 402.877 393.117 370.907 357.635 331.015 329.281 318.267 314.273 311.216 193.921 141.42 120.501 95.0759 86.0513 135.82 31.6611 22.4961 8.48303 0.100047 0.0700678 0.0410538 0.0243322 0.0201812
threshold=1.0658296346664431 -0.8240644335746764 0.91693174839019786 1.0000000180025095e-35 1.0000000180025095e-35 -0.72136098146438588 1.3251060843467715 -0.87715807557106007 -0.82712075114250172 -0.28922289609909052 1.0000000180025095e-35 1.1345823407173159 1.0000000180025095e-35 -1.8590106368064878 -0.83272093534469593 1.0000000180025095e-35 -0.82599508762359608 1.0058111548423769 0.95181706547737133 -1.7861743569374082 -1.0693221092224119 1.0000000180025095e-35 -1.2228627800941465 1.0624014735221865 1.0000000180025095e-35 1.0521460175514223 0.93303292989730846 -1.2553697228431699 1.1152618527412417 -0.87880682945251454 1.2810963392257693 -0.49496555328369135 1.2933974862098696 1.0000000180025095e-35 0.11104547232389451 0.64847153425216686 -0.29894733428955073 -1.3413556814193723 -0.7289614975452422 0.90453347563743602 1.0608342289924624 0.94450828433036815 -1.1412057280540464 0.84640634059906017 -0.89967861771583546 1.1663749814033511 0.22390646487474444 -0.29548117518424982 -0.82147416472434986 0.22993423789739612 -0.78821909427642811 -0.83565872907638539 1.0050597786903384 -1.0640986561775205 0.83373460173606884 0.8891131877899171 -0.40644039213657374
decision_type=2 2 2 2 2 2 2 2 2 2 2 2 2 2 2 2 2 2 2 2 2 2 2 2 2 2 2 2 2 2 2 2 2 2 2 2 2 2 2 2 2 2 2 2 2 2 2 2 2 2 2 2 2 2 2 2 2
left_child=1 2 3 4 7 8 -6 -1 24 10 14 12 -11 -13 -10 17 18 29 -17 20 33 47 45 31 25 35 -27 36 -12 -4 -19 -5 43 34 -3 -2 53 -34 44 52 -40 -24 -25 -23 -26 -22 -18 51 -49 50 -38 -21 54 -7 -29 -35 -55
right_child=5 19 15 23 6 27 -8 -9 9 11 28 13 -14 -15 -16 16 46 30 -20 21 22 32 41 42 38 26 -28 39 -30 -31 -32 -33 37 55 -36 -37 49 -39 40 -41 -42 -43 -44 -45 -46 -47 -48 48 -50 -51 -52 -53 -54 56 -56 -57 -58
leaf_value=0.18561691047220424 0.11729677842375691 0.050595618305067286 0.32576531879889425 0.020470730039214707 0.28534936750951534 -0.1252025782398532 -0.02390830428280143 0.12098202298307115 0.11410066338946104 0.13600491862971592 0.15953606094462389 0.18838893746977428 0.26343549642664316 0.23550640274334855 -0.023335916315005367 0.017491402164547722 -0.11801732834257497 0.11065428707388236 0.37928684388469558 -0.05493962817629381 0.036762150074051252 -0.12569000348727952 -0.098345812806776872 0.32652648247649352 0.30905625106462187 0.16089396819878454 0.2365624744008461 -0.10527375540339501 0.30409235199755674 0.20328014966626851 0.29805892417870256 0.1898941043764345 0.30070162499995129 -0.12421939340091015 0.28896195424179272 0.24886965961736573 0.27920725421370446 -0.011445720476038942 0.15629601297950443 0.26968773678085528 0.27056526500701977 0.041527672601620866 -0.044901712139929273 0.11324811093244408 0.13666718261589966 0.45025976566897025 0.11650921377082912 0.094440832070365605 -0.061658117411328123 0.40430280674511609 0.1443031313885802 -0.11722491559888902 -0.12174091834528721 -0.10765565217730433 -0.10775445917775023 -0.13204860929026277 -0.1161872703807338
leaf_weight=13217.27847545594 237.69259940832853 84.455285213887691 643.45264916867018 370.57363411784172 182.80595914274454 2.7337405420839778 957.91478811949492 4477.5683525800705 1221.2997863292694 7130.7461091950536 651.56152784824371 14440.570786375552 2578.8131370097399 12574.206417344511 1014.4307929724455 56.734666049480438 40.283086016774178 821.34686573594809 687.15979471802711 24.274515882134438 8.4955756142735463 81.052326913923025 257.34710251167417 23.307055905461311 1275.0309236049652 3926.1381985172629 2316.7081871777773 109.27831944078207 436.82860396802425 821.69196150824428 180.63200933113694 324.20971964299679 142.65071214735508 4.6155787184834471 441.97137656062841 5088.7320449352264 58.570592954754829 49.420787066221237 393.21033264696598 25.25868047773838 641.22552049160004 427.43148447573185 702.44797376170754 58.46975389122963 49.432438671588898 41.352457202970982 30.278202809393406 66.734418053179979 338.32187919691205 16.389514427632093 15.667722091078756 220.43325757235289 4.5471942499279967 27.937936924397945 171.26545742899179 28.361983954906464 3.0780406817793873
leaf_count=55347 673 510 1002 3452 778 23 9300 23645 5189 23585 1792 39639 4973 25129 5847 547 377 3297 1099 290 44 831 2549 146 1737 12434 4772 2310 478 2963 443 1267 184 31 999 8817 45 228 1069 34 946 2419 8325 156 147 84 126 279 2509 11 60 2462 34 433 2589 155 34
internal_value=0 0.154471 0.163623 0.151536 0.160564 0.198323 0.0256517 0.169261 0.19996 0.191852 0.106032 0.19962 0.16985 0.21032 0.0517408 0.23823 0.319719 0.211328 0.351694 0.0598018 0.107447 -0.00302435 0.0154812 0.0318335 0.223275 0.213847 0.188974 -0.00498564 0.217554 0.257072 0.144439 0.0995295 0.116901 0.22822 0.250721 0.242998 0.173126 0.220385 0.269517 -0.0763667 0.227129 -0.0110383 -0.0329736 -0.0255578 0.302622 0.379788 -0.0173808 -0.064226 -0.0359403 0.278508 0.250736 -0.111046 -0.107027 -0.109855 -0.106788 -0.130953 -0.108502
internal_weight=0 25813.1 23537.7 20256.1 18835.6 54411.4 1140.72 17694.8 53976.6 40048.5 3324.12 36724.3 9709.56 27014.8 2235.73 3281.58 814.456 2467.12 743.894 2275.39 1294.03 981.358 734.627 1420.54 13928.2 11569.3 6242.85 434.727 1088.39 1465.14 1001.98 694.783 331.594 559.404 526.427 5326.42 124.378 192.071 2358.9 310.35 1034.44 684.779 725.755 139.522 1324.46 49.848 70.5613 649.764 405.056 90.6278 74.2383 244.708 285.091 33.7497 280.544 32.9776 31.016
internal_count=268644 125844 112114 102260 89070 142800 10078 78992 137227 106632 13306 93326 28558 64768 11036 9854 2149 7705 1646 13730 6791 6939 5096 13190 30595 26696 17206 5573 2270 3965 3740 4719 1399 1695 1509 9490 606 412 3899 4967 2015 4968 8471 987 1884 128 503 5540 2788 116 105 2752 4933 490 4899 186 467
is_linear=0
shrinkage=0.1


Tree=4
num_leaves=62
num_cat=0
split_feature=52 51 103 110 103 51 102 134 32 128 41 82 136 71 102 108 135 130 20 69 30 48 75 102 14 113 71 73 52 53 76 92 108 12 78 106 14 29 86 69 103 112 42 39 49 111 55 3 80 95 32 43 31 36 43 108 127 131 2 103 52
split_gain=2555.4 1542.47 1231.2 1156.09 3382.61 993.498 2834.11 1429.85 3787.09 1042.08 990.923 1009.1 1072.07 915.327 776.514 749.931 535.112 689.087 917.19 520.636 506.771 454.633 425.668 340.199 298.048 284.285 233.816 232.798 217.665 206.182 407.151 190.016 169.334 166.579 150.778 137.538 122.93 110.812 102.857 99.4231 72.1736 64.9835 76.7962 64.9261 62.4142 57.3306 54.5917 52.675 87.3923 53.6482 51.4928 50.5341 35.3282 42.3846 30.9766 19.284 0.0396773 0.0293861 0.0191634 0.0154602 0.00434079
threshold=1.0481271743774416 0.83948138356208812 -0.8604326844215392 -1.2105581164360044 -0.69824814796447743 1.1108797788619997 -0.80685257911682118 1.0000000180025095e-35 0.95568132400512706 1.0000000180025095e-35 0.96315574645996105 -1.103701055049896 1.0000000180025095e-35 -0.25711581110954279 -0.86283490061759938 -1.0489221811294553 1.0000000180025095e-35 1.0000000180025095e-35 1.2945132851600649 -0.26811808347702021 1.0605235099792483 1.2079288363456728 -0.44880940020084376 -0.89296478033065785 0.99829837679862987 -0.9338681399822234 -0.5327637493610381 -0.79076442122459401 1.1711956858634951 1.1212610602378847 -0.41357824206352228 -1.0477255582809446 -1.0372982025146482 0.94544970989227306 -0.9610949158668517 -0.9116699993610381 0.68034309148788463 1.2198836803436282 -0.22949616611003873 0.034584447741508491 -0.96948543190956105 -1.3201500773429868 1.1103820800781252 0.60555067658424389 0.81997618079185497 -1.2784126996994016 1.0534877777099612 0.71518871188163768 -1.1947140097618101 -1.0674173235893247 0.84714090824127208 1.1107383370399477 0.84159564971923839 0.91459265351295482 1.1845659613609316 -1.0763846635818479 1.0000000180025095e-35 1.0000000180025095e-35 0.66276329755783092 -0.8240644335746764 0.80859118700027477
decision_type=2 2 2 2 2 2 2 2 2 2 2 2 2 2 2 2 2 2 2 2 2 2 2 2 2 2 2 2 2 2 2 2 2 2 2 2 2 2 2 2 2 2 2 2 2 2 2 2 2 2 2 2 2 2 2 2 2 2 2 2 2
left_child=1 25 10 29 5 6 14 13 -9 -8 11 12 -3 -7 -5 21 17 18 -4 -13 -19 46 -23 27 -25 31 33 -12 54 36 38 35 -30 -18 -28 60 41 -37 39 -31 43 45 -43 -33 56 -2 -6 48 -46 -49 -40 -38 53 -32 -17 -54 58 -42 -27 -58 -1
right_child=3 2 16 4 15 7 9 8 -10 -11 23 19 -14 -15 -16 28 26 20 -20 -21 -22 22 -24 24 -26 44 34 -29 32 30 52 40 -34 -35 -36 37 51 -39 50 -41 57 42 -44 -45 47 -47 -48 49 -50 -51 -52 -53 55 -55 -56 -57 59 -59 -60 -61 -62
leaf_value=-0.10967365880717701 0.2300243611442091 0.14268728391460422 0.081044594302025166 0.19201856745219345 -0.094663573264879064 0.17918206857279001 0.098458346355504114 -0.037804743159242052 0.22247448479671 -0.021383435409170589 0.25480738549304405 0.00305788366404345 -0.0066668929740297412 0.048564585965658359 0.15066324423854427 -0.1142610185750145 -0.04611984206330233 0.22956460062571191 -0.049631127440542322 0.12149156876120229 0.066331484346335054 0.056706481563136846 0.24815580445878349 0.15653016787252419 0.25786947294267876 -0.12029721142884882 0.21639520404813051 0.47842069346642263 0.11925673633389439 0.055848560931906321 0.21758178683621499 -0.11115472514497082 -0.05779069927344184 0.3030902588931248 -0.024032961774432159 -0.0055392217560864586 0.27485564288039832 0.23578946537575809 0.039293032037506732 -0.1357798357266545 -0.10975582714291515 -0.12624099858560112 0.19307333997469467 0.19077893507720514 0.2631413659835839 0.27786415199919223 0.31631921339602315 0.31042615365591814 -0.11433991073491008 -0.11241752104183425 0.35824520196052484 0.47684007757804614 0.23102115214035332 0.055296115177225214 0.1359739619073328 0.29881831224521177 -0.10646486887747053 -0.12191845261903762 -0.10806384903206399 -0.10488929120344688 -0.11269287786235088
leaf_weight=8.5034432187676448 1712.893564209342 10385.18114811182 1233.5111146271229 5806.1240141093731 135.57987943291664 31429.518754798919 3918.8372941501439 1101.8530712127686 1134.7055626213551 890.44223975390196 321.20263965427876 943.21709559857845 503.92566481232643 545.82211617380381 20826.046399235725 458.11881866306067 72.188774295151234 322.59285295754671 951.38907191902399 612.02639090269804 463.40830537676811 360.99484734982252 171.21683092042804 1187.7570650875568 384.06598891317844 1.3009878024458874 367.41368783265352 54.44909380376339 85.169611807912588 69.149322979152203 72.602983556687832 11.493818402290346 147.71157143637538 16.847870036959648 28.076831489801407 24.90709962695837 21.358060449361801 80.593965426087379 8.7858863957226276 44.497733779251575 65.195719014853239 10.440513491630552 27.035486787557602 18.723567880690098 15.403312645852568 293.40939788520336 3.3109886944293967 3.2982946932315818 10.190806485712526 33.234456978738308 11.941217318177223 29.487770467996597 106.38730772584677 20.676663197577 5.0009573735296717 69.271210059523582 133.35220782086253 2.0489211976528159 81.324594743549824 116.84837134927511 10.82239969819784
leaf_count=118 680 39581 7939 11822 824 63826 14706 5958 2254 4850 685 7518 6659 2065 55305 5301 393 493 9767 4210 2040 1726 374 5391 958 13 683 141 541 240 50 139 1857 23 136 162 34 229 49 238 843 64 60 103 60 429 5 4 97 365 6 26 84 56 20 37 2373 14 1229 2678 113
internal_value=0 0.117149 0.122524 0.159001 0.156511 0.159753 0.146921 0.171546 0.0942465 0.0762695 0.135394 0.125014 0.135775 0.176952 0.159679 0.000824827 0.0689218 0.0530295 0.0241434 0.0496644 0.133326 0.0762507 0.118297 0.201724 0.181292 -0.0382676 0.166366 0.287219 -0.0719028 0.225798 0.160324 0.0521937 0.00695932 0.0199591 0.199327 0.13389 0.238405 0.178816 0.0181813 -0.0191822 -0.0524403 0.234584 0.104115 0.0759321 -0.0891814 0.237021 -0.0848662 0.00282928 0.11284 -0.0742418 0.223046 0.391995 0.231346 0.181609 -0.111559 0.257757 -0.106356 -0.110126 -0.108256 -0.105729 -0.111364
internal_weight=0 18464.5 17847.3 69518.4 67020.5 65653.3 31441.4 34211.9 2236.56 4809.28 14391.8 12444.4 10889.1 31975.3 26632.2 1367.1 3455.43 2970.9 2184.9 1555.24 786.001 671.103 532.212 1947.47 1571.82 617.242 484.527 375.652 696.001 2497.94 403.312 222.289 232.881 89.0366 395.491 124.827 2094.62 105.501 134.374 113.647 97.462 2043.78 37.476 30.2174 394.953 2006.3 138.891 62.1269 25.5941 36.5328 20.7271 50.8458 268.938 93.2796 463.12 175.659 332.826 67.2446 82.6256 250.201 19.3258
internal_count=268644 95157 86617 173487 171434 160786 86683 74103 8212 19556 65143 57968 46240 65891 67127 10648 21474 20239 17706 11728 2533 2929 2100 7175 6349 8540 1235 826 7719 2053 760 1721 2398 416 819 622 1293 391 533 478 1099 1233 124 242 6819 1109 829 526 157 369 55 60 227 106 5321 121 6293 857 1242 5051 231
is_linear=0
shrinkage=0.1


Tree=5
num_leaves=61
num_cat=0
split_feature=51 103 5 120 37 103 101 134 45 107 97 134 74 104 40 32 58 38 69 111 129 113 65 30 133 84 102 4 130 134 69 97 110 31 114 30 136 134 74 3 31 135 70 74 9 57 60 41 31 61 32 85 64 33 62 107 68 0 127 44
split_gain=2005.48 1599.3 1109.31 1024.6 1076.67 1232.17 983.223 2442.8 1896.55 919.204 2423.12 883.364 760.669 733.392 696.708 997.635 841.178 994.247 557.795 550.472 550.225 507.892 471.618 458.327 450.624 420.422 419.283 464.049 389.972 517.859 879.081 388.423 314.84 286.772 267.83 243.533 206.786 201.458 200.332 158.596 154.978 145.838 134.039 133.046 122.543 110.806 104.281 104.656 102.392 98.4514 151.187 75.1666 71.3966 63.393 33.159 19.3603 14.1607 2.08594 0.279282 0.129479
threshold=1.0934650897979739 -0.80863776803016651 0.75571811199188244 -0.95715472102165211 0.9255063831806184 -0.86370033025741566 -0.7826961576938628 1.0000000180025095e-35 1.1444354653358462 -0.99496105313301075 -0.64124763011932362 1.0000000180025095e-35 -0.65312659740447987 -0.83648779988288868 1.0417227745056155 0.96325117349624645 0.85875576734542858 0.97475260496139537 -0.12319544330239295 -0.86696302890777577 1.0000000180025095e-35 -1.1117781996726988 0.41543461382389074 1.0969652533531191 1.0000000180025095e-35 -1.1758332252502439 -0.93035182356834401 0.76392903923988353 1.0000000180025095e-35 1.0000000180025095e-35 -0.11060648038983344 -0.86456069350242604 -0.83440536260604847 1.0067737698554995 -1.3706591725349424 1.0491539835929873 1.0000000180025095e-35 1.0000000180025095e-35 -0.890497326850891 0.4302195012569428 0.99402055144310009 1.0000000180025095e-35 -0.12424098700284956 -1.01118528842926 0.66970491409301769 0.87176308035850536 0.77085107564926159 1.0749748349189761 0.99951806664466869 0.37772765755653387 0.82566368579864513 -0.53744810819625843 0.44227534532547003 0.93498840928077709 0.38631428778171545 -0.90234601497650135 0.024537384510040287 0.49872516095638281 -2.0754876136779781 1.1245902180671694
decision_type=2 2 2 2 2 2 2 2 2 2 2 2 2 2 2 2 2 2 2 2 2 2 2 2 2 2 2 2 2 2 2 2 2 2 2 2 2 2 2 2 2 2 2 2 2 2 2 2 2 2 2 2 2 2 2 2 2 2 2 2
left_child=1 2 3 4 5 -1 14 8 13 12 -11 -6 -10 18 15 19 36 -18 -8 24 -21 49 -15 33 -2 38 27 -23 29 34 56 -32 35 -5 51 44 -17 46 59 58 -40 -36 53 -28 -30 -37 48 -48 -16 50 -4 -3 57 -27 -51 -25 -31 -34 -39 -9
right_child=6 28 21 23 11 -7 7 25 9 10 -12 -13 -14 22 37 16 17 -19 -20 20 -22 26 -24 55 -26 42 43 -29 32 30 31 -33 52 -35 41 45 -38 39 40 -41 -42 -43 -44 -45 -46 -47 47 -49 -50 54 -52 -53 -54 -55 -56 -57 -58 -59 -60 -61
leaf_value=0.11873192887707203 0.1420065275771395 0.40501589336975963 0.20576655469747696 0.16932121030585209 0.12120518074945529 0.072159685318980635 0.05058791738295098 -0.12757886670262625 -0.042062808987423289 0.1496361288687735 0.046225230918437478 0.20108386243400297 0.18350013845540891 -0.017604404935359464 0.15757696513516944 0.15520129087126375 -0.0099629348559883077 0.10920634409373481 0.21783856965347767 0.16517632762193965 0.27163957323153415 0.10584460829479994 0.1038855604659818 -0.021213636336582742 0.18378276833442414 -0.1143094171888496 -0.089745536334828332 -0.027346413949736109 0.055055012556544526 -0.12908306055637159 0.25274229057387426 -0.094405000780650672 -0.14546995282030492 0.087162113774189143 -0.078036325949991603 0.18959581857899374 0.24965969276347258 -0.13259658108454581 -0.13069592186695309 0.32287071126290678 0.2463735097188586 0.10972745223783875 0.23731415763405936 0.0032717932856856599 0.22557804236481999 -0.027298438743632705 0.16005336216129817 0.19771648278240717 0.22825370209770904 0.020133638296272734 0.59359432966454484 0.093177691230102777 0.15608267155643218 -0.0048265848754925527 0.21826457530586396 -0.12563299784931625 -0.014663374449496492 -0.10413639996728097 -0.15448699748903852 -0.14474397027608299
leaf_weight=14439.668927446008 19077.995961897075 13.702104322612287 21.677416063845158 4660.676608838141 4339.4932524487376 9365.4597085863352 438.57656016200781 19.496568545699123 154.37485662102699 9638.6762558631599 2962.2975579835474 2033.0746278353035 4740.8467473238707 1340.1196316070855 259.01661171019077 820.29992131888866 872.65987548232079 3540.7452487498522 365.66015176475048 1480.3981821537018 722.29882147908211 793.2213524915278 419.56651189923286 28.514588888734579 2986.1375305205584 516.10140131413937 285.58741856738925 390.2964885905385 53.84566205739975 125.54586306586862 203.07381868362427 38.312071815133095 47.325610518455505 467.44974787533283 791.9272704012692 30.403037041425705 323.02666416764259 24.601877212524411 12.830987364053724 9.7293188124895078 72.428068995475769 43.646229915320873 11.805012572556732 333.15140297263861 193.90282820165157 104.56065754592419 1469.2761341482401 1481.9333276078105 982.5619827285409 10.724322021007536 18.742276020348072 17.734072953462601 9.7241088747978193 58.925335422158241 39.775760367512703 47.061918199062347 11.836197078227995 16.454520739614964 7.6375529319047955 5.6732133626937857
leaf_count=55621 39330 7 67 10247 11152 41743 1930 119 655 17420 15165 3508 6942 6296 449 1509 3019 8592 946 2719 770 3895 1214 158 4930 3464 2652 4148 181 844 186 212 227 1487 6434 49 367 135 75 13 101 177 26 2327 231 412 2421 1660 1041 74 43 52 18 273 48 307 48 447 34 27
internal_value=0 0.10893 0.113258 0.117249 0.110182 0.100409 0.138601 0.121446 0.127842 0.139612 0.125326 0.146689 0.176387 0.0475195 0.149057 0.143667 0.105446 0.0856431 0.126631 0.152419 0.200087 0.03868 0.0113628 0.158229 0.14766 -0.0625581 0.0270465 0.0619213 0.0141338 -0.0148332 0.0827131 0.197644 0.093233 0.161832 -0.0574479 0.12964 0.181889 0.187013 0.116445 -0.0309925 0.189627 -0.0682285 -0.0962425 -0.0396616 0.188517 0.021561 0.189195 0.178966 0.213509 0.269285 0.385599 0.229099 -0.0963237 -0.10309 0.176189 -0.0862362 -0.119225 -0.134806 -0.137782 -0.131448
internal_weight=0 38976.6 37274.6 35381.4 30177.7 23805.1 54815.7 20757.4 20060.1 17496.2 12601 6372.57 4895.22 2563.92 34058.3 29823.6 5556.73 4413.41 804.237 24266.8 2202.7 1893.18 1759.69 5203.7 22064.1 697.261 1802.26 1183.52 1701.99 1245.78 378.768 241.386 456.216 5128.13 867.01 382.712 1143.33 4234.76 110.429 41.9687 85.2591 835.574 586.832 618.739 247.748 134.964 4192.79 2951.21 1241.58 90.9198 40.4197 31.4362 73.5042 575.027 50.5001 75.5765 137.382 63.7801 32.2394 25.1698
internal_count=268644 147002 137477 124223 112024 97364 121642 54653 50568 40182 32585 14660 7597 10386 66989 61236 13487 11611 2876 47749 3489 13254 7510 12199 44260 4085 13022 8043 9525 7960 1290 398 1565 11734 6670 873 1876 5753 322 182 176 6611 3763 4979 412 461 5571 4081 1490 232 110 59 692 3737 122 465 892 674 169 146
is_linear=0
shrinkage=0.1


Tree=6
num_leaves=60
num_cat=0
split_feature=52 111 71 54 134 101 51 26 133 32 106 136 108 29 30 103 103 74 114 54 52 95 52 53 6 49 107 55 74 53 35 97 120 73 104 133 1 76 16 33 73 1 36 117 30 101 30 67 31 38 113 6 52 80 65 50 99 32 102
split_gain=1775.03 989.11 1991.29 907.595 2347.9 1749.23 930.311 887.266 855.397 998.731 763.377 635.991 613.441 579.267 730.872 684.111 522.797 457.461 419.571 412.171 397.5 263.918 201.603 192.637 186.15 176.203 148.243 143.593 359.235 142.184 136.919 133.885 131.176 196.978 180.878 125.675 94.2288 77.5997 130.664 57.5558 57.5026 56.3231 54.5699 125.214 44.2885 31.0613 128.049 31.5957 21.3526 29.1005 112.862 21.8348 16.512 13.373 12.7785 0.944856 0.00766361 0.0045779 0.000501759
threshold=1.0278243422508242 -1.2697027921676634 -0.25711581110954279 1.0670456290245058 1.0000000180025095e-35 -0.7826961576938628 1.1108797788619997 1.2971987128257754 1.0000000180025095e-35 0.92491123080253612 -0.92897543311119068 1.0000000180025095e-35 -1.0473641157150266 1.207547724246979 1.0916247367858889 -0.90689373016357411 -0.67738309502601612 -0.81878718733787526 -1.3045483231544492 0.92687636613845836 1.1337872147560122 -0.95157459378242482 1.1785866618156435 0.98259982466697704 0.029568745754659179 1.0726617574691775 -0.94898271560668934 1.0449360609054568 -0.42377406358718867 0.98561778664588939 0.92681157588958751 -1.0177379250526426 -1.0606594085693357 -0.83932352066040028 -0.87959909439086903 1.0000000180025095e-35 0.51420626044273388 -0.45545433461666102 0.65294653177261364 0.87464889883995067 -0.58963277935981739 0.35991640388965612 0.88246557116508495 -0.96589383482933033 0.90805733203887951 -0.57292476296424855 0.89774304628372203 0.29438689351081854 0.90307399630546581 0.97571682929992687 -1.390251040458679 0.25316905975341802 1.0793322920799258 -0.42625387012958521 0.23128832131624225 0.82338047027587902 -0.84438872337341297 0.92743197083473217 -0.78014677762985218
decision_type=2 2 2 2 2 2 2 2 2 2 2 2 2 2 2 2 2 2 2 2 2 2 2 2 2 2 2 2 2 2 2 2 2 2 2 2 2 2 2 2 2 2 2 2 2 2 2 2 2 2 2 2 2 2 2 2 2 2 2
left_child=7 27 3 5 16 6 -3 18 11 25 -7 13 20 15 -15 -9 -5 19 35 -11 44 29 40 42 -22 31 -24 48 37 -13 -6 -10 34 -34 -25 41 -23 39 -39 -29 -14 -1 55 -44 -4 46 -30 -47 49 50 -2 -50 -53 -51 -43 -20 -19 58 -37
right_child=1 2 12 4 30 10 -8 8 9 17 -12 21 22 14 -16 -17 -18 56 23 -21 24 36 26 32 -26 -27 -28 28 45 -31 -32 -33 33 -35 -36 57 -38 38 -40 -41 -42 54 43 -45 -46 47 -48 -49 51 53 -52 52 -54 -55 -56 -57 -58 -59 -60
leaf_value=0.39122789325975049 0.17780835676233858 0.10683439088046243 -0.039880460374881598 0.14365666683185613 -0.11672661908248366 0.10646732685701132 0.13540781408009736 0.14472331772476291 0.42809382339981128 -0.048370174470367192 0.04095168020920989 -0.10247834129003251 0.30974863656456125 0.095731129910797019 -0.027756145052880477 0.087687340120130422 -0.12125161513658587 -0.11565511755896581 -0.10499007184738779 0.19425078785286559 0.19549619873959639 -0.11381087459729507 0.11049009912603035 0.10663009496166338 0.059161335492002899 0.57247262465049908 -0.11284637364668411 -0.14289913796609174 -0.14689016427992241 0.017156953086459828 0.037355342123389645 -0.071004464610951376 -0.0097759028905314068 0.14316225197855523 -0.10560351494251113 -0.11043101908507905 0.27933953503620418 -0.13055504081296437 0.13488927173858456 0.10838266708449318 -0.11103348274048984 0.2682333674613972 -0.09006402097265101 0.19893357130450215 -0.13615040513624357 0.25424172750550306 0.23809062370954545 0.17139757777685438 0.15454399170154323 0.14371938911414367 -0.076837378009014398 0.18912985699709842 0.2963618560830405 0.18916110429458829 0.14272861714106885 -0.11827635869520048 -0.1133979203584411 -0.11414188760057505 -0.10838631848763286
leaf_weight=25.709697037935257 116.06699104607105 40030.579677920789 111.75535594671965 15048.24416731298 369.10853622108698 2762.620873067528 15928.877372764051 3065.5624815858901 5.4116578698158255 85.941012524068356 4992.4471163935959 230.01413357257843 3.2708176821470252 1202.6338118724525 796.86516173183918 6697.1065021194518 74.868249021470547 20.509870737791061 211.26074768230319 377.95735617727041 114.18897084519267 7.3762802481651297 85.169372078031301 52.280814908444881 814.55814769119024 4.324209038168191 45.650468602776527 47.378267750144005 14.353825591504572 174.86555138602853 68.350627973675728 788.89590253680944 260.48925678431988 124.44758603721857 173.16098851338029 3.4745694398879987 35.131753668189049 26.662051811814308 60.907044690102339 11.286693304777144 459.0230399928987 13.797054588794706 56.480414722114801 20.409750424325466 83.485789388418198 52.38969498872757 21.702817305922508 379.645055051893 25.535442337393761 67.241749748587608 20.475480131804943 20.796400837600231 46.396728560328484 1756.0423080399632 19.690417282283306 71.688215773552656 56.416642911732197 4.205121248960495 1.8334378041326997
leaf_count=38 76 105155 558 23288 2449 8854 27744 9742 15 646 17377 3245 2 5804 5073 22515 715 176 4931 1871 280 80 441 306 2956 24 752 243 80 2126 268 7295 1420 572 1797 41 78 192 119 23 5617 10 537 21 440 20 7 340 21 102 88 25 26 726 36 651 545 39 26
internal_value=0 0.113753 0.11178 0.114087 0.135739 0.1088 0.114968 0.0759513 0.0827804 0.00691996 0.0642906 0.0911028 0.00523875 0.0955539 0.0465174 0.105597 0.142345 0.111851 -0.0131105 0.149303 0.0486574 -0.0259219 -0.0770424 -0.0300221 0.0759236 -0.0641384 0.0325553 0.173675 0.13126 -0.0508084 -0.0926521 -0.0676041 0.00419081 0.039668 -0.0563857 0.225689 0.211117 -0.00555404 0.0540698 -0.0945544 -0.108056 0.279905 -0.0880559 -0.0133524 -0.0810458 0.174002 0.0848332 0.181443 0.186369 0.184151 0.139622 0.233259 0.263173 0.187485 0.194437 -0.108356 -0.114 -0.111677 -0.109725
internal_weight=0 83659.1 80992.2 79275.1 15560.6 63714.5 55959.5 14587.9 13549 1339.46 7755.07 12209.6 1717.1 11762.2 1999.5 9762.67 15123.1 540.825 1038.93 463.898 1123.99 447.388 593.114 970.218 928.747 798.632 130.82 2666.88 614.325 404.88 437.459 794.308 610.379 384.937 225.442 68.7103 42.508 146.234 87.5691 58.665 462.294 59.1972 359.839 76.8902 195.241 468.091 36.0566 432.035 2052.56 1959.83 136.542 92.7286 67.1931 1823.28 33.4875 282.949 76.9265 9.51313 5.30801
internal_count=268644 198984 196896 185850 26720 159130 132899 69660 59235 10572 26231 48663 11046 43134 10877 32257 24003 3238 10425 2517 4234 5529 6812 10235 3236 7334 1193 2088 1024 5371 2717 7310 4095 1992 2103 190 158 577 311 266 5619 84 6140 558 998 447 87 360 1064 992 164 72 51 828 46 5582 721 106 67
is_linear=0
shrinkage=0.1


Tree=7
num_leaves=62
num_cat=0
split_feature=52 102 38 136 134 70 82 111 103 124 134 35 34 134 32 31 71 80 31 90 0 107 19 134 130 57 48 117 136 30 101 7 45 106 60 31 68 72 118 55 74 75 28 109 104 48 27 125 52 50 45 45 122 112 51 39 59 81 114 16 101
split_gain=1479.68 1073.86 929.436 931.489 922.816 932.17 822.413 820.895 1657.19 687.192 2218.56 1154.12 907.686 743.928 3456.36 1437.62 524.251 531.478 465.992 457.068 454.596 452.374 373.979 368.262 332.673 484.351 321.728 355.901 319.709 315.871 268.703 491.291 255.561 212.413 189.695 150.195 140.874 132.33 255.458 127.91 281.726 125.915 97.8884 94.1711 85.9104 67.9608 92.5991 66.2206 45.2988 39.0149 33.6861 26.5891 33.2102 21.903 14.0477 27.6506 77.1909 17.7254 16.6459 3.78907 0.292727
threshold=1.0658296346664431 -0.82832410931587208 0.93055552244186412 1.0000000180025095e-35 1.0000000180025095e-35 -0.31991776823997492 -1.2440583705902097 -1.2697027921676634 -0.69824814796447743 -1.5542460083961485 1.0000000180025095e-35 0.91383156180381786 0.83949676156044017 1.0000000180025095e-35 0.95293161273002636 0.9999537765979768 -0.45706611871719355 -1.3264740109443662 1.006947457790375 -1.0915693044662473 0.37773899734020239 -0.97455418109893788 1.2592485547065737 1.0000000180025095e-35 1.0000000180025095e-35 0.86866214871406566 1.2079288363456728 -1.5330209732055662 1.0000000180025095e-35 1.0641087889671328 -0.85844171047210682 0.66919049620628368 1.224422872066498 -0.89659884572029103 0.69918262958526622 0.98048397898674022 -0.092386849224567399 -0.64157649874687184 -1.0446880459785459 1.0449360609054568 -0.42377406358718867 -1.1352910995483396 1.197778642177582 -1.1161398887634275 -0.8268761634826659 1.2249512672424319 0.98174601793289196 -1.3902366757392881 1.1389608979225161 1.2042126655578616 1.0935289263725283 1.224422872066498 -2.0232863426208492 -1.3357804417610166 1.1249833106994631 1.0170674324035647 0.83417773246765148 -0.40309359133243555 -1.4246400594711301 0.80529507994651806 -0.55282336473464955
decision_type=2 2 2 2 2 2 2 2 2 2 2 2 2 2 2 2 2 2 2 2 2 2 2 2 2 2 2 2 2 2 2 2 2 2 2 2 2 2 2 2 2 2 2 2 2 2 2 2 2 2 2 2 2 2 2 2 2 2 2 2 2
left_child=1 2 3 4 6 -6 -1 39 9 10 12 -12 -9 15 -15 -11 24 44 30 28 -21 26 23 -20 37 42 48 -28 -19 33 34 -32 49 -5 -4 -27 -24 50 -39 54 45 -31 -26 -34 -18 46 -41 -46 -10 -23 -3 53 -53 -42 58 56 -56 -57 59 -2 -47
right_child=7 16 18 29 5 -7 -8 8 21 13 11 -13 -14 14 -16 -17 17 19 22 20 -22 32 36 -25 25 35 27 -29 -30 41 31 -33 43 -35 -36 -37 -38 38 -40 40 51 -43 -44 -45 47 60 -48 -49 -50 -51 -52 52 -54 -55 55 57 -58 -59 -60 -61 -62
leaf_value=0.10323723980902418 0.19415632604353705 -0.10991159870397103 0.21561127325849477 0.17444841782350404 -0.058876160273192951 0.16479496621289971 0.064294864835813592 -0.026404738842942491 -0.12686744561362731 0.12042764500750942 -0.09844509007805792 0.055384258186462566 0.10156025948355561 -0.041386529526050174 0.18497876506454008 0.07982978515204206 0.27887789092808574 0.14817895640072201 0.032126020936536548 0.074665702259343769 -0.074217642283875049 -0.11603987578762294 -0.12947823801548089 0.17451707864610963 0.17476230359228531 0.20237303044847554 0.030913974614753727 0.2131977351988523 -0.091560576882469588 0.15623355582629683 0.12998813722167604 -0.051008786291438138 0.13973719991232303 0.019436047110470367 0.14409470911979802 -0.083562581705449501 0.2080287294474156 -0.060182353817030645 0.10520735854784576 0.1161141985632755 0.14038613595785246 -0.064088020655132472 -0.1325341480494423 -0.024382789477278732 -0.12371807738919577 -0.13698929929673528 -0.066359529888131347 -0.024325932328526506 -0.0057696047844463666 -0.061467026136046002 0.03665151874472377 0.14761818996415146 -0.04932430832893496 0.18522543893061716 0.15942038395943167 0.12380834576932087 -0.022998667495852821 0.17262505721931146 0.24875444157149001 0.15016253771868723 -0.10899735207774155
leaf_weight=10880.349785156548 41.337990775704384 355.23830953240395 589.91679970175028 100.6641401797533 857.13697746768594 238.08172637224197 10812.138322364539 570.12061400711536 89.159329976886511 23161.403397530317 877.39076102524996 1098.1688564941287 19988.901760600507 810.96359377354383 4009.2853650301695 13991.600740373135 6.7925522327423087 758.5841236487031 1146.7268282026052 668.61797288805246 295.82187393680215 352.46541878208518 13.075498022139071 215.81485655158758 196.73251379653811 20.313509672880173 339.00230280682445 156.58542016148567 60.027334563434124 27.068602714687586 2044.8992078527808 161.83582974970341 67.945612858980894 725.53758249059319 998.9172121733427 192.04277063161135 228.24718244373798 466.89056674391031 116.74201478809118 59.95284778624773 236.84932053089142 621.92683866620064 10.942704766988752 72.020456340163946 156.49236745387316 27.965388238430023 51.872303351759911 117.26163982786238 47.264938913285732 208.49285972863436 16.406266622245312 22.240439295768738 13.922250211238859 201.72205214574933 129.46741944551468 77.844556078314781 28.260000593960285 1671.5225841999054 46.621779784560204 37.189883708953857 4.311944715678691
leaf_count=27944 18 3525 874 298 7704 933 46612 2774 558 39074 4948 3713 40984 3433 4319 31040 2 1415 3818 3279 1731 4491 87 382 277 18 1230 303 270 197 4814 905 335 4744 1657 826 392 3360 415 161 211 7214 62 754 896 149 207 1138 217 2571 55 24 58 154 94 106 87 673 26 28 60
internal_value=0 0.0765379 0.0826707 0.0743203 0.0793056 -0.0102539 0.0838273 0.102288 0.100091 0.102371 0.0882852 -0.0129348 0.0980117 0.109934 0.146895 0.105139 0.0236392 0.055514 0.120194 0.0756443 0.0289988 -0.0102762 0.0750014 0.0546795 -0.0241877 0.0499831 0.0510741 0.0885082 0.130599 -0.00268896 0.139291 0.116714 -0.0655948 0.0383227 0.170648 -0.0562106 0.189742 -0.0568002 -0.0271 0.156846 0.117041 -0.0548987 0.15857 0.0552882 -0.072427 -0.00542527 0.0314702 -0.0811438 -0.0849124 -0.0957566 -0.103442 0.154214 0.0717974 0.16101 0.168967 0.166837 0.126736 0.170453 0.201422 0.173321 -0.13325
internal_weight=0 33101.2 29662.3 24262.9 22787.7 1095.22 21692.5 68491.9 65840.8 64507.8 22534.6 1975.56 20559 41973.3 4820.25 37153 3438.91 2063.6 5399.43 1783.05 964.44 1332.94 1603.86 1362.54 1375.31 420.031 632.012 495.588 818.611 1475.2 3795.57 2206.74 700.924 826.202 1588.83 212.356 241.323 955.277 583.633 2651.08 618.837 648.995 207.675 139.966 280.547 144.102 111.825 273.754 136.424 560.958 371.645 474.734 36.1627 438.571 2032.24 1907.09 157.727 1749.37 125.15 78.5279 32.2773
internal_count=268644 125844 108575 95646 83193 8637 74556 142800 140744 130285 52419 8661 43758 77866 7752 70114 17269 8731 12929 6695 5010 10459 4679 4200 8538 1183 2308 1533 1685 12453 8250 5719 8151 5042 2531 844 479 7355 3775 2056 1024 7411 339 1089 2036 577 368 2034 775 7062 3580 447 82 365 1032 960 181 779 72 46 209
is_linear=0
shrinkage=0.1


Tree=8
num_leaves=61
num_cat=0
split_feature=51 103 83 31 35 106 120 125 133 136 24 76 111 102 107 101 43 134 58 40 37 128 70 30 59 119 51 100 43 31 100 73 34 103 108 102 55 74 0 73 134 47 45 29 96 7 6 105 31 57 59 39 59 108 4 80 106 31 105 70
split_gain=1267.41 1601.79 894.4 908.1 856.922 872.515 869.196 856.612 736.123 721.658 1250.52 697.264 652.286 1437.58 865.223 548.976 1369.44 728.303 543.899 803.53 489.609 440.128 409.736 378.118 1015.17 328.635 327.02 315.278 311.924 281.077 367.858 408.848 192.766 184.553 169.501 152.24 114.529 226.427 110.24 102.106 116.142 59.0104 87.2637 39.7278 47.1232 37.7226 25.5734 23.2713 56.9421 27.6178 19.3496 15.02 73.3625 42.518 16.5548 47.0213 15.4183 13.0934 0.148824 0.0492588
threshold=1.1039335131645205 -0.8010922074317931 -1.2429290413856504 1.0059607625007632 0.81365528702735912 -0.89539617300033558 -1.3094730377197263 -1.6655911207199094 1.0000000180025095e-35 1.0000000180025095e-35 1.3015338778495791 -1.1557641625404356 -1.2697027921676634 -0.66945278644561756 -0.98038938641548146 -0.78889426589012135 1.1215493083000185 1.0000000180025095e-35 0.85570958256721508 0.98929992318153392 0.88910686969757091 1.0000000180025095e-35 -0.15787146240472791 1.0481312870979311 0.80800727009773265 -1.6332493424415586 1.1838400363922121 -0.82974275946617115 1.1016680598258974 1.0007103085517886 -0.80351531505584706 -0.76174223423004139 0.92467257380485546 -0.78367662429809559 -1.0414666533470152 -0.94673246145248402 1.0449360609054568 -0.42377406358718867 0.071988828480243697 -0.84036558866500843 1.0000000180025095e-35 1.2297090888023379 1.214963495731354 1.0831472277641299 -0.57096663117408741 0.64827829599380504 0.11608421802520753 -0.83519890904426564 0.85469099879264843 0.97841963171958934 0.88353034853935253 1.0170674324035647 0.83417773246765148 -1.0842400789260862 0.16921375691890719 -0.42625387012958521 -0.94153586030006398 0.9929475486278535 -0.81993976235389698 -0.25057928264141077
decision_type=2 2 2 2 2 2 2 2 2 2 2 2 2 2 2 2 2 2 2 2 2 2 2 2 2 2 2 2 2 2 2 2 2 2 2 2 2 2 2 2 2 2 2 2 2 2 2 2 2 2 2 2 2 2 2 2 2 2 2 2
left_child=1 2 3 9 8 6 -6 -7 21 11 -11 -1 36 15 22 23 20 -18 19 -5 -17 -4 46 27 -25 -24 50 -14 29 30 31 -3 -20 43 -28 -10 51 41 -35 -31 -41 42 -38 44 -30 -32 -15 48 -39 -49 -16 52 56 -54 55 -53 -2 -45 -43 -40
right_child=12 28 4 18 5 7 -8 -9 35 10 -12 -13 13 14 26 16 17 -19 32 -21 -22 -23 25 24 -26 -27 34 -29 33 39 45 -33 -34 38 -36 -37 37 47 59 40 -42 58 -44 57 -46 -47 -48 49 -50 -51 -52 54 53 -55 -56 -57 -58 -59 -60 -61
leaf_value=0.092172855253351796 0.1664935094839643 0.0036861094937225636 0.035362764749258722 0.034479371012322652 0.045906629567981333 -0.068136540265190962 0.1100967651766275 0.054431618551079378 0.04664799793386179 0.095369352218039993 -0.016558758770509316 0.13524631073543539 0.13018032853768066 0.043201067329389609 -0.12461725085090197 -0.09046786764005621 0.1067520574218853 -0.072834261437927914 -0.093423789868175428 0.11339425228567208 0.054031363554483472 0.22643827230451485 0.020962159575358703 0.11710035952120457 0.04969078991027151 0.13551963789551574 0.052818781541175391 0.10219617032558873 0.056936569258375661 0.1860891020474511 -0.08641658088202453 0.17264643282049119 0.052628066289302916 0.13879215386249172 -0.05891822996897831 -0.093437996194168552 -0.054141608824557888 -0.032455867314226346 -0.1339587925873709 -0.11396220519535474 0.029532547596205549 -0.13404305908723924 0.12165289004533708 0.35754206375347192 0.25708442179774699 0.23070071193713049 -0.14347583068067471 0.16575725482185591 0.13645100618893113 0.098574964127993325 -0.077617465579457631 0.066749424100026697 0.09055247618550373 -0.15644415918089111 0.21865450959535659 0.15925589691166728 0.094575682227466915 0.2434258188530023 -0.11053799736252222 -0.12376980204774071
leaf_weight=14753.439268492162 151.07256025075912 1032.6223580986261 5352.4492786228657 3917.7927728779614 3096.0582809075713 662.01136107742786 6620.1887237690389 4111.557616841048 90.324118468910456 3069.9056740403175 1479.1325998716056 5042.7272254489362 6725.3585758209229 8.0192258805036527 376.77744651027024 242.06815865635872 11917.546168096364 230.18340070918202 328.54522669315338 1923.8944099396467 7487.0950215533376 123.32816358655691 416.47486061230302 5196.6893692687154 3918.7641267254949 628.05969073623419 281.33218168839812 10030.399321310222 23.075314164161682 13.330183848738669 398.12880029529333 166.27771274372935 124.65591405332088 29.567756436765194 262.37735598348081 549.74455920606852 60.789369348436594 25.492085225880146 5.7066977694630614 415.53600378334522 65.263591434806585 26.311340108513836 52.731744688004255 18.003925889730453 23.996314212679863 3.7868010550737372 86.451262213289738 280.09332393854856 91.955104321241379 78.294024869799614 114.12799779325724 56.850953444838524 15.461232855916025 12.689039647579191 43.471575766801834 1641.4512363225222 37.138367921113968 22.771020397543907 3.0009439848363391 28.151236221194267
leaf_count=36517 88 4574 23388 13628 13026 2863 17545 12292 659 6694 10856 8747 8580 26 3199 1455 19081 1497 1251 3613 20712 314 1466 8192 8477 1358 1365 17341 85 22 3696 331 287 35 3422 5144 275 77 32 2105 237 148 111 13 8 6 421 160 100 110 1829 96 23 64 16 678 46 30 43 190
internal_value=0 0.0716809 0.0753038 0.0861377 0.059194 0.0724428 0.0896427 0.0374335 0.0278048 0.0948918 0.0589756 0.103145 0.0937697 0.0911343 0.011675 0.0949096 0.0824121 0.103349 0.0522818 0.0604691 0.0495058 0.0396663 0.071806 0.104511 0.0881208 0.0898435 -0.0545232 0.113428 -0.0109726 -0.0209863 -0.000635738 0.0271195 -0.0532513 0.127705 -0.00110203 -0.0736696 0.142782 0.105275 -0.00228555 -0.0869152 -0.0944843 -0.00514471 0.0275168 0.221558 0.158969 -0.0834287 -0.12763 0.138421 0.0997895 0.15108 -0.113691 0.154632 0.129783 -0.0207839 0.157719 0.156159 0.152302 0.293813 -0.131637 -0.125487
internal_weight=0 53492 51245.8 30640.1 20605.7 14489.8 9716.25 4773.57 6115.85 24345.2 4549.04 19796.2 50498.5 47921.7 2173.62 45748.1 19876.9 12147.7 6294.89 5841.69 7729.16 5475.78 1139.01 25871.2 9115.45 1044.53 1034.61 16755.8 2246.22 2094.95 1600.82 1198.9 453.201 151.272 543.71 640.069 2576.8 618.668 63.4257 494.13 480.8 142.833 113.521 87.8466 47.0716 401.916 94.4705 475.835 117.447 358.387 490.905 1958.13 216.361 28.1503 1741.77 1698.3 188.211 40.7749 29.3123 33.8579
internal_count=268644 168188 156824 81593 75231 45726 30571 15155 29505 62814 17550 45264 100456 98421 13086 85335 42745 20578 18779 17241 22167 23702 3271 42590 16669 2824 9815 25921 11364 10971 8607 4905 1538 393 4787 5803 2035 1024 257 2364 2342 577 386 136 93 3702 447 447 177 270 5028 1011 221 87 790 774 134 43 191 222
is_linear=0
shrinkage=0.1


Tree=9
num_leaves=63
num_cat=0
split_feature=52 111 71 103 54 134 101 106 102 4 29 102 43 135 108 70 135 130 36 99 114 51 30 28 130 77 57 52 81 70 107 35 107 30 96 56 73 37 77 78 107 104 71 75 57 71 66 44 107 20 30 30 102 41 0 56 125 125 118 73 105 114
split_gain=1142.76 772.518 1054.33 703.481 641.349 1413.6 1258.1 710.925 617.119 516.944 460.74 497.028 604.167 444.725 347.745 341.329 330.085 318.705 375.381 344.025 303.587 282.047 269.641 236.458 291.809 198.356 185.191 164.662 161.952 140.557 178.366 120.926 108.985 108.425 145.244 107.693 208.713 103.529 93.0934 90.778 88.6947 59.6878 58.9297 58.8234 129.068 53.9394 51.3833 65.8163 40.4623 39.5237 33.1569 32.6749 28.7664 18.5056 14.2666 98.4548 103.148 48.475 6.76602 5.6892 0.547974 0.0278897
threshold=1.0452093482017519 -1.2697027921676634 -0.25711581110954279 -0.85587084293365467 1.0670456290245058 1.0000000180025095e-35 -0.77929529547691334 -0.93104276061058033 -0.84817674756050099 0.74303188920021068 1.2303485274314883 -0.91642263531684864 0.99856647849082958 1.0000000180025095e-35 -1.0473641157150266 -0.51338154077529896 1.0000000180025095e-35 1.0000000180025095e-35 0.87740391492843639 -0.88206812739372242 -1.0917153954505918 1.1553670763969424 1.0600630044937136 1.2812947034835818 1.0000000180025095e-35 -1.3335655331611631 0.83980131149292003 1.1785866618156435 -0.31635461747646326 -0.35573540627956385 -0.88472890853881825 0.92681157588958751 -0.94898271560668934 1.0895670056343081 -1.0125939249992368 1.0032743215560915 -0.3956500887870788 0.80198141932487499 -1.2228430509567259 -1.0577176809310911 -0.9657706320285796 -0.89331263303756703 -0.50360918045043934 -0.42431519925594324 0.97208151221275341 -0.63718563318252552 0.38743105530738836 1.1958552598953249 -0.86981233954429615 1.3271297216415407 0.90805733203887951 1.099572539329529 -0.85396170616149891 1.1019666194915774 -0.20067520439624784 0.99179050326347362 -2.5691156387329097 -2.6343662738800044 -1.6109011769294737 -0.38003462553024286 -0.81546515226364125 -1.1486249566078184
decision_type=2 2 2 2 2 2 2 2 2 2 2 2 2 2 2 2 2 2 2 2 2 2 2 2 2 2 2 2 2 2 2 2 2 2 2 2 2 2 2 2 2 2 2 2 2 2 2 2 2 2 2 2 2 2 2 2 2 2 2 2 2 2
left_child=3 35 4 9 6 13 8 -8 -3 10 11 15 -13 -6 21 -1 17 18 41 -20 37 50 25 51 -25 -19 -24 48 -23 30 42 -7 -29 34 -12 54 46 39 -32 -11 49 -5 -18 44 -38 -35 47 -37 -16 -31 -4 -22 -42 -45 58 57 -57 -56 59 -2 -48 -39
right_child=1 2 14 16 5 31 7 -9 -10 20 33 12 -14 -15 27 -17 29 22 19 -21 23 28 26 24 -26 -27 -28 32 -30 40 38 -33 -34 45 -36 36 43 61 -40 -41 52 -43 -44 53 -46 -47 60 -49 -50 -51 -52 -53 -54 -55 55 56 -58 -59 -60 -61 -62 -63
leaf_value=0.060471904567352075 0.12473434988580634 0.09662232803697135 -0.049551872788675268 0.33536412833484025 0.10256605939453932 -0.11380021957537789 0.075063181060012182 0.011181292271629312 0.072506267712071068 0.34839895152091688 0.34397430749911334 0.041474267843052158 0.091279864925472118 -0.020901985158234684 -0.10702036255280455 0.11444098826087608 -0.11836472456673433 -0.12196620990695742 0.049718848190692083 -0.051357481681367993 -0.10801898801457521 0.033048194624257135 0.087350158131725988 -0.017105410094503497 0.17132276783013642 0.1472170672239132 -0.054966538512916809 0.085904528546850711 0.15445805131791013 -0.14177620999944981 -0.16534258108437305 0.030827723325861991 -0.11325097470866959 -0.11568997582766467 -0.025793992651917202 -0.13742371602061768 0.11627332438433263 -0.13200938117619426 0.1646219253618246 0.12790730996306415 0.025388803791479883 -0.10064540105945595 0.13806587001093706 0.064766127478078708 -0.10430820331143259 0.26557812870191572 -0.14225800914118331 0.21886503358813478 0.22121510173536049 0.19913890777946069 -0.13820580060132356 0.14029447940955567 0.16989916312313658 0.14102207849479806 0.024840243031145088 0.088922455653040688 -0.18419109420198573 0.14930171799198774 0.17947550657754843 0.15215128078558893 -0.11336061763564237 -0.12159421021019577
leaf_weight=1952.2513794265687 83.407662250101566 14224.701774939895 89.125970292836428 3.1583692282438269 15778.292448438704 335.23666064813733 2772.1011830084026 4688.4788431935012 41768.18657360971 24.030113242566586 12.437337785959242 8880.5916765928268 3355.9704371020198 297.22638178989291 375.96907958947122 2931.6790466681123 69.832340002059937 30.32427884452045 697.05058155953884 651.4395703971386 264.29842623323202 905.30868044868112 143.49803894758224 678.05274900794029 93.52374305203557 281.43216836452484 252.01030421257019 91.780013557523489 125.04521830379963 14.877360582351686 9.7166866213083249 69.858631312847137 39.219603542238474 182.92335467785597 72.811560221016407 9.6457112692296523 102.41092926636338 3.5757191106677046 71.233445137739182 83.745046850293875 14.789186403155325 532.32528221420944 10.281199805438517 34.768804363906384 35.799238260835409 3.787436429411172 35.348805122077465 11.210797376930712 3.793493226170539 4.4083349108695975 80.103042080998421 5.4076704755425444 200.84029234945774 375.75104490667582 32.48688730597496 64.127540528774261 17.630163431167603 851.54549086838961 82.849013581871986 817.50076555460691 8.0579705052077752 9.1506375521421415
leaf_count=7047 59 26238 479 4 23001 2449 7572 15608 88469 31 16 34578 11000 1002 5617 8887 359 662 3571 5356 3130 3007 433 4824 78 295 1073 441 333 74 41 268 752 1276 488 55 158 22 86 257 33 6964 21 67 194 12 180 8 2 9 415 16 211 250 62 76 74 463 38 293 96 64
internal_value=0 0.0780926 0.0763957 0.0522817 0.078058 0.0956341 0.073493 0.0349177 0.0786328 0.0595328 0.0638468 0.0658982 0.0551338 0.100283 -0.00129127 0.0928679 0.00724399 -0.00575057 -0.0272385 0.000890074 -0.00505019 0.0281314 0.0514878 -0.0224398 0.0057342 0.121034 -0.0033313 -0.0703938 0.0477827 0.0922789 0.0203261 -0.0888591 0.0262799 -0.065291 0.0281531 0.132157 0.0955973 0.145218 0.125015 0.177069 0.141612 -0.0980737 -0.0854563 0.115566 0.0591382 -0.107956 -0.0749107 0.0540887 -0.103742 -0.0638496 -0.0915154 -0.10304 0.159988 0.134564 0.143652 0.135018 0.0300285 0.144728 0.152128 0.149613 -0.136894 -0.124521
internal_weight=0 84207 81644.4 21541.5 79934.1 16480.6 63453.5 7460.58 55992.9 18554.2 17392.5 17120.5 12236.6 16075.5 1710.35 4883.93 2987.22 2591.24 1883.97 1348.49 1161.78 1199.58 707.265 1041.28 771.576 311.756 395.508 510.762 1030.35 395.979 161.064 405.095 131 271.96 85.2489 2562.54 612.993 120.502 80.9501 107.775 234.915 535.484 80.1135 548.73 138.21 186.711 64.2633 20.8565 379.763 19.2857 169.229 269.706 215.629 410.52 1949.55 965.79 81.7577 884.032 983.757 900.908 43.4068 12.7264
internal_count=268644 177726 175653 90918 164607 26720 137887 23180 114707 71726 63304 61512 45578 24003 11046 15934 19192 18358 15895 8927 8422 4234 2463 8048 4902 957 1506 6812 3340 834 507 2717 1193 1792 504 2073 1008 374 127 288 327 6968 380 669 352 1288 339 63 5619 83 894 3146 244 317 1065 675 150 525 390 352 276 86
is_linear=0
shrinkage=0.1


Tree=10
num_leaves=63
num_cat=0
split_feature=38 103 30 130 70 104 29 104 53 124 134 70 134 125 107 136 134 30 83 127 107 0 85 71 94 103 31 30 103 70 115 71 4 75 30 61 30 61 47 63 127 31 19 0 53 117 53 69 127 112 42 52 71 70 66 27 34 42 91 98 29 10
split_gain=1124.9 1338.65 926.947 803.295 1296.21 747.529 714.176 680.712 914.609 1263.47 1525.66 1617.58 1090.16 928.615 839.891 612.831 610.377 578.054 560.442 512.298 731.825 452.275 450.426 434.87 424.538 420.782 452.643 399.193 374.555 315.803 314.698 357.093 304.659 303.346 295.403 259.506 243.049 242.521 239.186 232.039 282.939 216.193 189.075 181.911 168.327 188.55 166.086 165.383 146.689 224.21 135.65 110.893 107.856 102.781 93.7442 92.5094 93.0078 90.2991 81.9158 81.6328 57.7702 22.3105
threshold=0.93953862786293041 -0.85442060232162464 1.0820021033287051 1.0000000180025095e-35 -0.32301488518714899 -0.89562129974365223 1.207547724246979 -0.83648779988288868 1.0872151255607607 -1.5576319694519041 1.0000000180025095e-35 -0.29548117518424982 1.0000000180025095e-35 -1.552357494831085 -1.0104526877403257 1.0000000180025095e-35 1.0000000180025095e-35 1.0701223611831667 -1.2429290413856504 -1.9714294075965879 -0.98822718858718861 0.31763035058975225 -1.1129572391510008 -0.49496555328369135 -0.85442253947257985 -0.79896101355552662 1.0073161721229555 1.0940245985984804 -0.84214958548545826 -0.3491660207509994 -1.2488358020782468 -0.38326057791709894 0.71542540192604076 -1.0162005424499509 1.0902070403099062 0.68854379653930675 1.0587015748023989 0.56975635886192333 1.2247128486633303 0.58249890804290783 -2.3177394866943355 1.0035126209259035 1.1792965531349184 0.51611608266830455 1.0022864341735842 -1.3557355403900144 0.98561778664588939 -0.15746742486953733 -1.7377572655677793 -0.93987214565277089 1.0215420722961428 1.0906293392181399 -0.46200640499591822 -0.069972351193428026 0.27119828760623937 1.1578972935676577 0.95364618301391613 1.0317837595939638 -1.2002943158149717 -0.97912943363189686 1.1160626411437991 0.85490441322326671
decision_type=2 2 2 2 2 2 2 2 2 2 2 2 2 2 2 2 2 2 2 2 2 2 2 2 2 2 2 2 2 2 2 2 2 2 2 2 2 2 2 2 2 2 2 2 2 2 2 2 2 2 2 2 2 2 2 2 2 2 2 2 2 2
left_child=1 2 15 4 28 6 32 30 9 14 13 -12 19 -11 54 16 18 23 -1 20 -10 -16 33 43 46 26 -6 -8 50 -18 31 44 -4 -14 37 42 -25 -7 -37 40 52 -21 -33 -5 57 -46 -17 -42 -19 -50 -3 -30 -32 -24 -9 58 -57 -2 -41 -36 -27 -26
right_child=7 3 5 17 25 34 27 8 12 10 11 -13 22 -15 21 24 29 48 -20 41 -22 -23 53 36 61 60 -28 -29 51 -31 39 35 -34 -35 59 38 -38 -39 -40 55 47 -43 -44 -45 45 -47 -48 -49 49 -51 -52 -53 -54 -55 -56 56 -58 -59 -60 -61 -62 -63
leaf_value=0.097044734478653388 -0.12323973053470311 -0.0046796143447033044 0.084795581711613985 0.12969985284166494 0.055765954390059283 0.014211745583694538 0.046773564065526789 -0.095143771597589577 0.10859299826848123 0.019641658957198667 -0.081699306713605535 0.12641346646573773 -0.11493748756007729 0.064955598602036577 0.0111428526216798 -0.095462636960202851 -0.075431339070808234 -0.13132304914089282 0.062307933397577411 0.11056803996724258 0.061494158027957803 -0.067091692458392471 -0.11871322052959361 0.070929787524538865 0.1776025071837225 -0.07618726221197919 -0.099933988389111619 -0.051238361429210122 -0.10127076881830127 0.18721288102917555 -0.047602503736051072 0.14841075154611816 -0.0034325537998699065 0.088757761871209165 0.0089077416108783534 0.0021972793529220947 -0.042312836162059768 -0.099643738075655658 0.15754810572143302 -0.13199250089282019 0.0781213643333767 -0.0041997373876975766 -0.028169154475668347 -0.039934082365925633 -0.055098356992280079 0.036051178784306255 0.0040017707116780194 0.10380733596090808 0.11115315363506145 -0.095266459633423464 -0.082315949982641148 -0.031200899143031424 0.1627419506937253 0.27159158931970828 0.12329822308699881 -0.13884034651425689 0.16715593250246713 0.24243280768899297 0.069012492786229007 -0.11254432916257436 0.18277262930772939 0.0810972545723921
leaf_weight=9753.5145957134664 7.8777494132518759 1503.1418331563473 3580.7133528068662 1297.2750642970204 3672.8376284874976 1651.027328312397 822.01199518889189 20.416274160146713 4714.699739381671 6523.3643046617508 403.8994303829968 4959.1301014274359 96.172155782580376 14743.837230421603 1854.7493667863309 203.09217843040824 361.94285411015153 138.8887974768877 8867.1766388565302 7012.1089755520225 10987.025862973183 1228.2809816971421 376.18408108688891 512.34460948593915 131.53140208125114 324.10431752726436 196.71506522595882 840.39890530705452 1058.5031965840608 52.409543476998806 25.148561589419842 690.17239078879356 439.40994053706527 304.87776894122362 66.09001187980175 392.67428685724735 300.80235496163368 210.99509400501847 132.5670199021697 23.415849581360817 3709.5496239252388 168.06912133097649 66.480010621249676 66.45532906241715 310.95042565464973 840.03492638468742 968.26422680914402 7730.3190894909203 98.57163168489933 112.87760473787785 264.68625075370073 287.12629091180861 794.77934834361076 6.8701517581939688 520.6531298533082 63.206215724349022 11.785265967249869 47.299403391778469 151.13722769916058 340.30055944249034 8.8498994037508947 29.290129888802767
leaf_count=17115 59 7172 11297 1797 12696 5672 3733 91 6413 16125 1994 6526 497 30648 6641 3126 3111 667 27889 8439 26090 5069 2804 1327 78 2588 1052 5575 8120 262 86 1200 1861 751 241 1060 1068 879 126 81 6806 389 305 354 1268 2285 6360 11653 244 571 1038 1326 1038 2 566 231 6 114 240 1765 17 40
internal_value=0 0.0508966 0.0619388 0.0191288 0.00233867 0.0329819 0.0523548 0.0722975 0.067056 0.0555372 0.0630759 0.11074 0.0817816 0.0510563 0.000141517 0.0732429 0.0778318 0.0677343 0.0805031 0.0857547 0.0756364 -0.0200258 -0.0341609 0.0869205 0.00767368 0.0385688 0.0478507 -0.00277442 -0.0465643 -0.0422107 0.0911419 0.0586612 0.075152 0.0399114 -0.0155486 0.0954095 0.0290387 0.00131021 0.0414067 0.0976022 0.0995453 0.107882 0.132896 0.121433 0.0196055 0.0114262 -0.0132436 0.0954783 -0.0514823 0.000960505 -0.0163036 -0.0863195 0.15629 -0.111713 0.115056 0.00214008 -0.0907516 0.190225 0.0420482 -0.092793 -0.0693041 0.160026
internal_weight=0 38161.3 28318.2 9843.18 7315.96 7950.95 5682.53 68917.7 53920.3 30254.3 26630.2 5363.03 23666 21267.2 3624.1 20367.2 19035 2527.22 18620.7 22881.9 15701.7 3083.03 784.104 2176.88 1332.18 4202.51 3869.55 1662.41 3113.46 414.352 14997.4 2488.06 4020.12 401.05 2268.41 1281.89 813.147 1862.02 525.241 12509.3 12259.8 7180.18 756.652 1363.73 1206.16 1150.99 1171.36 11439.9 350.338 211.449 1767.83 1345.63 819.928 383.054 541.069 249.545 74.9915 55.1772 174.553 406.391 332.954 160.822
internal_count=268644 129041 89004 40037 34009 31023 22466 139603 113045 67660 55293 8520 45385 46773 12367 57981 48377 6028 45004 41331 32503 11710 4054 4546 9604 16353 13748 9308 17656 3373 26558 6417 13158 1248 8557 2691 2395 6551 1186 20141 19583 8828 1505 2151 3726 3553 9486 18459 1482 815 8210 9446 1124 2806 657 558 237 173 321 2006 2605 118
is_linear=0
shrinkage=0.1


Tree=11
num_leaves=62
num_cat=0
split_feature=51 103 130 122 70 103 134 123 31 125 110 105 54 103 134 129 4 40 58 54 30 83 31 31 48 100 41 70 44 103 42 39 30 5 0 63 61 27 102 72 13 128 34 54 73 122 3 47 61 77 78 124 38 0 95 1 41 65 42 54 101
split_gain=1055.56 1128.35 763.547 806.867 641.461 2438.48 912.217 1780.58 1062.86 559.483 746.673 656.931 726.039 953.397 702.722 557.905 510.167 367.55 338.595 328.302 315.654 281.842 263.767 261.041 258.914 436.54 266.743 222.429 202.762 216.259 192.182 185.091 184.567 156.014 151.379 149.185 137.388 220.118 128.919 115.258 114.846 71.2048 68.3443 61.7688 121.992 61.6296 72.7415 56.2037 50.1529 46.9368 41.7047 32.0284 28.6303 26.1988 15.7466 10.36 8.87031 17.138 7.28433 5.56666 0.531183
threshold=1.1108797788619997 -0.79532036185264576 1.0000000180025095e-35 -1.1255160570144651 -0.31111207604408259 -0.84214958548545826 1.0000000180025095e-35 -1.4251928925514219 1.0017611980438235 -1.6462475061416624 -1.2184417247772215 -0.86752766370773304 1.0725844502449038 -0.78269684314727772 1.0000000180025095e-35 1.0000000180025095e-35 0.74303188920021068 1.019092381000519 0.85875576734542858 1.0423283576965334 1.0607529282569887 -1.271318197250366 0.98149675130844127 1.0001686215400698 1.1561799645423891 -0.79459914565086354 1.0739855170249941 -0.32301488518714899 1.1363090276718142 -0.78550842404365528 1.0873345136642458 1.0221576094627383 1.0834441184997561 0.83245131373405468 0.37637691199779516 0.56171008944511425 0.75845918059349071 1.1263716816902163 -0.77909466624259938 -0.77594423294067372 0.81636592745780956 1.0000000180025095e-35 0.95038476586341869 1.0803284645080569 -0.37077820301055903 -1.1733318567275999 0.50515994429588329 1.137224078178406 0.68505012989044201 -1.2519611120223997 -0.40821781754493708 -1.5313490629196165 0.99800953269004833 0.39657425880432134 -1.0144569277763364 0.43330314755439764 1.0799222588539126 0.39151695370674139 1.1399335861206057 1.0725844502449038 -0.79951873421668995
decision_type=2 2 2 2 2 2 2 2 2 2 2 2 2 2 2 2 2 2 2 2 2 2 2 2 2 2 2 2 2 2 2 2 2 2 2 2 2 2 2 2 2 2 2 2 2 2 2 2 2 2 2 2 2 2 2 2 2 2 2 2 2
left_child=1 2 4 17 5 16 8 -8 -6 10 43 15 13 -13 -14 22 -1 18 -4 23 24 52 -12 28 25 30 -27 -7 29 -3 -11 47 33 -5 41 45 42 -38 -33 -34 -19 -23 -26 56 50 49 -47 -25 -30 -21 -45 -17 53 -22 -37 -36 57 -2 -46 -58 -56
right_child=9 19 3 32 6 27 7 -9 -10 20 11 12 14 -15 -16 51 -18 40 -20 35 21 34 -24 31 36 26 -28 -29 48 -31 -32 38 39 -35 55 54 37 -39 -40 -41 -42 -43 -44 44 58 46 -48 -49 -50 -51 -52 -53 -54 -55 60 -57 59 -59 -60 -61 -62
leaf_value=0.04905342028220061 0.14868337524941391 0.021999460347770491 0.049865321831809542 0.11312824256943654 0.073458212634708683 -0.086248401052318263 -0.059402961811982548 0.11042423418974481 0.018852954222822401 0.077465743793167119 0.069200879255508177 0.052296809077350029 0.068814312092322555 -0.016463230279538468 -0.097304562924957025 -0.15079722416242869 -0.023159507999619921 0.079048038279728894 -0.041960388011554182 -0.15417773422397885 -0.17216898136730083 -0.024938530720920886 0.10806128128106916 -0.12592731394906095 0.10361001312385781 -0.035670395157498778 0.11057962701753268 -0.026091419973979721 0.20710999265765892 -0.049328441338159244 0.1271085025213953 0.20428848822952023 0.10261588800046402 -0.11123747649097047 0.12486737224585764 0.015016879882260501 0.080460619171316125 -0.12819095779314571 -0.12538089065371508 -0.038999086099286803 0.18436371713916047 0.14994690949957901 0.16103548545867785 -0.16325437603982404 0.081938951365099669 0.29983657964189842 0.11226748309963702 -0.034412121958466373 -0.0023012798600229524 0.1237748482890241 0.013813406047621872 0.10481733641487777 0.083709853386443919 0.024672030787218666 -0.16687144791924463 0.2020153770995825 0.13965279382861748 0.044599349531172554 0.12563285934510551 0.12401536677628236 -0.13646389085489138
leaf_weight=26506.815750282258 32.330011367797852 790.97070506587625 3940.7963196709752 4507.0980854704976 7266.3006929270923 1284.6770491935313 692.09795483574271 5717.8496040590107 6997.1105802021921 10168.583094835281 4420.4613073766232 4926.9003130346537 9479.2658694013953 3413.6966482121497 261.68095912784338 108.02505938708782 1015.8150400780141 183.91992010176182 447.1228489279747 14.076767191290857 93.541958510875702 162.0627433359623 2887.6361008584499 387.21450999006629 5313.6280867047608 523.90642209351063 163.66980804502964 1178.4553472101688 52.187431283295155 918.85603861324489 844.60381199419498 33.815838396549225 99.4813082665205 31.206611774861813 29.421581521630287 7.8626728504896155 243.72474485635757 63.794874399900436 18.271422140300274 136.09530182182789 236.93974682688713 27.18647588789463 215.66093936562538 18.2501285597682 46.957151494920254 23.148782826960087 193.52867521345615 81.177703984081745 14.646198041737078 10.68831606954336 49.056863628327847 5.1349004656076422 5.1534580141305915 7.2884615808725348 8.5765779912471789 42.623097702860832 999.31151355803013 30.976813405752182 203.53754796087742 294.80668121576309 17.399993181228638
leaf_count=84896 16 2769 9241 5530 16387 7880 2802 9157 17715 15809 8844 10681 22034 11304 2168 423 8038 316 1301 64 387 433 3593 2081 6170 1804 314 4933 52 6314 974 51 172 624 38 19 320 218 122 488 174 29 158 91 50 13 272 322 48 24 113 7 7 16 36 22 375 45 118 151 91
internal_value=0 0.0493274 0.052097 0.0779824 0.0472005 0.0378571 0.0607527 0.0920876 0.0466709 0.0693819 0.0603399 0.0560918 0.0458095 0.0241542 0.0643517 0.0811439 0.0463882 0.0490705 0.0405084 -0.0155317 0.0831069 -0.00864351 0.0845557 -0.0278986 0.0850283 0.0764466 -0.000857218 -0.057467 -0.00965293 -0.016332 0.0812729 -0.0901805 0.107106 0.111585 0.0471471 0.087666 0.102232 0.0371759 0.0886455 0.0208033 0.13834 0.000184526 0.10585 0.125011 0.0853263 0.115226 0.132306 -0.110067 0.161219 -0.0342167 -0.0341981 -0.139198 -0.14619 -0.15794 -0.108974 0.17051 0.134303 0.0977538 0.117442 0.136091 -0.146503
internal_weight=0 62814.2 60241.8 9582.66 50659.1 29985.8 20673.4 6409.95 14263.4 45082.9 27178 25502.8 18081.5 8340.6 9740.95 7421.26 27522.6 4808.78 4387.92 2572.42 17904.8 367.278 7308.1 2297.14 17537.6 11700.8 687.576 2463.13 1776.66 1709.83 11013.2 520.479 4773.88 4538.3 261.294 275.282 5836.81 307.52 52.0873 235.577 420.86 189.249 5529.29 1675.23 317.802 241.443 216.677 468.392 66.8336 24.7651 67.307 113.16 105.984 100.83 33.8392 72.0447 1357.43 63.3068 250.495 1294.12 25.9766
internal_count=268644 181932 169654 17846 151808 105747 46061 11959 34102 86712 60013 59054 46187 21985 24202 12867 92934 11032 10542 12278 26699 932 12437 11759 25767 18901 2118 12813 9183 9083 16783 2576 6814 6154 522 519 6866 538 173 660 490 462 6328 959 372 373 285 2403 100 88 204 430 410 403 146 60 587 61 168 526 127
is_linear=0
shrinkage=0.1


Tree=12
num_leaves=63
num_cat=0
split_feature=51 102 37 102 41 110 115 107 70 132 134 101 107 123 0 48 31 70 35 130 71 86 91 136 113 32 50 130 136 31 44 34 134 135 34 55 17 102 118 40 101 43 103 41 100 40 41 8 53 76 50 108 39 41 31 112 35 53 44 54 102 76
split_gain=946.119 865.503 693.917 661.373 767.537 603.742 687.425 1060.3 613.133 611.12 595.104 624.68 460.885 746.722 991.454 572.643 442.94 422.685 420.767 362.507 358.977 433.212 450.521 512.664 395.848 315.357 294.78 282.817 254.957 239.124 229.748 219.045 211.406 209.712 207.095 197.276 190.427 188.771 186.691 186.067 169.747 164.887 126.943 117.804 115.152 80.5009 70.6551 65.2906 57.4044 101.298 49.9576 23.2802 16.1531 11.7328 14.027 6.34659 18.2823 7.18838 4.76816 2.38191 7.68199 0.980881
threshold=1.0903186798095705 -0.82599508762359608 0.9174955189228059 -0.86874198913574208 0.96315574645996105 -1.2184417247772215 -1.2488358020782468 -0.98038938641548146 -0.28663726150989527 1.0000000180025095e-35 1.0000000180025095e-35 -0.85314044356346119 -0.93755593895912159 -1.4537033438682554 0.3070786595344544 1.1561799645423891 1.0042108893394472 -0.32512585818767542 0.89897224307060253 1.0000000180025095e-35 -0.45626439154148096 -1.2501497268676756 -1.0575457215309141 1.0000000180025095e-35 -1.2861384749412534 0.91317263245582592 1.1927095055580141 1.0000000180025095e-35 1.0000000180025095e-35 0.99215951561927807 1.0683466792106631 0.89697983860969555 1.0000000180025095e-35 1.0000000180025095e-35 0.91507539153099071 0.93885892629623424 1.1623632311820986 -0.8939954638481139 -1.3365367650985716 0.98688638210296642 -0.82634612917900074 1.1172937750816347 -0.81630542874336232 1.0269073247909548 -0.75675237178802479 0.97918307781219494 1.0150150656700136 0.63840001821517955 1.1149161458015444 -0.41357824206352228 1.1927095055580141 -1.0842400789260862 1.0463298559188845 1.1052929162979128 0.85469099879264843 -1.3357804417610166 0.88427594304084789 1.073846220970154 1.2011049985885622 1.0725844502449038 -0.6369166076183318 -0.42899014055728907
decision_type=2 2 2 2 2 2 2 2 2 2 2 2 2 2 2 2 2 2 2 2 2 2 2 2 2 2 2 2 2 2 2 2 2 2 2 2 2 2 2 2 2 2 2 2 2 2 2 2 2 2 2 2 2 2 2 2 2 2 2 2 2 2
left_child=1 2 3 4 19 48 7 8 38 41 11 39 25 14 -14 -15 17 -5 -10 -1 27 40 23 -23 -24 44 -11 33 -18 47 -13 45 -27 42 -31 -33 -35 -6 -7 -4 43 -9 -3 -22 -8 -12 -42 -29 55 50 51 -50 -52 54 -51 59 -57 -58 -55 61 -61 -2
right_child=5 20 10 16 37 6 12 9 18 26 31 30 13 15 -16 -17 28 -19 -20 -21 21 22 24 -25 -26 32 -28 29 -30 34 -32 35 -34 36 -36 -37 -38 -39 -40 -41 46 -43 -44 -45 -46 -47 -48 -49 49 53 52 -53 -54 58 -56 56 57 -59 -60 60 -62 -63
leaf_value=0.033843451534669104 0.12770212799639855 -0.050505527546950958 0.065948197620073187 0.010685703754167882 0.12025448072001632 -0.082654722118058022 0.029354475644227551 -0.01256320153191162 0.075695377488522383 -0.12317176194825266 0.15619095892139831 -0.045505540913984253 0.048245686665593139 0.057935214924765832 -0.040970493560089596 0.085824979133807933 -0.011239798541514322 0.062913150699191109 0.02026655123058603 0.079128622300839502 -0.031081378294913222 0.10091321466359571 0.13385042579429038 -0.14786128647404131 -0.021364657292229486 0.097984181728074604 -0.027864179209344749 -0.049489276476345302 -0.12002862141453308 -0.056927613158474916 0.034606912606723661 -0.11647659399115438 -0.093829064609090018 0.15581807460410332 0.16028285606733528 0.14750001204591667 -0.10176242929032181 0.073223588650335278 0.034339425961915172 0.11328929612949208 -0.0065816761908063515 0.069663260388224416 -0.12262439253172544 0.078126630302405173 -0.1075581292082535 -0.080868878067965028 -0.1193301130734773 0.11871935414241475 -0.043375215993287683 -0.011961815146727084 -0.1593534542250922 0.10973510839804271 0.053318731282194179 0.12610847866130256 0.11792170065958676 0.011364870625541543 0.15801800496459073 0.10716751667632041 0.085265972459995162 0.089201485532684574 0.13148833241707719 0.13510885196592931
leaf_weight=15712.492725308985 242.69040279090405 628.4081598110497 1888.6048102304339 4533.5048851612955 1139.4690940901637 411.78036645799875 220.92952223867178 436.91292634606361 4927.8342497721314 590.4502423889935 18.53241042047739 443.10586751997471 6726.4640795085579 30022.893935397267 1528.7084214910865 9753.706888332963 1879.2520205676556 2354.3359001819044 1896.6320413649082 1991.7598484717309 421.3276655934751 1192.4385018050671 191.62631833180785 89.020499482750893 1152.5812184885144 5044.2250724360347 720.54351040534675 25.965531885623932 243.31916712969542 333.65039722621441 1863.2314449697733 28.941856451332569 58.121382333338261 76.980747818946838 50.54376520216465 1297.1048941537738 45.763920478522778 3399.7943308576941 203.94754572957754 1481.4549899622798 70.309188742190599 551.95994042046368 399.05682296864688 129.02440395951271 85.090327851474285 63.091153092682362 265.32100669294596 207.33353216946125 17.231745034456253 15.956890463829039 24.210070997476581 23.437965802848339 4.189373016357421 178.03486134111881 17.362062752246857 16.977232664823532 38.517391711473465 99.907399535179138 34.051240205764771 55.140662670135498 194.47327986359596 679.15904501080513
leaf_count=59488 111 3921 3743 17999 1514 1756 592 1774 9861 4285 26 1604 14594 55998 5455 12692 7425 7273 4413 3672 1818 1576 485 372 5294 6805 6181 87 1620 1146 4246 267 310 147 41 1377 279 7034 480 2046 387 1332 3590 236 483 255 1404 276 46 37 126 22 7 93 11 32 14 83 35 44 77 247
internal_value=0 0.0402633 0.0454907 0.0390855 0.048344 0.0593125 0.057757 0.0333241 0.051668 -0.0260197 0.0737492 0.0593158 0.0622102 0.0590939 0.0317245 0.0647741 0.0162295 0.0285376 0.0602908 0.0389381 0.00230308 0.0208039 0.0412066 0.0836313 0.000762354 0.0898855 -0.0707892 -0.03445 -0.0237107 0.0201409 0.0192153 0.131952 0.0957992 -0.0637573 -0.0283519 0.141739 0.0597822 0.0850295 -0.0439028 0.086759 -0.0396608 0.0333332 -0.0785158 -0.00547868 -0.00871475 -0.0270451 -0.0957111 0.0999982 0.119189 0.0807747 -0.0262063 0.0448623 -0.127981 0.110884 0.0557188 0.128294 0.109305 0.121317 0.119551 0.130813 0.122147 0.133159
internal_weight=0 43617.3 38338 31253.9 22243.5 64821.5 63180.2 9740.06 7440.19 2299.87 7084.07 5676.4 53440.1 48031.8 8255.17 39776.6 9010.41 6887.84 6824.47 17704.3 5279.35 3511.65 2625.67 1281.46 1344.21 5408.37 1310.99 1767.7 2122.57 617.493 2306.34 1407.67 5102.35 1150.21 384.194 1326.05 122.745 4539.26 615.728 3370.06 885.982 988.873 1027.46 550.352 306.02 81.6236 335.63 233.299 1641.34 314.474 69.0692 40.6697 28.3994 245.405 33.319 1326.87 155.402 138.425 212.086 1171.46 249.614 921.849
internal_count=268644 140648 119589 106025 71708 127996 127011 30082 16510 13572 13564 11639 96929 88739 20049 68690 34317 25272 14274 63160 21059 11572 7727 1948 5779 8190 10466 9487 9045 1550 5850 1925 7115 7937 1187 1644 426 8548 2236 5789 3845 3106 7511 2054 1075 281 1791 363 985 377 201 68 133 176 48 608 129 97 128 479 121 358
is_linear=0
shrinkage=0.1


Tree=13
num_leaves=60
num_cat=0
split_feature=130 71 103 110 102 71 134 30 31 77 38 0 125 52 102 71 103 135 116 74 133 70 111 101 31 32 33 122 106 23 123 113 40 35 31 27 72 40 66 129 36 73 32 75 29 70 135 97 54 101 35 30 52 119 50 76 56 63 77
split_gain=821.76 975.673 2024.48 588.871 723.019 1079.67 607.729 920.193 781.849 558.679 496.419 481.326 693.317 429.58 794.146 1688.8 581.823 410.836 403.84 623.588 374.945 301.926 288.333 263.825 258.561 247.963 257.506 237.075 214.744 211.532 204.373 228.083 181.824 170.783 165.826 153.5 152.563 232.998 141.594 135.786 133.843 122.127 114.374 113.729 111.746 106.703 104.259 90.7222 64.5777 107.156 63.3323 40.7666 42.8912 42.3972 38.0795 16.7479 12.2548 6.78604 10.7535
threshold=1.0000000180025095e-35 -0.43512026965618128 -0.80863776803016651 -1.2184417247772215 -0.79011517763137806 -0.40926687419414515 1.0000000180025095e-35 1.0424831509590151 1.0000583529472353 -1.2237198948860166 1.0099154114723208 0.3048293143510819 -1.6587764620780943 1.0535157322883608 -0.84890902042388905 -0.48112192749977106 -0.82664710283279408 1.0000000180025095e-35 -1.0276408791542051 -0.96060556173324574 1.0000000180025095e-35 -0.27026785910129542 -0.93407285213470448 -0.82565250992774952 1.0061066150665285 0.9478563964366914 0.94811964035034191 -1.2760123610496519 -0.79797241091728199 1.2599063515663149 -1.1636014580726621 -0.94993087649345387 0.96080133318901073 0.88427594304084789 0.99275660514831554 1.1946294307708742 -0.54911357164382923 1.0617767572402956 0.27588231861591345 1.0000000180025095e-35 0.93525817990303051 -0.87448748946189869 0.91076883673667919 -1.1504295468330381 1.1318687200546267 -0.2526379525661468 1.0000000180025095e-35 -0.65390166640281666 1.0803284645080569 -0.57292476296424855 0.92326214909553539 1.0626560449600222 1.0808401703834536 -1.0639532208442686 1.1927095055580141 -1.164569020271301 1.0134293437004092 0.48386913537979132 -0.48069903254508967
decision_type=2 2 2 2 2 2 2 2 2 2 2 2 2 2 2 2 2 2 2 2 2 2 2 2 2 2 2 2 2 2 2 2 2 2 2 2 2 2 2 2 2 2 2 2 2 2 2 2 2 2 2 2 2 2 2 2 2 2 2
left_child=1 2 13 48 6 29 8 -8 -5 22 -7 36 25 16 20 -16 17 -1 27 -20 -15 34 51 39 28 33 -27 -14 43 -6 31 -26 -32 -13 42 -25 40 38 -38 -23 44 -30 -4 -24 -11 -42 -18 -39 57 54 -36 52 53 -2 -50 -54 -51 -3 -59
right_child=9 3 21 4 5 10 7 -9 -10 11 -12 12 18 14 15 -17 46 -19 19 -21 -22 23 24 35 30 26 -28 -29 41 -31 32 -33 -34 -35 50 -37 37 47 -40 -41 45 -43 -44 -45 -46 -47 -48 -49 49 56 -52 -53 55 -55 -56 -57 -58 58 -60
leaf_value=0.018062971227646586 0.14303354987365893 0.16749804657747625 -0.099507372736536231 0.077224841716229592 -0.10917115866335435 0.03567890316568486 -0.11376872688616657 0.11857473451474621 0.029283960288088176 0.072318213384194072 0.072195398536128233 -0.084641965061198129 0.052451223169717079 0.05767342755568744 -0.051143773498330242 0.045385961225347285 -0.089064199455145737 0.045281725525447583 0.069134559561122202 -0.018178981722134259 0.10433256066205783 -0.012407911686274892 0.10893587323655365 -0.089426083357735581 0.14180680149433963 -0.11408863476211753 0.052875222454372928 0.1249104276229635 -0.11180592901583708 -0.022042363705759405 0.0076994020655134741 -0.05245416783121061 0.14412369455295504 0.083776614744110411 -0.12962585470203655 0.037882425636786322 0.13722071087040769 0.078542556976518796 -0.078953318700100833 0.15422704134029933 0.15855850489691437 0.045234719691396953 -0.014496991620892194 0.081194273830114461 -0.13702094864885597 0.095066251741026397 0.10830473353960109 -0.12539100910602594 0.013863906520352963 0.11132047780304027 -0.039237608873450014 0.2438929063365608 0.17108536229226173 -0.077995097021222315 -0.15414214201744891 0.13436510456906756 0.042720356722872319 0.090326386501117115 0.12491975180247017
leaf_weight=12813.563287723809 17.932394951581955 34.036238983273506 279.32377888634801 8357.6677654162049 405.05403755605221 14691.683985715732 180.47764706239104 3070.4373067766428 5736.9047974944115 1179.700938642025 4986.3103767260909 88.780473694205284 1077.1945852488279 8295.3028266876936 2124.8311831057072 12326.317792758346 482.20843015424907 9776.3359700702131 1597.2577798292041 1676.5193446837366 2173.4965902715921 81.566435171291232 2102.3301253765821 305.89211858436465 72.132854491472244 515.400404907763 112.54311142861843 777.4257433116436 53.022433172911406 892.87737855687737 189.26190334558487 372.84115758538246 201.92296396195889 187.09299154579639 703.95577330328524 137.18365500122309 36.061415329575539 692.76975915580988 189.64222449809313 122.11154226586223 381.78837102651596 749.86605337448418 365.1653357539326 4974.3271428868175 26.062828838825226 862.98469784855843 28.336994081735611 22.523268491029739 33.933258347213268 187.64941456913948 87.110068440437317 43.753292828798294 226.51479555666447 16.817013338208199 22.394226357340813 275.00585722923279 30.2369294911623 97.381699189543724 1163.3577370494604
leaf_count=58591 18 20 3263 13673 1795 41376 869 3378 11783 1633 7482 329 1984 15005 7838 25271 3603 28367 2814 4333 2545 366 2098 1263 109 1802 182 964 952 3694 499 1379 246 309 3501 290 38 860 539 147 211 1312 1814 7242 95 918 76 91 69 120 325 26 95 59 123 186 46 98 530
internal_value=0 0.0423852 0.0330945 0.0540545 0.051596 0.0391053 0.0667011 0.105676 0.0577115 0.0654135 0.044932 0.0482556 0.0313096 0.0372803 0.0463867 0.0311927 0.0274567 0.0298426 0.0455419 0.0244208 0.0673606 -0.0634366 0.0828077 -0.00670588 0.0782643 -0.0494471 -0.0841646 0.0828249 0.0838751 -0.0492332 0.025391 -0.0209633 0.0781193 0.0295768 -0.0889952 -0.0500092 0.0783959 0.0441693 -0.0444145 0.0874951 0.0915388 0.0348638 -0.0513408 0.0894357 0.0677933 0.11454 -0.0781096 0.0721211 0.114101 0.0700166 -0.119673 0.151078 0.143506 0.0360665 -0.0529306 0.15095 0.101801 0.123437 0.122248
internal_weight=0 89993.1 50102.7 39890.4 38321.4 20975.9 17345.5 3250.91 14094.6 18719.5 19678 9423.75 6032.21 48020.4 24919.9 14451.1 23100.4 22589.9 5128.4 3273.78 10468.8 2082.31 9295.73 646.754 8715.7 903.817 627.944 1854.62 7879.55 1297.93 836.159 444.974 391.185 275.873 1435.55 443.076 3391.53 940.997 225.704 203.678 2450.54 802.888 644.489 7076.66 1205.76 1244.77 510.545 715.293 1568.99 274.214 791.066 580.023 536.27 34.7494 56.3275 501.521 217.886 1294.78 1260.74
internal_count=268644 237321 152265 85056 84050 54347 29703 4247 25456 31323 48858 17102 12717 141296 50659 33109 90637 86958 10095 7147 17550 10969 14221 2066 13837 2622 1984 2948 11604 5489 2233 1488 745 638 8903 1553 4385 1528 577 513 2857 2264 5077 9340 1728 1129 3679 951 1006 358 3826 384 358 77 192 281 166 648 628
is_linear=0
shrinkage=0.1


Tree=14
num_leaves=62
num_cat=0
split_feature=51 103 81 31 134 113 31 134 123 110 100 38 107 55 132 103 5 41 30 105 35 70 106 58 31 31 34 99 54 105 83 40 60 31 28 47 98 58 33 39 53 76 107 103 71 50 23 70 0 78 77 53 86 39 41 41 44 54 0 41 99
split_gain=747.115 788.736 526.171 723.839 795.127 541.523 786.727 717.151 609.261 471.983 689.883 626.357 624.434 526.904 472.509 463.214 436.777 403.256 397.043 414.367 367.611 341.317 295.399 289.341 685.867 259.117 244.15 209.667 190.626 146.977 187.298 117.424 116.521 124.279 85.062 75.704 100.207 87.7919 74.9129 62.2531 49.7002 78.5632 48.5832 40.3787 49.3308 38.3456 33.5114 32.267 27.9776 20.9883 13.5857 17.0864 18.6959 13.0939 11.3311 15.8366 4.3875 4.15358 16.527 3.0593 0.206619
threshold=1.111435115337372 -0.79142934083938588 -1.2533202767372129 1.00328665971756 1.0000000180025095e-35 -1.0005160570144651 0.99951806664466869 1.0000000180025095e-35 -1.255191385746002 -1.2184417247772215 -0.77828592061996449 1.0171694755554201 -0.98822718858718861 1.0390376448631289 1.0000000180025095e-35 -0.83435931801795948 0.80629119277000438 1.0739855170249941 1.0959413647651675 -0.89757889509201039 0.88780397176742565 -0.26068176329135889 -0.91603845357894886 0.87371855974197399 0.99817350506782543 0.99907904863357555 0.92072156071662914 -0.76753443479537953 1.0428540110588076 -0.77344977855682362 -1.4055155515670774 1.0770674943923952 0.77877128124237072 0.99528238177299511 1.1147146821022036 1.137224078178406 -0.86388376355171193 0.86985191702842724 0.92545816302299511 1.0443066358566286 1.1149161458015444 -0.41357824206352228 -0.8150559365749358 -0.78978842496871937 -0.42335747182369227 1.1927095055580141 1.3241286873817446 -0.18039440363645551 -0.18207090348005292 -0.40821781754493708 -0.48069903254508967 1.073846220970154 -0.35780286788940424 1.0463298559188845 1.1052929162979128 1.1019666194915774 1.2011049985885622 1.0725844502449038 -0.20067520439624784 1.0884924530982973 -0.84758484363555897
decision_type=2 2 2 2 2 2 2 2 2 2 2 2 2 2 2 2 2 2 2 2 2 2 2 2 2 2 2 2 2 2 2 2 2 2 2 2 2 2 2 2 2 2 2 2 2 2 2 2 2 2 2 2 2 2 2 2 2 2 2 2 2
left_child=1 2 3 16 15 6 7 -4 -8 40 17 12 14 -14 -12 -5 21 23 19 -7 -6 -1 -20 26 -25 28 -11 39 29 30 -3 -29 38 -34 60 43 -37 -38 -19 -13 50 45 -36 44 -27 49 -31 -45 -18 -42 51 -2 -53 -47 55 -43 -56 59 -59 -52 -30
right_child=9 25 5 4 20 18 8 -9 -10 10 11 27 13 -15 -16 -17 48 32 22 -21 -22 -23 -24 24 -26 35 -28 31 34 46 -32 -33 33 -35 42 36 37 -39 -40 -41 41 54 -44 47 -46 53 -48 -49 -50 -51 57 52 -54 -55 56 -57 -58 58 -60 -61 -62
leaf_value=0.050845316517804398 0.12620692104276118 0.048315071573536393 0.026558941303412201 0.032766017273057918 -0.034243985176887204 0.040428947289892242 0.057435320376592047 -0.069244830354253245 0.24236314398706874 0.061014057873091498 -0.028883319835090002 0.058726959769518743 -0.020845188741219309 0.029724540923110922 0.063586512040248372 -0.0084068049511537794 0.1695940947590453 -0.084281216261802794 0.0086425408320528561 -0.0073791171153044406 0.10641013374780693 0.083605574996726689 -0.10406064817477112 0.061678229409049247 0.014449655324255409 -0.14452827891762277 0.10451272910266717 0.010724826104104412 -0.16165550610191481 -0.10502352671763304 -0.036642296868760992 0.067010378236764243 0.094968448444300968 0.05297537127226204 -0.073460869734585821 0.17102557709787014 0.028949239591321885 -0.1400149209181682 0.12180107469124848 0.11515969834645301 -0.07633610141292585 -0.041829357193659829 0.1087927076633612 -0.13183434791178811 0.026353241706691316 -0.15038547082669587 0.19911082854331186 0.10524912260386517 -0.11331776489558135 0.083634260975837843 0.10604260064251488 -0.073171678280325544 0.083430315012821221 0.048048642446774467 0.11512425288708313 0.10261354578501657 0.074584757352470429 0.11983221320846932 0.046549825348273462 0.12592214552414224 -0.1375758364962015
leaf_weight=19542.302414420992 30.193394988775253 405.20467338711023 9760.6763811763376 6729.0162269547582 211.97074853256345 3136.3269444517791 6655.9299379158765 849.34046268090606 183.05504962801933 6878.466733969748 631.12838301062584 240.2350836545229 3660.3975746575743 4713.6564347166568 4441.1100996658206 4600.7758613489568 3.5729432106018058 17.954003028571606 406.35761896520853 4296.5072593912482 1505.9478921368718 3798.4142693504691 543.75441404432058 9069.8478840589523 4652.0487996116281 28.413858823478222 1588.2924946695566 497.04289557039738 5.471894145011901 195.00696046836674 721.64200183562934 1457.5983572304249 1865.8901292160153 1132.5213217139244 15.796752259135245 21.893834590911865 57.703057408332825 65.838386982679367 1005.4950758740306 1049.2466387748718 11.608367025852202 12.813952274620535 197.39795407652855 294.79597833380103 41.66824784129858 21.813610084354881 3.6915309429168692 5.85459080338478 161.24930986948311 27.946536406874657 86.466466352343559 12.650294959545137 19.184730976819992 3.9234511628746978 162.171311840415 18.62073440849781 31.957839265465736 208.11108699440956 36.115322440862656 739.26112140715122 10.217041373252867
leaf_count=46713 17 1108 34363 17748 1522 10740 14874 3771 243 10713 1933 356 12397 15930 8100 12353 1 49 1860 14081 2450 5560 3046 14981 9543 151 1891 1057 24 2949 3505 2123 1972 1708 57 26 191 343 972 964 38 35 264 1697 134 126 1 16 3151 30 55 34 19 7 93 13 35 100 43 315 53
internal_value=0 0.0348111 0.0368265 0.0445468 0.0256593 0.0259018 0.0359374 0.0188898 0.0623852 0.0516774 0.0497981 0.0339068 0.0243915 0.00761992 0.0520807 0.0160467 0.0550311 0.0599174 0.00501285 0.0127938 0.0890551 0.0561766 -0.0558581 0.0546366 0.0456666 -0.0259083 0.069174 0.0733462 -0.00552331 -0.0200751 -0.00609234 0.0526976 0.0890517 0.0791074 0.0787511 -0.0872973 -0.0261525 -0.0610961 0.118186 0.104646 0.10834 0.0714697 0.0952886 -0.111284 -0.0429284 -0.0251299 -0.0993731 -0.127218 -0.107185 0.036687 0.117814 0.0723146 0.0212013 -0.120135 0.0994315 0.0437332 0.108451 0.120452 0.108995 0.12384 -0.145974
internal_weight=0 64455.8 62385.2 36553.2 13047.7 25831.9 17449 10610 6838.98 44323.8 42900.9 16690.4 13446.3 8374.05 5072.24 11329.8 23505.5 26210.5 8382.95 7432.83 1717.92 23340.7 950.112 22188.7 13721.9 2070.6 8466.76 3244.12 1554.43 1325.55 1126.85 1954.64 4021.86 2998.41 228.884 516.168 145.435 123.541 1023.45 1289.48 1422.84 290.856 213.195 370.733 70.0821 65.292 198.698 300.651 164.822 39.5549 1131.98 62.0284 31.835 25.7371 225.564 31.4347 194.129 1069.95 244.226 825.728 15.6889
internal_count=268644 182995 172476 89498 34073 82978 53251 38134 15117 85649 84689 42860 38360 28327 10033 30101 55425 41829 29727 24821 3972 52273 4906 37128 24524 10519 12604 4500 7961 7563 4613 3180 4701 3680 398 2558 560 534 1021 1320 960 377 321 1998 285 201 2950 1713 3152 68 583 70 53 133 176 48 128 513 143 370 77
is_linear=0
shrinkage=0.1


Tree=15
num_leaves=63
num_cat=0
split_feature=130 70 103 69 103 104 69 110 77 103 55 61 40 71 28 40 31 110 77 112 30 43 134 32 129 31 110 31 105 31 136 72 44 102 108 101 106 123 33 110 77 88 31 57 37 107 122 97 88 8 41 37 54 118 70 59 50 92 77 87 31 80
split_gain=699.73 769.274 2075.26 661.187 1329.93 563.961 867.368 569.236 458.457 447.287 432.132 429.673 419.474 414.565 491.469 406.406 389.997 520.066 526.963 808.514 373.523 397.469 527.9 329.696 271.976 260.808 251.52 251.993 243.411 224.802 220.216 217.944 208.365 197.922 190.852 188.117 172.504 140.71 135.749 133.226 128.023 104.473 90.7971 81.9317 81.2957 77.8033 117.488 100.011 77.6686 71.6753 59.9333 55.6525 49.9833 34.9584 34.4273 23.4091 86.9876 43.7686 41.4407 21.9691 10.8161 8.47472
threshold=1.0000000180025095e-35 -0.28041438758373255 -0.8240644335746764 -0.15746742486953733 -0.84214958548545826 -0.81165170669555653 -0.087154127657413469 -1.2184417247772215 -1.2237198948860166 -0.79458463191986073 1.0098525285720827 0.64192682504653942 0.94539606571197521 -0.46200640499591822 1.1603745818138125 0.98929992318153392 0.99313130974769603 -0.92267480492591847 -1.2012889981269834 -0.97063645720481861 1.0566996932029726 1.0739323496818545 1.0000000180025095e-35 0.96058842539787304 1.0000000180025095e-35 0.99693745374679577 -0.91670599579811085 1.0083529949188235 -0.95556205511093129 1.0107542276382449 1.0000000180025095e-35 -0.62641525268554676 1.0918295383453371 -0.83250114321708668 -1.003949701786041 -0.84811440110206593 -0.79965513944625843 -1.1636014580726621 0.91411828994750988 -0.93080139160156239 -1.3095264434814451 -1.1782583594322202 0.99793699383735668 0.83175045251846325 0.95582422614097606 -0.85138794779777516 -1.3551666736602781 -0.64124763011932362 -1.1734191775321958 0.45311796665191656 1.0851268172264101 0.99635842442512523 1.0803284645080569 -0.91998669505119313 1.0000000180025095e-35 0.77321973443031322 1.1127710938453677 -1.0869013071060178 -1.2272095680236814 -1.2188531160354612 1.0050945281982424 -1.3047942519187925
decision_type=2 2 2 2 2 2 2 2 2 2 2 2 2 2 2 2 2 2 2 2 2 2 2 2 2 2 2 2 2 2 2 2 2 2 2 2 2 2 2 2 2 2 2 2 2 2 2 2 2 2 2 2 2 2 2 2 2 2 2 2 2 2
left_child=1 2 3 4 12 20 9 52 26 23 -9 24 -1 29 34 -13 45 18 39 -20 28 22 -22 -7 -5 48 55 36 54 35 -31 -6 -16 -30 -15 -4 37 -28 -11 -18 53 -27 -38 -42 -23 47 49 50 -19 -47 -10 -48 -8 -29 -3 57 58 59 -57 -2 -59 -58
right_child=8 5 13 11 31 6 7 10 16 38 -12 15 -14 14 32 -17 17 25 19 -21 21 44 -24 -25 -26 41 27 40 33 30 -32 -33 -34 -35 -36 -37 42 -39 -40 -41 43 -43 -44 -45 -46 46 51 -49 -50 -51 -52 -53 -54 -55 -56 56 61 60 -60 -61 -62 -63
leaf_value=0.021421610713653214 -0.050301045325632267 -0.17663767041630221 0.006450787925261387 0.085879074653686743 -0.065328778720130695 0.039457250043844615 0.11484070972495253 -0.0029997844372818445 0.061680235911115634 -0.022232316363250779 0.04078435943149928 -0.017326299000747624 0.045157578431424782 -0.0097255627196520637 -0.0099294559133606825 0.052887181155901367 0.14456675545881406 0.067418238525617888 0.037657978338716223 -0.09873663902131459 -0.075478528088500835 0.037390459739830552 0.081725686005788056 -0.059908746416165559 -0.051602856917615327 -0.065280066777514897 0.064076963627208314 0.17976769665357067 0.088624188614034788 -0.14371382233758537 0.24951183400144183 0.0056763757671365904 0.066882428488931264 0.056327745639241644 -0.11461172740326253 -0.096968199304492783 0.039269185482421781 0.092141527637730147 -0.10808925553912244 0.069605413325588339 0.086781993839816107 -0.16671007496430956 -0.070193284739569969 -0.061013425296464134 0.10278313532214436 0.092342482579571422 0.045630963138348052 -0.1779516325382634 -0.048323263168477251 -0.21198899886508482 0.092530422760249753 -0.15274881577881083 0.064346500936236325 0.040492685445509005 -0.0016163677654355583 -0.10314646107474675 0.1547294913225504 0.16521659455087351 0.07746040631124744 0.14689841015505931 0.23764933111714553 0.12323083128679971
leaf_weight=19172.145476270467 10.627595961093904 48.793541342020035 198.29223708622158 3792.5307574942708 1748.8323330506682 1055.9293233603239 994.38030606508255 2598.2982101980597 2780.349680736661 265.64506008476019 17018.581190681085 1104.0122356116772 12172.678132854402 261.26922378316522 957.34062356129289 3254.4828399568796 383.49728494882584 184.43107733130455 2616.8452925160527 521.15639244765043 724.24282416701317 437.80483987927437 302.96961584687233 488.347352206707 149.56791877001524 455.16503895819187 4353.645868524909 34.767646655440331 2137.1477953791618 22.19807656109333 39.734634347259998 574.21670852974057 559.58402032032609 16922.701667055488 516.3294237088412 1556.4702280052006 805.64693430811167 3029.8189533129334 600.32186435163021 621.03464865684509 43.635652042925358 130.70956341177225 83.645248711109161 267.12568382918835 336.02893275022507 10.423566121608017 693.28111251816154 16.519036009907722 84.561778098344803 30.046359494328499 814.11902133375406 14.435782685875891 244.17745139822364 37.41794165968895 14.602230735123156 20.748767077922821 244.19736017286777 33.092911317944527 32.769194036722183 12.060461923480032 54.67962421476841 131.366096585989
leaf_count=70028 32 214 833 7178 8939 2241 529 8947 4319 1279 38608 2861 27623 1127 3335 5452 308 280 4916 1878 2350 773 370 1639 474 1491 6814 16 2787 127 22 2241 1207 30125 2384 9767 2173 3369 3133 1052 115 518 250 988 359 22 999 79 215 128 849 48 335 73 34 75 99 30 52 8 25 102
internal_value=0 0.0338591 0.0248189 0.031461 0.0252287 0.0432858 0.0325724 0.0391363 0.0551826 -0.0242243 0.0349851 0.0567397 0.0306394 -0.0429855 -0.0147298 0.035102 0.0395986 0.0205307 0.0351853 0.0150057 0.0551981 0.0116618 -0.0291122 0.00803469 0.0806628 -0.0504828 0.07104 0.0669108 0.0592984 -0.078673 0.108571 -0.0477776 0.018406 0.0599491 -0.0793705 -0.0852816 0.0705818 0.0755933 -0.0817517 0.0982232 -0.0123939 -0.0879093 0.0289733 -0.0402607 0.0657865 0.0614582 0.0321084 0.0675394 0.0310332 -0.133604 0.0686676 0.0415845 0.104886 0.107573 -0.136324 0.137283 0.126715 0.178337 0.00743962 0.0545258 0.21034 0.143712
internal_weight=0 90269.7 46079.7 41968.5 33667.9 44190 23265.7 20855.4 18551.8 2410.24 19616.9 8300.59 31344.8 4111.22 2294.52 4358.5 9356.58 4997.4 4142.53 3138 20924.3 1801.05 1027.21 1544.28 3942.1 854.867 9195.25 8655.7 19123.2 1816.7 61.9327 2323.05 1516.92 19059.8 777.599 1754.76 8272.76 7383.46 865.967 1004.53 382.947 585.875 889.292 310.761 773.834 4359.17 748.187 3610.99 268.993 40.4699 3594.47 707.717 1238.56 72.1856 63.3958 539.542 429.081 110.461 53.518 22.6881 87.7725 375.563
internal_count=268644 237321 143598 124796 108831 93723 56711 48419 31323 8292 47555 15965 97651 18802 8053 8313 17102 10658 8154 6794 37012 3852 2720 3880 7652 2504 14221 13798 33160 10749 149 11180 4542 32912 3511 10600 12606 10183 4412 1360 1192 2009 2423 1103 1132 6444 1197 5247 495 150 5168 1047 864 89 248 423 328 95 127 40 55 201
is_linear=0
shrinkage=0.1


Tree=16
num_leaves=58
num_cat=0
split_feature=111 130 71 69 103 104 68 76 0 126 118 104 30 112 45 123 46 74 108 6 117 51 110 43 57 107 55 76 104 106 76 56 40 33 91 75 112 121 52 6 57 63 37 41 71 73 63 47 29 74 127 45 32 60 74 53 105
split_gain=636.571 662.907 597.2 697.945 1595.41 525.262 808.41 392.824 435.745 514.067 388.975 368.679 346.076 304.297 237.529 215.438 366.557 198.123 197.292 183.503 183.035 156.623 147.39 121.675 107.579 114.479 100.185 150.438 84.0033 62.5307 55.4894 77.9092 41.7158 36.1355 30.7481 35.3946 27.6234 48.8245 60.6395 33.8967 136.083 26.6089 19.8654 91.4946 9.92609 5.58247 29.4162 31.3721 5.43173 5.07949 4.94816 2.25674 1.93242 0.788782 0.74306 0.283751 0.187078
threshold=-1.2697027921676634 1.0000000180025095e-35 -0.25711581110954279 -0.11163390800356864 -0.8103654384613036 -0.80849656462669361 0.1062285751104355 -1.163816452026367 0.3216757625341416 -1.7721878290176389 -1.061199367046356 -0.83272093534469593 1.0534797310829165 -0.94582077860832203 1.1120731234550478 -1.1887959837913511 1.1250997185707095 -0.91454231739044178 -1.0473641157150266 0.029568745754659179 -1.0561341643333433 0.95436036586761486 -1.1879468560218809 1.0927328467369082 0.99635264277458202 -0.96144095063209523 1.0449360609054568 -0.45545433461666102 -0.84658089280128468 -0.88744139671325672 -0.41357824206352228 1.0193819403648379 1.0701324939727785 0.87464889883995067 -1.1297206282615659 -1.0813519358634947 -1.3357804417610166 -1.8660862445831297 1.1452714800834658 0.11608421802520753 0.95259130001068126 0.51539558172225963 0.95303425192832958 1.1073936820030215 -0.19131473451852796 -0.38003462553024286 0.63778540492057811 1.2123451828956606 1.0160951018333437 -0.44293527305126185 -3.182018399238586 1.1888236403465273 0.84031453728675853 0.82648563385009777 -0.42377406358718867 1.1212610602378847 -0.81629875302314747
decision_type=2 2 2 2 2 2 2 2 2 2 2 2 2 2 2 2 2 2 2 2 2 2 2 2 2 2 2 2 2 2 2 2 2 2 2 2 2 2 2 2 2 2 2 2 2 2 2 2 2 2 2 2 2 2 2 2 2
left_child=26 2 3 4 11 12 -7 13 17 20 -11 -2 -5 34 -6 16 -15 28 19 29 -10 -17 -21 -19 50 -26 36 33 -9 -4 31 32 -29 55 41 -36 45 38 52 49 -41 -3 44 -44 -32 46 48 -48 -1 -39 -20 -47 -38 -53 -33 -28 -57
right_child=1 7 18 5 14 6 -8 8 9 10 -12 -13 -14 15 -16 21 -18 23 24 22 -22 -23 -24 -25 25 -27 27 30 -30 -31 42 54 -34 -35 35 -37 37 39 -40 40 -42 -43 43 -45 -46 51 47 -49 -50 -51 -52 53 -54 -55 -56 56 -58
leaf_value=0.10785382323526449 0.030165194798404394 -0.052820486902376257 0.14734860761566071 0.059601139381539416 -0.09656685851497486 0.0091994301891181861 0.05178624743915107 -0.058062979776052508 -0.017625980653715363 0.08395130360865774 0.016225429996561291 0.004535357837961545 0.011713507107865985 0.011988263221117621 -0.031590376892064752 -0.12257491263142549 0.076151606067978994 -0.02746171525892967 -0.10266216755665164 -0.042004973028378481 -0.10815577838114117 0.076576419839273241 0.036724865613759823 0.055016984522250373 0.099689082219187111 -0.069992807585148475 -0.1583601286714261 -0.08778747208049123 0.11280989431520594 -0.0075350579886025483 0.094439425376993305 -0.1341248391382304 0.074977927079148618 0.055898738274654816 0.15602900762612681 0.11066428211305235 -0.15213490974874794 0.10172272226792174 0.16434612323464379 0.087281854034309825 -0.21135577456440413 0.10900887633529065 -0.12464175182354878 0.095666564084270211 0.14110262228234227 0.096030567588165583 0.095851891924511434 -0.080458372668111136 0.14984238859270443 0.14664520182199395 -0.12749607275279462 0.12029605226677585 -0.23201263326250246 0.10633215605153584 -0.1706463485832618 -0.13962925242979624 -0.11459315425771954
leaf_weight=327.01601178944111 43673.06133527495 16.892086282372475 96.134099908173084 14422.216262083501 935.28449569176883 9266.3390334099531 8588.9481192883104 29.91596245765686 837.79626104980707 1135.9094797819853 3346.1779261603951 6440.1390825305134 1685.4890654459596 1926.9520580470562 1411.9238444957882 39.8554512783885 1655.134603112936 189.65176486968994 220.14157137088478 819.31946743838489 304.5035275965929 4310.1809910461307 335.01777020841837 3143.8771608620882 57.611064746975899 128.32663165777922 7.8434108942747107 18.49651351198554 751.52176800370216 35.76366026699543 103.43506686016917 13.986350256949665 105.89833432435989 11.727300703525541 328.35292986035347 361.16482250392437 4.918686196208002 35.821531444787979 7.0234541893005362 258.94082118570805 16.214022643864155 25.496063604950905 21.600138589739799 148.11206775903702 81.507709413766861 44.905030012130737 24.436012506484985 17.193161845207214 34.013333976268768 84.653980895876884 126.24419017136097 553.66139543056488 7.8818698972463608 43.640880584716797 9.258780434727667 34.157888188958168 3.2703810110688201
leaf_count=206 126884 38 88 23598 6869 24565 15036 79 2181 1642 7262 18158 3402 4498 5717 998 2038 451 4014 2997 1008 5579 924 4389 172 1771 35 95 602 197 105 96 187 23 206 313 27 32 2 277 67 16 76 127 30 33 18 43 15 35 850 263 33 27 42 176 32
internal_value=0 0.0327352 0.0291347 0.030328 0.0230973 0.0414969 0.029685 0.0499993 0.0362194 0.018127 0.0333894 0.0268715 0.0545902 0.0654895 -0.0574813 0.0597967 0.0416355 0.0609484 -0.0275773 -0.00638784 -0.0417586 0.0747518 -0.0191556 0.0503246 -0.0787765 -0.0174185 0.0894065 0.0534174 0.106268 0.105352 0.0708882 0.019374 0.050776 -0.100541 0.127185 0.132267 0.10319 0.0813787 -0.0717675 0.0890525 0.0696841 0.0445183 0.0923331 0.0676268 0.115005 0.111863 0.102632 0.0230344 0.11181 0.133288 -0.111713 0.11765 -0.201319 0.119276 -0.148672 -0.141066 -0.137442
