tree
version=v4
num_class=1
num_tree_per_iteration=1
label_index=0
max_feature_idx=136
objective=binary sigmoid:1
feature_names=Column_0 Column_1 Column_2 Column_3 Column_4 Column_5 Column_6 Column_7 Column_8 Column_9 Column_10 Column_11 Column_12 Column_13 Column_14 Column_15 Column_16 Column_17 Column_18 Column_19 Column_20 Column_21 Column_22 Column_23 Column_24 Column_25 Column_26 Column_27 Column_28 Column_29 Column_30 Column_31 Column_32 Column_33 Column_34 Column_35 Column_36 Column_37 Column_38 Column_39 Column_40 Column_41 Column_42 Column_43 Column_44 Column_45 Column_46 Column_47 Column_48 Column_49 Column_50 Column_51 Column_52 Column_53 Column_54 Column_55 Column_56 Column_57 Column_58 Column_59 Column_60 Column_61 Column_62 Column_63 Column_64 Column_65 Column_66 Column_67 Column_68 Column_69 Column_70 Column_71 Column_72 Column_73 Column_74 Column_75 Column_76 Column_77 Column_78 Column_79 Column_80 Column_81 Column_82 Column_83 Column_84 Column_85 Column_86 Column_87 Column_88 Column_89 Column_90 Column_91 Column_92 Column_93 Column_94 Column_95 Column_96 Column_97 Column_98 Column_99 Column_100 Column_101 Column_102 Column_103 Column_104 Column_105 Column_106 Column_107 Column_108 Column_109 Column_110 Column_111 Column_112 Column_113 Column_114 Column_115 Column_116 Column_117 Column_118 Column_119 Column_120 Column_121 Column_122 Column_123 Column_124 Column_125 Column_126 Column_127 Column_128 Column_129 Column_130 Column_131 Column_132 Column_133 Column_134 Column_135 Column_136
feature_infos=[-1.8014661073684692:2.1873281002044678] [-1.7160434722900391:2.0962586402893066] [-1.6382262706756592:2.0136351585388184] [-1.5680137872695923:1.9394575357437134] [-1.5054070949554443:1.8737261295318604] [-1.4504051208496094:1.8164401054382324] [-1.4123568534851074:1.7937201261520386] [-1.3844102621078491:1.9274762868881226] [-1.3517893552780151:2.0758624076843262] [-1.3099035024642944:2.0974209308624268] [-1.2559221982955933:2.0118343830108643] [-1.1870334148406982:2.0267508029937744] [-1.1039742231369019:2.0742456912994385] [-1.0067610740661621:2.1771299839019775] [-0.90047705173492432:2.2825961112976074] [-0.78966546058654785:2.4052433967590332] [-0.67814630270004272:2.5269482135772705] [-0.65620064735412598:2.5277442932128906] [-0.66012513637542725:2.5653238296508789] [-0.66667592525482178:2.5221147537231445] [-0.66619455814361572:2.4413206577301025] [-0.67410272359848022:2.3840618133544922] [-0.78228282928466797:2.2409591674804688] [-0.70636492967605591:2.1797337532043457] [-0.68053698539733887:2.1696581840515137] [-0.94777458906173706:2.0883691310882568] [-1.274228572845459:1.9448176622390747] [-1.700652003288269:1.7025836706161499] [-1.9202775955200195:1.5450669527053833] [-2.2033448219299316:1.3473584651947021] [-2.6534385681152344:1.1444870233535767] [-2.9375624656677246:1.0691677331924438] [-2.8964071273803711:1.0182701349258423] [-2.6209216117858887:1.0153312683105469] [-1.9672813415527344:1.0222163200378418] [-1.2877312898635864:1.0987448692321777] [-0.66409575939178467:1.3781088590621948] [-0.67050886154174805:1.4172744750976562] [-0.67336314916610718:1.4686216115951538] [-0.67729061841964722:1.427788257598877] [-0.67375040054321289:1.3506048917770386] [-0.67530828714370728:1.3033223152160645] [-0.67399483919143677:1.4334096908569336] [-0.67822211980819702:1.6771683692932129] [-0.67549598217010498:1.8418123722076416] [-0.67900896072387695:1.9795904159545898] [-0.6766776442527771:1.8671952486038208] [-0.68056988716125488:1.7601110935211182] [-0.67851173877716064:1.8138210773468018] [-0.68057990074157715:2.0951991081237793] [-0.67868822813034058:2.3221406936645508] [-0.68411111831665039:2.3866791725158691] [-0.6882440447807312:2.3278176784515381] [-0.69760811328887939:2.41339111328125] [-0.68820065259933472:2.0181429386138916] [-0.66555494070053101:1.7058380842208862] [-0.62701141834259033:1.5109990835189819] [-0.79989981651306152:1.3641012907028198] [-0.9627259373664856:1.3483799695968628] [-0.83332031965255737:1.3266682624816895] [-0.58463895320892334:1.2987289428710938] [-0.6056399941444397:1.6912268400192261] [-0.63139909505844116:1.8743280172348022] [-0.66095739603042603:1.7138135433197021] [-0.93073725700378418:1.3433690071105957] [-1.1747497320175171:1.0751444101333618] [-1.3727543354034424:0.99085426330566406] [-1.6713657379150391:0.88485002517700195] [-1.8910553455352783:0.75389385223388672] [-2.0949718952178955:0.60495084524154663] [-1.9126988649368286:0.45876148343086243] [-1.7446892261505127:0.33052113652229309] [-1.674402117729187:0.23037496209144592] [-1.5674382448196411:0.15855956077575684] [-1.4517455101013184:0.30397361516952515] [-1.6804615259170532:0.9557119607925415] [-1.8599822521209717:1.3625956773757935] [-2.0371255874633789:0.97979003190994263] [-2.1728529930114746:1.0076425075531006] [-2.2573421001434326:0.66064220666885376] [-2.3058340549468994:0.36351838707923889] [-2.3315773010253906:0.28676301240921021] [-2.3403120040893555:0.33890664577484131] [-2.3343968391418457:0.39074629545211792] [-2.3124566078186035:0.43792322278022766] [-2.2730567455291748:0.47703936696052551] [-2.2140905857086182:0.50853937864303589] [-2.1362462043762207:0.53271615505218506] [-2.0426793098449707:0.55223846435546875] [-1.9374580383300781:0.56802195310592651] [-1.8240519762039185:0.65060514211654663] [-1.7565661668777466:1.0689502954483032] [-1.6500253677368164:1.4172115325927734] [-1.5946441888809204:1.6290324926376343] [-1.530011773109436:1.6652539968490601] [-1.4843816757202148:1.6182962656021118] [-1.4547033309936523:1.5607637166976929] [-1.4384253025054932:1.5595740079879761] [-1.4264529943466187:1.5636097192764282] [-1.5388252735137939:1.563044548034668] [-2.0638625621795654:1.5685317516326904] [-2.4619696140289307:1.5680602788925171] [-2.648137092590332:1.5700795650482178] [-2.5047333240509033:1.5662518739700317] [-2.1062953472137451:1.5671930313110352] [-1.4475361108779907:1.5610309839248657] [-1.2213733196258545:1.5632989406585693] [-1.1215335130691528:1.561995267868042] [-1.168958306312561:1.5723429918289185] [-1.225764274597168:1.5757462978363037] [-1.369315505027771:1.5835809707641602] [-1.5506553649902344:1.5858457088470459] [-2.1400496959686279:1.5904537439346313] [-2.4733853340148926:1.5896482467651367] [-2.4821960926055908:1.5896980762481689] [-1.9469403028488159:1.5826603174209595] [-1.5772113800048828:1.5835590362548828] [-1.6319060325622559:1.7016431093215942] [-1.6864286661148071:2.5795986652374268] [-1.7459897994995117:2.8008601665496826] [-1.8207311630249023:2.5472877025604248] [-1.9280952215194702:1.7180403470993042] [-2.1567583084106445:1.5756756067276001] [-2.3918964862823486:1.5728672742843628] [-2.6616356372833252:1.8138364553451538] [-2.9659750461578369:2.1645474433898926] [-3.3559722900390625:3.0688047409057617] [-3.8750591278076172:4.2020993232727051] [0:1] [0:1] [0:1] [0:1] [0:1] [0:1] [0:1] [0:1] [0:1]
tree_sizes=4033 4376 4383 4402 4273 4504 4410 4509 6830 6622 6475 6881 6650 6616 6206 5888 6581 6327 6664 6802 6628 5362 6313 5716 5912 6139 6924 5970 6058 6476 6862 6628 5990 6823 6904 6760 6576 6197 5790 6946 6683 6921 6107 5313 6709 6836 6728 6017 5065 6164 6830 5953 6011 5825 4315 6095 5871 6506 5973 4402 5814 6506 6010 6252 6071 4184 6049 6707 4644 4910 5988 4733 6625 6011 5868 6390 5664 6714 6969 6120 5848 6501 6565 5590 6430 6460 4702 6139 5473 6705 6307 6764 6564 6620 6566 6933 6786 4769 4426 6197 6862 4536 5704 4190 6352 6705 6638 6227 4558 5279 5593 6474 4408 5784 5516 6590 6564 6831 6506 6033 6906 4771 6195 6610 5492 6827 6131 6937 6414 6803 4233 6107 5527 5743 6207 6559 6149 6947 6716 4752 6433 6827 6241 6880 6501 6477 6784 6767 5654 4356 5365 6571 5926 6646 6454 6706 6380 5489 5391 5079 5356 5688 6399 6983 6587 5803 6919 6280 6432 4957 6034 5553 3996 5696 6030 6893 6910 6024 5836 6686 5019 5161 6684 6626 6689 5821 6408 5201 6455 5998 4496 6811 6613 6749 6712 4292 5085 5086 6247 5597

Tree=0
num_leaves=37
num_cat=0
split_feature=114 30 41 31 132 57 70 106 130 29 136 31 31 126 74 103 47 56 36 36 48 97 97 4 30 112 80 104 30 70 105 92 0 12 12 106
split_gain=18953.9 12613.6 13733.3 12352.3 7532.25 6669.53 9134.44 6321 4604.78 4697.96 4180.83 6319.58 3251.16 2388.67 2101.8 1949.54 1822.03 1457.16 1461.5 1383.85 1355.03 877.509 820.95 603.17 453.615 448.351 291.805 248.176 235.6 212.983 120.985 88.8807 5.68434e-14 2.84217e-14 3.55271e-15 3.55271e-15
threshold=-0.81996673345565785 1.0623791813850405 1.1094591021537783 0.99782025814056408 1.0000000180025095e-35 0.97002494335174572 -0.11910394951701163 -0.89895606040954579 1.0000000180025095e-35 1.2418900132179262 1.0000000180025095e-35 1.0024004578590395 1.0135331153869631 -2.7214288711547847 -0.39890541136264795 -0.65082991123199452 1.1488676071166994 0.91793635487556469 0.90675389766693126 0.91570457816123974 1.2153199315071108 -0.9287181794643401 -0.78662040829658497 0.76439672708511364 1.0453789830207827 -1.1736386418342588 -0.90700396895408619 -0.8901345133781432 1.0799223780632021 -0.32640251517295832 -0.93771898746490467 -1.050623297691345 1.0206396579742434 1.1304290294647219 1.0739278197288515 -0.9100399613380431
decision_type=2 2 2 2 2 2 2 2 2 2 2 2 2 2 2 2 2 2 2 2 2 2 2 2 2 2 2 2 2 2 2 2 2 2 2 2
left_child=1 2 3 5 8 6 -1 14 9 12 16 -12 -3 -7 20 22 -5 18 -10 -19 -4 28 -9 -11 32 -23 -17 -27 30 -26 -6 -30 -2 34 -34 -16
right_child=24 4 7 10 21 13 -8 15 17 23 11 -13 -14 -15 35 26 -18 19 -20 -21 -22 25 -24 -25 29 27 -28 -29 31 -31 -32 -33 33 -35 -36 -37
leaf_value=-2.0194125924681607 -2.6183559091400936 -1.7935986018353542 -2.0170213874056948 -1.9248195281414293 -1.3165629984595337 -2.4211055928056457 -1.6226830563595893 -1.4233223838040634 -1.9947536718684893 -2.5228605187627471 -1.9991564989908559 -1.6108176452748495 -2.0633287511191551 -2.1145545948439608 -2.6183559091400936 -1.179453758470804 -1.7759653407963349 -2.3009822797456176 -1.3905677091884145 -1.7184372469357467 -1.3121977281709511 -2.6183559091400936 -1.8998201830895565 -2.1280898013206846 -1.5189065403095603 -1.5759014321522553 -2.505776091928178 -2.3386164777791487 -1.2219987389142257 -2.6183559091400936 -1.5106188320097387 -1.3646579348402834 -2.6183559091400932 -2.6183559091400936 -2.6183559091400936 -2.6183559091400936
leaf_weight=10486.228166520596 226.70061285793781 11063.839517503977 28.654402494430542 5100.3147014379501 51.054181233048439 499.17374719679356 614.35469359904528 44.286139577627182 562.49239282310009 90.218393534421921 610.22121112048626 1337.6177667826414 465.67671069502831 517.91205853968859 11.606070615351198 1.7107170820236195 980.36654484272003 275.33851665258408 43.10468328744173 47.867885574698448 567.25740560144186 4.4478354454040518 196.98308373242617 67.78152734786272 5.5972438529133797 140.49773424118757 54.662428610026836 4.3997274115681639 133.97585167735815 2.5714048668742162 86.663728274405003 64.793355166912079 2.432410009205344 119.39658273756504 22.37817208468914 1.6679382920265187
leaf_count=93183 3262 75362 254 40890 124 6278 3220 151 4871 1219 5309 6865 4326 5055 167 2 6519 3159 134 293 1355 64 1534 670 24 676 730 52 209 37 365 186 35 1718 322 24
internal_value=-2.51023 -1.8911 -1.93904 -1.95618 -1.81407 -2.01991 -1.99746 -1.55836 -1.82895 -1.81191 -1.85998 -1.73248 -1.80449 -2.26501 -1.37381 -1.93607 -1.90082 -2.04325 -1.95175 -2.21471 -1.34609 -1.42769 -1.81236 -2.3535 -2.60212 -1.62942 -2.46553 -1.59906 -1.33815 -1.865 -1.43868 -1.2685 -2.61836 -2.61836 -2.61836 -2.61836
internal_weight=0 34155.2 21053 20146.2 13102.2 12117.7 11100.6 906.828 12616.3 11687.5 8028.52 1947.84 11529.5 1017.09 609.186 297.642 6080.68 928.803 605.597 323.206 595.912 485.832 241.269 158 379.076 149.345 56.3731 144.897 336.487 8.16865 137.718 198.769 370.908 144.207 24.8106 13.274
internal_count=268644 263246 171536 167319 91710 107736 96403 4217 90034 81577 59583 12174 79688 11333 1800 2417 47409 8457 5005 3452 1609 1676 1685 1889 5398 792 732 728 884 61 489 395 5337 2075 357 191
is_linear=0
shrinkage=1


Tree=1
num_leaves=40
num_cat=0
split_feature=114 2 33 96 31 108 108 71 80 73 21 104 30 29 102 11 68 4 70 103 12 30 30 111 4 129 66 40 29 115 72 30 43 64 30 30 128 20 0
split_gain=6062.75 2736.22 3201.15 1962.5 2060.41 2889.65 1686.08 1579.85 1961.04 1391.73 1131.98 1094.87 1075.43 1209.82 937.896 740.372 703.215 631.464 1308.34 604.669 545.58 492.557 477.076 452.885 383.065 367.786 345.628 337.22 301.513 279.575 269.595 266.224 244.644 142.264 0.0504054 0.000358239 0.000268619 5.68434e-14 8.88178e-16
threshold=-0.81996673345565785 0.62722870707511913 0.83858516812324535 -1.0373087525367735 0.99931722879409801 -1.0145192146301267 -0.95230588316917408 -0.17829842120409009 -0.23722479492425916 -0.78923070430755604 1.5630441308021548 -0.70040500164031971 1.0938686132431032 1.2029733657836916 -0.94348180294036854 0.9503748118877412 -0.24758000671863553 0.72539675235748302 -0.47354723513126368 -0.92113840579986561 0.83041834831237804 1.0424340367317202 1.0913693904876711 -0.90436938405036915 0.67619007825851452 1.0000000180025095e-35 -0.14913407713174817 0.93857508897781383 1.2506084442138674 -0.95497590303421009 -0.75505781173706044 1.0968205332756045 1.0325476527214053 0.39277273416519171 1.0525817275047304 1.021707355976105 1.0000000180025095e-35 1.2434291243553164 0.46597902476787573
decision_type=2 2 2 2 2 2 2 2 2 2 2 2 2 2 2 2 2 2 2 2 2 2 2 2 2 2 2 2 2 2 2 2 2 2 2 2 2 2 2
left_child=1 2 6 24 5 -5 7 11 -9 -6 17 -1 13 16 28 20 -12 18 19 -3 -8 26 -20 -15 29 -23 -19 -26 -14 -4 -17 -16 34 -34 35 37 -35 -2 -38
right_child=32 10 3 4 9 -7 15 8 -10 -11 12 -13 14 23 31 30 -18 21 22 -21 -22 25 -24 -25 27 -27 -28 -29 -30 -31 -32 -33 33 36 -36 -37 38 -39 -40
leaf_value=0.14210867807348967 -0.1072922657705308 0.39958143923694239 0.63728793384350579 0.35582075949153569 0.36988760808097632 0.28298363991782416 0.45367436496998564 0.71459486865613209 -0.11035675499452069 0.31670546478812261 0.13854808330211041 -0.10487978601109638 0.40656583331094365 0.40937070176979762 0.22831150988372234 0.048326518175307975 0.49826429115270932 0.73810039523988835 0.47474390457486887 0.25030665640992045 0.28015092388201929 0.49786363788536026 0.30520103201580639 0.17749636919518577 0.19548773954241727 0.028806822163567 0.041424551539624377 0.56408814887803682 0.078227387656059827 0.098373691637285585 0.32346300520928528 0.039291202699478507 0.55211648587203455 -0.10896347299981889 -0.12119213866752759 -0.10896347299981889 -0.10729226577053073 -0.1072922657705308 -0.10729226577053071
leaf_weight=904.05629655718803 243.18889228999615 457.31952896714211 9.8194512948393804 8154.916747353971 13065.272450260818 16401.733758963645 204.09541170299053 92.028351791203022 41.951499909162521 7893.5344657599926 305.59312070161104 223.93327696621418 212.99950494617224 1898.724283978343 114.22006034851074 173.60788201540709 66.101392261683941 8.6738211959600431 1321.4856604337692 667.33473088592291 1614.7334416955709 1193.1504581868649 189.80804082006216 88.143321454524994 79.013047680258751 16.953980937600136 39.780026741325855 36.187389440834522 32.195590183138847 489.39240215718746 44.804680481553078 214.33824730664492 9.1316101104021055 1.2876031845808018 2.6317851990461341 1.2876031845808018 2.4705305546522145 90.966201961040497 1.3302856832742689
leaf_count=6079 3839 1563 21 35578 53294 91236 941 234 526 34609 2015 2800 656 6225 605 1316 181 16 3716 3206 8207 2470 848 530 441 118 328 78 284 3314 197 1614 6 19 19 19 39 1436 21
internal_value=0 0.325822 0.317626 0.324431 0.326828 0.307172 0.222467 0.131637 0.456288 0.349858 0.385165 0.0930755 0.338237 0.368107 0.215452 0.278732 0.202519 0.420499 0.392675 0.311006 0.299622 0.478774 0.45345 0.399084 0.146905 0.491292 0.166138 0.311275 0.363453 0.108974 0.104767 0.105002 -0.0903162 0.316006 -0.107407 -0.107299 -0.107715 -0.107292 -0.107292
internal_weight=0 56255.9 49429.1 46129.9 45515.5 24556.7 3299.21 1261.97 133.98 20958.8 6826.82 1127.99 2932.32 2358.56 573.753 2037.24 371.695 3894.51 2635.95 1124.65 1818.83 1258.56 1511.29 1986.87 614.412 1210.1 48.4538 115.2 245.195 499.212 218.413 328.558 352.295 14.22 338.074 335.443 5.08842 334.155 3.80082
internal_count=268644 263246 238871 218571 214717 126814 20300 9639 760 87903 24375 8879 12110 8951 3159 10661 2196 12265 9333 4769 9148 2932 4564 6755 3854 2588 344 519 940 3335 1513 2219 5398 85 5313 5294 79 5275 60
is_linear=0
shrinkage=0.1


Tree=2
num_leaves=40
num_cat=0
split_feature=113 39 103 125 117 111 105 126 105 73 45 58 125 40 58 39 73 71 135 124 27 43 0 134 30 103 70 113 127 106 75 82 36 74 0 114 30 71 0
split_gain=3315.1 1484.67 2735.21 1828.18 1821.99 1762.51 1710.08 1380.47 1357.27 1167.21 1262.71 1950.12 1323.42 1111.76 913.563 715.46 468.318 378.903 341.093 317.874 268.944 452.186 267.517 214.376 206.909 196.086 192.982 175.28 151.073 144.51 97.5086 96.5947 58.4796 12.1503 3.30359 0.0262521 3.67783e-09 2.31389e-09 5.68434e-14
threshold=-0.81397387385368336 1.0355293750762942 -0.78635379672050465 -1.5552635192871092 -1.532355725765228 -1.2480324506759641 -0.78958952426910389 -1.8407075405120847 -0.79679235816001881 -0.93611109256744374 1.1309537887573244 0.86055597662925731 -1.5816134810447691 1.0417792797088625 0.89080911874771129 1.0462108850479128 -0.35928562283515925 -0.35178378224372858 1.0000000180025095e-35 -1.6168999075889585 1.1265778541564944 1.1383151412010195 0.52846422791481029 1.0000000180025095e-35 1.0453789830207827 -0.73897236585617054 -0.18574416637420652 -1.0086641311645506 -1.9304590225219724 -0.9547750949859618 -1.0198137760162351 -1.4118097424507139 0.92132276296615612 -1.0857293605804441 0.47029967606067663 -0.81996673345565785 1.021707355976105 -0.44643443822860712 0.56094500422477733
decision_type=2 2 2 2 2 2 2 2 2 2 2 2 2 2 2 2 2 2 2 2 2 2 2 2 2 2 2 2 2 2 2 2 2 2 2 2 2 2 2
left_child=1 2 9 4 5 -4 -6 8 16 22 11 -11 -12 14 -5 23 18 -15 -3 -17 21 28 27 -10 35 26 -22 -1 -9 -24 -23 -27 -18 -26 -35 -2 38 -38 -37
right_child=24 7 3 13 6 -7 -8 20 15 10 12 -13 -14 17 -16 19 32 -19 -20 -21 25 30 29 -25 33 31 -28 -29 -30 -31 -32 -33 -34 34 -36 36 37 -39 -40
leaf_value=0.26072968605912478 -0.11735810190326897 0.29614485110125699 0.14576404663925377 0.26002470459702065 0.14931395537926551 0.35594847965069304 -0.0067908371845892823 -0.075408900800874271 -0.05729772697876874 0.23469387248234536 0.25380639889010242 0.17086557289369741 0.37518758918441414 0.40961193991461164 0.057261700680028761 0.099873916636927601 0.1918987512661143 -0.051402394417902189 -0.07667537504885609 0.29266926417575112 0.37284651850282685 0.47259818219256183 -0.017451847533958151 0.59472388583024272 0.36294904072822998 0.56114128222130422 0.49578704925266942 0.0035180873430921546 0.23182191908527505 0.329626197191279 0.23263543524255725 -0.02255272467011998 -0.11656850988219186 0.26467044978739634 0.13215803176654109 -0.10655037809217989 -0.10654505991082326 -0.10655037809217989 -0.10655037809217989
leaf_weight=74.860451281070709 2.2640019059181204 2893.1671359464526 825.69663775712252 1062.7063989341259 4724.8699836060405 771.95699959993362 824.15652242302895 29.389226794242859 186.25760662555695 44259.944765690714 4658.4630131199956 5367.1241645216942 1112.8208196461201 479.97908680140972 280.95585134625435 162.00171664357185 7.6467039734125128 18.515601113438606 24.749908469617367 181.14067383110523 194.72290746867657 87.531133338809013 12.086973905563353 5.1828867793083182 7.3702290058135986 3.6271273493766811 370.85217057168484 41.007497847080231 35.144093684852123 1597.5817789509892 20.995675414800644 12.985458999872206 31.314047761261463 3.1033563092350942 4.7778791300952435 74.66040726006031 2.1332817077636723 1.3270396962761868 229.57786745578051
leaf_count=342 18 6161 4051 4340 23916 1811 6721 223 1455 158553 17972 23871 2980 1321 1729 861 30 133 150 612 533 214 87 7 3 6 774 304 156 3462 90 92 291 11 31 1294 37 23 3979
internal_value=0 0.231075 0.227394 0.176118 0.153222 0.247321 0.126129 0.288391 0.261873 0.235462 0.232939 0.227791 0.277211 0.264946 0.217628 0.115238 0.288384 0.392488 0.292983 0.201648 0.410978 0.301527 0.316456 -0.0396455 -0.0889361 0.443513 0.45346 0.169698 0.0919054 0.32702 0.426175 0.104889 -0.0560266 0.270651 0.184337 -0.106629 -0.10655 -0.106547 -0.10655
internal_weight=0 70359.4 66112.7 8988.84 7146.68 1597.65 5549.03 4246.71 3491.46 57123.9 55398.4 49627.1 5771.28 1842.16 1343.66 534.583 2956.88 498.495 2917.92 343.142 755.248 173.06 1725.54 191.44 325.214 582.188 565.575 115.868 64.5333 1609.67 108.527 16.6126 38.9608 15.2515 7.88124 309.963 307.699 3.46032 304.238
internal_count=268644 263248 251593 44022 36499 5862 30637 11655 9567 207571 203376 182424 20952 7523 6069 2935 6632 1454 6311 1473 2088 683 4195 1462 5396 1405 1307 646 379 3549 304 98 321 45 42 5351 5333 60 5273
is_linear=0
shrinkage=0.1


Tree=3
num_leaves=40
num_cat=0
split_feature=114 4 34 39 59 72 103 107 123 30 32 75 1 127 45 99 44 73 135 72 111 69 119 106 44 116 110 6 128 126 101 57 30 31 116 29 109 21 96
split_gain=2127.21 1124.71 1472.41 1181.85 1179.22 1946.21 993.658 952.931 687.415 873.211 859.989 682.095 671.654 644.201 1127.81 636.353 669.201 589.08 313.393 306.645 304.693 240.174 237.55 185.873 154.687 139.429 214.08 129.127 107.667 51.5643 41.6742 0.291456 0.088172 0.00191191 0.00183856 0.00129387 2.18477e-05 6.24312e-06 6.44239e-07
threshold=-0.81996673345565785 0.59468355774879467 0.83506837487220775 1.0323680043220522 0.85063853859901439 -0.32065773010253901 -0.80807325243949879 -0.96430066227912892 -1.2774336934089658 1.0609782338142397 0.8844256103038789 -1.0786070227622984 0.78918516635894786 -1.9894820451736448 1.2051744461059573 -0.47324013710021967 1.0834336876869204 -0.93611109256744374 1.0000000180025095e-35 -0.68211635947227467 -1.0581164360046384 -0.10409104451537131 -1.10782915353775 -0.7724584937095641 1.0520270466804507 -1.4951525926589964 -1.1591718792915342 0.64094051718711864 1.0000000180025095e-35 -1.2831631302833555 -0.81788641214370716 0.97002494335174572 1.0525817275047304 0.99794077873229992 -0.7828325331211089 1.0992878675460818 -0.80942854285240162 1.7404530048370364 -1.0226234197616575
decision_type=2 2 2 2 2 2 2 2 2 2 2 2 2 2 2 2 2 2 2 2 2 2 2 2 2 2 2 2 2 2 2 2 2 2 2 2 2 2 2
left_child=1 2 15 4 7 -6 8 -4 10 12 22 -12 -10 14 -5 16 20 -11 -18 30 -1 28 -3 -15 32 26 -17 -23 -21 35 33 -27 34 -8 -2 38 -36 -38 -26
right_child=24 6 3 13 5 -7 19 -9 9 17 11 -13 -14 23 -16 25 18 -19 -20 21 -22 27 -24 -25 29 31 -28 -29 -30 -31 -32 -33 -34 -35 36 -37 37 -39 -40
leaf_value=0.051858077044668431 -0.11005670943033528 0.031108576712947422 0.20292494758327898 0.14700040546994478 0.067998369863327635 0.23143742613419485 -0.12209922833845568 0.16491411960956998 0.13302940129460597 0.24905155238698773 0.33859146726180944 0.22118116464902027 0.41022168700158812 0.29752232010619029 0.24479273453033748 -0.036402135624382916 0.17890585443812868 0.18739790245373394 0.38889131916868197 0.4133369659052713 0.13561074911559171 0.016493254072150437 0.17769538716153654 0.023078411650246603 -0.10598408991302422 -0.12062599933568015 0.41432099718644166 0.27690561547335779 0.29439187054150878 0.28542507005916751 0.27908087844388713 -0.10938606639485704 -0.1237390576874367 -0.12483251562160687 -0.10633644601007729 -0.1095230804308986 -0.10588831364623763 -0.10607404529263698 -0.10588573563651527
leaf_weight=1126.4850786998868 1.0637213140726078 274.07539273053408 8471.1613450422883 2121.7508032694459 2610.0157697200775 1010.7242600396276 13.023041561245924 29787.401831112802 3614.913074657321 1689.9990374594927 547.47444526851177 5143.0447965636849 89.580664291977882 953.18693163245916 2654.9924227520823 45.973565265536308 382.34229582548141 18671.801068931818 87.302916891872883 292.76155163347721 706.99280331283808 26.103130966424942 185.2913171350956 25.333883352577686 1.0623814240098006 27.660443834960461 13.671750240027903 70.381161198019981 102.83149348199368 14.120054885745047 3.0718518644571295 139.00689345598221 2.8008347600698462 3.185055509209632 1.0982354022562493 1.5365928709506986 274.34563975781202 1.8218140602111805 1.7848618105053922
leaf_count=5320 15 1362 27599 8264 13851 2594 88 104745 14272 2871 804 13547 121 2070 4184 406 1507 52837 264 399 2719 130 615 140 20 201 18 178 258 11 10 1852 19 20 20 21 5224 34 34
internal_value=0 0.179288 0.17006 0.174007 0.168168 0.113622 0.194354 0.17333 0.192015 0.18439 0.221852 0.232477 0.139732 0.216497 0.201355 0.0957118 0.111435 0.192515 0.21794 0.332587 0.0841533 0.347916 0.0902362 0.290417 -0.0876513 -0.0642961 0.0669115 0.206453 0.382418 0.19241 -0.0586312 -0.111251 -0.106085 -0.122636 -0.105907 -0.107185 -0.105891 -0.10589 -0.105922
internal_weight=0 80891.5 50164 47634.6 41879.3 3620.74 30727.5 38258.6 30216.2 24066.3 6149.89 5690.52 3704.49 5755.26 4776.74 2529.44 2303.12 20361.8 469.645 511.357 1833.48 492.077 459.367 978.521 299.634 226.313 59.6453 96.4843 395.593 18.5039 19.2799 166.667 281.13 16.2081 278.329 4.38384 277.266 276.167 2.84724
internal_count=268644 263246 175734 163447 148789 16445 87512 132344 86429 70101 16328 14351 14393 14658 12448 12287 9810 55708 1771 1083 8039 965 1977 2210 5398 2477 424 308 657 86 118 2053 5312 108 5293 75 5278 5258 54
is_linear=0
shrinkage=0.1


Tree=4
num_leaves=39
num_cat=0
split_feature=113 1 33 97 31 134 130 72 4 73 104 83 115 99 111 116 30 75 2 28 114 31 30 31 20 8 106 30 26 118 25 30 74 0 114 31 44 121
split_gain=1480.29 868.71 1295.08 918.522 904.318 1642.52 1291.78 530.011 852.075 708.826 469.19 449.411 429.348 599.554 548.474 381.306 324.649 327.856 320.754 316.378 315.439 305.301 303.606 297.461 273.596 253.87 179.126 140.894 102.826 91.1702 86.1173 79.994 5.0837 2.39845 0.0365029 1.1503e-05 2.94183e-06 2.33581e-09
threshold=-0.81397387385368336 0.5761849880218507 0.83858516812324535 -0.99636957049369801 0.99667373299598705 1.0000000180025095e-35 1.0000000180025095e-35 -0.77008315920829762 0.72539675235748302 -0.93611109256744374 -0.90226325392723072 -1.2738854885101316 -1.4477423429489134 -0.46115419268608088 -1.251203656196594 -0.9521508216857909 1.0317971110343935 -1.1409344673156736 0.6480126976966859 1.2579784393310549 -0.96948638558387745 0.99478232860565197 1.0880783796310427 1.0077055096626284 1.5719419717788699 0.74324104189872753 -0.8671467900276183 1.0453789830207827 1.3006771206855776 -0.90759414434432972 1.5510566234588625 1.0921774506568911 -1.0857293605804441 0.4688729196786881 -0.81996673345565785 0.99172881245613109 1.0880129933357241 -0.65255171060562123
decision_type=2 2 2 2 2 2 2 2 2 2 2 2 2 2 2 2 2 2 2 2 2 2 2 2 2 2 2 2 2 2 2 2 2 2 2 2 2 2
left_child=1 2 11 15 5 -5 -6 8 9 29 24 19 14 -14 -13 28 25 21 -11 20 -1 -18 -19 -17 -10 -9 -21 34 -4 -3 -27 -12 -29 -34 -2 36 37 -36
right_child=27 7 3 4 6 -7 -8 16 10 18 31 12 13 -15 -16 23 17 22 -20 26 -22 -23 -24 -25 -26 30 -28 32 -30 -31 -32 -33 33 -35 35 -37 -38 -39
leaf_value=0.14232841146528583 -0.11799028673822197 0.23727977594343891 -0.040916401738838509 0.13962778293125952 0.16292234431669711 0.049665690782669691 0.10713890597433412 0.39784566792291287 0.20471479503972706 0.047691809116739509 0.27670342314546392 -0.020821915816587599 0.064392832028833669 -0.094545948836637708 0.21703688957816172 0.075598773502573505 -0.13539577267788644 0.21082002353428275 0.11943712007116561 0.29559388656608809 -0.039151455487777827 0.137842718711738 0.16149794389936245 -0.035719170682069278 0.14656537404855582 -0.10585462227686088 -0.052970941564498358 0.23749480191573982 0.24884240022813381 0.16635661766409421 0.18904251399084054 0.082832190183893192 0.19585138566455945 0.089637842639825119 -0.10529231902200949 -0.10563812323536625 -0.10547069949665144 -0.10529666788338621
leaf_weight=653.46955463290215 2.2865018472075453 327.24014071375132 13.656538069248198 28656.931133136153 34292.477529168129 2184.1997997313738 4722.9923016130924 13.989234656095503 1254.111515648663 1160.0173641815782 502.92007494717836 135.05727333202958 2028.1178693771362 268.79390671476722 343.51804007962346 733.55078998208046 44.87272721529007 4550.8361456245184 1346.3986008316278 161.60459272563457 112.2245729342103 461.02770021557808 1719.6383002996445 356.81259713321924 2280.4230411201715 69.125507533550262 16.223212778568268 9.000751733779909 118.65758508443832 406.27328542619944 11.558399379253386 22.223349675536156 3.4835530221462232 5.4556523188948631 1.2411519922316063 0.9942375011742105 0.97482249513268371 251.6154301725328
leaf_count=2196 18 434 65 92614 89753 9884 16464 12 1768 4437 594 975 8663 3172 814 2907 236 8545 3910 271 590 1217 4200 1803 5968 446 83 3 208 916 36 67 8 34 26 20 20 5267
internal_value=0 0.145841 0.14154 0.14455 0.146054 0.133257 0.15617 0.168543 0.14978 0.111535 0.180302 0.0840144 0.0637462 0.0457932 0.149911 0.0586244 0.188477 0.191046 0.086232 0.143636 0.11573 0.113607 0.197294 0.0391709 0.167198 0.00457712 0.263794 -0.086506 0.218936 0.197997 -0.063609 0.268499 0.184444 0.131029 -0.105412 -0.105299 -0.105297 -0.105297
internal_weight=0 88968.9 74798.3 71079.3 69856.6 30841.1 39015.5 14170.7 7299.61 3239.93 4059.68 3719.01 2775.49 2296.91 478.575 1222.68 6871.05 6776.37 2506.42 943.522 765.694 505.9 6270.47 1090.36 3534.53 94.6731 177.828 275.052 132.314 733.513 80.6839 525.143 17.94 8.93921 257.112 254.826 253.831 252.857
internal_count=268644 263248 230462 213698 208715 102498 106217 32786 18094 9697 8397 16764 13624 11835 1789 4983 14692 14198 8347 3140 2786 1453 12745 4710 7736 494 354 5396 273 1350 482 661 45 42 5351 5333 5313 5293
is_linear=0
shrinkage=0.1


Tree=5
num_leaves=41
num_cat=0
split_feature=114 39 103 126 113 117 50 3 43 70 41 124 102 128 123 111 127 44 103 49 74 62 34 103 123 43 71 44 105 35 64 64 50 30 90 43 30 109 21 97
split_gain=1085.03 766.294 983.682 756.697 1118.25 733.829 706.867 856.85 714.502 680.438 624.163 599.586 581.503 382.344 380.893 308.918 654.464 441.198 450.988 421.269 265.786 239.543 233.063 210.45 196.933 164.761 139.354 115.343 67.882 59.0544 16.3007 19.6098 14.2846 0.0864256 0.0850276 0.00284713 0.00250594 5.833e-05 1.60577e-05 5.5094e-06
threshold=-0.81996673345565785 1.0378967523574831 -0.78717631101608265 -1.7164716124534605 -0.96375787258148182 -1.5430002212524412 1.1412847042083742 0.55493453145027172 1.0733101963996889 -0.21342781931161878 1.063428580760956 -1.3133460879325864 -0.81841710209846485 1.0000000180025095e-35 -1.3621263504028318 -1.2421964406967161 -2.1262449026107784 1.1798038482666018 -0.76806098222732533 1.2011936306953432 -0.91071990132331837 0.65996703505516063 0.95030084252357494 -0.73204261064529408 -2.19474184513092 1.1502820849418642 -0.32075081765651697 1.0520270466804507 -0.88749340176582325 0.91295680403709423 0.39172409474849706 0.39277273416519171 1.2130746841430666 1.0525817275047304 -0.27228082716464991 0.95233395695686351 1.0453789830207827 -0.80942854285240162 1.7404530048370364 -0.97923144698142994
decision_type=2 2 2 2 2 2 2 2 2 2 2 2 2 2 2 2 2 2 2 2 2 2 2 2 2 2 2 2 2 2 2 2 2 2 2 2 2 2 2 2
left_child=1 2 6 4 5 -4 7 8 -1 13 11 -5 -9 -8 -6 19 17 18 -17 28 -11 -12 -19 26 32 -25 -18 33 -3 -26 -29 -32 -21 35 -30 37 39 -2 -39 -33
right_child=27 15 3 10 14 -7 9 12 -10 20 21 -13 -14 -15 -16 16 23 22 -20 24 -22 -23 -24 25 29 -27 -28 30 34 -31 31 36 -34 -35 -36 -37 -38 38 -40 -41
leaf_value=0.097737833358535031 -0.10555900538808614 0.18017743491329954 0.14867376773492813 0.067353375936413704 -0.1160894999695463 0.076757560642536804 0.17702358263512658 0.12927616660642624 0.1282100551025773 0.23426483628376815 0.23691481327155339 0.1838019060232883 0.19934074069206564 0.07092136884610338 0.025291077189723211 0.1144569026463762 0.2004590598688723 0.10833010453940602 -0.060289882213850801 -0.13851389412429879 0.034201403478990748 0.13774374638065376 0.22947334034721478 -0.064977421777475869 0.20856617209644865 0.18479180064928846 0.051676091500561995 0.21878610038151924 -0.13993369772858547 0.090733181471363902 0.22471276628787154 -0.10507597334242656 0.031657323493707416 -0.12270639488888445 -0.12428046460184279 -0.11030348153368214 -0.10974301775342009 -0.10476731573615401 -0.10509227236777761 -0.10476425051575289
leaf_weight=19940.139921352267 0.93962861225008865 7.9018477350473395 1762.8443388417363 1359.0922408103943 327.19289768487215 7271.4836844056845 4831.6343143805861 37985.348993726075 12529.998563379049 75.649762243032455 661.78469926118851 655.38562615215778 1222.6835872381926 365.30853976309299 456.31026640534401 291.34767410159111 1466.7660493701696 641.8806498683989 299.51931016147137 16.251833304762844 543.35033670067787 385.41211228072643 211.01721676439047 58.029105648398399 1688.2042574211955 48.470853343605995 65.775778010487556 12.197278376668693 39.472403556108475 43.631530851125717 3.0397291183471671 0.90454816818237382 7.082584209740161 2.7258345261216155 3.8046638220548621 0.93455164134502311 1.8835249841213224 226.98207947611809 1.5309177562594403 1.5192742049694055
leaf_count=60817 20 22 4392 5012 1960 29428 11834 93053 35235 116 1147 1723 2413 1244 2097 889 2882 1576 1541 108 2102 1142 324 313 1163 89 249 5 197 109 1 20 40 19 29 13 25 5226 34 35
internal_value=0 0.122065 0.119979 0.0943873 0.0808516 0.0907904 0.124232 0.121511 0.109497 0.157761 0.137792 0.105238 0.131461 0.169565 -0.0337498 0.160625 0.141384 0.0922911 0.0258751 0.193463 0.0586517 0.200416 0.138302 0.184627 0.201709 0.0486989 0.194073 -0.0854406 -0.089346 0.205598 0.147907 0.0302366 -0.0868626 -0.105005 -0.138558 -0.104795 -0.107007 -0.104773 -0.104769 -0.104881
internal_weight=0 95262.8 90373.6 12879.5 9817.83 9034.33 77494.1 71678.2 32470.1 5815.94 3061.67 2014.48 39208 5196.94 783.503 4889.16 3082.81 1443.76 590.867 1806.35 619 1047.2 852.898 1639.04 1755.17 106.5 1532.54 252.657 51.1789 1731.84 19.5444 7.34708 23.3344 233.113 43.2771 230.387 4.30735 229.453 228.513 2.42382
internal_count=268644 263246 253715 46901 37877 33820 206814 191518 96052 15296 9024 6735 95466 13078 4057 9531 7863 4330 2430 1668 2218 2289 1900 3533 1420 402 3131 5398 248 1272 86 81 148 5312 226 5293 80 5280 5260 55
is_linear=0
shrinkage=0.1


Tree=6
num_leaves=40
num_cat=0
split_feature=113 40 58 71 71 1 31 134 130 108 71 81 123 4 108 124 53 30 100 41 104 133 72 120 124 46 70 30 90 49 74 30 74 57 114 44 21 121 109
split_gain=821.809 658.983 1072.86 722.024 702.098 649.153 943.744 1138.22 800.389 643.56 516.713 423.539 336.78 327.287 326.343 485.267 387.032 318.73 304.145 300.178 366.688 211.304 180.938 154.327 129.509 120.161 110.923 105.391 68.328 22.0027 3.29138 1.89793 1.55709 0.172428 0.0497642 1.63897e-05 2.18496e-05 3.60416e-09 1.17811e-09
threshold=-0.81397387385368336 1.0714249610900881 0.91729030013084423 -0.17829842120409009 -0.35701286792755121 0.6241646707057954 0.99667373299598705 1.0000000180025095e-35 1.0000000180025095e-35 -1.0639208555221555 -0.64803886413574208 -0.20736721158027646 -1.0299246311187742 0.32784052193164831 -1.0549742579460142 -1.6492593288421629 1.1136468648910525 1.0366443395614626 -0.66167441010475148 1.1200563907623293 -0.78768417239189137 1.0000000180025095e-35 -0.49502640962600702 -1.7364340424537656 -2.4076172113418575 1.2006891369819643 -0.16222476214170453 1.0453789830207827 -1.0247570276260374 1.2011936306953432 -1.0857293605804441 1.0525817275047304 -0.39890541136264795 0.97002494335174572 -0.81996673345565785 1.0627749562263491 1.2133356928825381 -0.65255171060562123 -0.79738977551460255
decision_type=2 2 2 2 2 2 2 2 2 2 2 2 2 2 2 2 2 2 2 2 2 2 2 2 2 2 2 2 2 2 2 2 2 2 2 2 2 2 2
left_child=1 2 5 4 13 6 7 -1 -8 -6 12 23 -7 -4 16 19 21 -12 32 20 -16 29 28 -5 -20 -24 -21 34 -17 -3 -29 -32 -18 -13 -2 37 -37 -36 -39
right_child=27 14 3 11 9 10 8 -9 -10 -11 17 33 -14 -15 15 22 18 -19 24 26 -22 -23 25 -25 -26 -27 -28 30 -30 -31 31 -33 -34 -35 35 36 -38 38 -40
leaf_value=0.094269902094959335 -0.11892976415725019 -0.13680886945185997 0.17441705429960089 0.24695798321918006 0.13446010174410805 0.097781648999141033 0.11562764213011811 0.023029006873538684 0.075235973194961059 -0.042738285742472383 -0.043000740034644991 -0.12920377302680572 0.15544444836717311 0.050266368036457933 0.11067652667530435 0.1715103363119046 -0.16497000847828638 0.1695938920009451 0.0054707646739695359 0.037904287195039889 -0.02891413989659658 0.27884613603146718 -0.10192934531593685 -0.00025138304717303787 0.18496924763443115 0.21615853342705724 0.16579371436730292 0.18712163684003388 0.25033385935491415 -0.0081964893859225989 0.064745063358521912 0.15673888806161002 -0.11909891020668757 -0.11030286473548896 -0.10428632783252748 -0.10429103721851705 -0.10497837756837108 -0.10429019106211752 -0.10429312206037369
leaf_weight=34622.746557399631 2.3496798723936072 56.703152202069759 321.98747031763196 264.50031451135874 241.2352302595973 4002.4764788150787 42184.442285839468 2398.0120826810598 5551.5080382227898 1363.0158894360065 72.283779874444008 5.5402605533599845 1356.0327735394239 623.54417888820171 345.30189184099436 620.97111824154854 13.684772551059725 2891.5846945792437 40.980329126119614 85.006735615432262 413.57974741607904 17.597699701786041 37.857377991080284 27.918514654040337 2099.2983805164695 17.304431170225143 335.42477288842201 9.1871058940887469 133.64094479382038 17.378612235188484 5.4447781369090062 3.8133453950285912 16.113421954214573 37.469634652137756 0.78824060037732024 1.0652029253542412 0.81736892089247692 1.3805672228336323 206.50481319800019
leaf_count=101352 18 304 1051 157 746 9127 97936 9597 17337 8549 395 33 2271 2531 863 1189 61 4127 193 220 1946 18 199 126 1492 30 570 3 157 61 34 8 125 485 20 27 19 35 5232
internal_value=0 0.1041 0.102393 0.0423371 0.024193 0.104254 0.101638 0.0896553 0.11093 -0.0160925 0.130905 0.180261 0.112374 0.0925441 0.142629 0.113083 0.168612 0.164409 0.177115 0.0721538 0.0346016 -0.0326451 0.17269 0.223356 0.181532 -0.00214419 0.139936 -0.084591 0.18547 -0.106638 0.144716 0.102637 -0.140165 -0.112738 -0.104457 -0.104296 -0.104589 -0.104293 -0.104293
internal_weight=0 100215 95964.3 2885.21 2549.78 93079.1 84756.7 37020.8 47736 1604.25 8322.38 335.429 5358.51 945.532 4250.84 1989.09 2261.76 2963.87 2170.08 1179.31 758.882 91.6795 809.774 292.419 2140.28 55.1618 420.432 231.351 754.612 74.0818 18.4452 9.25812 29.7982 43.0099 212.906 210.556 1.88257 208.674 207.885
internal_count=268644 263248 255820 13678 12877 242142 226222 110949 115273 9295 15920 801 11398 3582 7428 5174 2254 4522 1871 3599 2809 383 1575 283 1685 229 790 5396 1346 365 45 42 186 518 5351 5333 46 5287 5267
is_linear=0
shrinkage=0.1


Tree=7
num_leaves=41
num_cat=0
split_feature=114 41 0 31 108 60 84 98 130 30 103 131 30 135 24 124 30 108 122 46 108 132 50 49 44 30 37 71 51 122 97 64 64 74 30 30 30 109 21 97
split_gain=638.647 606.75 630.218 870.365 834.966 1013.05 731.27 620.354 563.136 462.396 750.317 458.446 429.733 494.593 407.185 299.245 225.594 224.056 206.147 252.06 410.549 148.788 115.829 96.3359 90.5814 65.4048 62.6901 51.4141 47.9189 45.6041 43.8665 10.2801 15.3307 1.1962 0.0933458 0.00334038 0.00281282 0.000122625 3.38101e-05 2.98943e-06
threshold=-0.81996673345565785 1.1120465993881228 0.52400049567222606 0.99667373299598705 -1.0286107063293455 0.84048569202423107 -1.2946738004684446 -0.95552325248718251 1.0000000180025095e-35 1.0938686132431032 -0.92385300993919361 1.0000000180025095e-35 1.0667168498039248 1.0000000180025095e-35 1.5516530871391299 -1.2199633717536924 1.1033944487571719 -1.0533991456031797 -1.7057971358299253 1.2435383796691897 -1.0428778529167173 1.0000000180025095e-35 1.1926725506782534 1.2062450647354128 1.0520270466804507 0.89374512434005748 1.0053507685661318 -0.29287040233612055 1.1772010922431948 -2.0118563175201412 -0.67509087920188893 0.39172409474849706 0.39277273416519171 -0.39890541136264795 1.0525817275047304 1.0470096468925478 1.0453789830207827 -0.80942854285240162 1.7404530048370364 -0.97923144698142994
decision_type=2 2 2 2 2 2 2 2 2 2 2 2 2 2 2 2 2 2 2 2 2 2 2 2 2 2 2 2 2 2 2 2 2 2 2 2 2 2 2 2
left_child=1 2 3 4 5 -1 -6 11 -9 12 14 -5 13 -4 -11 -14 -12 21 19 23 -21 28 25 -19 34 -23 30 -28 -3 -24 -20 -26 -33 -30 35 37 39 -2 -39 -34
right_child=24 17 9 7 6 -7 -8 8 -10 10 16 -13 15 -15 -16 -17 -18 18 26 20 -22 22 29 -25 31 -27 27 -29 33 -31 -32 32 36 -35 -36 -37 -38 38 -40 -41
leaf_value=0.10145396944839034 -0.10510595801920544 0.086093483040631483 0.094588693066397209 0.083525523781377675 0.088567648050807884 -0.070109622040159525 0.05169327931167178 0.10083263456734629 0.065926541173398467 0.13968850438301186 0.024762259325868879 -0.016123542417786626 0.1395131094947599 -0.01873104237991445 0.047652671594438319 0.10837292683080764 -0.1160070559955402 0.14123903648497563 0.061278939679552828 0.25951566463975984 -0.11594283559027768 -0.15208447579955697 0.078156691195852335 -0.11819581223979621 0.1799322099773909 0.089703485804100341 0.17472181067773196 0.079552039783169382 -0.16927079062339148 0.17395761205570781 0.16313779838200201 0.19336862921151671 -0.10411742112854397 -0.11360136270033386 -0.12255097644102467 -0.11036246171834735 -0.10938748602499926 -0.10386894769551341 -0.10438254980377544 -0.10386471850987318
leaf_weight=10899.116545785218 0.80939105153083701 15.121128425002096 2461.3558771759272 1002.0661212950945 7829.0946478769183 355.39990563318133 17178.9497269243 38250.993607737124 5256.9933347702026 1385.5860548466444 1158.8354297727346 856.11992096155882 4716.2012484148145 456.6061949878931 736.07019546627998 8927.1868205964565 126.24659899622202 16.585770905017853 163.05543901026249 78.338820405304432 46.357144758105278 15.095262780785559 51.42589695006609 104.45233514159918 12.130688592791559 43.218942284584045 283.18833184242249 70.996954634785652 13.324770689010618 1471.5894054546952 57.081018716096878 3.0733244419097892 0.74704353883862618 5.4339066073298481 2.723258212208747 0.79769273474812408 1.8253188505768774 187.46066290512681 1.2905413284897793 1.2538616247475141
leaf_count=28227 20 36 6196 2583 22896 2375 58596 85160 15773 2065 3470 3130 7758 1726 2202 17375 572 31 411 68 295 91 124 521 5 70 385 155 56 759 88 1 20 52 19 11 25 5228 34 35
internal_value=0 0.0900442 0.0888618 0.0849664 0.0734168 0.0960363 0.0632373 0.0941983 0.096615 0.104786 0.0712341 0.0376143 0.111688 0.0768563 0.107758 0.119137 0.0109331 0.139372 0.0968022 0.0201523 0.119935 0.160984 0.165427 -0.0826456 -0.0836521 0.0271141 0.129598 0.155645 -0.0463687 0.170723 0.0876908 0.124502 0.027046 -0.153145 -0.104168 -0.103905 -0.106549 -0.103878 -0.103872 -0.103959
internal_weight=0 104032 101597 81628.7 36262.6 11254.5 25008 45366.2 43508 19968.1 3406.74 1858.19 16561.4 2917.96 2121.66 13643.4 1285.08 2435.27 820.056 245.734 124.696 1615.21 1581.33 121.038 212.112 58.3142 574.322 354.185 33.8798 1523.02 220.136 19.0302 6.89955 18.7587 193.082 190.358 3.82622 189.561 188.751 2.00091
internal_count=268644 263246 260104 218740 112094 30602 81492 106646 100933 41364 8309 5713 33055 7922 4267 25133 4042 3142 1954 915 363 1188 1044 552 5398 161 1039 540 144 883 499 86 81 108 5312 5293 80 5282 5262 55
is_linear=0
shrinkage=0.1


Tree=8
num_leaves=63
num_cat=0
split_feature=39 30 47 132 38 110 116 59 58 36 73 124 127 108 53 51 111 125 112 104 74 39 30 73 127 33 6 105 98 69 71 30 94 29 62 36 128 101 52 104 24 72 111 104 29 40 69 53 49 79 116 52 103 77 46 54 3 60 121 31 31 78
split_gain=603.445 933.638 954.025 762.609 691.693 688.842 990.647 903.408 651.861 685.731 539.219 478.2 472.22 667.578 581.574 428.001 397.679 613.055 541.536 387.772 361.468 363.688 275.719 275.434 235.373 228.661 201.75 200.733 185.072 171.747 171.124 150.118 150.001 142.722 126.692 138.937 122.533 115.286 110.289 109.769 175.158 93.0161 88.6686 79.3553 78.9744 76.3609 69.7569 66.6527 61.9844 66.61 58.3787 42.8818 42.5688 42.5671 38.2284 32.3886 56.1008 28.4649 27.8422 13.0039 0.0690795 0.0321916
threshold=1.0295725464820864 1.0442679524421694 1.1488676071166994 1.0000000180025095e-35 0.89549788832664501 -1.1875658631324766 -1.4902443289756773 0.84630712866783153 0.85995277762413036 0.92500716447830211 -0.70287078619003285 -1.5809932351112364 -1.9424066543579099 -1.0617976784706114 1.1136468648910525 1.165056645870209 -0.91755682229995716 -1.7139745354652403 -0.98185083270072926 -0.94233536720275868 -0.55814635753631581 1.0271226763725283 1.0258846879005434 -0.35928562283515925 -1.7267416715621946 0.87683239579200756 0.42268151044845587 -0.8406999111175536 -0.82246878743171681 -0.59017911553382862 -0.50669392943382252 0.97121480107307445 -0.92945611476898182 1.1613107323646548 0.67234581708908092 0.96656906604766857 1.0000000180025095e-35 -0.79350587725639332 1.1376638412475588 -0.90145853161811818 1.3479338288307192 -0.63995170593261708 -1.0417308807373045 -0.75299915671348561 1.0617447495460512 1.0730897188186648 -0.0756862238049507 1.0742869377136233 1.1749196052551272 -1.3451886773109434 -1.0105729699134824 1.1164881587028506 -0.74894708395004261 -1.2336211204528806 1.2354142069816592 1.0552760362625124 0.48890261352062231 0.79239130020141613 -1.1954333782196043 0.98357596993446361 1.0144605040550234 -1.3491231799125669
decision_type=2 2 2 2 2 2 2 2 2 2 2 2 2 2 2 2 2 2 2 2 2 2 2 2 2 2 2 2 2 2 2 2 2 2 2 2 2 2 2 2 2 2 2 2 2 2 2 2 2 2 2 2 2 2 2 2 2 2 2 2 2 2
left_child=1 4 3 8 19 20 15 -8 10 -10 -3 26 13 14 31 -7 17 18 -15 29 25 -22 47 45 28 -6 37 -28 -13 42 -24 38 -19 -31 43 36 44 -4 -2 41 -41 -5 -1 55 -36 -16 -33 -21 59 -50 -38 52 -37 -53 -25 56 -14 61 -57 -18 -26 -45
right_child=12 2 11 39 5 6 7 -9 9 -11 -12 24 34 16 23 -17 48 32 -20 22 21 -23 30 54 60 -27 27 -29 -30 33 -32 46 -34 -35 35 51 50 -39 -40 40 -42 -43 -44 57 -46 -47 -48 -49 49 -51 -52 53 -54 -55 -56 58 -58 -59 -60 -61 -62 -63
leaf_value=-0.039440119714530736 -0.13275938497998421 0.079067670044006555 0.055325841947750004 0.13748853411716053 -0.0025111383128154693 0.19150800375841154 0.072812562090903268 0.016518585610974027 0.010376510217749045 0.073887498319287745 0.13392867761228619 0.15873121320506239 0.12552806778542641 0.068173022426968294 0.19801329836627851 0.044768765947534789 -0.016566917476108778 0.08266356267817164 -0.07960394805542402 -0.10254269913183156 -0.056238716464066398 0.10179847368962656 -0.031083278910094804 -0.12643248424014453 -0.15400958550411847 0.18236948867161754 0.07963261627818384 -0.06678912402481102 0.25908117912965994 -0.013696327703666531 0.073529052789771884 -0.04595133218963398 0.15672895587281854 0.12016446686175009 0.029320437369980357 0.14551658145484914 0.12050521387398344 0.23151232146411088 0.033293363678609224 0.23750038589460512 0.062215810248254601 0.22187687066325923 0.16449721843119475 -0.15077605460770296 0.19657879290408364 0.15002491451706099 0.23456994574070258 -0.013770569728163488 0.099508659684812845 -0.10165304818944979 -0.11332807405013001 0.19709257155548399 -0.14746550485642493 0.096744089885961643 0.11222674177979614 0.054057556585211802 0.25862864975318334 0.10413016104853695 0.21283902037236407 -0.13172262604777871 -0.14203382210851428 -0.13862945118076347
leaf_weight=24.19842055439949 97.044210769236088 60050.729457698762 53.084153890609741 1926.1493527293205 122.64169125258923 889.94247192889452 16571.886541180313 3443.0411832109094 2815.3828054666519 4291.2171136885881 1846.681422367692 1757.4028633385897 127.19958128035069 3110.0696521475911 413.67292173206806 255.93437496572733 10.889180995523928 379.83738340437412 269.46378871798515 443.45433025807142 911.80693596228957 173.29136036336422 392.34805461019278 38.889583915472031 16.493174239993099 147.17981462180614 741.6552749723196 107.15592990815639 205.24776607751846 266.13492389023304 259.97907853126526 12.806372001767157 976.19872242212296 113.66882084310055 55.414784297347069 12.272767812013628 13.758228272199629 123.64303267002106 68.043408088386059 67.084158390760422 379.58290413022041 140.11656661331654 179.19673221558332 4.1281789392232895 57.545369356870651 1671.0639779418707 28.799341291189194 104.51290864497423 34.120199613273144 31.804070711135864 47.671023786067963 210.67912776768208 8.3218664675950986 52.882660463452339 8.1115769669413549 11.298461988568304 42.164215549826622 9.7359918057918531 489.25747951865196 98.60772867500782 6.8035059571266165 4.6279144436121005
leaf_count=97 466 138443 135 2131 428 631 46666 15169 9296 10577 3707 2533 214 8617 558 1014 53 929 1295 6550 3964 480 1641 290 73 256 1803 426 182 1158 802 52 1716 297 174 20 32 146 215 73 940 180 330 19 95 1105 31 489 87 157 239 223 40 105 19 27 36 23 554 579 33 24
internal_value=0 0.0761535 0.0817034 0.0793817 0.0591313 0.0638798 0.0683058 0.0631287 0.0774111 0.0487267 0.0807044 0.136839 0.104078 0.0946447 0.138621 0.158733 0.0737046 0.0791816 0.0563902 -0.000815701 -0.00524379 -0.031 -0.0333182 0.15415 0.165475 0.0983359 0.0813864 0.061148 0.169225 0.0660784 0.010609 -0.021535 0.135983 0.0263659 0.163699 0.122977 0.0527122 0.178591 -0.0643182 0.133494 0.0885415 0.143211 0.140234 0.190824 0.114527 0.159547 0.148225 -0.0856113 -0.0741472 0.00246153 -0.0609567 0.166099 0.0271286 0.176958 -0.0852441 0.196465 0.158664 -0.0135293 0.209255 -0.120271 -0.150512 -0.144356
internal_weight=0 98827.6 74528.4 71516.9 24299.2 22515.7 21160.8 20014.9 69004 7106.6 61897.4 3011.49 8396.38 7249.42 2338.43 1145.88 4910.99 4735.57 3379.53 1783.49 1354.92 1085.1 1200.29 2131.74 1985.95 269.822 1025.54 848.811 1962.65 583.199 652.327 206.693 1356.04 379.804 1146.96 458.546 174.389 176.727 165.088 2512.93 446.667 2066.27 203.395 688.412 112.96 2084.74 41.6057 547.967 175.421 65.9243 61.4293 284.156 20.5946 263.562 47.0012 669.92 169.364 18.4921 500.556 109.497 23.2967 8.75609
internal_count=268644 250650 170678 165347 79972 68608 63480 61835 162023 19873 142150 5331 17994 16169 2736 1645 13433 12557 9912 11364 5128 4444 9482 1972 2821 684 2510 2229 2715 1882 2443 764 2645 1455 1825 928 540 281 681 3324 1013 2311 427 897 269 1663 83 7039 876 244 271 388 60 328 309 831 250 66 581 632 106 43
is_linear=0
shrinkage=0.1


Tree=9
num_leaves=61
num_cat=0
split_feature=41 74 0 107 32 33 128 135 104 36 70 48 49 130 114 58 71 57 45 106 105 31 117 31 129 123 131 55 36 108 122 46 108 46 99 49 6 109 34 105 122 51 37 70 54 103 45 40 115 68 106 46 113 59 36 30 73 51 107 115
split_gain=547.389 543.483 697.054 685.956 951.848 813.178 677.678 665.978 595.393 554.016 509.524 787.776 579.778 454.893 588.669 464.602 416.815 410.972 406.893 466.109 396.357 389.356 629.337 445.514 320.343 278.043 272.38 254.81 200.928 192.385 157.641 199.756 311.105 122.762 80.6228 78.165 73.9217 73.7789 70.306 64.8337 58.6335 52.0722 46.8301 41.9457 75.5763 41.0178 40.852 40.4702 81.8984 36.7061 35.8026 31.5322 27.9972 26.8742 14.7678 14.6856 0.538958 0.435226 0.327094 0.059461
threshold=1.1120465993881228 -0.94049647450447071 0.3900077491998673 -0.95986023545265187 0.92040124535560619 0.9494096338748933 1.0000000180025095e-35 1.0000000180025095e-35 -0.79753410816192616 0.93938416242599498 -0.11910394951701163 1.1963298916816714 1.1710652112960818 1.0000000180025095e-35 -0.90439665317535389 0.85261073708534252 -0.33476066589355463 0.93630683422088634 1.0797505974769595 -0.87832677364349354 -0.88540413975715626 1.0116558670997622 -0.95067313313484181 0.99897807836532604 1.0000000180025095e-35 -1.1614416241645811 1.0000000180025095e-35 0.92101874947547924 0.98047947883605968 -1.0533991456031797 -1.7057971358299253 1.2435383796691897 -1.0428778529167173 1.220251262187958 -0.81297820806503285 1.2062450647354128 0.58413243293762218 -1.0153460502624509 0.85326281189918529 -0.87270674109458912 -2.0118563175201412 1.1794387102127077 1.0053507685661318 -0.13569556176662442 1.0887390971183779 -0.75103285908699025 1.2097979784011843 1.0825468301773074 -1.1749192476272581 0.14760020375251773 -0.91169884800910939 1.2354142069816592 -1.1234977245330808 0.86960116028785717 0.92414766550064098 0.99006640911102306 -0.35928562283515925 1.1668686270713808 -1.0088889598846433 -1.4306896924972532
decision_type=2 2 2 2 2 2 2 2 2 2 2 2 2 2 2 2 2 2 2 2 2 2 2 2 2 2 2 2 2 2 2 2 2 2 2 2 2 2 2 2 2 2 2 2 2 2 2 2 2 2 2 2 2 2 2 2 2 2 2 2
left_child=1 2 6 4 10 7 18 8 -5 36 12 -12 -3 21 15 -15 26 -11 34 -20 -9 23 -23 -4 27 -16 -7 -6 -18 33 31 35 38 46 -1 -31 -8 -26 -33 45 41 -41 47 49 -45 56 57 52 -49 -44 -37 -42 -32 -48 -55 -34 -35 59 -59 -2
right_child=29 3 13 5 24 16 9 20 -10 17 11 -13 -14 14 25 -17 28 -19 19 -21 -22 22 -24 -25 37 -27 -28 -29 -30 30 42 32 55 39 -36 50 -38 -39 -40 40 51 -43 43 44 -46 -47 53 48 -50 -51 -52 -53 -54 54 -56 -57 -58 58 -60 -61
leaf_value=-0.082992890467667502 -0.12251194284101891 0.060131363289781914 0.066314280782339696 0.049493504218690268 0.1321890983814539 0.11812505389011817 -0.10915708588165177 0.056252094989687966 0.012479311961998885 0.13936337617821534 0.17002263648192525 0.049818599826687307 0.0014746783535528284 0.076331218111192922 -0.08393773628241856 -0.035648266657975547 -0.035703402078877067 -0.024965752913722484 0.22850233723772229 0.12094888886228748 0.14410134841870539 0.063741663708869828 -0.080148281816883382 0.086710114111523184 -0.15350505585341614 0.015535980199571267 -0.085485229661805523 0.092334632360577373 0.11688532947486813 0.11319884652085593 0.033850990979029202 0.39957721177687255 -0.13394101994510405 -0.16664393309948156 0.20809933217159846 0.010316315903897149 -0.0091531178550764425 0.10189457351007516 0.1670362583684489 -0.16359863936785915 0.13651921529526587 0.088566808190942758 0.098293640315321507 -0.14687790187513411 0.10725461608978069 0.16835878935541654 0.11695479243776857 0.10096376752876342 -0.036450544279942244 0.18105638893538104 -0.14305586978556981 0.16709166257809149 0.20943788148640705 0.05776137346077434 -0.18498030899777951 0.046622970753881977 -0.12033346208036307 -0.14577428489378305 -0.18453570424121282 -0.13976772106363988
leaf_weight=105.68300059810281 3.8983967900276193 7761.5800061374903 22111.140499506146 21377.625462615862 2190.2424946129322 2725.9199827685952 202.20322217792273 1007.4793133437634 5454.6249170936644 473.39652042090893 938.75730296224356 1300.5367613658309 2152.408426001668 3232.7245350778103 397.99472066760063 418.47624850273132 307.21895594894886 224.29616754129529 454.11072871088982 3575.742550317198 1047.6361184939742 1133.5936064124107 415.33195804804564 20769.766095228493 60.34395606815815 955.82707303389907 67.324304848909378 5995.6238603666425 120.00668618083 17.534117460250854 12.956936091184614 16.11796148866415 40.174169018864632 8.4783457666635513 10.456112135201691 18.587881430983543 116.50419666618109 13.919863536953924 67.242018550634384 9.9808349162340146 901.9198421984911 45.616461515426636 81.632440507411957 12.963688701391218 120.25116585195065 5.929255247116088 19.257414460182193 115.89876817166805 69.309513837099075 155.98615777492523 84.008844397962093 538.95529736578465 30.356272712349892 4.3157616481184942 5.9775777012109756 5.0731161832809439 3.5716930180788049 4.7290766090154648 4.0343110561370832 4.0941236913204211
leaf_count=484 30 20474 53543 56856 3431 5009 890 2413 22523 866 925 3385 7911 8575 1638 1556 1268 826 381 7426 2178 2670 1728 40238 272 3996 248 13102 240 31 35 13 286 36 17 41 408 25 55 64 570 89 126 63 206 2 28 202 230 145 480 224 32 8 34 9 32 33 17 21
internal_value=0 0.0678595 0.0748458 0.0605972 0.0749299 0.0514848 0.109811 0.0461711 0.041969 0.0366353 0.0571277 0.100211 0.0473965 0.0711944 0.0426138 0.0634969 0.0991478 0.0865344 0.12775 0.133069 0.101035 0.074414 0.0251587 0.0761932 0.101123 -0.0137072 0.113218 0.102998 0.00715842 0.116062 0.0777245 0.0108002 0.0974111 0.136895 -0.0567856 -0.081922 -0.0726004 -0.105633 0.211999 0.141799 0.144067 0.043298 0.105499 0.127442 0.0825239 -0.0469661 -0.023493 0.0698909 0.0495399 0.152624 -0.115269 0.147955 0.156912 0.0472339 -0.0832043 -0.113696 -0.152917 -0.148227 -0.163618 -0.131351
internal_weight=0 107118 54597.2 52521.2 20413.4 32107.8 5162.39 28887.4 26832.3 1016.4 12153.3 2239.29 9913.99 49434.9 5005.02 3651.2 3220.47 697.693 4145.99 4029.85 2055.12 44429.8 1548.93 42880.9 8260.13 1353.82 2793.24 8185.87 427.226 2408.85 848.093 248.738 128.607 1560.76 116.139 120.131 318.707 74.2638 83.36 1514.45 1496.47 55.5973 599.355 370.833 133.215 17.9793 46.3067 228.521 185.208 237.619 102.597 1440.88 43.3132 29.5508 10.2933 45.2473 12.05 16.7559 8.76339 7.99252
internal_count=268644 265502 125242 140260 49525 90735 11298 83970 79379 2990 32695 4310 28385 113944 15765 10131 6765 1692 8308 7807 4591 98179 4398 93781 16830 5634 5257 16533 1508 3142 1954 915 363 1188 501 552 1298 297 68 1017 947 153 1039 540 269 70 171 499 432 271 521 794 67 70 42 295 68 101 50 51
is_linear=0
shrinkage=0.1


Tree=10
num_leaves=60
num_cat=0
split_feature=40 110 116 60 52 71 71 2 72 109 48 50 109 54 129 32 107 52 124 51 31 75 32 106 110 121 58 80 45 72 122 107 90 53 133 50 123 33 39 49 53 87 68 46 73 111 51 58 45 33 62 31 35 52 74 57 41 49 36
split_gain=541.624 550.814 714.828 726.888 623.437 575.767 469.16 457.494 369.18 357.141 393.638 358.171 471.417 315.109 306.533 300.519 294.907 380.397 371.31 270.267 291.271 257.043 256.645 200.317 182.912 175.474 165 164.277 162.539 137.213 136.889 121.705 222.971 114.626 105.51 102.941 99.8533 89.2257 84.5791 83.2589 78.0539 68.0036 155.043 40.8329 40.2464 39.7953 38.6188 56.0079 40.0983 35.5911 24.8457 21.1976 10.4107 10.0241 1.3934 0.428499 0.369912 0.0575434 0.0176897
threshold=1.0699194669723513 -1.1850438117980955 -1.4809924364089964 0.79658481478691112 1.1489355564117434 -0.27468401193618769 -0.34229794144630427 0.62984541058540355 -0.27433210611343378 -1.1426146030426023 1.2103064060211184 1.1668088436126711 -1.1245234012603758 1.0747063755989077 1.0000000180025095e-35 0.88564607501029979 -0.98137611150741566 1.1435928940773012 -1.643386662006378 1.2033398151397707 0.94999706745147716 -0.55892232060432423 0.89269015192985546 -0.94720947742462147 -0.99171790480613697 -1.8659459948539732 0.79874348640441906 -0.23722479492425916 1.1802836656570437 -0.48863922059535975 -1.9841323494911192 -0.96570521593093861 -0.69233644008636464 1.1053212881088259 1.0000000180025095e-35 1.2175518274307253 -2.19474184513092 0.82009458541870128 1.0262827873229983 1.2238432765007021 1.1053212881088259 -1.1415038108825681 0.11957117170095445 1.1876848936080935 -0.41999542713165278 -1.2696260213851926 1.1633817553520205 0.90230858325958263 1.1712431907653811 0.84236621856689464 0.66493746638298046 0.99732720851898204 0.88690143823623668 1.1180790066719057 -0.43454009294509882 0.97002494335174572 1.1094591021537783 1.1922709345817568 0.98047947883605968
decision_type=2 2 2 2 2 2 2 2 2 2 2 2 2 2 2 2 2 2 2 2 2 2 2 2 2 2 2 2 2 2 2 2 2 2 2 2 2 2 2 2 2 2 2 2 2 2 2 2 2 2 2 2 2 2 2 2 2 2 2
left_child=1 9 4 5 30 7 14 -4 52 10 21 12 22 -8 -5 38 17 34 19 20 35 26 -11 43 -22 55 -1 -10 -7 41 37 44 -33 -23 46 -18 39 -3 -13 -25 -17 42 -20 -19 -21 -27 48 -48 -2 -38 -32 -43 -6 -14 -45 -12 58 -58 -31
right_child=16 2 3 6 8 28 13 -9 27 11 25 15 53 -15 -16 40 18 23 29 31 24 33 -24 36 -26 45 -28 -29 -30 56 50 32 -34 -35 -36 -37 49 -39 -40 -41 -42 51 -44 54 -46 -47 47 -49 -50 -51 -52 -53 -54 -55 -56 -57 57 -59 -60
leaf_value=-0.11739689258295699 0.20467930993331646 -0.0017487545584098673 0.058018716657471193 0.013956933620299412 -0.12377529506761963 0.22432650853336622 0.037385743873472481 0.078215819120574168 0.2277840290014663 -0.077010913525055014 -0.16320451088709062 -0.11600838228327444 0.21517785599468084 -0.066958554587600805 0.093711017649620906 -0.021828421563517782 -0.12907956147510122 0.24978966553459203 -0.080892681153177826 0.10977179087707614 0.073572931345000189 -0.086482880143847904 0.10219978938056495 -0.11194490013178492 -0.03292419495149039 0.20349166963691867 0.13902107679124528 -0.11228936366162899 -0.082022648322341393 -0.12576643252281547 0.10841112769435764 0.11209551474974055 -0.093713017586293329 0.048812379366518527 0.14015914048737754 0.052402791205521118 0.31890096076540897 0.17113261372834887 -0.03193871939537906 0.19318412208518213 0.21781684926240749 0.1935189941152754 0.1174915722195916 -0.15845412888000418 0.21082047726639752 0.051873557940624794 0.19395070273230983 -0.065491150719084776 -0.1402394718006828 0.1353360164400374 -0.15002425657439009 0.12209799269121283 -0.02486366576373426 0.15134379113915877 -0.11706086744531617 -0.12887909973675946 -0.14683408878270282 -0.16314656262127705 -0.13419634796119095
leaf_weight=29.568941742181778 3.5449157655239096 30.685529127717018 86775.842665078118 1295.8693967033178 132.94745241850615 262.04169891960919 430.15158566087484 12879.8411377538 62.710497573018074 254.66024240851402 10.555867582559587 468.87545208260417 99.153167873620987 884.59479696676135 767.24479525536299 20.409973502159119 178.68668239563704 2.9546930789947501 41.574651747941971 67.940789215266705 449.32955096662045 214.07719770073891 116.45259702205658 29.369838155806065 251.56911736726761 202.30832606554031 165.85921995341778 18.364449381828308 18.544678568840027 8.6056715026497859 4.825275823473933 204.52042522281408 70.885653018951416 88.511653915047646 27.503801926970482 37.880982041358948 10.615094378590582 1100.8551596403122 160.67952325195074 12.857465058565138 40.680924460291862 140.54288150370121 751.32090453803539 16.833146378397942 93.877905167639256 18.931212961673737 10.721691951155661 37.159963056445122 68.497592851519585 2126.5844484493136 16.241027191281319 59.002087980508804 11.56688418984413 32.717811480164528 15.73343764990568 5.548349753022193 4.1805111616849882 4.4798326939344406 3.5023811608552924
leaf_count=122 6 147 209409 4866 1105 296 1385 27337 43 1053 46 2568 51 5671 1936 76 979 1 142 86 994 872 251 162 1004 199 313 203 76 54 11 352 506 270 35 128 11 832 719 10 56 147 1329 76 49 60 15 140 363 1612 75 69 56 34 143 34 20 20 19
internal_value=0 0.0594685 0.0604441 0.0594897 0.131987 0.0610318 0.0138656 0.0606291 -0.0200403 0.00651763 0.0613377 -0.0272554 0.0369336 -0.0328198 0.0436164 -0.0740031 0.094049 0.119047 0.0691093 0.0348628 0.00402854 0.0108291 -0.0207759 0.1294 0.0353486 0.16732 0.100224 0.150753 0.204079 0.114898 0.161742 0.099565 0.0591233 -0.046907 -0.0364907 -0.0973355 0.133239 0.166444 -0.0945515 -0.0190385 0.137753 0.120221 0.10709 -0.106162 0.168394 0.190518 -0.0770042 -0.00739676 -0.123267 0.136248 -0.0908292 0.172401 -0.115858 0.19934 -0.138456 -0.151378 -0.139492 -0.155272 -0.128205
internal_weight=0 106621 104692 103314 1378.2 99936.3 3377.86 99655.7 225.589 1928.99 735.361 1193.63 502.984 1314.75 2063.11 690.646 4730.28 2362.38 2367.9 1354.69 917.466 498.017 371.113 2214.95 700.899 237.344 195.428 81.0749 280.586 1013.21 1152.61 437.225 275.406 302.589 147.428 216.568 2179.43 1131.54 629.555 42.2273 61.0909 992.441 792.896 35.5213 161.819 221.24 119.924 47.8817 72.0425 2137.2 21.0663 199.545 144.514 131.871 32.5666 16.1042 20.7684 8.66034 12.1081
internal_count=268644 260172 253448 250976 2472 237118 13858 236746 1407 6724 1916 4808 1389 7056 6802 3419 8472 2574 5898 4098 3105 1577 1304 2015 1998 339 435 246 372 1800 1065 993 858 1142 559 1107 1795 979 3287 172 132 1687 1471 220 135 259 524 155 369 1623 86 216 1161 85 219 80 113 40 73
is_linear=0
shrinkage=0.1


Tree=11
num_leaves=63
num_cat=0
split_feature=39 29 47 4 72 74 56 70 52 109 36 72 82 127 105 40 47 74 103 60 56 70 108 134 123 124 70 104 114 133 99 125 93 70 25 73 94 37 124 42 61 36 128 125 103 119 32 54 4 32 123 68 103 112 73 117 87 49 45 75 92 106
split_gain=495.645 659.606 900.404 682.609 559.436 739.992 504.792 637.073 967.094 730.977 560.093 511.654 419.994 376.601 729.582 429.876 428.073 368.861 368.272 364.621 363.617 362.096 883.058 328.489 310.069 598.922 301.92 294.769 286.679 336.38 281.314 263.896 400.543 268.019 236.192 217.672 197.763 197.512 172.717 270.1 160.801 159.886 222.236 140.252 131.833 120.524 117.886 115.499 146.853 112.053 106.971 98.5786 88.5849 79.8235 72.4659 73.3867 61.6297 49.2188 31.726 27.819 82.9751 32.8481
threshold=1.0279103517532351 1.0861392021179201 1.1496158242225649 0.59468355774879467 -0.56789100170135487 -0.93553149700164784 0.97751039266586315 -0.11910394951701163 1.1435928940773012 -1.1200029253959654 0.88699349761009227 -0.27433210611343378 -1.4383479356765745 -1.9989494681358335 -0.81796208024024952 1.0730897188186648 1.2173417210578921 -0.84248799085617054 -0.80686083436012257 0.8025573492050172 0.97322320938110363 -0.16222476214170453 -1.0639208555221555 1.0000000180025095e-35 -1.4539685249328611 -1.6877108812332151 -0.18812595307826993 -0.79834571480751026 -1.0078234672546384 1.0000000180025095e-35 -0.80394515395164479 -1.7096220850944517 -0.9638509452342986 -0.070356052368879304 1.2505759596824648 -0.76766440272331227 -0.91022193431854237 0.97705200314521801 -1.6492593288421629 1.1448032855987551 0.7341136932373048 0.96836379170417797 1.0000000180025095e-35 -2.6509872674942012 -0.77072498202323902 -1.0984942913055418 0.94689163565635692 1.0552760362625124 0.51884004473686229 0.87802922725677501 -1.4723735451698301 0.11493774875998498 -0.74894708395004261 -0.98185083270072926 -0.71125072240829457 -1.0323604941368101 -1.3342345356941221 1.1351122260093691 1.0804150700569155 -1.0347537398338316 -1.0082592964172361 -0.82307559251785267
decision_type=2 2 2 2 2 2 2 2 2 2 2 2 2 2 2 2 2 2 2 2 2 2 2 2 2 2 2 2 2 2 2 2 2 2 2 2 2 2 2 2 2 2 2 2 2 2 2 2 2 2 2 2 2 2 2 2 2 2 2 2 2 2
left_child=1 6 3 4 5 -3 10 12 9 -9 28 -10 35 14 16 31 19 18 -5 44 -6 23 -23 -12 25 30 -14 36 29 -1 -4 33 -33 -16 -27 -8 -26 43 39 -17 47 42 45 -18 -2 -42 -39 48 52 -19 -21 -40 -15 -29 -43 -56 -44 -50 -30 61 -61 -49
right_child=13 2 24 17 20 -7 7 8 11 -11 21 -13 26 40 15 38 37 49 -20 50 -22 22 -24 -25 27 34 -28 53 58 -31 -32 32 -34 -35 -36 -37 -38 46 51 -41 41 54 56 -45 -46 -47 -48 59 57 -51 -52 -53 -54 -55 55 -57 -58 -59 -60 60 -62 -63
leaf_value=0.044403673227906872 0.096378783954661207 0.055065481456338418 -0.070962945445138856 0.059142088874119293 0.092869691471652388 0.02688953618944144 0.13673978703472955 -0.072033799325824474 -0.091493065703491833 0.14537789587885716 0.056681484830373219 0.12315379168953725 0.0045181802278310423 0.068077997517760377 -0.075416715197331882 -0.079810333450692106 -0.10526010681362752 -0.031803903620823262 0.13257018860942091 -0.028755633831583041 -0.083130931449668932 -0.1336206366712481 0.17339113141919982 -0.11647839632973903 0.11837769734012826 -0.05582825744444251 -0.050289663589692959 0.15167168987968163 -0.11420280746233072 -0.092754251239477434 0.12052417254249775 -0.10677833733003897 0.091849130633410006 0.14460281704060951 0.044782716418744539 -0.14026117113335476 0.20731018790130565 -0.017975857019480842 -0.17711827127473243 0.068291681990003891 -0.15766436881757559 0.13624196739781885 0.16400147637902396 0.12583034584566172 0.015930027918957392 0.099153952241726157 0.096635779423543969 0.20720515091492159 0.035549882100128494 0.13138588236164619 0.18647600876538517 0.10816547003977006 -0.14769872343192419 -0.02924996675068238 0.086008309911211667 -0.15195287212265274 -0.075088793848714863 0.21056574405295403 -0.014408140189788091 0.06244083976078646 0.18041506169837726 0.15367666140413641
leaf_weight=812.32827959954739 985.50683650374413 17768.561307001859 80.747206151485443 40476.57240607962 2822.9173466861248 19606.476405486465 282.7345757111907 180.45933489501476 458.50891757383943 1081.109703168273 6085.5097387358546 146.54620219022036 3756.3789145424962 273.52077746391296 691.28349630907178 172.32988512143493 26.556033790111542 44.149006262421608 694.76138861104846 510.42885743454099 122.47886990010738 110.09596851468086 628.58922404050827 111.56184014678001 2182.5662189871073 322.23791241645813 1372.2743117436767 28.811180502176285 236.94415939226747 229.27677202224731 1538.4788672327995 141.36640129238367 360.22525534778833 60.186469666659832 845.70328804850578 31.532682955265045 282.40206824243069 165.98139043152332 12.372688338160513 431.41844005510211 19.299440488219261 442.35098495334387 11.651694744825361 2379.8855861835182 256.76954896748066 343.7567195519805 195.38601876795292 150.58284567296505 19.022408336400986 896.17222547531128 24.18582883477211 575.65681180357933 20.448528841137886 158.79249736666679 51.15134833753109 17.357887029647827 144.30330130457878 103.47888731956482 36.805084709078074 109.85336691141129 130.36847144365311 480.30506576597691
leaf_count=2216 1936 41318 279 84165 5709 51935 564 651 4004 1067 15160 577 12767 531 3368 838 150 174 935 1882 471 518 665 537 3306 1162 6340 57 5343 970 2986 703 752 133 2302 159 262 504 52 1169 86 534 21 2352 844 769 284 131 50 1259 28 1003 102 544 88 83 659 73 128 231 137 621
internal_value=0 0.0521312 0.0554917 0.0528913 0.0435914 0.0402847 0.0331543 0.0140182 0.0644305 0.114279 0.0501067 -0.0395049 -0.00327048 0.0762241 0.0646412 0.0205918 0.0883378 0.0617956 0.0603812 0.0500338 0.085551 0.0614528 0.127633 0.0535642 0.0948968 0.0716056 -0.0101468 0.11937 -0.00972059 0.0142126 0.110975 -0.020302 0.0358688 -0.057795 0.0170239 0.108946 0.128566 0.112928 0.0635885 0.0260184 0.111159 0.0817053 0.0426144 0.12328 0.0797506 0.0855019 0.043993 0.134717 0.0914011 0.123724 -0.0190186 0.102163 0.0530686 -0.00146498 0.12142 0.0257171 -0.0572259 0.183389 -0.100786 0.155426 0.126465 0.166453
internal_weight=0 103432 87871.8 82432.1 40320.4 37375 15560.7 7309.54 1866.62 1261.57 8251.11 605.055 5442.92 9306.99 6989.54 2444.84 4544.7 42111.7 41171.3 1776.89 2945.4 6935.76 738.685 6197.07 5439.74 2787.17 5128.65 2652.57 1315.35 1041.61 1619.23 1253.06 501.592 751.47 1167.94 314.267 2464.97 2767.81 1191.78 603.748 2317.45 1029.87 519.011 2406.44 1242.28 363.056 361.367 1287.58 416.471 940.321 534.615 588.03 293.969 187.604 510.86 68.5092 155.955 122.501 273.749 871.11 240.222 630.888
internal_count=268644 248530 196864 185966 99433 93253 51666 26129 6299 1718 25537 4581 19830 20114 15998 8018 7980 86533 85100 4690 6180 16880 1183 15697 10898 6729 19107 4169 8657 3186 3265 4956 1455 3501 3464 723 3568 3290 3062 2007 4116 2240 1535 2502 2780 855 788 1876 756 1433 1910 1055 633 601 705 171 680 123 5471 1120 368 752
is_linear=0
shrinkage=0.1


Tree=12
num_leaves=61
num_cat=0
split_feature=39 30 42 59 129 72 74 38 132 104 82 108 29 114 105 125 28 27 130 93 108 73 37 50 54 44 105 104 47 131 51 59 97 130 133 6 0 123 60 28 94 131 104 129 118 32 73 52 107 17 50 49 45 117 52 8 74 30 74 41
split_gain=433.277 526.782 813.008 838.494 650.365 548.351 524.696 521.017 512.391 442.265 436.657 415.855 291.697 380.528 274.141 259.364 253.236 251.097 243.768 237.783 220.719 381.895 284.69 261.507 185.452 320.139 176.323 151.329 221.656 145.49 222.915 127.806 123.469 123.397 110.159 102.803 88.5907 87.9207 83.8437 82.2151 73.5012 71.9641 77.8357 63.8468 59.2419 48.9885 48.1099 40.1103 44.738 39.4186 36.5181 33.0262 27.4299 24.0063 30.7665 13.9371 0.657626 0.33517 0.0440722 0.0439134
threshold=1.0355293750762942 1.0516170859336855 1.0530952215194704 0.79723876714706432 1.0000000180025095e-35 -0.64397889375686634 -0.9235723316669463 0.89549788832664501 1.0000000180025095e-35 -0.80920290946960438 -1.4383479356765745 -0.81498658657073964 1.2141367197036745 -0.96865931153297413 -0.89085951447486866 -1.307355463504791 1.1535615324974062 1.2314003705978396 1.0000000180025095e-35 -0.9848245084285735 -1.0533991456031797 -0.7050977051258086 0.99950826168060314 1.1880298852920534 1.0110501646995547 1.113251328468323 -0.88471773266792286 -0.77332571148872364 1.2490778565406802 1.0000000180025095e-35 1.1007835268974306 0.81327319145202648 -0.81053379178047169 1.0000000180025095e-35 1.0000000180025095e-35 0.4771085679531098 0.26795314252376562 -2.19474184513092 0.8160100281238557 1.1327182054519656 -0.89314982295036305 1.0000000180025095e-35 -0.75531762838363636 1.0000000180025095e-35 -0.97799992561340321 0.96647194027900707 -0.78281781077384938 1.1390628814697268 -1.0030768513679502 0.97457492351531994 1.2130746841430666 1.2238432765007021 1.1712431907653811 -0.91333720088005055 0.71219179034233104 0.91376942396163952 -0.43454009294509882 0.99006640911102306 -0.39890541136264795 1.1094591021537783
decision_type=2 2 2 2 2 2 2 2 2 2 2 2 2 2 2 2 2 2 2 2 2 2 2 2 2 2 2 2 2 2 2 2 2 2 2 2 2 2 2 2 2 2 2 2 2 2 2 2 2 2 2 2 2 2 2 2 2 2 2 2
left_child=1 7 3 4 8 -6 9 12 -3 19 29 14 13 18 -12 -13 31 -18 -1 -4 23 32 27 34 33 -26 56 43 -29 30 -9 -5 36 -8 47 40 49 50 -38 -31 -34 42 -24 -23 -15 -37 -11 52 -49 -22 -28 -39 -2 54 -14 -55 59 -43 -58 -25
right_child=20 2 6 16 5 -7 24 10 -10 46 11 15 53 44 -16 -17 17 -19 -20 -21 21 22 41 26 25 -27 37 28 -30 39 -32 -33 35 -35 -36 45 38 51 -40 -41 -42 57 -44 -45 -46 -47 -48 48 -50 -51 -52 -53 -54 55 -56 -57 58 -59 -60 -61
leaf_value=-0.006264460908466456 0.11952189014113029 0.051333420108603936 0.11194672978942447 0.083489778602694451 0.020535091525267338 -0.11177165247686663 0.086879169034093262 0.035932936713664314 0.10072186810246526 -0.14401923478970816 0.060533343284740894 -0.10004730400924751 0.18609778858059545 0.1641338201351413 0.035830874221445361 0.068265942776166141 -0.049658304415767143 0.050526700905582506 0.12103993248120676 0.18449996144050912 0.012221454130598169 0.042779878444448291 0.094477700226152608 -0.13850535629100205 0.018547294159496769 0.089418700526477601 -0.14144613099211251 -0.076179561086043596 0.083432182110369096 0.04457639076834885 0.11001768473022122 -0.089925457329304681 0.16985273668548817 0.2205995284823056 0.15013045699500069 -0.12364562468550191 0.098632450457753651 0.10791190379252945 -0.010136279535949687 0.20279693292388845 0.029672640257739726 -0.14231667729693948 0.015545077342420846 -0.027411824779427531 -0.11252716729703738 0.02560786651200779 0.016366358758577448 0.04477360828764524 -0.15795738134461088 0.1628757047925615 0.12828909211694009 0.13637385382743558 -0.13569225245122926 0.2401062107944171 -0.051580487916335516 0.15161626577806772 -0.12852768502219505 -0.17772830100444328 -0.11453077586610674 -0.15075534724452389
leaf_weight=1941.8966691419482 4.5180012434720984 54921.868616700172 2001.4637840539217 320.40110900998116 2113.5409067869186 367.75864008069038 200.85922141373158 709.09934647381306 2184.1757890731096 63.722483858466148 5278.2645849213004 344.22592303156853 10.199397534132006 7.9097312577068797 30180.330152574927 124.72616599500179 1348.992817029357 307.1265824586153 163.04317469894886 583.38449211418629 18.544128149747849 673.46286164224148 698.45837454497814 4.4246602505445507 1414.8361931741238 1159.9134042114019 18.769068498164419 387.32672966271639 112.21282710507512 41.661186382174492 950.63498155027628 48.998078241944313 55.03106689453125 105.12869927287102 29.314380928874016 49.812557443976402 1285.1908273994923 1248.0588783994317 75.00612610578537 155.13664411753416 116.77718342840672 4.0080478340387335 152.14268478751183 160.46599212288857 360.3833523876965 39.37338088452816 26.472360327839851 44.33819367736578 14.427105970680712 273.73200587928295 6.8513525128364554 605.47237671911716 62.033328142017126 24.602874755859375 11.686785817146299 64.354918837547302 2.6713777631521252 8.0234192311763746 14.247125398367642 8.6417738795280439
leaf_count=6649 9 116319 3123 596 5112 1368 358 1771 2648 259 12009 1453 8 17 84703 283 4356 767 340 582 48 1694 1184 23 3614 1931 133 1933 245 103 1874 173 51 76 29 236 1960 1084 263 111 295 21 433 538 6209 109 66 114 68 285 10 306 350 15 40 56 17 34 143 40
internal_value=0 0.0467717 0.0521976 0.0488939 0.0510447 0.00092563 0.0888352 0.0377435 0.0532224 0.120726 0.0407145 0.0382708 -0.00569837 -0.0128111 0.039508 -0.0552814 -0.0143798 -0.031079 0.00359621 0.128322 0.074014 0.0606143 0.0321594 0.100697 0.0592213 0.0504746 0.110827 0.00320051 -0.0403256 0.0880055 0.078366 0.0604875 0.0932724 0.132822 -0.0243816 0.0293548 0.103368 0.114666 0.0926346 0.169302 0.074573 0.0769243 0.0803594 0.0292735 -0.106585 -0.0577539 -0.0969458 -0.0652039 -0.00499763 0.153317 -0.0693142 0.117209 -0.118366 0.153006 0.0591823 0.17609 -0.129756 -0.165932 -0.116741 -0.146607
internal_weight=0 107537 67168.6 61612.9 59587.3 2481.3 5555.78 40368.2 57106 2675.04 37784.1 35927.5 2584.08 2473.23 35458.6 468.952 2025.52 1656.12 2104.94 2584.85 6173.34 4109.57 2196.1 2063.77 2880.74 2574.75 1909.14 1333.47 499.54 1856.53 1659.73 369.399 1913.47 305.988 154.631 260.994 1652.47 1879.15 1360.2 196.798 171.808 862.633 850.601 833.929 368.293 89.1859 90.1948 125.317 58.7653 292.276 25.6204 1853.53 66.5513 110.844 21.8862 88.9578 29.9849 12.0315 16.9185 13.0664
internal_count=268644 256989 141348 131339 125447 6480 10009 115641 118967 4030 102307 98448 13334 13215 96712 1736 5892 5123 6989 3705 11655 9329 6082 2326 5979 5545 1756 4410 2178 3859 3645 769 3247 434 570 691 2556 1533 2223 214 346 1672 1617 2232 6226 345 325 541 182 333 143 1390 359 119 48 71 223 55 160 63
is_linear=0
shrinkage=0.1


Tree=13
num_leaves=61
num_cat=0
split_feature=41 1 31 136 31 109 134 32 73 136 30 71 0 75 42 101 29 127 30 102 112 121 129 108 30 102 30 114 32 46 60 47 47 72 30 66 73 81 105 53 71 24 32 109 70 35 113 62 37 98 105 49 52 63 47 109 75 74 123 4
split_gain=393.331 391.304 610.551 682.247 969.648 913.824 797.997 789.081 1333.46 508.486 915.476 415.836 633.495 414.74 376 372.129 343.785 304.293 273.549 518.122 253.76 247.01 164.159 158.509 155.904 242.98 194.06 129.831 103.728 114.947 140.809 123.628 95.178 90.2154 77.4931 70.9027 63.9992 58.2083 57.9301 81.1041 45.7578 66.5147 57.9248 44.4573 43.1764 60.031 42.4229 45.0286 39.0041 37.584 29.0692 23.1687 16.8643 11.3618 9.38504 9.31497 3.2967 0.764844 0.731273 0.202941
threshold=1.1120465993881228 0.63150152564048778 0.99931722879409801 1.0000000180025095e-35 1.0052412152290346 -0.92489933967590321 1.0000000180025095e-35 0.9599091410636903 -0.79404693841934193 1.0000000180025095e-35 1.0539558529853823 -0.62241044640541066 0.54925599694252025 -1.1178997159004209 0.83676216006279003 -0.94414904713630665 1.1613107323646548 -1.7726833820343015 1.0938686132431032 -0.94087013602256764 -0.90618136525154103 -1.2181441783905027 1.0000000180025095e-35 -1.0533991456031797 1.0980192422866824 -0.93859994411468495 1.0808718204498293 -1.0477008223533628 0.94943961501121532 1.2435383796691897 0.86719027161598217 1.222175717353821 1.2243422865867617 -0.53918704390525807 1.1107276678085329 -0.22654870897531507 -0.38834464550018305 -0.89174270629882801 -0.81136652827262867 1.1533640623092654 -0.33862070739269251 1.2253538966178896 0.95531263947486889 -1.115881562232971 -0.13569556176662442 0.96220749616622936 -1.3677029013633726 0.69446754455566417 0.97924110293388378 -0.57743585109710682 -0.83761575818061818 1.2205765247344973 1.1489355564117434 0.58573821187019359 1.222175717353821 -0.80942854285240162 -0.4377864003181457 -0.39890541136264795 -2.19474184513092 0.72539675235748302
decision_type=2 2 2 2 2 2 2 2 2 2 2 2 2 2 2 2 2 2 2 2 2 2 2 2 2 2 2 2 2 2 2 2 2 2 2 2 2 2 2 2 2 2 2 2 2 2 2 2 2 2 2 2 2 2 2 2 2 2 2 2
left_child=1 2 9 4 6 -6 -4 8 -5 11 21 15 -13 -12 16 -1 27 -9 20 -20 -18 -11 24 32 26 -26 -16 35 29 31 43 50 36 -33 59 -3 46 -32 48 58 41 42 -30 -31 52 -46 54 -48 51 -50 -25 -34 -42 -43 -2 -29 -38 -58 -40 -24
right_child=23 14 3 7 5 -7 -8 17 -10 10 13 12 -14 -15 22 -17 18 -19 19 -21 -22 -23 34 28 25 -27 -28 55 40 30 37 33 38 -35 -36 -37 56 -39 39 -41 44 53 -44 -45 45 -47 47 -49 49 -51 -52 -53 -54 -55 -56 -57 57 -59 -60 -61
leaf_value=0.049713956409010135 0.053650129942562658 0.12347823707407822 0.041882969138429212 0.068786196163722377 0.052655992103285122 -0.00063469770254690199 0.081423405841388796 0.080748257680498536 -0.069515036444427233 -0.0071358953999675319 -0.069423905264502067 0.036172293554934627 0.08242146487971061 0.052746708964054867 0.065184556269826277 -0.016162012571966505 0.071031897361897245 0.13162795986823883 0.068406323310511358 -0.059103148328126444 -0.11135052250343754 -0.08089470713114677 -0.18560347062456756 0.0089019309571855363 0.087922060697847249 -0.097576006912795443 0.12871718021523834 -0.14289441696324262 0.076970683297373346 0.20398354387221571 0.064169922623547357 0.14189588052211255 0.10335806833080119 -0.12179468760797429 0.21055619319253133 -0.052292689134824294 -0.24488836482103774 -0.094721127738914515 -0.12393626814196322 0.21477319412474444 0.084784503313465362 0.14725048354913123 -0.17365431593555788 0.068865264152320055 -0.16087847381740131 0.071343668346804598 0.055625886320237607 -0.22251529140641402 -0.14306992167841429 0.082326622963476315 0.17439262980109518 0.13160556710764215 0.13841680240250645 0.04084455947397507 0.14583591223194597 -0.094796522667962138 -0.16683682526244104 -0.10807339590353937 -0.16501105230432245 -0.1676673180295159
leaf_weight=1269.7870440036058 20.816542610526085 45.550549477338791 14682.224918231368 3855.7877798080444 5508.8362578004599 7737.2839021459222 7824.0137216597795 2935.2695033699274 851.0218241661787 756.61418306082487 313.41939252614975 47124.557002138346 3160.277578741312 2449.8804299235344 713.24114197492599 2641.0879690945148 3885.8414848595858 1960.5621586591005 756.57788978517056 550.58217646181583 77.815899260342121 1135.325182877481 8.6007660478353483 19.018013596534729 253.50615893304348 97.878275498747826 1475.0928195565939 61.955672603100538 14.754811659455298 58.192891024053097 41.843100190162659 14.54144176840782 501.44374722614884 120.40719053149223 6.3168649375438681 46.25190007686615 5.3195692002773276 51.351405411958694 6.9081415310502079 9.1019982546567899 89.296307280659676 23.712834671139717 24.591624543070793 41.872556753456593 12.200902149081228 127.04854579269886 13.6524905115366 10.146014407277105 10.776024006307123 23.598838537931442 24.01992329955101 689.78582077473402 170.71838460862637 17.397186398506165 23.522760137915611 115.01136775314808 6.7344642914831629 3.3004030361771575 11.633904173970224 23.666752979159355
leaf_count=2940 35 70 31990 6614 11141 20425 13277 4847 2771 2534 1033 124808 4969 5217 1192 8574 6409 2119 1317 1929 282 4385 35 46 324 319 1382 320 28 25 74 14 398 629 3 177 25 312 50 5 144 18 104 70 58 232 28 49 74 26 22 344 150 28 11 4000 38 54 51 99
internal_value=0 0.0422789 0.0406315 0.0493508 0.0429945 0.021528 0.0556287 0.0730163 0.0437804 0.0339118 0.00219611 0.0366361 0.0390789 0.0388899 0.0634258 0.00522667 0.0487433 0.101123 0.0543687 0.0146987 0.0674513 -0.0513975 0.0949717 0.0850917 0.0980819 0.0362515 0.10801 -0.0615767 0.0513552 0.0116676 0.0650676 -0.0463147 0.106568 -0.0933806 -0.109744 0.0349213 0.00318735 -0.0233811 0.113456 -0.0297 0.0820687 0.0132687 -0.0796706 0.147443 0.0959327 0.0509966 0.0447485 -0.062954 0.116684 0.0116681 0.101264 0.119715 0.119998 0.102221 0.102556 -0.111635 -0.181247 -0.14751 -0.149708 -0.172448
internal_weight=0 112324 104206 45355 35752.4 13246.1 22506.2 9602.64 4706.81 58850.9 4655.24 54195.7 50284.8 2763.3 8117.89 3910.88 5539.59 4895.83 5270.82 1307.16 3963.66 1891.94 2578.3 2187.71 2539.72 351.384 2188.33 268.769 850.967 371.247 193.26 177.987 1336.74 134.949 38.5844 91.8024 83.4922 93.1945 1253.25 27.644 479.721 80.4565 39.3464 100.065 399.264 139.249 68.1378 23.7985 1225.6 34.3749 43.0379 1191.23 260.015 41.11 44.3393 176.967 15.3544 10.0349 18.542 32.2675
internal_count=268644 265502 247644 93184 76833 31566 45267 16351 9385 154460 13169 141291 129777 6250 17858 11514 14504 6966 9937 3246 6691 6919 3354 3142 3217 643 2574 4567 1954 1192 481 711 1188 643 137 247 240 386 948 106 762 178 132 95 584 290 123 77 842 100 68 742 294 46 46 4320 117 92 101 134
is_linear=0
shrinkage=0.1


Tree=14
num_leaves=57
num_cat=0
split_feature=39 110 117 1 30 38 73 108 126 112 53 32 122 52 73 42 43 123 122 70 63 111 58 92 53 109 105 35 121 133 79 63 47 122 37 97 117 69 37 37 25 33 71 33 66 118 97 47 80 121 50 39 59 74 58 69
split_gain=382.736 497.14 529.909 485.272 395.513 481.254 441.759 336.797 607.674 402.963 374.872 248.323 213.025 294.448 202.831 187.536 176.038 162.963 153.119 149.531 151.938 140.066 166.164 150.174 141.563 236.936 133.502 149.046 213.675 115.344 102.879 100.851 104.495 75.5065 69.6566 61.5064 62.4365 51.0018 49.1201 46.4046 47.2461 32.0259 31.9609 111.134 31.4461 28.8307 27.176 24.4441 24.0661 19.8104 1.77088 1.42692 0.816193 0.131103 0.0824315 0.0157576
threshold=1.0279103517532351 -1.1875658631324766 -1.5430002212524412 -0.15717912465333936 1.0589279532432558 0.89785641431808483 -0.73028773069381703 -1.0639208555221555 -1.8407075405120847 -0.98185083270072926 1.1075047850608828 0.88924613595008861 -1.3689908385276792 1.1746212244033816 -0.35928562283515925 1.1170892119407656 1.1287046670913699 -1.4406309723854063 -2.0118563175201412 -0.17813097685575482 0.52490487694740307 -1.2781451344490049 0.89080911874771129 -0.29026022553443903 1.0900203585624697 -1.1245234012603758 -0.77361536026000965 0.95176225900650036 -1.1429293155670164 1.0000000180025095e-35 -0.26845489442348475 0.6182219684123994 1.1897169351577761 -1.2860169410705564 0.94606047868728649 -0.45517627894878382 -1.5372558236122129 -0.012981514446437357 0.93124833703041088 0.98155906796455394 1.1067237854003908 0.87465623021125805 -0.25841844081878657 0.86871382594108593 0.31351165473461157 -1.5347201228141782 -0.82262516021728505 1.2403802871704104 -0.23722479492425916 -1.8576750159263609 1.1858435273170473 1.0366793274879458 0.87347576022148143 -0.55814635753631581 0.93043535947799694 -0.0281829759478569
decision_type=2 2 2 2 2 2 2 2 2 2 2 2 2 2 2 2 2 2 2 2 2 2 2 2 2 2 2 2 2 2 2 2 2 2 2 2 2 2 2 2 2 2 2 2 2 2 2 2 2 2 2 2 2 2 2 2
left_child=1 11 18 35 5 -5 -6 10 9 12 29 21 13 -9 39 46 -14 -17 30 20 38 22 41 -24 25 -23 31 28 -28 42 49 33 -33 -10 -26 -4 -37 -29 -13 40 -12 -1 43 -2 -22 -41 -11 52 -32 -3 -20 -44 -16 -21 -52 -55
right_child=7 2 3 4 6 -7 -8 8 26 15 14 19 16 -15 47 17 -18 -19 50 53 44 24 23 -25 34 -27 27 37 -30 -31 48 32 -34 -35 -36 36 -38 -39 -40 45 -42 -43 51 -45 -46 -47 -48 -49 -50 -51 54 -53 -54 55 -56 -57
leaf_value=-0.14455656911514547 0.28330910003980858 0.14314822821526782 0.20321882524158796 -0.0036802246517123223 0.041562648280763392 0.033841228786975014 0.087200733991086563 0.0089858332561208228 0.078981443083089423 -0.1357865629589213 0.10736104404552201 0.020978094633798988 -0.027449691619315177 0.076159353608995187 -0.15542651994729886 -0.069929066838067114 0.11921109621660848 0.076087712277676856 -0.1913795910382311 -0.16024860382567774 0.12131739687213922 -0.045923111345727276 0.22376707463431456 -0.089660570014085395 -0.11806859410913642 0.18757251964444663 -0.11512103352227741 -0.091467514890615151 0.065211016582754563 0.12547182389586925 0.1811955504652045 -0.16135256705234627 0.063676293998131406 0.11807559801271733 -0.047794695085103145 0.010727428401064125 -0.10880958096400931 0.10270205045524201 -0.17081498357243863 0.081241257750070336 0.16914770785770628 0.14603686490661424 -0.1584074809768167 -0.11245591146448242 0.22600539195150984 -0.14748107219320838 -0.075524163155929205 0.079630972641511158 -0.12133691697745706 0.082917884337223871 -0.13894544875797321 -0.12783676122592155 -0.12076680888196008 -0.14603655441152538 -0.12053766319156234 -0.13995094985802739
leaf_weight=34.841077849268913 8.6168617010116559 620.68396154046059 7.3254729285836211 3687.4997638352215 50773.776816211641 46831.435250844806 2213.4101845175028 2390.1924747303128 852.28703597187996 155.83307909220457 1744.1777122616768 44.884591326117516 99.134548112750053 897.60457204654813 8.6067383699119073 150.05021432042122 469.19422535598278 155.79146748781204 5.0856398195028332 4.1936808675527599 114.37335044145584 254.04030852019787 57.010667070746422 20.887831211090088 351.05474134162068 52.427078530192375 114.61801217496395 14.259789630770682 153.97401782870293 26.759914979338646 3.0438036918640163 28.912719190120697 72.083492830395699 1175.3374066203833 235.78737397491932 51.969698213040829 274.43772153742611 263.48920748382807 19.00861756503582 10.920409113168718 133.21088348329067 4.2557905018329611 46.219285048544407 40.182016730308533 38.301524221897125 11.12591505050659 143.96779719740152 6.5786014609038821 19.314946763217449 59.876849383115768 2.9685152471065548 22.800022080540657 32.263458628207445 5.3531360328197506 13.477908603847025 20.738072842359543
leaf_count=168 7 422 20 15336 103816 115617 3650 7195 1511 779 1632 111 285 1959 42 667 664 298 21 18 173 951 50 93 2030 20 617 49 370 31 1 133 128 1555 1004 279 4149 391 79 14 148 9 206 190 29 57 720 18 158 85 16 153 295 25 98 102
internal_value=0 0.0368881 0.0376396 0.037045 0.0374332 0.0311024 0.0434691 0.0581228 0.0477809 0.025187 0.0934127 -0.0256219 0.037097 0.0273249 0.10495 -0.050644 0.0936288 0.00444983 0.122868 0.0642908 0.0933954 -0.0475907 0.0552953 0.139724 -0.0610655 -0.00597924 0.085467 0.0413706 -0.0117432 -0.0619459 0.130915 0.0967849 -0.000743907 0.101643 -0.0898332 -0.0833459 -0.0897772 0.0927333 -0.0360815 0.110051 0.111745 -0.112925 -0.104514 -0.0425721 0.14758 -0.0341859 -0.106848 -0.0992693 -0.0801517 0.137849 -0.139808 -0.148309 -0.128066 -0.143837 -0.12386 -0.1412
internal_weight=0 105821 104564 103840 103506 50518.9 52987.2 9228.19 7136.73 4461.77 2091.46 1257.16 3856.13 3287.8 1946.88 605.643 568.329 305.842 724.452 246.853 216.568 1010.3 116.995 77.8985 893.31 306.467 2674.96 546.341 268.592 144.578 702.92 2128.62 100.996 2027.62 586.842 333.733 326.407 277.749 63.8932 1899.43 1877.39 39.0969 117.818 48.7989 152.675 22.0463 299.801 47.4488 22.3588 680.561 21.5321 69.0193 40.8702 30.2849 16.4464 26.0912
internal_count=268644 248530 243668 242867 238419 130953 107466 20114 17321 12567 2793 4862 10103 9154 2206 2464 949 965 801 537 392 4325 320 143 4005 971 4754 1427 987 587 666 3327 261 3066 3034 4448 4428 440 190 1851 1780 177 556 197 202 71 1499 355 159 507 135 359 337 145 114 127
is_linear=0
shrinkage=0.1


Tree=15
num_leaves=54
num_cat=0
split_feature=116 100 2 62 96 31 32 75 30 74 30 103 71 68 1 118 77 33 112 80 111 123 75 71 112 101 105 103 120 47 60 72 127 115 51 37 33 33 2 54 56 5 57 49 115 53 13 70 57 33 112 57 80
split_gain=337.476 475.267 342.675 446.78 416.341 440.357 318.736 347.039 315.075 281.337 241.411 363.759 224.212 219.854 202.508 188.619 134.872 131.053 133.466 116.428 116.34 122.338 129.985 103.021 97.1907 90.8365 73.9522 73.0749 40.6409 36.9191 60.3952 31.1739 80.2514 26.9771 14.5705 10.4101 17.5079 1.16731 0.62555 0.377304 0.363974 0.243354 0.204472 0.203322 0.202482 0.158625 0.0959214 0.0624466 0.0432654 0.0323485 0.0264195 0.0254128 0.015568
threshold=-1.4951525926589964 -0.48423226177692408 0.62984541058540355 0.32553605735301977 -1.0405401587486265 0.99931722879409801 0.85715496540069591 -1.1091827750205991 1.0980192422866824 -1.0631645321846006 1.0938686132431032 -0.93027043342590321 -0.61904361844062794 0.14044883102178576 0.63150152564048778 -1.6228370070457456 -0.51196470856666554 0.85634154081344616 -1.3148997426033018 -0.23722479492425916 -1.2480324506759641 -2.19474184513092 -0.44972302019596094 -0.25078244507312769 -1.3023996353149412 -0.8953290283679961 -0.87625762820243824 -0.89145231246948231 -1.6907259821891782 1.1686897873878481 0.7594222128391267 -0.27433210611343378 -3.4181063175201412 -0.91509631276130665 1.175069332122803 0.94870132207870495 0.85178059339523327 0.86871382594108593 -0.13290125131607053 1.0829060077667239 1.0116268992424013 -0.084657080471515642 0.97002494335174572 1.2062450647354128 -1.4391408562660215 1.1164623498916628 1.0000000180025095e-35 -0.10235992446541785 0.9391264319419862 0.887302726507187 -1.3355174660682676 0.97002494335174572 -0.23722479492425916
decision_type=2 2 2 2 2 2 2 2 2 2 2 2 2 2 2 2 2 2 2 2 2 2 2 2 2 2 2 2 2 2 2 2 2 2 2 2 2 2 2 2 2 2 2 2 2 2 2 2 2 2 2 2 2
left_child=13 2 3 12 9 -6 7 33 -9 -5 14 -12 27 17 -8 20 28 29 23 24 21 34 -23 26 -18 -14 -19 -2 37 30 50 38 41 -4 -15 40 -37 -17 44 47 -31 52 -21 49 45 -3 -46 -40 -25 -20 -1 -41 -33
right_child=1 31 6 4 5 -7 10 8 -10 -11 11 -13 25 15 -16 16 19 18 43 42 -22 22 -24 48 -26 -27 -28 -29 -30 35 -32 32 -34 -35 -36 36 -38 -39 39 51 -42 -43 -44 -45 46 -47 -48 -49 -50 -51 -52 -53 -54
leaf_value=-0.13129080723481146 -0.10439163668213647 -0.12731683437465993 -0.049740469067350468 0.03202267074849597 0.027090966979607514 0.040615177625369571 0.056034827243456098 0.040957887634235177 -0.07304214514615226 -0.071433013366607331 0.073078410579230244 -0.0050437327427901892 0.11163600541964802 -0.15042162101504772 0.093678901055505054 -0.14060293900001294 0.076941075073013065 -0.03210630007527783 -0.1366727003021638 -0.13145672449084247 0.14188086481801856 -0.13210440536770934 0.10857670341339523 -0.13395596624424186 0.12406047318908281 -0.11751827467923798 0.17540646492372855 0.04304829079311559 0.14116064552751625 -0.13441813675002909 0.21333109586220669 -0.11904992474207142 0.1733201389934248 -0.12306849221922574 -0.073727820398323943 0.11597420149480503 -0.14047497598645717 -0.18754230568229591 -0.12949989094919212 -0.12126742568827878 -0.11980493303190537 -0.13689730427972352 -0.11270413125706434 -0.15900926531876125 -0.10237526811710576 -0.11249080041559419 -0.10892916210678638 -0.14178401912537952 -0.1451554254496292 -0.12632685703950586 -0.14174018190958015 -0.1117865046999022 -0.10842559806459694
leaf_weight=3.8981423527002335 390.89545799791813 8.7115726545453054 80.223873451352119 445.21469680219889 53502.945300348103 43773.39050539583 3334.6494175344706 4360.189844192937 256.71399362385273 641.74111209064722 1203.9117812812328 1180.4232876896858 89.966231048107147 58.689232647418976 2500.7338011786342 25.024988196790222 2092.7652508467436 21.92869645357132 24.155951753258712 8.2402813434600848 42.568281345069408 32.224593780934811 73.895577032119036 11.916853360831739 553.53326266258955 21.416141301393509 79.198280222713947 36.778147207573056 5.6221182793378821 69.83575651049614 9.3619348853826505 1.4569226354360605 14.461527757346628 133.92994252964854 42.863627813756466 4.772989094257353 6.0195982679724693 6.7208661064505568 9.3218678236007708 3.586184628307822 22.547240383923054 3.5289741083979633 19.751324005424976 4.1940967217087737 27.399910468608141 42.046664539724588 120.72282494232059 7.4420524239540091 4.8546430990099898 3.4543815851211539 6.3792140334844607 13.357622217386959 25.855877280235291
leaf_count=22 1627 55 230 1078 136455 88700 5605 8694 1014 2330 1769 2982 118 324 2951 132 3363 83 125 50 31 218 91 64 518 81 148 102 4 378 5 11 17 4131 310 13 31 31 56 26 173 22 214 21 1209 509 1867 39 24 21 31 160 381
internal_value=0 0.033677 0.0340012 0.0319915 0.032489 0.0331767 0.0492315 0.0288467 0.0346191 -0.0290578 0.0612124 0.0344021 -0.0587996 0.0664407 0.0721671 0.0743489 0.0820149 -0.0195115 0.0432997 0.0846512 -0.00872126 -0.0395913 0.0354912 0.0923407 0.0867972 0.0675752 0.130409 -0.0917124 -0.106653 -0.096074 0.0295943 -0.0969379 -0.0210474 -0.0955992 -0.118051 -0.119995 -0.0270611 -0.15054 -0.11172 -0.124317 -0.130852 -0.112185 -0.118225 -0.138495 -0.109585 -0.115035 -0.107717 -0.134953 -0.137198 -0.135378 -0.137777 -0.113793 -0.108992
internal_weight=0 112231 111953 98902.3 98363.3 97276.3 13050.8 4831.06 4616.9 1086.96 8219.72 2384.34 539.056 3234.42 5835.38 2961.9 2711.66 272.518 149.703 2674.29 250.241 207.673 106.12 117.898 2646.3 111.382 101.127 427.674 37.368 122.815 19.6393 277.892 45.3033 214.154 101.553 103.176 10.7926 31.7459 232.589 33.7077 92.383 30.8418 27.9916 31.8044 198.881 50.7582 148.123 16.7639 16.7715 27.6103 10.2774 16.9438 27.3128
internal_count=268644 262219 257867 230491 228563 225155 27376 14069 9708 3408 13307 4751 1928 6425 8556 5286 4312 1139 486 4145 974 943 309 319 3881 199 231 1729 167 653 58 4352 431 4361 634 595 44 163 3921 281 551 414 264 167 3640 564 3076 95 88 146 53 186 392
is_linear=0
shrinkage=0.1


Tree=16
num_leaves=60
num_cat=0
split_feature=40 74 43 108 56 107 32 48 73 135 127 127 95 58 116 51 105 108 30 104 30 109 38 105 29 55 72 61 108 50 129 124 50 104 119 108 124 41 106 114 72 73 56 102 87 68 124 47 51 48 106 60 77 109 102 43 74 99 35
split_gain=330.408 350.129 507.9 723.686 506.994 486.263 661.953 638.096 882.266 466.682 822.187 457.193 872.119 414.084 409.102 387.648 1471.69 675.996 350.648 492.16 352.068 347.119 410.619 261.081 257.757 227.564 431.807 225.02 214.593 182.988 177.708 162.116 210.865 250.025 151.707 149.313 203.95 123.049 106.666 98.9165 95.465 83.4688 75.6904 66.1776 59.6603 116.929 54.4484 29.9583 29.6569 29.1348 21.2828 19.6692 17.9641 17.7092 1.0188 0.399377 0.175038 0.120306 0.0308267
threshold=1.0699194669723513 -0.94049647450447071 1.0569553971290591 -0.89820224046707142 0.94080486893653881 -0.95986023545265187 0.91903850436210643 1.1604470014572146 -0.7183822989463805 1.0000000180025095e-35 -2.0091658830642696 -1.6993525624275205 -0.98301026225090016 0.85995277762413036 -1.4951525926589964 1.1569460630416872 -0.8399384319782256 -1.0682659745216367 1.1033944487571719 -0.93041804432868946 1.0667168498039248 -0.92177346348762501 0.94661065936088573 -0.87411013245582569 1.0855366587638857 0.89479300379753124 -0.60704866051673878 0.63585248589515697 -1.0639208555221555 1.1880298852920534 1.0000000180025095e-35 -1.643386662006378 1.2175518274307253 -0.76451516151428212 -1.1276529431343076 -1.0428778529167173 -2.0446177721023555 1.1200563907623293 -0.94720947742462147 -1.0714939832687376 -0.48863922059535975 -0.80720126628875721 0.96808391809463512 -0.71639493107795704 -1.1415038108825681 0.11957117170095445 -2.4076172113418575 1.222175717353821 1.1944881081581118 1.2274186015129092 -0.96006274223327626 0.86719027161598217 -1.1535526514053343 -1.1560211181640623 -0.72153371572494496 1.1559339165687563 -0.42437571287155146 -0.74137377738952626 0.96220749616622936
decision_type=2 2 2 2 2 2 2 2 2 2 2 2 2 2 2 2 2 2 2 2 2 2 2 2 2 2 2 2 2 2 2 2 2 2 2 2 2 2 2 2 2 2 2 2 2 2 2 2 2 2 2 2 2 2 2 2 2 2 2
left_child=1 2 4 27 18 6 15 9 24 10 -7 12 -5 -13 -10 16 -3 -17 20 -20 -1 30 -23 -11 -9 39 -27 41 29 43 -6 32 33 42 -29 51 -37 -35 54 -8 44 -4 -30 50 45 -33 48 53 -40 -48 -2 -34 -46 -45 56 58 -31 -57 -42
right_child=28 5 3 11 21 7 25 8 14 23 -12 13 -14 -15 -16 17 -18 -19 19 -21 -22 22 -24 -25 -26 26 -28 34 31 38 -32 40 35 37 -36 36 -38 -39 46 -41 55 -43 -44 47 52 -47 49 -49 -50 -51 -52 -53 -54 -55 -56 57 -58 -59 -60
leaf_value=0.02157647616702207 -0.046245827850729719 0.012994812937790038 0.16460447513786697 -0.067186248993238648 0.030910201997883469 -0.033901103324441836 0.10092923936706084 0.047506638922226389 0.093236318163563758 0.031472530029919531 0.013983590736922437 0.093297887429531878 0.040537419091284346 0.036831552208771282 -0.014322375197972279 0.073937127999451777 0.12968904006984841 -0.065681969067913931 0.032906957864541141 -0.11812892093011761 0.041135047150574568 -0.051334355478761196 0.034669246146825608 0.11050838694241175 0.093885526831362934 0.017167138687751726 0.066509575305677179 -0.1258224138238456 -0.16146834026958551 -0.13201250626857122 0.18649159944130167 -0.097387967403360254 0.12804317860192649 -0.10311504614484779 0.090289068647600973 -0.12088814408638948 0.066033669507987058 0.045742253250140683 -0.09277589538247874 -0.068226134650682266 -0.12389213959049146 -0.009725256612816105 0.033408911795707347 -0.050684649917770122 0.03930897253972767 0.07369280087644077 0.091690548623096974 0.075148066316420667 0.12314250237248135 0.12111846731078926 0.12966859267178768 0.050458704574870221 0.13550129123039875 -0.14934626348684399 -0.1863687854417598 -0.16843138124286564 -0.11189818172657613 -0.14543477254364476 -0.13447182222838511
leaf_weight=14054.848873451352 9.3531330749392492 8555.8041098155081 680.57430011034012 865.37454544007778 199.56506536900997 4449.7368441615254 1201.8408333212137 2738.3053262233734 406.59853613004088 1395.189559429884 18466.823973339051 2690.433689430356 5713.3924218416214 2510.5846880935133 2714.1109116505831 492.15018626302481 1236.9820629730821 1174.0272659249604 526.38391169905663 365.59242303669453 26663.438913494349 1690.5753754638135 826.57109654694796 596.70663578808308 2130.7571497559547 2668.1105265915394 5289.9593848437071 33.758690431714058 20.461866810917854 7.2360348328948065 116.14266054332256 42.12251777946949 272.98927089944482 278.52458665892482 859.25250017642975 76.621556190773845 245.07666268199682 69.359925497323275 22.100760538130999 35.593638300895691 6.8118408992886561 28.620094954967499 767.48930443078279 34.272493943572044 21.723056584596634 774.69748815149069 854.1485485509038 10.832480020821093 8.9323347955942172 555.04867486655712 25.982608325779438 37.119898788630962 182.68111370503902 38.776763597503304 2.6528026461601248 4.2816130816936493 10.759048249572515 4.8537392765283567 4.6234162300825119
leaf_count=36380 35 22268 528 2811 423 14283 1522 6732 701 3016 46238 4297 12559 5965 11628 1092 1263 5436 1063 1486 51053 5285 1759 1012 3816 5868 9973 136 94 41 76 142 226 1419 1334 534 406 148 145 98 45 71 1819 161 45 1329 808 17 7 341 37 84 172 207 11 19 131 24 25
internal_value=0 0.0299854 0.0353811 0.0524605 0.0302384 0.0241593 0.0361853 0.0166089 0.0411992 0.00872124 0.00468576 0.0438841 0.0263674 0.066041 -0.000308508 0.0201484 0.0277351 -0.0244417 0.0330253 -0.0289978 0.034384 -0.0106958 -0.0230928 0.0551491 0.0678026 0.0561698 0.0499665 0.115516 0.0579565 0.0874392 0.0881455 0.0413748 0.0229332 -0.00282643 0.0821194 0.0692428 0.0215129 -0.0734364 0.0971607 0.0960636 0.0726651 0.157569 0.0283483 -0.0316869 0.0769614 0.0648704 0.100396 -0.0800438 -0.0306276 0.103281 0.0831052 0.118756 0.125278 -0.103057 -0.128515 -0.140624 -0.119986 -0.156213 -0.12817
internal_weight=0 111378 57825.1 13382 44443.1 53552.7 20654.5 32898.2 7989.77 24908.5 22916.6 11779.8 6578.77 5201.02 3120.71 11459 9792.79 1666.18 41610.3 891.976 40718.3 2832.85 2517.15 1991.9 4869.06 9195.5 7958.07 1602.21 4389.53 1580.1 315.708 2809.44 1767.64 1135.84 893.011 631.807 321.698 347.885 1460.88 1237.43 1041.79 709.194 787.951 119.217 1021.22 816.82 1440.23 83.8817 31.0331 1409.2 35.3357 310.109 204.404 73.0493 20.6479 20.5706 17.9951 9.13535 11.4353
internal_count=268644 260172 125226 27701 97525 134946 47520 87426 22877 64549 60521 25632 15370 10262 12329 30059 23531 6528 89982 2549 87433 7543 7044 4028 10548 17461 15841 2069 8472 1941 499 6531 4730 3480 1470 1250 940 1567 1484 1620 1801 599 1913 457 1688 1471 1301 385 152 1149 72 310 217 368 183 113 172 43 70
is_linear=0
shrinkage=0.1


Tree=17
num_leaves=58
num_cat=0
split_feature=39 110 106 125 38 125 128 80 70 73 29 36 108 126 112 53 112 36 74 122 26 39 38 36 73 128 111 58 105 35 121 121 41 123 103 133 61 48 49 109 73 32 123 37 126 51 59 45 76 55 36 34 15 47 39 30 41
split_gain=309.376 373.533 370.761 1175.21 615.295 638.939 453.1 937.717 364.383 357.606 430.427 315.292 243.438 464.211 328.705 293.039 232.897 205.178 204.964 203.319 180.731 267.195 162.518 160.21 146.254 138.936 128.58 110.23 108.814 116.968 173.444 103.106 101.093 100.648 93.2202 89.4274 82.2977 145.03 82.2812 204.376 78.6238 74.5039 72.5837 64.9577 48.6588 41.7814 158.967 38.9249 29.1653 27.4933 24.2562 22.7871 18.4173 18.2561 0.442516 0.372293 0.107698
threshold=1.0279103517532351 -1.1875658631324766 -0.83119711279869068 -1.5708266496658323 0.97996848821640026 -1.4381109476089475 1.0000000180025095e-35 -1.3305450677871702 -0.18812595307826993 -0.93611109256744374 1.2418900132179262 0.91297063231468212 -1.0639208555221555 -1.8407075405120847 -0.98185083270072926 1.1075047850608828 -0.93672123551368702 0.89340478181839 -0.55814635753631581 -1.2647690773010252 1.1918053030967715 1.0406886339187624 1.0263618826866152 0.89062118530273449 -0.35928562283515925 1.0000000180025095e-35 -1.2781451344490049 0.89080911874771129 -0.77361536026000965 0.95176225900650036 -1.1429293155670164 -1.8659459948539732 0.95558243989944469 -1.4406309723854063 -0.82671943306922901 1.0000000180025095e-35 0.74652525782585155 1.1774874925613406 1.1763302683830263 -1.1245234012603758 -0.68217527866363514 0.87802922725677501 -1.384075343608856 0.94606047868728649 -1.7477166652679441 1.1729398965835574 0.8714403808116914 1.2051744461059573 -0.519599288702011 1.0371449589729311 0.95725005865097057 0.93170642852783214 1.1320341825485232 1.2403802871704104 1.0355293750762942 1.0411238074302676 1.0512821078300478
decision_type=2 2 2 2 2 2 2 2 2 2 2 2 2 2 2 2 2 2 2 2 2 2 2 2 2 2 2 2 2 2 2 2 2 2 2 2 2 2 2 2 2 2 2 2 2 2 2 2 2 2 2 2 2 2 2 2 2
left_child=1 18 6 16 5 -5 9 11 -6 32 -11 -8 15 14 20 35 19 -9 23 -4 21 -14 33 52 45 -22 27 48 36 30 -30 -29 -3 -16 56 49 42 -38 39 -28 -24 -36 -15 -40 -31 46 -17 -47 -20 51 -18 -2 55 54 -26 -1 -25
right_child=12 2 3 4 8 -7 7 17 -10 10 -12 -13 13 28 22 24 50 -19 26 -21 25 -23 40 34 53 -27 38 31 29 44 -32 -33 -34 -35 41 -37 37 -39 43 -41 -42 -43 -44 -45 -46 47 -48 -49 -50 -51 -52 -53 -54 -55 -56 -57 -58
leaf_value=-0.14976347681137234 -0.12023118741952366 0.064196845718651946 -0.068278251308769397 -0.051705450278873244 0.065742390249473148 0.021337254109340169 0.020173435024111858 -0.083380974150684906 -0.04961177086596158 0.03000208380025246 -0.071664597668974248 0.12491115221642608 -0.017126966484773496 0.064824905321686818 -0.12529102651634846 0.082755017250022975 -0.14093871415700193 -0.02101653154715338 0.14344387705129091 0.027800383285698754 0.080010961948675116 0.042346776033247054 0.087244190204584487 -0.16060343203295288 -0.13546381692613838 -0.16736978981683395 -0.062097917373573633 -0.14452518081500829 -0.11265453849847525 0.037237424152587066 0.05041908228293817 0.16105315953432353 0.17097267445111242 -0.032253881790595657 -0.1396143731755472 0.1028970125010979 -0.14262551569719589 0.059748828146319967 -0.12331027491000535 0.15996112605530885 -0.10345816244705518 0.098485016125470698 0.10469305006184038 -0.051999854014428117 0.12129334524871478 -0.016529485646984306 -0.15817164965815644 0.10223093744465289 -0.13738996092396591 0.15415713472007883 -0.079482880847164386 0.10880776718850743 0.060686019432445407 0.065532613803779796 -0.11319545170709287 -0.17960300974967816 -0.17791286608016965
leaf_weight=36.268642544746399 104.35739483311772 2364.5505606345832 914.25129593349993 1521.6756723970175 3342.2310652583838 5622.8825410660356 647.3986357524991 827.03219383582473 298.27457312121987 86838.445023039356 418.43639232218266 516.88418526947498 1302.5172902457416 797.93092252314091 236.1841507256031 286.78970535844564 363.04173047095537 1456.7951382100582 4.214138686656951 290.15738083422184 721.31030182540417 1798.3875707648695 102.5006727129221 9.9033564478158933 16.62208865582943 23.440823942422867 239.76135930418968 13.211369611322878 111.02059268206358 150.60809607803822 158.10344399511814 67.236418336629868 92.124732047319412 229.03250989317894 13.906263932585714 26.517381995916367 41.736044004559517 233.68775495886803 276.30477741360664 50.109133750200272 27.398102402687073 239.13762933015823 1067.6897508054972 237.57207375764847 126.89503510296345 28.154627598822117 30.277815237641335 1396.9071940258145 30.193743243813515 4.0656679049134246 78.027369916439056 4.5324752107262603 4.4641358852386466 5.9563314355909815 19.2684127073735 4.726029470562934 5.6425762921571723
leaf_count=169 539 3954 4186 4816 6681 17971 1447 2688 1061 191584 1670 678 4830 1397 1329 439 1764 4007 8 770 1291 3881 144 43 99 101 976 69 617 313 370 74 51 860 70 31 181 411 1814 22 131 400 1338 1008 127 79 119 1214 158 8 340 9 8 18 238 20 23
internal_value=0 0.0264033 0.0270422 0.0108202 0.0228303 0.00578034 0.0292067 -0.006366 0.0562912 0.0305739 0.0295145 0.0666718 0.045658 0.0371394 0.0172867 0.0772284 -0.0678985 -0.0436003 -0.0283265 -0.0451317 0.0279893 0.0173652 -0.0518738 0.0414138 0.0881421 0.0722247 -0.0521691 0.0468017 0.0699415 0.0301197 -0.016853 0.11087 0.0682009 -0.0794876 0.0707978 -0.0623672 0.0801083 0.0290823 -0.066312 -0.0237112 0.0470215 0.0854 0.0876413 -0.0903425 0.075674 0.0925798 0.0597481 0.0998846 -0.102995 -0.101165 -0.130067 -0.110698 -0.132199 -0.0966012 -0.123509 -0.153203 -0.166886
internal_weight=0 106825 105592 12430.5 10785.1 7144.56 93161.7 3448.11 3640.51 89713.6 87256.9 1164.28 9051.89 7128.44 4440.77 1923.45 1645.48 2283.83 1232.65 1204.41 3845.66 3100.9 595.115 314.049 1783.98 744.751 918.603 114.856 2687.67 546.627 269.124 80.4478 2456.68 465.217 268.59 139.473 2141.04 275.424 803.747 289.87 129.899 253.044 1865.62 513.877 277.503 1742.13 317.068 1425.06 34.4079 112.956 441.069 108.89 45.4588 41.8468 35.8905 40.9947 15.5459
internal_count=268644 248530 243668 37589 30529 22787 206079 8820 7742 197259 193254 2125 20114 17321 12567 2793 7060 6695 4862 4956 10103 8711 2464 733 2206 1392 4129 309 4754 1427 987 143 4005 2189 536 587 3327 592 3820 998 275 470 2735 2822 440 1851 558 1293 166 556 2104 548 197 355 337 189 66
is_linear=0
shrinkage=0.1


Tree=18
num_leaves=61
num_cat=0
split_feature=112 91 31 85 78 128 85 33 110 130 31 74 1 112 30 108 97 76 123 5 116 97 112 83 54 82 31 30 114 81 33 101 44 93 122 40 76 108 88 5 110 118 88 122 94 0 86 111 121 38 113 41 53 77 73 20 103 31 113 124
split_gain=284.216 658.529 753.154 642.737 489.608 442.214 663.75 750.185 535.636 379.343 412.197 331.427 623.777 599.488 383.693 377.022 315.489 288.273 278.209 217.961 213.596 210.248 194.684 198.349 191.058 188.087 165.777 165.254 151.622 218.788 182.897 145.852 129.81 148.792 124.469 140.936 132.137 124.237 118.244 112.103 109.85 96.0735 94.6564 90.8719 89.3885 86.4934 84.5491 116.276 51.1149 50.8539 37.0058 29.5825 27.3793 26.1917 25.3997 20.4831 19.7654 17.3495 0.57083 0.0647809
threshold=-0.91124141216278065 -1.1503603458404539 1.009398400783539 -1.3311178684234617 -1.3319445848464964 1.0000000180025095e-35 -1.3038151860237119 0.95018240809440624 -0.8891661763191222 1.0000000180025095e-35 0.9803888499736787 -0.94049647450447071 0.42543342709541326 -0.94255587458610524 1.0968205332756045 -1.0299140214920042 -0.86352950334548939 -1.2906166911125181 -1.2280668616294859 0.72256749868392955 -0.94448548555374134 -0.99636957049369801 -0.84109267592430104 -1.4496067166328428 1.006528973579407 -1.3238198161125181 1.0081315040588381 1.0929920673370364 -0.92217490077018727 -1.4377177357673643 0.90078866481781017 -0.74725356698036183 1.1001772284507754 -1.0480712056159971 -1.255565822124481 0.9837113916873933 -1.207649230957031 -0.88806867599487294 -1.2451621890068052 0.66731548309326183 -0.88838779926300038 -0.89948773384094227 -1.2465606331825254 -1.1238307356834409 -1.0441422462463377 0.36405026912689215 -1.3231495618820188 -0.889258712530136 -1.0579243302345274 0.99954709410667431 -0.90885284543037403 1.0939190387725832 1.0900203585624697 -1.2542010545730589 -0.91040033102035511 1.1243023276329043 -0.89602252840995777 1.0038616061210635 -0.94490650296211232 -1.4894855618476865
decision_type=2 2 2 2 2 2 2 2 2 2 2 2 2 2 2 2 2 2 2 2 2 2 2 2 2 2 2 2 2 2 2 2 2 2 2 2 2 2 2 2 2 2 2 2 2 2 2 2 2 2 2 2 2 2 2 2 2 2 2 2
left_child=3 2 9 34 28 11 8 26 24 10 37 12 16 15 -14 -13 -5 -12 46 20 48 50 23 -11 -7 -15 -8 56 32 52 -31 -9 42 -34 51 43 44 -2 -10 -22 -38 -23 -3 57 -37 -24 47 -6 -4 -45 -20 58 -30 -48 -29 -53 -21 -36 -1 -60
right_child=1 4 19 5 18 6 7 31 38 22 17 13 14 25 -16 -17 -18 -19 21 27 39 41 45 -25 -26 -27 -28 54 29 30 -32 -33 33 -35 35 36 40 -39 -40 -41 -42 -43 -44 49 -46 -47 53 -49 -50 -51 -52 55 -54 -55 -56 -57 -58 -59 59 -61
leaf_value=-0.16391290389111443 0.077502983014969662 -0.12453736637849513 -0.02595604438181805 0.090308053784340189 0.049316673607330247 -0.06434032979679967 -0.059862668275323383 0.072189714979243244 0.054818961143316108 0.17582158799552661 0.10366532523678965 0.03806524832851766 0.03375551438677616 -0.018438535716668966 -0.01131596001719367 0.018924872110931676 -0.059795053896889744 0.034144468778524395 -0.092324942707109031 0.077997391029675844 -0.14311079905927712 0.012706041553779343 0.24052988151327753 -0.0087637584273590943 0.092186991015106065 -0.098492085538448862 0.009077052899897551 -0.20153678921228246 0.010656459509288651 0.20606863780503104 -0.11210548792757409 -0.026202653620801177 0.10802256101065873 0.01721371494543901 -0.17288281174297709 0.16868653931137709 0.13442490773367774 -0.084553025773002347 -0.09188229858519173 -0.063801759827417134 0.081856414665220326 -0.12824643392383309 0.20818102990572662 0.047814771372262595 -0.12253662383869637 -0.14913143466459033 -0.14702306510437482 -0.15010319939575376 0.16232209755119814 -0.18123175041653139 -0.18820059220493834 -0.089810339809990758 0.17559576622557466 -0.054745663894901299 0.046852016680192649 0.11100864852247022 0.17012694478977927 0.03019881654759296 -0.12538451020932903 -0.13592776411557436
leaf_weight=6.7597479075193432 54.431179124861956 73.386303678154945 23.038558781147003 2469.3870515227318 60.794574826955795 83.485096156597137 2455.3118816316128 758.25111198425293 69.572774916887283 59.945919051766396 631.80969984829426 14260.428837848827 33520.79644856602 1059.0117582008243 2001.558486238122 36973.477385094389 148.44225452840328 10657.401357322931 180.65625934302807 49.999898716807365 345.7274257093668 510.0059202760458 5.9771494865417472 2016.3362812101841 1182.6041901931167 406.01536874473095 406.5635781288147 22.797825470566753 13.378133475780485 19.601474117487669 230.7335207015276 188.01332726329565 260.96368218958378 584.73756031692028 25.800207808613781 13.791452080011366 586.98671677708626 361.42097832262516 261.28034325689077 367.86566540598869 1231.4695656150579 53.422186383977532 9.678255155682562 296.94036917388439 44.70205095410347 121.32251818291843 468.28806477040052 56.329534754157066 38.542356297373772 10.020534962415693 51.801748277619481 9.4965925961732864 40.626612484455109 32.921409722417593 5.024091809988021 10.918833032250404 43.586344882845879 5.0262687355279914 11.105913564562801 12.262129798531529
leaf_count=32 73 271 60 3818 136 250 8198 1246 140 55 1039 32898 66673 3127 5194 91003 501 21387 565 68 1424 1129 2 5790 1853 1487 926 96 37 17 925 621 398 1498 108 11 620 4035 1041 1252 2114 1369 6 654 163 1398 1992 272 32 41 226 33 31 119 9 11 20 9 73 68
internal_value=0 0.0133276 0.0215415 0.0271732 -0.0326094 0.025934 -0.00185446 -0.0245473 0.05226 0.027268 0.0344336 0.0275875 0.0346876 0.0224488 0.0312159 0.0242524 0.0817966 0.0380353 -0.0727665 -0.0672929 -0.0868057 -0.0336722 -0.0107943 -0.00343445 0.0818657 -0.0406245 -0.050069 0.0572932 0.0134458 -0.0478111 -0.0871921 0.0526401 0.0335186 0.0452352 0.0798239 0.083365 0.0940665 -0.0633414 -0.0610335 -0.102226 0.0988252 -0.000658555 -0.0857707 0.023901 -0.0538728 -0.130836 -0.123086 -0.0465921 0.0918838 0.0403377 -0.11369 -0.0753433 0.134737 -0.140962 -0.156683 0.0175942 0.120905 -0.13977 -0.13832 -0.130917
internal_weight=0 17452.6 14805.2 98509.5 2647.33 96244.2 5405.08 3808.14 1596.94 13908.6 11705.1 90839.1 38140.2 52698.9 35522.4 51233.9 2617.83 11289.2 1414.22 896.582 775.174 795.886 2203.58 2076.28 1266.09 1465.03 2861.88 121.408 1233.11 304.34 250.335 946.264 928.766 845.701 2265.28 2214.74 1876.95 415.852 330.853 713.593 1818.46 563.428 83.0646 337.787 58.4935 127.3 618.334 117.124 61.5809 306.961 232.458 50.5432 54.0047 501.209 27.8219 20.4154 93.5862 30.8265 30.1278 23.368
internal_count=268644 45731 36740 222913 8991 218976 14275 10991 3284 33779 26534 204701 76186 128515 71867 123901 4319 22426 5808 2961 2768 3289 7245 5845 2103 4614 9124 193 3183 1010 942 1867 2173 1896 3937 3720 2908 4108 1181 2676 2734 2498 277 812 174 1400 2519 408 92 695 791 217 68 2111 105 44 88 117 173 141
is_linear=0
shrinkage=0.1


Tree=19
num_leaves=62
num_cat=0
split_feature=1 31 134 89 31 52 136 30 75 71 1 136 32 73 31 134 116 134 104 30 106 71 30 55 132 29 125 101 31 113 39 127 71 115 30 29 104 122 130 44 30 30 29 74 112 111 1 92 103 67 24 51 1 66 82 106 43 30 43 30 130
split_gain=290.687 338.26 568.567 857.1 467.051 416.96 411.973 602.146 416.806 409.262 464.657 408.49 850.312 1240.12 732.483 683.834 677.168 635.367 1102.14 561.875 492.81 271.435 358.035 268.445 267.347 289.137 356.862 267.047 228.671 224.463 210.221 203.742 241.984 188.621 182.782 176.51 156.061 155.326 130.176 125.946 122.451 121.217 118.415 103.406 96.153 95.2483 61.1779 103.891 57.634 38.9627 45.8862 34.8213 34.6606 62.0658 33.4668 29.7282 19.6987 6.77056 2.83523 0.14752 7.72258e-05
threshold=0.63150152564048778 0.99706676602363598 1.0000000180025095e-35 -1.0984106063842771 0.99382305145263683 1.1069685816764834 1.0000000180025095e-35 1.0546715855598452 -1.1127910017967222 -0.61904361844062794 0.57374200224876415 1.0000000180025095e-35 0.96128034591674816 -0.79573908448219288 1.005809009075165 1.0000000180025095e-35 -0.94355878233909596 1.0000000180025095e-35 -0.85416689515113819 1.0857864618301394 -0.93099758028984059 -0.66045933961868275 1.0366443395614626 1.0248606204986574 1.0000000180025095e-35 1.2506084442138674 -1.1267579793930051 -0.94586539268493641 1.0079122781753542 -0.93323883414268483 0.97943985462188732 -1.7793465256690977 -0.44982321560382837 -0.9091777205467223 1.0929920673370364 1.1716087460517886 -0.95174267888069142 -1.3117949366569517 1.0000000180025095e-35 0.69644647836685192 1.0703908801078799 1.0803902745246889 1.2071743011474612 -0.97399818897247303 -1.0438574552536009 -0.93174356222152699 0.78918516635894786 -1.0564643740653989 -0.94633376598358143 -0.083307277411222444 1.5974398255348208 0.88743716478347789 0.72640904784202587 -0.2799979299306869 -1.1911410093307493 -0.88738322257995594 0.83318439126014721 1.0626180768013003 0.74814483523368847 1.0302505493164065 1.0000000180025095e-35
decision_type=2 2 2 2 2 2 2 2 2 2 2 2 2 2 2 2 2 2 2 2 2 2 2 2 2 2 2 2 2 2 2 2 2 2 2 2 2 2 2 2 2 2 2 2 2 2 2 2 2 2 2 2 2 2 2 2 2 2 2 2 2
left_child=1 2 6 33 23 -6 9 37 -9 27 -11 14 13 19 17 16 -16 20 -19 -13 -3 24 48 -5 25 26 29 -1 -17 -2 -15 32 -14 43 38 44 51 -8 41 -28 -35 -24 -38 -4 -26 -33 47 -37 49 50 -23 -36 54 -54 -27 -40 -46 -48 60 -60 -50
right_child=21 11 3 4 5 -7 7 8 -10 10 -12 12 31 30 15 28 -18 18 -20 -21 -22 22 34 -25 35 52 39 -29 -30 -31 -32 45 -34 40 36 46 42 -39 55 -41 -42 -43 -44 -45 56 -47 57 -49 58 -51 -52 -53 53 -55 -56 -57 -58 -59 59 -61 -62
leaf_value=0.030120110370039806 0.024803666364947227 0.057838753762651164 -0.16479656333798232 -0.070690596500517414 0.0025150900193549337 0.13106007587418164 -0.025000700432229322 -0.09050710390176292 0.036016831661214596 0.020911416831033543 0.062232395838603405 0.052549285121790315 -0.16833100125881828 -0.086730125804821645 0.019468237519862971 -0.053710240608141648 -0.043793330360608229 0.11244447281695316 0.03365250309892117 -0.1738104671479942 0.014337450081419839 -0.12508780543931525 0.057817781776122491 0.009147153072301727 0.11937721558300883 0.16246706335379435 -0.080541705820189421 -0.026018343967640013 -0.17146504403488821 -0.038393324964729358 -0.015452265408025587 0.14690384474300261 0.066788256121209907 -0.17863375098730797 -0.016573196394721695 0.11539595587728545 0.032059997625622554 -0.090062024724681763 -0.22043459477468552 0.066397985670992019 0.15275061748901181 0.10311352567681803 -0.071796182935729647 -0.088265360520524416 -0.14774053897942971 0.091909088906244385 0.16612476123583908 0.025576873763376803 -0.10223785507924324 0.2077773762235971 0.12050162187916724 0.12619627011663795 -0.15563162650349327 0.066671437350279514 -0.13925137226954051 -0.012544047989819347 0.07065726993894543 0.12173977582920946 -0.12929181472482404 -0.14068925202769128 -0.10198957930462223
leaf_weight=1203.0482754632831 1249.5308671295643 3029.8545588105917 393.8706386089325 820.20310825109482 612.46390280127525 429.15263094007969 635.23754549026489 300.46106520295143 1951.2699816972017 38942.238360408694 2925.8598446343094 4652.4924069792032 44.481995344161987 877.98855589330196 9140.8628108501434 566.79205569624901 2076.4292770028114 2250.7765756845474 8403.8164612352848 112.30528818070889 18537.153900116682 19.550456259399652 979.72141586244106 865.6295363008976 21.079653590917587 3.7785517424345008 60.926408251747489 2866.0050464868546 232.5852338373661 1021.4538088589907 782.59901310503483 457.77120031416416 2747.7805641740561 15.436794847249983 19.498923882842064 322.85594859719276 295.46514450013638 868.79872711934149 16.054530605673794 1369.8314114809036 40.159500896930695 1488.342123940587 174.69526867568493 319.98043948411942 52.542721644043922 1009.2781405746937 101.7381190508604 214.22525212168694 53.829377351328731 8.8279683627188188 12.45436656475067 137.9038271009922 23.051186412572861 27.592871099710464 135.84045538306236 12.034962087869642 4.4822317063808432 51.900039598345757 36.163103029131889 16.555011883378029 16.328730337321758
leaf_count=2761 2553 4920 1566 3181 1858 675 2171 1002 3956 99346 4540 7686 169 2827 19627 1546 6303 2312 16572 418 42003 319 1440 2820 32 5 544 8986 893 2641 2157 306 4322 64 45 236 529 3409 65 2094 26 1435 543 1166 246 1197 53 359 2516 35 22 111 104 68 653 26 8 31 210 82 854
