tree
version=v4
num_class=1
num_tree_per_iteration=1
label_index=0
max_feature_idx=136
objective=binary sigmoid:1
feature_names=Column_0 Column_1 Column_2 Column_3 Column_4 Column_5 Column_6 Column_7 Column_8 Column_9 Column_10 Column_11 Column_12 Column_13 Column_14 Column_15 Column_16 Column_17 Column_18 Column_19 Column_20 Column_21 Column_22 Column_23 Column_24 Column_25 Column_26 Column_27 Column_28 Column_29 Column_30 Column_31 Column_32 Column_33 Column_34 Column_35 Column_36 Column_37 Column_38 Column_39 Column_40 Column_41 Column_42 Column_43 Column_44 Column_45 Column_46 Column_47 Column_48 Column_49 Column_50 Column_51 Column_52 Column_53 Column_54 Column_55 Column_56 Column_57 Column_58 Column_59 Column_60 Column_61 Column_62 Column_63 Column_64 Column_65 Column_66 Column_67 Column_68 Column_69 Column_70 Column_71 Column_72 Column_73 Column_74 Column_75 Column_76 Column_77 Column_78 Column_79 Column_80 Column_81 Column_82 Column_83 Column_84 Column_85 Column_86 Column_87 Column_88 Column_89 Column_90 Column_91 Column_92 Column_93 Column_94 Column_95 Column_96 Column_97 Column_98 Column_99 Column_100 Column_101 Column_102 Column_103 Column_104 Column_105 Column_106 Column_107 Column_108 Column_109 Column_110 Column_111 Column_112 Column_113 Column_114 Column_115 Column_116 Column_117 Column_118 Column_119 Column_120 Column_121 Column_122 Column_123 Column_124 Column_125 Column_126 Column_127 Column_128 Column_129 Column_130 Column_131 Column_132 Column_133 Column_134 Column_135 Column_136
feature_infos=[-1.8014661073684692:2.1873281002044678] [-1.7160434722900391:2.0962586402893066] [-1.6382262706756592:2.0136351585388184] [-1.5680137872695923:1.9394575357437134] [-1.5054070949554443:1.8737261295318604] [-1.4504051208496094:1.8164401054382324] [-1.4123568534851074:1.7788288593292236] [-1.3844102621078491:1.7671613693237305] [-1.3517893552780151:1.9694005250930786] [-1.3099035024642944:2.0549979209899902] [-1.2559221982955933:1.9997674226760864] [-1.1870334148406982:2.073509693145752] [-1.1039742231369019:2.1457490921020508] [-1.0067610740661621:2.2142360210418701] [-0.90047705173492432:2.2825961112976074] [-0.78966546058654785:2.3805651664733887] [-0.67814630270004272:2.4481546878814697] [-0.65620064735412598:2.4658794403076172] [-0.66012513637542725:2.4605560302734375] [-0.66667592525482178:2.4363620281219482] [-0.8555336594581604:2.3537893295288086] [-0.86833834648132324:2.2427663803100586] [-0.86565589904785156:2.1424770355224609] [-0.7797551155090332:2.053046703338623] [-1.0841877460479736:2.0739645957946777] [-1.4308524131774902:1.9517765045166016] [-1.6366665363311768:1.8635692596435547] [-1.8254417181015015:1.7312250137329102] [-1.9454965591430664:1.5516149997711182] [-2.1668190956115723:1.3304171562194824] [-2.5042393207550049:1.1459542512893677] [-2.6881959438323975:1.0691677331924438] [-2.6073334217071533:1.0182701349258423] [-2.3245775699615479:1.0153312683105469] [-1.6179424524307251:1.0222163200378418] [-0.8696785569190979:1.096311092376709] [-0.66328972578048706:1.2162210941314697] [-0.67049169540405273:1.328394889831543] [-0.67192721366882324:1.4686216115951538] [-0.67710685729980469:1.427788257598877] [-0.67391806840896606:1.3506048917770386] [-0.77278417348861694:1.3033223152160645] [-0.78214722871780396:1.4334096908569336] [-0.67822211980819702:1.6771683692932129] [-0.67549598217010498:1.8418123722076416] [-0.67939788103103638:1.9795904159545898] [-0.67687302827835083:1.8671952486038208] [-0.68056988716125488:1.8940913677215576] [-0.67851173877716064:2.0411467552185059] [-0.68057990074157715:2.1347439289093018] [-0.67633002996444702:2.3221406936645508] [-0.68208664655685425:2.3866791725158691] [-0.68785721063613892:2.3278176784515381] [-0.6967010498046875:2.41339111328125] [-0.68777680397033691:2.0181429386138916] [-0.66555494070053101:1.663224458694458] [-0.63047897815704346:1.3939603567123413] [-0.6819922924041748:1.3641012907028198] [-0.85317844152450562:1.3483799695968628] [-0.73171019554138184:1.3266682624816895] [-0.62303602695465088:1.2987289428710938] [-0.62908732891082764:1.5017008781433105] [-0.65896600484848022:1.6471337080001831] [-0.67422842979431152:1.5962808132171631] [-0.93073725700378418:1.2496439218521118] [-1.1747497320175171:1.0728911161422729] [-1.3727543354034424:0.99044626951217651] [-1.6713657379150391:0.88485002517700195] [-1.8910553455352783:0.75389385223388672] [-2.0949718952178955:0.60495084524154663] [-1.9126988649368286:0.45876148343086243] [-1.723555326461792:0.33052113652229309] [-1.5802557468414307:0.23037496209144592] [-1.5674382448196411:0.15855956077575684] [-1.4517455101013184:0.30397361516952515] [-1.6804615259170532:0.84510332345962524] [-1.8599822521209717:1.3364263772964478] [-2.0371255874633789:1.0853415727615356] [-2.1728529930114746:1.1285310983657837] [-2.2573421001434326:0.92254304885864258] [-2.3058340549468994:0.73609095811843872] [-2.3315773010253906:0.28676301240921021] [-2.3403120040893555:0.33890664577484131] [-2.3343968391418457:0.39074629545211792] [-2.3124566078186035:0.5232703685760498] [-2.2730567455291748:0.47703936696052551] [-2.2140905857086182:0.50853937864303589] [-2.1362462043762207:0.53271615505218506] [-2.0426793098449707:0.67684948444366455] [-1.9374580383300781:0.56802195310592651] [-1.8240519762039185:0.65018975734710693] [-1.7052174806594849:1.0688302516937256] [-1.6500253677368164:1.4168777465820312] [-1.5946441888809204:1.6290324926376343] [-1.530011773109436:1.6652539968490601] [-1.4861346483230591:1.6182962656021118] [-1.4547033309936523:1.5608183145523071] [-1.4384253025054932:1.5597559213638306] [-1.4264529943466187:1.5643377304077148] [-1.4166721105575562:1.563044548034668] [-1.8310922384262085:1.5674327611923218] [-2.3861415386199951:1.5646026134490967] [-2.5584738254547119:1.569068431854248] [-2.4521515369415283:1.5659784078598022] [-2.0341367721557617:1.5674868822097778] [-1.4165751934051514:1.5623446702957153] [-1.2213733196258545:1.563502311706543] [-1.1215335130691528:1.5619508028030396] [-1.1654683351516724:1.5693559646606445] [-1.225764274597168:1.573341965675354] [-1.369315505027771:1.5825309753417969] [-1.6010570526123047:1.5861003398895264] [-2.1418814659118652:1.5904401540756226] [-2.4733853340148926:1.5879421234130859] [-2.5047738552093506:1.5883719921112061] [-2.0072333812713623:1.5865405797958374] [-1.6131480932235718:1.5868538618087769] [-1.6321159601211548:1.7016431093215942] [-1.6864286661148071:2.5795986652374268] [-1.7459897994995117:2.8008601665496826] [-1.820858359336853:2.5472877025604248] [-1.9280952215194702:1.7488086223602295] [-2.1567583084106445:1.6308574676513672] [-2.3918964862823486:1.6220458745956421] [-2.6616356372833252:1.8138364553451538] [-2.9761693477630615:2.1645474433898926] [-3.3559722900390625:3.0688047409057617] [-3.8503069877624512:4.2020993232727051] [0:1] [0:1] [0:1] [0:1] [0:1] [0:1] [0:1] [0:1] [0:1]
tree_sizes=4015 3847 4252 4695 4699 4491 4107 6308 6109 6845 6401 6860 5360 6631 5463 5748 6414 6717 6112 6071 5800 6523 6925 6927 6755 5856 5347 6473 6540 6155 6687 6212 6907 6795 5648 6776 6043 6232 6394 6118 6953 5162 6643 5125 5321 6813 6867 6773 5805 6829 6240 6550 5873 6210 4506 6117 6461 5901 6707 6914 6258 6892 5648 6350 6946 6498 6812 5171 5765 5843 4487 6386 6414 6508 5753 5747 5852 6430 5662 6694 6050 6017 6907 6685 4818 6946 6080 6281 5768 6545 6909 6694 6691 6855 5728 5441 4641 5982 6263 6466 5870 5756 5505 6210 5447 4704 6928 6138 6921 6356 5643 5783 6255 5560 6909 6966 5485 6686 4211 6273 5497 4872 6811 6913 6962 6782 5638 5491 6939 5668 6595 6255 6670 4495 4815 6953 6915 6077 5424 6884 5583 5056 5846 5574 6885 6710 4512 6924 6302 5673 5203 6800 6458 6585 6782 6255 4809 6588 5843 6895 5505 6346 6572 5807 4701 5163 6620 6742 6129 6284 6022 6260 6583 6923 6226 4429 6275 5156 5235 6557 4620 6410 5996 6766 6836 6106 5364 6888 6815 6630 5960 4923 6391 6362 6387 6583 6016 5511 6216 6846

Tree=0
num_leaves=37
num_cat=0
split_feature=114 30 41 57 70 31 132 106 130 29 2 75 39 110 54 74 32 57 51 98 46 31 5 37 85 105 106 36 74 123 100 0 31 30 0 0
split_gain=18459.3 11290.8 13831.7 10522.3 8054.86 8916.13 7910.54 6424.92 5367.5 4788.25 3266.88 2419.66 2202.95 2187.99 1845.33 1737.62 1686.05 2001.82 1403.74 1232.38 880.992 847.33 623.337 585.622 583.104 475.501 368.368 317.471 254.299 415.883 227.489 87.6223 81.0682 57.1029 8.88178e-16 4.44089e-16
threshold=-0.8218955099582671 1.0580542087554934 1.1097307801246645 0.97002893686294567 -0.11851658299565314 0.99819931387901317 1.0000000180025095e-35 -0.89888820052146901 1.0000000180025095e-35 1.2417196631431582 0.66190779209136974 -0.64711064100265492 1.0423634648323061 -1.1851552128791807 1.0871469974517824 -0.39707452058792109 0.97174772620201122 0.86938542127609264 1.1729902625083926 -0.92140439152717579 1.2058894038200381 0.99301522970199596 0.79341381788253795 1.0058962106704714 -0.80637440085411061 -0.92345088720321644 -0.8830294907093047 0.91419801115989696 -0.99967262148857106 -1.1287558078765867 -0.88586610555648793 0.34342542290687567 0.99796450138092052 1.0800533890724184 0.31778712570667272 0.50199788808822643
decision_type=2 2 2 2 2 2 2 2 2 2 2 2 2 2 2 2 2 2 2 2 2 2 2 2 2 2 2 2 2 2 2 2 2 2 2 2
left_child=1 2 3 4 5 -1 8 15 9 10 -3 20 26 -6 -13 18 17 -10 -4 28 -5 -2 -11 -14 25 -21 -9 -17 33 -30 32 -18 35 -8 -26 -23
right_child=21 6 7 11 13 -7 19 12 16 22 -12 14 23 -15 -16 27 31 -19 -20 24 -22 30 -24 -25 34 -27 -28 -29 29 -31 -32 -33 -34 -35 -36 -37
leaf_value=-2.0154941824304284 -2.6183559091400936 -1.8348300790561438 -1.9570894035661686 -2.1964670995051523 -1.8428247709937233 -1.8601023493705038 -1.3689463130797415 -2.1620122659685856 -1.9506760905242524 -2.5377869644138551 -1.6744049256433704 -1.6788223693758919 -1.9517522609112141 -1.4561096876192401 -2.4686020523583441 -1.5323902870465926 -1.5951346768446433 -2.2129196488632878 -1.307183526961047 -1.5220948380467285 -1.8969334249601393 -2.6183559091400936 -2.1408200453303525 -1.6176202383950766 -2.6183559091400936 -1.8726521595544336 -2.589806081044653 -2.6183559091400936 -1.3666095849987687 -1.80627478997054 -1.43944420086877 -1.2763740400184098 -1.9185835252019787 -1.2131856098862888 -2.6183559091400936 -2.6183559091400936
leaf_weight=10050.590550072491 368.89235225319862 12357.632906012237 35.363605208694935 361.74549976736307 228.52973201870918 5836.93266364187 29.552612245082855 37.758565671741962 672.82802569121122 91.656450144946575 1414.6850136965513 31.439701311290264 99.702381417155266 406.64228718727827 501.33875355869532 3.4000447690486935 13.231302537024019 513.03096111118793 551.94650944322348 124.62020016461611 134.77733842283487 1.5984408631920817 69.588460497558117 110.68852167576551 4.3088405877351752 56.116690210998058 43.109795272350311 12.926521763205526 190.75013905018568 24.24934583902359 7.3079609349369985 24.762618899345398 3.517650231719017 115.61772713810205 1.8764305785298345 1.5289434343576429
leaf_count=88950 5308 88856 294 3803 1660 43325 86 385 5554 1251 8087 181 824 1509 6524 15 66 5471 1293 538 1046 23 696 575 62 423 609 186 551 168 26 51 28 171 27 22
internal_value=-2.51023 -1.89116 -1.94422 -1.96377 -1.94444 -1.9584 -1.82885 -1.56073 -1.84233 -1.82469 -1.81835 -2.27398 -1.94647 -1.59525 -2.422 -1.3746 -2.04312 -2.06413 -1.34632 -1.45528 -2.11516 -2.58942 -2.36647 -1.77596 -1.66361 -1.63094 -2.39006 -2.3922 -1.34715 -1.4162 -1.82448 -1.38738 -2.24792 -1.24489 -2.61836 -2.61836
internal_weight=0 34151.4 18446.9 17552 16522.7 15887.5 15704.5 894.896 15157.4 13933.6 13772.3 1029.3 291.259 635.172 532.778 603.637 1223.85 1185.86 587.31 547.092 496.523 382.845 161.245 210.391 186.922 180.737 80.8684 16.3266 360.17 214.999 13.953 37.9939 6.64503 145.17 6.18527 3.12738
internal_count=268644 263237 151179 146998 135444 132275 112058 4181 110032 98890 96943 11554 2393 3169 6705 1788 11142 11025 1587 2026 4849 5407 1947 1399 1050 961 994 201 976 719 99 117 73 257 89 45
is_linear=0
shrinkage=1


Tree=1
num_leaves=35
num_cat=0
split_feature=114 5 31 0 39 136 32 134 32 73 71 108 126 97 1 126 30 33 98 117 110 73 106 118 118 37 4 108 54 32 56 0 32 55
split_gain=5839.55 2571.2 2276.62 2612.34 3490.85 2293.65 2976.29 3723.91 2090.78 3598.87 2054.89 1855.79 1630.32 1624.06 1476.3 928.903 566.834 438.661 331.462 196.691 640.89 112.515 107.798 139.887 77.209 66.228 8.31359 71.9969 0.191236 0.00792411 0.00544187 0.00779695 0.00345381 5.68434e-14
threshold=-0.8218955099582671 -0.036258677020668977 0.99932488799095165 0.54881772398948681 1.0357013344764712 1.0000000180025095e-35 0.94785872101783764 1.0000000180025095e-35 0.95993596315383922 -0.79469004273414601 -0.62246203422546376 -1.0283806920051572 -1.8405318260192869 -0.96402236819267262 0.63981246948242199 -1.6304075121879575 1.0362901091575625 0.91265311837196361 -0.38690985739231104 -1.5493709444999693 -1.165422737598419 -0.9017394185066222 -0.78484284877777089 -1.594664931297302 -0.85420775413513172 0.95534306764602672 -0.085881918668746934 -1.0072334408760069 1.0871469974517824 0.84093287587165844 0.96756514906883251 0.47158715128898626 0.94508609175682079 0.68499457836151134
decision_type=2 2 2 2 2 2 2 2 2 2 2 2 2 2 2 2 2 2 2 2 2 2 2 2 2 2 2 2 2 2 2 2 2 2
left_child=1 18 3 4 11 6 7 -4 9 -7 14 -3 -6 -8 -5 -10 -12 32 22 20 25 -19 23 -1 -23 -20 28 -28 -21 -25 31 -26 33 -2
right_child=17 2 5 10 12 8 13 -9 15 -11 16 -13 -14 -15 -16 -17 -18 21 19 26 -22 24 -24 29 30 -27 27 -29 -30 -31 -32 -33 -34 -35
leaf_value=0.60989352889423554 -0.1072922657705308 0.3320039979257447 0.34989391879231374 0.2528508641148895 0.36250892356568387 0.4084212292089115 0.21113991925038844 0.54355787978078773 0.43180249679989635 0.088521503604537422 0.14240219862251804 0.26690919260217888 0.55400016628899029 0.32235661185502307 0.36752894606757652 0.56235977258816405 0.44736958824928341 0.57565884799406486 -0.070291357327213588 -0.12076544179799192 1.0794274838691587 0.35648562272412182 0.77263741879213621 -0.10980477164144826 -0.12065825219005251 0.5419766235369865 -0.11087604862545158 0.54884189608617617 -0.10854562019996167 -0.11765539858784849 -0.10900424708745025 -0.1125334353016304 -0.11143637876753193 -0.1072922657705308
leaf_weight=5.0948874056339273 240.33828011155128 5831.9082669690251 3945.1768762841821 1741.263714119792 2678.8157976642251 1856.6414376497269 1496.2416916787624 1326.8117863312364 1389.4768169000745 433.84904239326715 62.566972382366657 17587.075234301388 533.08136843889952 10720.872527644038 3159.3812695667148 896.62997490167618 2353.3095948323607 10.597439110279085 29.099726170301441 14.188944868743418 6.2168456614017478 7.7260986417531967 5.5466104894876471 3.6787763759493837 2.0257371366024 1.8808735460042942 14.178730309009554 1.8727258294820774 131.4725864008069 1.9764671325683592 1.4851945042610166 2.8328607827425003 2.0232787430286399 94.006854951381683
leaf_count=18 3794 29170 16635 8833 8929 6718 8535 3130 4910 2880 456 100140 1914 49193 10048 2046 7138 8 326 101 19 26 7 48 16 9 179 15 1824 16 22 31 26 1484
internal_value=0 0.325996 0.327322 0.311068 0.296528 0.352328 0.335835 0.398634 0.415353 0.347828 0.363992 0.283119 0.394291 0.308736 0.326782 0.483008 0.439471 -0.0774673 -0.0189939 -0.054517 0.152821 0.329571 0.414584 0.229844 0.144218 -0.0331198 -0.102209 -0.0339067 -0.109736 -0.112549 -0.114302 -0.115921 -0.107317 -0.107292
internal_weight=0 56228.3 56013.1 33947.4 26630.9 22065.7 17489.1 5271.99 4576.6 2290.49 7316.52 23419 3211.9 12217.1 4900.64 2286.11 2415.88 361.036 215.207 198.91 37.1974 24.6673 16.2967 10.7501 14.0699 30.9806 161.713 16.0515 145.662 5.65524 6.34379 4.8586 336.368 334.345
internal_count=268644 263237 260675 166628 140153 94047 77493 19765 16554 9598 26475 129310 10843 57728 18881 6956 7594 5407 2562 2473 354 103 89 82 95 335 2119 194 1925 64 69 47 5304 5278
is_linear=0
shrinkage=0.1


Tree=2
num_leaves=39
num_cat=0
split_feature=114 5 2 39 59 71 35 101 73 70 108 73 46 31 71 102 31 33 127 118 109 20 37 32 110 32 131 96 31 4 73 54 56 105 118 31 30 1
split_gain=3152 1364.16 1154.2 1454.76 1793.46 2814.85 1438.83 960.812 825.368 968.687 744.638 1421.71 656.962 486.365 357.639 346.313 329.968 274.221 211.607 133.027 221.341 47.1942 51.4946 34.8695 32.1616 28.7215 8.97231 17.9805 31.0777 7.58434 81.7675 0.135568 0.0304085 0.0136631 0.00186212 9.74707e-08 5.19015e-09 5.68434e-14
threshold=-0.8218955099582671 -0.036258677020668977 0.52843576669693004 1.0324829220771792 0.85188397765159618 -0.20808141678571698 0.81186464428901683 -0.83477678894996632 -0.93978157639503468 -0.52241429686546315 -1.0619221925735471 -0.70924410223960865 1.2135977745056155 1.0050042867660525 -0.48584386706352228 -0.81679111719131459 0.99301522970199596 0.8899839222431184 -3.3037467002868648 -1.6015915870666502 -1.1036770343780515 0.90446442365646373 0.95439162850379955 0.95205068588256847 -1.1594170331954954 0.95698481798172008 1.0000000180025095e-35 -1.0227603912353513 0.99796450138092052 -0.085881918668746934 -0.34022873640060419 1.0871469974517824 1.013284504413605 -0.80320212244987477 -0.85420775413513172 0.99119275808334362 1.0209086537361147 1.0584144592285158
decision_type=2 2 2 2 2 2 2 2 2 2 2 2 2 2 2 2 2 2 2 2 2 2 2 2 2 2 2 2 2 2 2 2 2 2 2 2 2 2
left_child=1 18 3 4 6 -6 -3 8 17 -10 12 -12 -5 14 -9 -15 34 -4 19 20 32 22 33 26 -22 -25 27 28 -18 31 -31 -21 -1 -20 -2 36 37 -36
right_child=16 2 7 10 5 -7 -8 13 9 -11 11 -13 -14 15 -16 -17 23 -19 21 29 24 -23 -24 25 -26 -27 -28 -29 -30 30 -32 -33 -34 -35 35 -37 -38 -39
leaf_value=-0.11626298161811635 -0.1098855619645482 0.096304176132156138 0.30835329044236115 0.099232373878131885 0.092372533088334985 0.32099868725581215 0.22475596065729461 0.13164709406140038 0.18914359816566759 0.24783212639721719 0.32342606065373553 0.19263967733055379 0.34377599858417551 -0.0927774123348723 0.37660558752953704 0.36022261795339255 -0.1108096368099365 0.48255703886485457 -0.12153072567869215 -0.11853672032951945 0.21271433879675847 0.38850967596150432 0.26790656781269034 -0.11846484071038538 0.48723408405475105 0.29004030526421615 0.36118338496453473 0.37468112499402495 0.36931200258069508 -0.11012754842011122 0.6306905499700044 -0.107655009784679 -0.10854072202348089 -0.11122459845436812 -0.10655037809217989 -0.10652314224325191 -0.10654365578356269 -0.10655037809217989
leaf_weight=8.8861175477504748 1.6831374466419209 895.02921175211668 1225.9586788788438 118.22030667960644 2452.4929466247559 690.04363262653351 33928.896646313369 63.786733523011208 3237.0101628154516 21440.210139088333 1389.2448406592011 2069.0180610790849 1552.8713772669435 42.233620673418045 908.46904395520687 28.107653021812439 2.9366891458630588 97.552383989095688 1.9727312177419651 12.655151471495627 7.4149333275854614 12.058753766119478 9.2532840557396394 4.1847565956413737 10.054563611745833 2.9235180467367172 12.290531158447266 4.8404309600591668 2.492373563349247 15.187193710356951 1.651963938027621 120.10904124006629 11.965735316276549 3.6970832981169259 241.00194831937551 1.3221876025199879 1.1529086530208577 61.563102431595325
leaf_count=76 21 4825 2909 657 14610 1464 136542 330 11610 71072 4025 8183 1697 276 2307 69 42 99 16 97 42 36 26 38 7 6 5 3 5 204 4 1831 175 48 4177 23 20 1067
internal_value=0 0.23107 0.231841 0.221679 0.214926 0.142575 0.221455 0.248034 0.24426 0.240134 0.271665 0.245179 0.326476 0.342163 0.360535 0.0882368 -0.075766 0.321193 -0.0204917 -0.0580913 0.108146 0.241385 0.122499 0.242683 0.370714 0.0495467 0.303537 0.234546 0.109605 -0.100673 -0.0374514 -0.108692 -0.111832 -0.11481 -0.106569 -0.10655 -0.10655 -0.10655
internal_weight=0 70354.1 70139.1 43095.8 37966.5 3142.54 34823.9 27043.3 26000.7 24677.2 5129.35 3458.26 1671.09 1042.6 972.256 70.3413 336.392 1323.51 214.907 187.925 38.3213 26.9819 14.9231 29.6683 17.4695 7.10827 22.56 10.2695 5.42906 149.603 16.8392 132.764 20.8519 5.66981 306.723 305.04 303.718 302.565
internal_count=268644 263237 260675 172003 157441 16074 141367 88672 85690 82682 14562 12208 2354 2982 2637 345 5407 3008 2562 2436 300 126 90 99 49 44 55 50 47 2136 208 1928 251 64 5308 5287 5264 5244
is_linear=0
shrinkage=0.1


Tree=3
num_leaves=43
num_cat=0
split_feature=114 104 40 125 39 114 37 50 44 2 74 133 107 112 33 53 76 104 74 96 73 119 58 43 32 108 127 52 31 91 46 106 79 32 56 131 96 31 118 31 65 17
split_gain=1997.74 878 1539.55 1704.06 2292.87 1892.48 1120.79 1118.29 1050.06 1122.7 962.472 1269.4 1301.9 894.45 795.52 821.7 762.482 657.954 588.16 621.051 570.06 472.231 451.077 513.383 356.713 313.098 636.468 496.711 267.229 245.172 225.911 307.248 163.422 21.8945 22.9402 5.69574 10.7243 20.382 0.00134927 7.07078e-08 3.78105e-09 5.68434e-14
threshold=-0.8218955099582671 -0.82645103335380543 1.07010954618454 -1.5740182995796201 1.0017827749252322 -0.98398590087890614 0.98929315805435192 1.1760953068733218 1.0833361744880678 0.52728766202926647 -0.93290176987647999 1.0000000180025095e-35 -0.96112656593322743 -0.91281586885452259 0.8562527894973756 1.0174103975296023 -1.2793422341346739 -0.73494112491607655 -0.8550981581211089 -0.88481849431991566 -0.52175790071487416 -0.96192297339439381 0.85514509677886974 1.0784028768539431 0.90077656507492077 -1.0533360242843626 -2.1273370981216426 1.1419261097908022 0.99301522970199596 -1.0586585402488706 1.2432448863983157 -0.88181528449058522 -1.336149215698242 0.95205068588256847 0.96592554450035106 1.0000000180025095e-35 -1.0227603912353513 0.99796450138092052 -0.85420775413513172 0.99119275808334362 0.3247723132371903 1.5549175143241885
decision_type=2 2 2 2 2 2 2 2 2 2 2 2 2 2 2 2 2 2 2 2 2 2 2 2 2 2 2 2 2 2 2 2 2 2 2 2 2 2 2 2 2 2
left_child=1 8 3 5 16 7 -7 -3 9 14 22 20 -13 -6 21 -16 -5 25 19 -11 -12 -1 29 -24 -20 27 -27 -4 38 -10 32 -32 -19 35 -35 36 37 -30 -2 40 41 -40
right_child=28 2 17 4 13 6 -8 -9 10 18 11 12 -14 -15 15 -17 -18 30 24 -21 -22 -23 23 -25 -26 26 -28 -29 33 -31 31 -33 -34 34 -36 -37 -38 -39 39 -41 -42 -43
leaf_value=0.057526334940382153 -0.10885965948562326 0.15845230891006679 -0.0014088291402559851 0.26418370669108587 0.30310144066506733 -0.029032333606625139 0.21927355107356084 0.081689802480847618 0.28226842959591109 0.19005828497489038 0.1750691031624374 0.28705055097933929 0.090648635041219811 0.19773196369055379 0.20814538391591647 0.14745681986068662 0.14582869454112588 0.23752037761491432 0.15391049314768801 0.058739833674186018 -0.032823542957836203 0.22421152512658421 0.13823181048218533 0.28593303457337121 0.30722865776173702 0.14758888366678358 0.28118183442192829 0.26997738392140164 -0.10974074144080014 0.37619714823553635 0.47537141476701389 0.023942792534555776 -0.048652179704517518 -0.11734725346507718 0.24154489788303143 0.28300908961255439 0.28539188221874012 0.26817016678450806 -0.10588832494775247 -0.10586400997191366 -0.10588231092578618 -0.1058883250559038
leaf_weight=1139.934164352715 1.536583125591277 10843.318719491363 69.82169035077095 592.84294818341732 1819.5262775272131 1013.0574245676398 221.53283226490021 2300.4579788595438 1078.9606014341116 28423.430942684412 4851.932258374989 2147.2582146301866 400.45378863066435 1445.7193778902292 3058.5218401625752 8245.7871717810631 6650.7716423869133 23.425019800662994 196.61846604198217 364.76565919816494 135.5851171053946 199.74813783913851 437.05178056657314 509.85779239237309 665.00779400765896 900.59862829744816 590.42114362120628 1978.4684037491679 2.6817843727767459 374.28992097079754 26.627322860062122 34.756769340485334 134.71734471991658 3.9911040849983683 3.2162759006023407 14.002298355102539 5.6634191274642953 3.0505233258008957 262.00473473221064 1.2034331001341332 1.049375146627425 13.391703419387339
leaf_count=5717 21 39531 369 1702 4299 5744 527 13374 2661 80138 17174 5809 1769 5291 9288 29612 24149 55 680 1622 838 780 1624 1177 1299 3045 1343 1779 42 521 28 301 991 39 5 5 3 5 4989 23 20 255
internal_value=0 0.179347 0.165278 0.156269 0.186876 0.133898 0.0155233 0.145017 0.187064 0.180191 0.216318 0.198752 0.25618 0.256448 0.155242 0.163877 0.155515 0.224931 0.190831 0.188394 0.169418 0.0823793 0.271466 0.217761 0.272242 0.23535 0.20049 0.260726 -0.0742666 0.30646 0.0569392 0.219764 -0.00626254 0.196635 0.0428075 0.240288 0.187794 0.0913695 -0.105905 -0.105888 -0.105888 -0.105888
internal_weight=0 80875.3 28646.1 24887.2 10508.9 14378.4 1234.59 13143.8 52229.2 42293.8 9935.39 7535.23 2547.71 3265.25 12644 11304.3 7243.61 3758.84 29649.8 28788.2 4987.52 1339.68 2400.16 946.91 861.626 3539.31 1491.02 2048.29 311.791 1453.25 219.526 61.3841 158.142 32.6054 7.20738 25.398 11.3957 5.73231 279.186 277.649 276.446 275.396
internal_count=268644 263237 102528 94617 35441 59176 6271 52905 160709 129136 31573 25590 7578 9590 45397 38900 25851 7911 83739 81760 18012 6497 5983 2801 1979 6536 4388 2148 5407 3182 1375 329 1046 99 44 55 50 47 5308 5287 5264 5244
is_linear=0
shrinkage=0.1


Tree=4
num_leaves=43
num_cat=0
split_feature=114 1 33 95 71 31 83 69 21 30 29 117 101 70 82 4 70 103 31 102 114 85 28 53 42 30 129 31 132 28 12 5 105 32 15 32 30 0 118 32 30 64
split_gain=1373.71 727.625 1366.61 1108.1 886.434 1321.22 661.247 748.271 620.183 738.393 773.205 598.678 596.182 559.001 538.494 444.538 491.656 579.699 425.545 393.784 348.406 308.092 300.375 407.938 261.522 252.636 252.509 225.047 182.13 165.278 114.518 107.53 99.5819 12.345 9.74492 15.1838 0.824422 0.0126901 0.000979906 5.14382e-08 1.7053e-13 5.68434e-14
threshold=-0.8218955099582671 0.57535430788993847 0.83838570117950451 -1.0641364455223081 -0.24372375011444089 0.99736806750297557 -1.2711707949638364 0.086721152067184462 1.562045753002167 1.0948188900947573 1.2029837369918825 -1.5020498037338255 -0.52712592482566822 -0.49858981370925898 -0.17758738994598386 0.72541102766990673 -0.46969215571880335 -0.92237350344657887 1.0081579089164736 -0.94072619080543507 -0.91943424940109242 -1.3604542613029478 1.2581357955932619 1.0695056319236758 1.012267053127289 1.0449438095092776 1.0000000180025095e-35 0.99301522970199596 1.0000000180025095e-35 1.3926891684532168 1.0138918161392214 0.6838940978050233 -0.86945974826812733 0.9511505961418153 0.95342195034027111 0.95205068588256847 1.0463174581527712 0.48031230270862585 -0.85420775413513172 0.94540029764175426 1.0122713446617129 0.34710325300693518
decision_type=2 2 2 2 2 2 2 2 2 2 2 2 2 2 2 2 2 2 2 2 2 2 2 2 2 2 2 2 2 2 2 2 2 2 2 2 2 2 2 2 2 2
left_child=1 2 6 18 5 -5 22 12 15 10 13 -6 -8 -10 -9 16 17 -3 24 29 -12 -18 23 -1 -4 30 -27 38 -21 -11 -17 -20 -24 36 -35 -36 -29 -37 -2 40 41 -40
right_child=27 8 3 4 11 -7 7 14 9 19 20 -13 -14 -15 -16 25 21 -19 31 28 -22 -23 32 -25 -26 26 -28 33 -30 -31 -32 -33 -34 34 35 37 -38 -39 39 -41 -42 -43
leaf_value=0.033910143627663224 -0.10794811184829128 0.19367740948346995 0.041579066254502417 0.12769822722308788 0.2042045205336542 0.15617197986976661 0.062713700820828874 0.33140413668915814 0.0010652515363308067 0.14282019129993745 0.18539141524361624 0.0011245418476537245 -0.07929205077754034 0.18423097114467993 -0.10945863038921946 0.14819833731402385 -0.001805279688128698 0.094270757954469903 -0.13010674842906186 -0.022787046083304899 0.067951843321143277 0.19162215943702199 0.28511006942899919 0.18237276250860535 0.17852239555499139 0.23260753585492347 -0.060283965124245442 0.22788088605563803 0.28863346058795875 -0.12543749863625905 -0.090927714004580412 0.025681004134852189 -0.021328134182318964 0.22790830290681116 0.16278429557427768 -0.12185395273660822 0.1899886253590056 -0.11054401128900759 -0.10529669021487686 -0.10527881007949119 -0.1052967150814971 -0.10529669795992402
leaf_weight=296.8104537576437 1.4014976695179928 965.92746126651764 583.52162228524685 28757.421177849174 3355.4793270081282 37607.802197933197 2237.8291773945093 152.6378381960094 491.67386227846146 373.32019481807947 3092.5850048214197 151.72819492220879 340.64550408348441 252.02541343867779 33.850368946790695 48.880257487297058 83.804824188351631 1493.9910484105349 152.60484349727631 440.82270415872335 275.08354715257883 4731.6515895277262 177.78808511793613 491.66254820674658 183.24566711485386 2031.6203990876675 29.8676967471838 12.187237516045572 19.615280985832214 24.473031580448151 33.92831663787365 62.4321259111166 11.277263313531874 3.2153064608573896 3.8423642590641975 1.9394559860229494 10.856798149645327 2.0309546925127506 248.03346952795982 1.6193099170923222 1.2420827448368061 1.6720304526388634
leaf_count=1311 21 2201 2310 101401 5225 102063 9493 246 2159 957 6509 864 3302 535 485 162 344 4732 865 1968 905 9623 324 1513 508 2453 120 5 9 154 193 251 52 3 8 15 42 26 5192 34 26 35
internal_value=0 0.145801 0.14183 0.144941 0.146423 0.143834 0.0829368 0.0579435 0.16639 0.137808 0.155419 0.195419 0.0439531 0.0631366 0.251381 0.18147 0.169676 0.133304 0.0394418 0.0534406 0.175799 0.188256 0.15363 0.126486 0.0743064 0.221485 0.228364 -0.0729355 -0.00952011 0.126316 0.0502236 -0.0848766 0.266832 0.168388 0.0813769 0.0210727 0.210029 -0.116069 -0.105311 -0.105297 -0.105297 -0.105297
internal_weight=0 88986 74596.7 70854.2 69872.4 66365.2 3742.5 2764.96 14389.3 4969.6 4111.37 3507.21 2578.47 743.699 186.488 9419.67 7275.37 2459.92 981.804 858.231 3367.67 4815.46 977.538 788.473 766.767 2144.3 2061.49 288.041 460.438 397.793 82.8086 215.037 189.065 34.0721 11.0281 7.81277 23.044 3.97041 253.968 252.567 250.948 249.705
internal_count=268644 263237 230213 213487 209553 203464 16726 13526 33024 13196 10108 6089 12795 2694 731 19828 16900 6933 3934 3088 7414 9967 3200 2824 2818 2928 2573 5407 1977 1111 355 1116 376 99 52 49 47 41 5308 5287 5253 5227
is_linear=0
shrinkage=0.1


Tree=5
num_leaves=41
num_cat=0
split_feature=114 40 58 71 71 108 70 102 48 33 109 47 82 102 129 51 135 73 106 33 106 34 104 5 37 34 33 44 49 106 54 106 39 122 24 32 108 31 54 2
split_gain=994.963 675.812 1207.37 909.703 766.45 716.53 704.778 1117.41 1493.67 483.94 453.46 688.758 437.228 326.785 314.624 242.282 232.588 221.944 229.083 194.775 108.604 93.7009 138.019 54.7324 33.8746 18.9349 18.9294 0.792735 0.37696 0.157569 0.0529418 0.0498579 0.0493558 0.0240239 0.0177413 0.00701203 0.0017448 0.00126951 3.153e-08 2.84217e-14
threshold=-0.8218955099582671 1.0716405510902407 0.91728222370147716 -0.17720933258533475 -0.3542006760835647 -1.0735023021697996 -0.11294731870293616 -0.7659606635570525 1.1603424549102785 0.94876572489738475 -1.1246107220649717 1.2151423692703249 -0.17758738994598386 -0.59049770236015309 1.0000000180025095e-35 1.1598892211914065 1.0000000180025095e-35 -0.3579562753438949 -0.90413039922714222 0.91265311837196361 -0.94362524151802052 0.85479766130447399 -0.71218007802963246 1.0000000180025095e-35 0.95632031559944164 0.90193447470664989 0.93129506707191478 1.0560963749885561 1.2064574360847475 -0.9179067313671111 1.0871469974517824 -0.8830294907093047 1.0423634648323061 -1.0035004019737241 1.028772294521332 0.94637423753738414 -1.0619221925735471 0.99301522970199596 1.0169814825057986 0.69521358609199535
decision_type=2 2 2 2 2 2 2 2 2 2 2 2 2 2 2 2 2 2 2 2 2 2 2 2 2 2 2 2 2 2 2 2 2 2 2 2 2 2 2 2
left_child=1 2 6 4 14 -6 7 8 -1 -9 11 -8 20 16 -4 -12 17 18 -3 35 -5 22 -15 -19 -24 27 33 -21 36 -30 -14 34 -33 -27 -23 37 -18 38 39 -2
right_child=19 13 3 12 5 -7 10 9 -10 -11 15 -13 30 21 -16 -17 28 23 -20 25 -22 31 24 -25 -26 26 -28 -29 29 -31 -32 32 -34 -35 -36 -37 -38 -39 -40 -41
leaf_value=0.12109536337828895 -0.10476733260686587 0.1905695895543317 0.071891970907177735 -0.11476149793413229 0.23200190910273544 -0.028321729971436251 -0.086235842689492415 0.066870530716286264 0.18092752790542407 0.14017619172860454 0.23670692231060661 0.30228376190933187 -0.11726125532808962 0.30212799260552703 0.20575837004046318 -0.003862034012608013 -0.12849936879427218 0.11977277121715291 0.14193159028434638 0.20724272042511471 0.28343745393859138 -0.12699674822366994 -0.11029008657737441 -0.12222267900398481 0.23318342061915556 -0.12550160277361191 0.19307710056147184 0.17279347712563375 -0.164477905027828 -0.14338655044385115 -0.10763764648529923 -0.11535053018636764 -0.12642318611078471 -0.11095032238852819 -0.12181803148315547 -0.11328486417872774 -0.13156393335322383 -0.10781273808247833 -0.10474820961196329 -0.10476733247404234
leaf_weight=76713.686804994941 53.292749632149935 2307.4079013466835 646.81439328938723 7.0524784103035918 114.33822328597307 1404.740196429193 121.85175858438015 5018.7186519727111 4412.3742066472769 1097.505935266614 950.12844751775265 72.943782582879066 7.2546151280403128 17.057268112897873 240.98005000501871 43.793757036328316 3.3491602167487144 13.156347200274466 1668.6822117567062 12.879772130399944 237.7315199971199 14.055268153548242 22.094909418374304 32.271008498966694 3.3002427890896788 1.9828978963196258 3.4158436805009842 13.876909326761959 10.525572389364243 5.3386901170015308 26.960032749921083 16.266555450856689 5.3495401516556731 2.6521157063543797 12.496830284595488 0.97477388381957908 4.1722488254308727 1.3769899830222119 0.86549180001020332 174.6455917917192
leaf_count=207162 1227 2139 3089 64 270 8940 568 19384 11134 2906 756 85 61 38 628 154 20 29 4151 17 199 89 311 251 7 20 5 24 45 27 442 145 34 37 86 13 23 23 20 4021
internal_value=0 0.122073 0.120278 0.0542269 0.0344125 -0.00872765 0.122284 0.121242 0.12435 0.0800246 0.198764 0.0592505 0.225163 0.16161 0.108228 0.226107 0.165818 0.167646 0.170157 -0.0716135 0.271965 -0.0261947 0.0821199 -0.0521377 -0.0656538 0.148919 0.0144595 0.189376 -0.148638 -0.15738 -0.109678 -0.121657 -0.118091 -0.117175 -0.124559 -0.104821 -0.130199 -0.104785 -0.104767 -0.104767
internal_weight=0 95252.4 91116.9 2685.87 2406.87 1519.08 88431 87242.3 81126.1 6116.22 1188.72 194.796 278.999 4135.52 887.794 993.922 4044.9 4021.52 3976.09 265.963 244.784 90.6206 42.4524 45.4274 25.3952 34.8075 8.05086 26.7567 23.3857 15.8643 34.2146 48.1682 21.6161 4.63501 26.5521 231.156 7.52141 230.181 228.804 227.938
internal_count=268644 263237 255842 13693 12927 9210 242149 240586 218296 22290 1563 653 766 7395 3717 910 6685 6570 6290 5407 263 710 356 280 318 103 62 41 115 72 503 354 179 57 175 5304 43 5291 5268 5248
is_linear=0
shrinkage=0.1


Tree=6
num_leaves=37
num_cat=0
split_feature=115 2 33 108 31 135 52 108 33 30 29 116 114 111 129 29 135 74 132 18 30 104 112 109 1 70 129 83 23 122 0 58 51 0 68 72
split_gain=747.305 602.709 748.111 737.95 1179.35 963.126 832.198 548.179 513.68 511.485 612.359 476.624 449.668 365.914 360.573 338.874 338.088 273.842 270.434 252.019 239.625 555.782 225.65 206.058 193.934 262.16 249.418 130.899 112.654 59.6107 59.1497 0.23227 0.0212387 2.84217e-14 7.10543e-15 3.55271e-15
threshold=-0.55596256256103505 0.62970888614654552 0.83420777320861828 -1.0268842577934263 0.99736806750297557 1.0000000180025095e-35 1.1121452450752261 -0.95250099897384632 0.7853430211544038 1.0980208516120913 1.2050244808197024 -1.4952855706214903 -0.96249461174011219 -1.2479619383811948 1.0000000180025095e-35 1.1972085833549502 1.0000000180025095e-35 -0.9942464530467986 1.0000000180025095e-35 1.4405238628387453 1.1032847762107851 -0.92804396152496327 -0.91850796341896046 -0.92437884211540211 0.63114923238754284 -0.47768406569957728 1.0000000180025095e-35 -1.0195069313049314 1.5863124132156374 -1.007893919944763 0.57389137148857128 0.97968909144401561 0.88844960927963268 0.68423098325729381 -0.66718304157257069 -0.67475643754005421
decision_type=2 2 2 2 2 2 2 2 2 2 2 2 2 2 2 2 2 2 2 2 2 2 2 2 2 2 2 2 2 2 2 2 2 2 2 2
left_child=1 2 7 14 5 -5 -6 11 9 10 22 13 19 -1 16 -13 -4 -14 -12 -9 24 28 -3 27 25 -10 -26 -11 -22 -25 -23 -16 33 34 -2 -36
right_child=32 8 3 4 6 -7 -8 12 20 23 18 15 17 -15 31 -17 -18 -19 -20 -21 21 30 -24 29 26 -27 -28 -29 -30 -31 -32 -33 -34 -35 35 -37
leaf_value=-0.052454485176140243 -0.10429314806727547 0.047701398216126012 0.12914218182404577 0.075273193628419569 0.1059373648843184 0.1334770762467736 0.1648109867550972 0.12636378203704079 0.092659229551842859 0.096850181423374496 0.11525149015460319 -0.045948468784966327 -0.0097573172716312953 0.19033542621690178 -0.13817219097647523 0.078352538546379247 0.035142052238510281 0.1329912920128361 0.19219085240563555 0.059085302526113673 0.14941866472534501 0.14929433550796953 -0.12598982790322155 -0.13737042410771402 0.16779195217494147 0.15096446018105514 -0.14556597289586773 -0.12789123837121338 -0.038404098976396586 -0.02373588673415199 -0.12568760325765102 -0.11213803428495053 -0.120605515573855 -0.10429314809851142 -0.10429314806727541 -0.10429314813258897
leaf_weight=85.73853686824441 32.680918022990227 690.02078026533127 12654.399442285299 22828.349050384015 41874.520070757717 3247.4472324028611 2546.9986242353916 1807.0679208151996 1175.5530197620392 161.40401937067509 2932.5231970399618 902.5501795373857 638.34982354193926 224.91406397148967 48.795228078961372 289.73248000442982 394.55429469794035 170.22231524810195 541.14022605121136 804.71943932771683 380.79778261482716 8.3873791694641096 83.889403026551008 103.52467468380928 3141.0326849967241 2241.8330288529396 25.607855077832937 30.873402036726475 34.857014432549477 83.31680890917778 116.14317591488361 3.6857967823743811 0.80189773067831893 122.47450470924377 8.0123506747186202 8.3675782643258554
leaf_count=704 828 2272 30065 74567 102635 7952 4873 4798 3109 443 6411 6101 2314 418 252 904 1420 346 464 2662 627 17 1116 562 4096 3797 134 194 136 343 518 39 9 3103 203 212
internal_value=0 0.104047 0.101223 0.103454 0.0994034 0.0825218 0.109313 0.0633411 0.125327 0.0993821 0.109315 0.0130027 0.0854602 0.123327 0.125248 -0.0157425 0.1263 0.0202944 0.127237 0.105635 0.142176 0.0781474 0.0288738 -0.0119099 0.147429 0.130908 0.165258 0.0607641 0.133668 -0.0866982 -0.107167 -0.136344 -0.104369 -0.104293 -0.104293 -0.104293
internal_weight=0 100273 88522 83598.7 70497.3 26075.8 44421.5 4923.29 11750.9 4626.69 4247.57 1502.94 3420.36 310.653 13101.4 1192.28 13049 808.572 3473.66 2611.79 7124.21 540.185 773.91 379.119 6584.03 3417.39 3166.64 192.277 415.655 186.841 124.531 52.481 172.337 171.535 49.0608 16.3799
internal_count=268644 264289 240050 221803 190027 82519 107508 18247 24239 11805 10263 8127 10120 1122 31776 7005 31485 2660 6875 7460 12434 1298 3388 1542 11136 6906 4230 637 763 905 535 291 4355 4346 1243 415
is_linear=0
shrinkage=0.1


Tree=7
num_leaves=58
num_cat=0
split_feature=40 103 46 58 29 118 31 125 41 114 35 125 50 110 110 78 122 132 31 45 122 94 51 0 47 102 110 110 99 41 49 97 31 36 102 71 131 34 33 55 121 135 126 34 102 38 37 18 39 39 106 39 62 24 32 40 105
split_gain=628.009 940.887 908.972 1145.91 693.214 631.164 856.717 802.837 885.996 676.895 564.865 703.845 669.31 541.424 548.305 534.973 534.905 533.629 646.189 514.873 477.388 380.873 320.327 294.599 289.848 244.755 234.263 190.823 325.587 312.535 299.439 187.179 178.858 154.146 148.178 140.597 127.621 126.006 122.331 113.183 98.7391 90.4683 84.3329 78.2057 93.9428 41.1367 25.387 18.5451 17.3731 11.1892 0.0504219 0.0474389 0.0279459 0.0170893 0.00850918 0.00351965 0.00230432
threshold=1.0716405510902407 -0.78647127747535694 1.1455999016761782 0.85994490981102001 1.0911854505538943 -1.5836195349693296 0.85471472144126903 -1.5582753419876096 1.0633336305618288 -0.96172034740447987 0.9181039333343507 -1.5633181333541868 1.1301864981651308 -1.1876391768455503 -1.2105146646499632 -1.249549329280853 -2.0235656499862666 1.0000000180025095e-35 0.97739115357398998 1.1562546491622927 -1.3526271581649778 -0.7877371311187743 1.1751556396484377 0.20310242474079135 1.1897428035736086 -0.59049770236015309 -1.1626487374305723 -1.1851552128791807 -0.75961419939994801 1.1035667657852175 1.2014492154121401 -0.84390234947204579 0.89142218232154857 0.94793674349784862 -0.71667376160621632 -0.33009915053844446 1.0000000180025095e-35 0.83505886793136608 0.84439978003501903 1.0292467474937441 -1.8581909537315366 1.0000000180025095e-35 -2.0901540517807002 0.85479766130447399 -0.57693699002265919 1.0265321731567385 0.95632031559944164 0.80682343244552623 1.0490966439247134 1.0368621349334719 -0.8830294907093047 1.0423634648323061 0.75059184432029735 1.028772294521332 0.8383462429046632 1.0732547044754031 -0.79573413729667652
decision_type=2 2 2 2 2 2 2 2 2 2 2 2 2 2 2 2 2 2 2 2 2 2 2 2 2 2 2 2 2 2 2 2 2 2 2 2 2 2 2 2 2 2 2 2 2 2 2 2 2 2 2 2 2 2 2 2 2
left_child=1 2 3 17 15 13 38 9 -9 -8 12 -12 -5 14 16 36 -3 18 -1 -17 21 -6 37 -19 -16 27 -24 30 35 45 34 -22 -31 40 -2 42 -4 -15 41 -37 -32 -7 -29 44 -27 -30 52 -40 -35 -36 53 56 -46 54 -45 -55 -52
right_child=25 5 4 10 20 6 7 8 -10 -11 11 -13 -14 22 24 19 -18 23 -20 -21 31 -23 26 -25 -26 43 -28 28 29 32 33 -33 -34 48 49 39 -38 -39 47 -41 -42 -43 -44 50 46 -47 -48 -49 -50 -51 51 -53 -54 55 -56 -57 -58
leaf_value=0.069022606893848024 0.2606902013397181 -0.12301406721042096 0.17014554355319442 0.0064847477819259831 0.092109868060323855 -0.10708562039236141 0.053816433318458229 0.068844514934349746 0.18584235333406057 -0.059513452654215294 0.035089085274234592 0.1142026508042354 0.082645079147297393 -0.014471651751107978 0.1441456707181426 0.039394467482790713 0.18938258246227099 0.0090187076808320599 0.09570442139974214 0.1210147154754771 0.18403061757003591 0.19295986306614474 -0.10036387181352405 0.13336756007174153 -0.075206913892393368 0.22261578031340612 0.21074974221316911 -0.14519325818516343 -0.086167639819130865 -0.052069459752342076 0.0076868161378495989 0.27509154050874779 0.10576130006274545 0.079736054613007812 -0.024682117490579653 0.21535290795282994 -0.051803634663451295 0.19462036784249204 0.26031815899938826 0.0098881097063423587 0.16327603288524303 0.17080063485314681 0.18486243314609843 -0.12417798056277124 -0.1217650567230479 0.055383906845957766 0.17110912843305659 0.06636989915033123 -0.13400040878874928 -0.13898996192171684 -0.11862782969528957 -0.12635543377340383 -0.10968425309523869 -0.11901939011323732 -0.12915599556113844 -0.12292524826143957 -0.11504638631121496
leaf_weight=10944.328342515975 12.511381857097147 65.538979008793831 917.67250281572342 3252.3196958303452 1191.4984386861324 375.46385834738612 8780.3212934136391 1992.8663217201829 958.59389933943748 560.68059159815311 1903.4960238337517 2747.9886908233166 1788.4275798499584 29.80414741486311 75.66768790781498 1637.6564804315567 334.83190895617008 199.82889439165592 53190.077234681696 1463.580107755959 1276.3728183060884 546.12229561805725 71.191602360457182 4091.1472433507442 295.45492315292358 20.048371225595474 36.66907249763608 7.8406697213649741 118.00994477421045 76.924377806484699 41.604112893342972 274.23083367943764 1077.845042437315 4.7146816477179554 10.426857337355612 37.228453129529953 26.659434705972672 874.22632943093777 9.1886794194579142 95.809343412518501 2078.7844047695398 12.09286669641733 611.78196632862091 5.9465160444378879 2.1295575648546281 24.854567013680935 3.7605174109339705 10.637756712734697 19.665262460708618 47.916671931743622 2.0544157102704093 5.3339781761169425 18.988936778157949 3.0461146235465995 8.1263309419155103 9.5095759034156782 14.309641420841217
leaf_count=33353 27 333 1694 11244 3183 5117 29465 6031 1824 2598 5672 6073 5111 196 147 5259 607 726 124700 3769 1923 937 720 7587 1785 38 108 38 540 341 126 279 2292 15 40 46 104 617 17 324 1531 42 892 40 17 75 7 28 149 249 17 34 294 23 49 63 128
internal_value=0 0.0880426 0.0920373 0.0888772 0.125698 0.0644738 0.056651 0.0613793 0.106844 0.047014 0.0566964 0.0818275 0.033506 0.120182 0.0570789 0.0979803 0.138245 0.0934355 0.0911513 0.0779139 0.1598 0.123806 0.168293 0.127577 -0.0304834 0.126818 0.0054045 0.130321 0.108335 0.0779856 0.150667 0.200135 0.0952475 0.157349 -0.0515941 0.160659 0.16388 0.187727 -0.0860205 0.0673841 0.160223 -0.0984148 0.180686 -0.0334465 0.0615315 -0.0615415 -0.0682758 0.156256 -0.0926673 -0.118561 -0.121744 -0.118166 -0.110902 -0.12466 -0.127053 -0.121978 -0.115496
internal_weight=0 99934.6 85451.4 78117.6 7333.79 14483.2 12699.8 12292.5 2951.46 9341 9692.23 4651.48 5040.75 1783.38 771.493 4045.57 400.371 68425.4 64134.4 3101.24 3288.22 1737.62 1011.89 4290.98 371.123 4359.17 107.861 4265.92 2050.29 1297.63 2215.62 1550.6 1154.77 2144.77 70.8549 752.66 944.332 904.03 407.383 133.038 2120.39 387.557 619.623 93.254 44.9274 142.865 24.879 19.8264 24.3799 58.3435 48.3266 21.698 21.1185 26.6285 14.0728 12.5557 16.3641
internal_count=268644 261249 211614 194466 17148 49635 45122 39918 7855 32063 28100 11745 16355 4513 2872 10826 940 166366 158053 9028 6322 4120 1641 8313 1932 7395 828 6685 4548 3248 2137 2202 2633 1821 316 1300 1798 813 5204 370 1657 5159 930 710 356 615 318 45 164 289 354 179 311 175 89 86 145
is_linear=0
shrinkage=0.1


Tree=8
num_leaves=56
num_cat=0
split_feature=41 30 35 105 73 45 37 31 134 131 31 128 114 129 102 78 52 102 130 72 69 20 31 70 28 48 56 104 105 99 99 72 46 59 105 101 106 32 109 27 31 0 53 54 108 110 45 71 104 74 38 106 102 34 32
split_gain=579.978 674.902 795.07 619.227 599.415 959.344 817.616 576.631 596.94 598.318 648.181 512.388 510.131 473.774 445.094 435.056 422.973 372.719 359.538 340.056 438.795 272.291 156.861 152.857 155.784 149.45 133.249 122.216 110.302 105.172 93.5755 93.395 75.8296 143.049 76.7113 69.0235 58.5004 94.02 58.5165 52.1451 49.7474 47.958 42.535 21.718 39.688 18.4964 17.0121 14.1585 1.24401 0.860196 0.204536 0.149369 0.0591608 0.0171176 0.00029526
threshold=1.1123747229576113 1.0621770620346072 0.87128484249115001 -0.89101088047027577 -0.77957692742347706 1.1309343576431277 0.9390934705734254 1.0058452486991885 1.0000000180025095e-35 1.0000000180025095e-35 1.0127767920494082 1.0000000180025095e-35 -0.89502322673797596 1.0000000180025095e-35 -0.83133435249328602 -1.3456617593765257 1.0798527598381045 -0.95104497671127308 1.0000000180025095e-35 -0.57130920886993397 -0.069241072982549653 1.3109562397003176 1.0079383254051211 -0.16861225664615628 0.91046395897865307 1.0711311101913454 0.88410592079162609 -0.87494704127311695 -0.87907031178474415 -0.91933658719062794 -0.66226202249526966 -0.60706251859664906 1.2354743480682375 0.90087381005287182 -0.79573413729667652 -0.83540645241737355 -0.87950384616851796 0.9250604808330537 -0.94654142856597889 1.2910431027412417 0.96280819177627575 0.70603957772254955 1.1179401278495791 1.1122969985008242 -1.0548651218414304 -1.0708632469177244 1.0685761570930483 -0.17720933258533475 -0.80855414271354664 -0.39707452058792109 1.0041054487228396 -0.89888820052146901 -0.57693699002265919 0.89385172724723827 0.91775211691856395
decision_type=2 2 2 2 2 2 2 2 2 2 2 2 2 2 2 2 2 2 2 2 2 2 2 2 2 2 2 2 2 2 2 2 2 2 2 2 2 2 2 2 2 2 2 2 2 2 2 2 2 2 2 2 2 2 2
left_child=1 2 12 19 6 -6 -5 11 9 18 -11 13 15 14 -3 35 -15 -17 -9 25 -21 29 26 30 43 -4 -10 -23 49 -13 36 -24 33 -30 -34 -1 40 -38 -39 46 45 -41 -42 50 -45 -2 -14 -46 -32 -26 52 -50 -25 -53 -51
right_child=23 7 3 4 5 -7 -8 8 22 10 -12 21 39 16 -16 17 -18 -19 -20 20 -22 27 31 24 28 -27 -28 -29 32 -31 48 -33 34 -35 -36 -37 37 38 -40 41 42 -43 -44 44 47 -47 -48 -49 51 54 -52 53 -54 -55 -56
leaf_value=0.119396430593537 -0.15295996895005104 0.098662635754174527 0.20546941802214636 0.068779670738028528 0.035184072336274907 0.075435991659302898 0.10971210056139478 0.098955824694521383 -0.13870564185341383 0.062151756484183085 -0.044300237469622437 0.13062068007703351 -0.11139401459690497 -0.0083473672955843101 0.0098577145564789533 0.095067974889483833 0.1622971692765306 0.038631618339357444 0.041340408295922705 0.13830177760927714 -0.0093058617847111592 -0.013704544263487675 -0.1457326928270947 -0.12871211995623447 -0.16831558910334049 0.049255511864652789 0.028994236059960616 -0.14152435423424722 0.13302063532778649 0.017033793038092448 -0.205227196840709 0.1367199992426982 0.17171988058300372 -0.023777692007958092 0.016003496145462853 0.34484492804211803 0.17908460870956383 -0.14810729000520007 0.15100262787252905 0.33901686124253333 0.23911292233870529 -0.10570627659651154 0.091010254107500133 0.16840640957416844 -0.11352003171257406 0.091454265763090514 0.052764783839828903 0.07111835678437127 -0.16107722336235489 -0.11177761256392037 -0.14829438327225317 -0.13566626424326581 -0.11507819634342464 -0.14464050117103192 -0.11349729173782884
leaf_weight=17.934439718723297 8.8852338865399343 30867.268339887261 65.805134207010269 12109.907317258418 8704.4665425568819 18517.005791693926 8173.6961076445878 5447.8586688637733 58.219951659440994 2100.3547277152538 786.05816623568535 152.914161413908 229.54968866333365 751.00426346063614 574.90011900663376 1359.8695108294487 180.08446304500103 8390.5041762180626 1351.8625363707542 2967.2630236819386 216.0571975633502 211.53566916286945 149.00127343833447 7.9055402427911767 9.0464484691619855 883.36180134117603 254.48093216121197 115.73059022426605 1295.2710294425488 174.5829718708992 5.3982761651277569 12.704818233847616 746.33681733161211 60.920267038047314 33.037069942802191 55.932658866047859 18.024865135550499 35.301021099090576 8.0280271023511869 5.1428592950105649 28.151569411158562 4.5880883857607841 62.321277886629105 10.526529241353272 16.629558380693197 4.7522435188293448 6.4914495274424544 5.5355943404138115 6.0644587576389322 1.8591918572783459 4.3151536807417861 3.8881845027208293 5.3274423405528077 4.688202440738678 2.1564633026719093
leaf_count=37 43 62062 83 31064 25765 50331 17972 10893 239 5073 2783 290 5367 2414 1822 3557 285 28807 4120 5955 892 674 645 50 39 2496 686 505 1264 505 22 22 519 215 160 29 26 162 13 3 24 118 102 19 236 9 26 29 27 20 24 21 57 22 21
internal_value=0 0.0771889 0.0704784 0.0754911 0.0722612 0.0625648 0.0852742 0.0867769 0.0659441 0.0713083 0.0331616 0.0931858 0.0447744 0.0949571 0.0970389 0.0483343 0.0246575 0.0465027 0.0875012 0.112619 0.128283 0.00560487 -0.0435793 0.127066 0.13442 0.0600857 -0.00222882 -0.0589052 0.13849 0.0700695 0.0398935 -0.123541 0.140262 0.125977 0.165119 0.290108 0.0646103 -0.0128453 -0.0926881 -0.097527 0.110256 0.129332 0.137094 -0.0396477 0.00852294 -0.0677891 -0.106879 -0.0674079 -0.164195 -0.151218 -0.129388 -0.149066 -0.123223 -0.140572 -0.112701
internal_weight=0 104896 61707.6 51637.6 47505.1 27221.5 20283.6 43188.6 10160.5 9686.13 2886.41 33028 10070 32373.3 31442.2 9824.24 931.089 9750.37 6799.72 4132.49 3183.32 654.763 474.407 2384.37 2198.87 949.167 312.701 327.266 2148.63 327.497 185.503 161.706 2135.57 1356.19 779.374 73.8671 165.464 61.3539 43.329 245.772 104.11 9.73095 90.4728 50.2398 32.6917 13.6375 236.041 22.1652 20.0391 13.0621 17.5481 14.6408 13.233 8.57639 4.01566
internal_count=268644 265520 172502 134558 125132 76096 49036 93018 24461 22869 7856 68557 37944 66583 63884 32430 2699 32364 15013 9426 6847 1974 1592 3124 2653 2579 925 1179 2238 795 471 667 2158 1479 679 66 379 201 175 5514 178 121 126 415 284 52 5393 265 92 80 131 70 107 43 41
is_linear=0
shrinkage=0.1


Tree=9
num_leaves=63
num_cat=0
split_feature=39 104 127 112 35 43 127 0 117 70 30 104 0 32 107 62 35 27 110 31 126 40 23 127 105 37 72 124 93 41 129 106 61 102 47 122 46 41 43 107 75 31 106 122 111 60 2 111 18 105 125 70 104 58 106 40 119 73 100 133 73 40
split_gain=532.473 689.335 529.669 1466.26 1131.08 614.001 758.899 591.639 580.202 506.241 416.099 829.989 452.486 661.637 429 378.977 361.415 356.495 331.868 297.55 258.902 364.266 248.377 230.959 554.506 348.753 247.912 221.184 238.579 214.854 191.925 191.335 185.607 172.341 149.311 207.257 137.846 133.193 106.884 103.264 102.424 100.128 81.7381 121.492 90.9755 80.9876 93.2854 77.3634 64.2081 60.8976 60.0411 49.3525 136.94 46.8808 43.5512 40.3292 36.8962 29.8591 21.9961 1.97195 0.0843577 0.00603469
threshold=1.0380821824073794 -0.82645103335380543 -1.8773978948593137 -0.95435348153114308 0.90785562992095958 1.1017169356346133 -1.6709365248680113 0.41383881866931921 -1.5325338840484617 -0.27320787310600275 1.1032847762107851 -0.93032062053680409 0.59274023771286022 0.89581403136253368 -1.0121662020683286 0.66324815154075634 0.71382173895835888 1.3997759222984316 -0.95840090513229359 1.0050042867660525 -1.7720086574554441 1.0440156459808352 1.5688239336013796 -1.9906305670738218 -0.79792547225952137 0.99986743927001964 -0.49535435438156122 -1.5543218255043028 -0.96827238798141468 1.017422676086426 1.0000000180025095e-35 -0.94716900587081898 0.83384540677070629 -0.95630830526351918 1.2247607111930849 -1.9943660497665403 1.2010192275047304 1.0364966392517092 1.1369670033454897 -0.97782638669013966 -1.0221942067146299 1.0038949251174929 -0.7924995720386504 -1.2472496628761289 -0.91029021143913258 0.79014381766319286 0.11300799995660783 -0.94352328777313221 1.0854321718215945 -0.92970013618469227 -1.8221255540847776 -0.18535945564508435 -0.77786970138549794 0.91028431057930004 -0.77265730500221241 1.0639821290969851 -1.1424374580383299 -0.96612823009490956 -0.78249394893646229 1.0000000180025095e-35 -0.70924410223960865 1.07010954618454
decision_type=2 2 2 2 2 2 2 2 2 2 2 2 2 2 2 2 2 2 2 2 2 2 2 2 2 2 2 2 2 2 2 2 2 2 2 2 2 2 2 2 2 2 2 2 2 2 2 2 2 2 2 2 2 2 2 2 2 2 2 2 2 2
left_child=1 10 3 7 9 6 -6 8 -3 19 12 22 13 18 -15 -7 17 -14 -1 -4 38 -22 41 24 31 27 50 32 -29 -9 -18 45 -26 -24 35 -33 -28 -11 -5 -36 42 -12 51 44 -44 46 -2 48 55 56 -27 52 -25 -45 -50 -42 -13 -51 -53 -47 -49 -62
right_child=23 2 4 20 5 15 -8 29 -10 37 11 49 16 14 -16 -17 30 -19 -20 -21 21 -23 33 40 25 26 36 28 -30 -31 -32 34 -34 -35 39 -37 -38 -39 -40 -41 47 -43 43 53 -46 59 -48 60 54 57 -52 58 -54 -55 -56 -57 -58 -59 -60 -61 61 -63
leaf_value=0.0079183581938744117 0.19932364665384755 0.093157556959183804 0.047456274174340903 -0.11664959527107627 0.054236086312298752 0.14668839410780699 0.11926925649706857 0.20680152715379285 0.041422532709132272 -0.074176378832756504 0.14940936880476718 -0.15140920202051969 -0.055463016848743232 0.11575310055453969 0.072448870764157236 0.044966540824551447 0.11630867525694316 0.080391147420770415 0.056091562890843438 -0.052660166783267848 -0.080253381081975064 0.039750443355317376 0.065302286961678668 0.17355937633578214 -0.094282680638705527 -0.06117780614520768 -0.10792388051131559 -0.14722359235829682 0.11874994384748153 -0.010722326906463788 -0.093117182150721359 -0.16264556741242522 0.15702590403178196 -0.10932448521139709 0.14288055821495402 0.09495633736409663 0.077108341569742445 0.16699175331841104 0.20467899287986022 0.084967540769024838 0.21800722775507994 0.053546916167999753 0.13253813142611828 0.062886483477958499 -0.077891894568056314 -0.12808522137805259 -0.14351468936118103 -0.17314194528218818 -0.17507008233763224 0.15431991566427838 0.15291158000973093 0.11750607981370441 -0.10316183547204752 0.21768811212493341 0.1149329351919271 0.064196877873433991 0.052459709091385753 -0.12541608788523564 0.20609774605673176 -0.19019357411257209 -0.15425917108655324 -0.15937949505943341
leaf_weight=2091.4205475673079 21.026627436280251 2573.0666967593133 3128.3612628299743 484.71997242420912 6273.7083288431168 2080.8537595719099 2513.1887701712549 323.99092353880405 13761.569523584098 542.91823239810765 315.15496931970119 11.954138591885565 202.73598261550069 2393.5302552506328 51733.045511934906 444.49207505583763 4565.2070088237524 4087.4590560756624 4522.293543163687 327.9812957495451 517.13160537183285 495.13324707746506 131.12174078077078 110.47918190062046 336.61738469451666 13.717921227216719 76.071271672844887 43.407043322920799 151.20251916348934 52.808875933289528 44.182911772280931 31.899344064295292 32.199864272028208 99.326773926615715 1552.4765494167805 1494.8177336901426 85.532580897212029 23.908731341362 10.577620178461073 384.05812533944845 32.474779605865479 166.5329332947731 36.800335615873337 26.364493697881699 46.512327238917351 37.504093624651432 12.748650968074797 4.8543840795755377 13.087367296218874 3.8601937443017951 290.62742835283279 30.335135102272034 21.336957573890686 75.837202697992325 8.5689420998096448 35.88333648443222 34.4896499812603 331.43630641698837 368.1571564078331 5.9188361018896094 4.5467492491006833 4.6617310047149658
leaf_count=7258 29 6272 10745 2448 15929 3349 4987 404 43612 3036 364 54 2174 4730 117539 1272 6455 8212 11900 1206 2310 1735 323 106 1538 51 305 205 274 170 192 162 82 462 953 3035 167 48 17 789 27 360 53 54 172 288 64 20 54 5 391 48 80 76 13 72 82 1525 296 25 20 20
internal_value=0 0.0672401 0.0554359 0.043909 0.0691303 0.0853263 0.0728366 0.0524297 0.0495719 0.0235908 0.0728397 0.0116428 0.073801 0.0707155 0.0743638 0.128784 0.0948595 0.0739713 0.040858 0.037956 -0.0505433 -0.0215554 0.0754183 0.0994736 0.0907053 0.0261034 0.0901095 -0.0268291 0.0594254 0.176315 0.114301 0.109488 -0.072342 -0.00996448 0.112959 0.089574 -0.00999129 -0.0640039 -0.109787 0.131395 0.148345 0.116267 0.161822 0.104689 0.0150579 -0.0462182 0.0699176 0.0556521 0.0897299 -0.107331 0.143262 0.181808 0.128767 0.177755 -0.060322 0.137267 -1.39864e-05 -0.122196 0.199354 -0.136551 -0.162475 -0.156851
internal_weight=0 104288 33554.4 18219 15335.4 11312.2 8786.9 16711.4 16334.6 4023.17 70733.8 1093.88 69639.9 60740.3 54126.6 2525.35 8899.58 4290.2 6613.71 3456.34 1507.56 1012.26 712.136 5389.73 4569.83 1029.38 465.949 563.427 194.61 376.8 4609.39 3540.45 368.817 230.449 3463.25 1526.72 161.604 566.827 495.298 1936.53 819.9 481.688 715.823 185.514 83.3127 77.1982 33.7753 104.077 90.0144 381.74 304.345 530.308 131.816 102.202 21.6563 68.3581 46.4438 335.297 398.492 43.4229 14.0629 9.20848
internal_count=268644 259175 97540 56968 40572 25537 20916 50458 49884 15035 161635 3175 158460 141427 122269 4621 17033 10386 19158 11951 6510 4045 1509 9469 8358 3013 914 2099 479 574 6647 5345 1620 785 4939 3197 472 3084 2465 1742 1111 724 885 355 225 406 93 226 166 1666 442 530 186 130 67 99 136 1530 344 313 60 40
is_linear=0
shrinkage=0.1


Tree=10
num_leaves=59
num_cat=0
split_feature=41 31 136 31 109 134 104 30 78 32 73 97 77 129 23 136 30 106 132 29 82 74 12 21 104 0 109 124 45 52 127 121 71 72 107 70 53 103 72 49 38 84 42 46 119 72 101 39 49 34 53 106 37 54 104 44 53 92
split_gain=476.758 536.904 779.86 826.606 982.119 813.481 1043.15 756.279 711.07 687.168 1161.58 577.289 541.037 518.434 512.857 500.864 760.908 497.552 430.59 499.846 418.187 404.4 277.654 215.028 167.738 158.44 139.526 225.473 141.556 133.836 129.334 102.688 89.6473 82.8424 82.5076 77.8033 94.7759 61.2727 90.2221 53.8672 53.5932 52.9065 45.3773 43.1108 42.1647 40.7072 39.342 65.2278 29.2253 31.6352 22.7671 33.0005 19.0363 11.9538 11.511 8.51709 1.6206 1.61668
threshold=1.1123747229576113 0.99932488799095165 1.0000000180025095e-35 1.0052857398986819 -0.92503955960273732 1.0000000180025095e-35 -0.85421085357666005 1.0707895159721377 -1.231344401836395 0.96130508184432995 -0.79222100973129261 -0.98235055804252613 -1.1830437779426572 1.0000000180025095e-35 1.326167166233063 1.0000000180025095e-35 1.0542439818382265 -0.93202635645866383 1.0000000180025095e-35 1.2354768514633181 -1.4371126294136045 -1.0033227801322935 0.83311820030212413 1.2822729945182803 -0.79766103625297535 0.51742252707481395 -1.1157795190811155 -2.0417255163192745 1.2124574780464175 1.0480855703353884 -1.7724137306213377 -1.8581909537315366 -0.33846470713615412 -0.68964433670043934 -0.97669246792793263 -0.13509824872016904 1.1179401278495791 -0.64980998635292042 -0.32005508244037623 1.2340370416641238 1.0224753618240359 -1.0886747837066648 1.1535617113113406 1.2206047177314761 -0.95775949954986561 -0.55246564745903004 -0.77050691843032826 1.0532108545303347 1.2039656639099123 0.95385056734085094 1.1346680521965029 -0.90016242861747731 0.96059224009513866 1.1122969985008242 -0.78017747402191151 1.1936456561088564 1.1135867834091189 -0.26911802589893336
decision_type=2 2 2 2 2 2 2 2 2 2 2 2 2 2 2 2 2 2 2 2 2 2 2 2 2 2 2 2 2 2 2 2 2 2 2 2 2 2 2 2 2 2 2 2 2 2 2 2 2 2 2 2 2 2 2 2 2 2
left_child=1 7 3 5 12 17 -7 11 -6 10 14 21 -5 18 -4 20 -17 -3 19 -9 -13 22 -1 -12 30 -23 28 34 43 44 -11 50 46 -20 42 40 -37 39 -39 -33 -34 -31 53 52 -15 -26 55 -48 -36 -50 57 -52 -2 -28 -44 -29 -54 -30
right_child=26 2 9 4 8 6 -8 13 -10 24 23 15 -14 29 -16 16 -18 -19 33 -21 -22 25 -24 -25 45 -27 27 32 31 41 -32 37 35 -35 48 36 -38 38 -40 -41 -42 -43 54 -45 -46 -47 47 -49 49 -51 51 -53 56 -55 -56 -57 -58 -59
leaf_value=0.091380090678047227 0.068242535734301876 0.10578861990701734 0.12061892895409405 0.14197174158061246 0.026698682905062589 0.16539205411422706 0.079038116026087624 0.07373770087244845 -0.092435532982086677 0.11501848855070068 0.0010837792040039561 0.10126324624197613 0.059320242286935866 -0.13843161527451761 0.049415865908011065 -0.031650588257456667 0.063768290129554803 0.051835131742161734 0.13644913146461995 -0.010149343056557437 0.050347919243041897 -0.15083079792314844 -0.061675285798039617 -0.10743520952901904 -0.16774247161348135 0.14488315797516171 -0.1889385159150615 0.16458001938653369 -0.20166005773178389 0.11176804216163923 0.15368708554275259 0.12550391089237986 -0.023679705922514969 -0.016019800101388832 0.137295671164681 -0.16578458371774524 0.082936321562890325 -0.11967898556716455 0.20910310440859903 0.17554657550236186 0.15015297903505104 -0.14650837700381272 0.060302117256851862 0.10510858459030847 -0.0413233942494785 0.071207904152452914 0.086627218807827963 -0.078541429753741981 -0.1472652078933113 0.15181525056566941 0.14763384225307102 -0.12497771491364805 -0.13965496101649433 0.0029463328077830695 0.17777051539021346 0.065052231776035405 -0.19357103404476758 -0.12528902669778999
leaf_weight=135.46028255112469 3.8781806230545071 1982.6529261767864 2704.5236972123384 960.26247411966324 6998.7989108785987 1832.850963011384 5908.2644859701395 15048.254522815347 539.6308409050107 2542.8447396457195 818.13880003988743 1678.9323398638517 4519.9025999307632 135.64390937238932 1616.0186924636364 1815.5873474739492 1548.5148225426674 12393.868266582489 1168.0971596240997 745.4966014623642 41167.725000847131 20.222671009600163 947.97978769615293 235.05217143893242 23.59401772916317 174.12981065176427 7.473146438598631 16.734866946935654 3.8257813751697531 46.722337931394577 1310.8547347784042 1190.8359221145511 18.75635252892971 36.757454350590706 4.2722985893487921 17.035892218351364 152.15195778012276 22.533913560211658 13.25638948753476 262.5206460505724 325.90587525069714 9.5528122186660749 18.576308764517307 10.162466973066328 66.700135231018066 10.216618210077284 40.574421614408493 58.215308979153633 68.655970675870776 3.728745073080062 9.81107906997204 8.1120159551501256 9.5068246051669139 5.7403253316879272 15.141569614410399 17.683670550584793 13.479432739317415 10.061533994972708
leaf_count=317 7 3229 4053 1380 18552 1614 11682 29956 2065 4108 2561 3662 9913 629 3379 6808 3672 29006 899 2647 115268 100 6840 981 99 256 32 12 17 96 1350 813 62 98 8 72 268 192 33 121 346 45 36 15 235 20 91 214 449 4 8 84 52 13 5 28 73 69
internal_value=0 0.0599155 0.0683854 0.0615811 0.0415889 0.0733486 0.099484 0.0541076 0.0181706 0.0942004 0.0710321 0.0475924 0.0738029 0.0720361 0.0939867 0.0494258 0.0122712 0.0592758 0.074174 0.0697781 0.052343 -0.0187122 -0.0425391 -0.0231356 0.126226 0.114114 0.105644 0.0708395 0.122859 -0.0684836 0.128172 0.127562 0.0944789 0.131798 -0.0529267 0.11343 0.0578921 0.13136 0.00209879 0.134543 0.140693 0.0679251 0.0514978 -0.0703295 -0.106421 -0.0955384 0.0213735 -0.0107042 -0.116858 -0.131859 -0.0502188 0.0242495 -0.136695 -0.105578 0.113053 0.113444 -0.171272 -0.146328
internal_weight=0 109143 44397.5 35136.2 13018.6 22117.6 7741.12 64745.8 7538.43 9261.24 5373.73 47488.6 5480.17 17257.2 4320.54 46210.8 3364.1 14376.5 16998.6 15793.8 42846.7 1277.79 1083.44 1053.19 3887.51 194.352 2328.63 770.647 1557.98 258.619 3853.7 1520.96 647.058 1204.85 123.588 513.85 169.188 1489.15 35.7903 1453.36 344.662 56.2752 46.9314 37.0269 202.344 33.8106 133.208 98.7897 76.657 72.3847 31.8104 17.9231 26.8644 13.2135 33.7179 34.4185 22.9863 13.8873
internal_count=268644 265520 93992 77441 31910 45531 13296 171528 20617 16551 10974 136923 11293 34605 7432 129410 10480 32235 33600 32603 118930 7513 7157 3542 5577 356 3124 1640 1484 1005 5458 1337 1093 997 547 748 340 1159 225 934 408 141 86 147 864 119 345 305 461 453 178 92 132 45 41 40 125 86
is_linear=0
shrinkage=0.1


Tree=11
num_leaves=63
num_cat=0
split_feature=39 103 71 53 59 71 52 58 37 127 70 108 81 109 71 104 126 46 103 41 73 3 3 70 38 70 100 108 82 30 50 76 82 46 106 33 38 93 31 51 122 71 133 73 125 52 73 72 127 25 74 1 29 36 27 83 129 76 71 126 77 101
split_gain=464.407 705.13 546.575 924.468 797.87 508.655 499.623 705.882 677.93 562.227 479.544 733.703 529.617 478.841 423.45 388.459 404.678 871.632 466.453 382.411 642.261 478.065 343.691 325.172 309.891 269.525 255.161 245.277 233.839 229.435 227.619 201.67 201.64 188.294 188.124 187.266 181.49 181.414 173.643 172.346 168.65 212.645 157.172 124.348 124.061 119.206 121.903 108.113 106.122 100.55 92.5882 80.9845 78.1015 76.2918 110.998 74.8565 67.4478 66.0089 25.1582 23.0708 21.9086 2.59263
threshold=1.0297394990921023 -0.78647127747535694 -0.23123023658990857 1.1163605451583865 0.84332486987113964 -0.17720933258533475 1.110129773616791 0.85994490981102001 0.94158369302749645 -1.9399352073669431 -0.15395449846982953 -1.0640133023262022 -1.3807930350303648 -1.1246107220649717 -0.38016092777252192 -0.75021743774414051 -1.836089491844177 1.2135977745056155 -0.7679343819618224 1.0287386178970339 -0.77957692742347706 0.55922716856002819 -0.054399359971284859 -0.19238551706075666 1.0224753618240359 -0.12384244054555892 -0.49761775135993952 -1.0706686377525327 -1.4448564052581785 1.0694619417190554 1.1307827830314638 -1.0837908983230589 -0.17758738994598386 1.2135977745056155 -0.91165009140968312 0.8180125653743745 1.0195792317390444 -0.95151832699775685 0.99075993895530712 1.1915943026542666 -1.2351887822151182 -0.20061279088258741 1.0000000180025095e-35 -0.76683300733566273 -2.6340106725692745 1.1375436186790469 -0.68826913833618153 -0.51429137587547291 -1.8430278301239011 1.2388501763343813 -0.9586372673511504 -0.236539751291275 0.87805521488189708 0.96842625737190258 1.1374663114547732 -1.3600255846977232 1.0000000180025095e-35 -1.1320580840110777 -0.22555053979158399 -2.9268687963485713 -0.45570605993270868 -0.5405793786048888
decision_type=2 2 2 2 2 2 2 2 2 2 2 2 2 2 2 2 2 2 2 2 2 2 2 2 2 2 2 2 2 2 2 2 2 2 2 2 2 2 2 2 2 2 2 2 2 2 2 2 2 2 2 2 2 2 2 2 2 2 2 2 2 2
left_child=1 6 4 13 10 27 7 19 30 -10 12 -12 -3 33 29 16 17 18 37 21 -21 -1 26 28 -20 -25 58 -5 -6 31 -9 -8 -7 -4 44 -15 40 -2 53 -36 41 -24 48 -40 -19 55 -47 -45 -16 -44 -31 52 -28 54 -18 -38 -42 -55 60 -60 -17 -53
right_child=15 2 3 5 23 32 14 8 9 -11 11 -13 -14 35 42 22 38 34 24 20 -22 -23 36 25 -26 -27 51 -29 -30 50 -32 -33 -34 -35 39 -37 45 -39 43 -41 56 -43 49 47 -46 46 -48 -49 -50 -51 -52 61 -54 57 -56 -57 -58 -59 59 -61 -62 -63
leaf_value=0.042918374616822803 -0.075918996448248385 0.074101843203124351 -0.099049628145768648 0.14468540451464171 0.15654206349494343 0.19276969974663352 0.10539318678806509 -0.029843285299978834 -0.0027305429631582757 0.058817537425295358 -0.10191030387484992 0.20613119756736428 0.013012589520553092 -0.12968885981721406 -0.046953398749529536 0.16449724343166766 -0.028179019164653735 -0.047055535214405184 -0.039190565567158803 0.12226628725042771 0.055885915577164658 0.060512242561618072 -0.12066766532012303 -0.069867844140588595 0.055162429967499718 0.021941319961015525 -0.06164317831625598 -0.11378424484761132 0.0032708199358463933 -0.16170048252084993 0.046165373772911106 0.070218618162131471 -0.10842541807730871 0.19025159440739764 -0.036612184130964474 0.14359207124912352 0.049281032183165277 0.082429743794837529 -0.15615986791071518 0.091801937858939114 -0.025359413401735705 0.15076120361020282 -0.019819578146211225 0.14898282275185717 0.12998062118851456 0.15944340467357165 0.0012502001124670582 -0.061935569615128583 0.14256548024324356 0.136853036713078 0.040294385802840817 -0.066321082371892146 0.16079651653839919 0.14354004021681829 0.095992910411301452 -0.1487104524501229 0.16438854099407568 0.02625279580075689 0.031086364536883973 0.13990752078927446 0.30403199957917143 -0.12288488829301208
leaf_weight=23815.67587800324 76.395846948027611 2107.712865203619 127.10264152288437 40.713708039373159 106.61145065352321 111.29656306654215 3668.3161235451698 2104.392756190151 1982.0164133012295 5908.684892963618 98.778523072600365 355.9583999607712 4344.1730581633747 25.57175113260746 394.50499331206083 38.230196371674538 129.32873171567917 40.372264765202999 972.28549011051655 2294.8143011778593 3995.1420014351606 43936.27466696687 304.48915810137987 1374.8995197676122 542.21773888170719 416.6675486266613 31.470204200595617 373.77806164324284 1500.5932088196278 49.81542181968689 484.74188058078289 2933.4327343925834 27.773664131760597 27.33609963953495 134.94111590087414 1290.7976326048374 33.3719572275877 1366.2926732562482 13.826114282011984 463.51317895203829 36.912259787321091 31.885562762618065 64.646407291293144 1363.9791668057442 2025.0983575172722 99.838785365223885 95.124415680766106 24.743358254432678 31.938188940286636 111.81648384034634 41.676981210708618 9.722288213670252 31.668978717178106 199.0473330616951 162.37308557331562 44.638031825423241 38.037707284092903 63.226559072732925 21.44155041128397 213.18912178277969 15.945992588996885 48.662518452852964
leaf_count=59325 281 5480 538 73 168 117 6890 7253 6035 13245 397 533 14903 168 1466 56 428 135 3640 3462 9337 93889 1544 6278 1196 1527 355 3469 5543 213 1301 7001 455 24 453 1077 72 2985 62 804 122 37 212 1874 1800 120 269 88 46 181 98 38 53 211 328 211 54 136 54 151 12 371
internal_value=0 0.0522314 0.0297773 0.0772818 0.0204456 -0.032871 0.0552467 0.0530794 0.0287885 0.0433577 0.0399648 0.139218 0.0329693 0.11874 0.0803537 0.0763167 0.0843607 0.0707268 0.0333522 0.0565175 0.080104 0.0543278 0.0206315 -0.0192192 -0.0054106 -0.0485156 0.0929928 -0.0883959 0.0134378 0.0875841 -0.0156128 0.0897637 0.132618 -0.0478425 0.112216 0.138283 -0.0227591 0.0740446 0.123531 0.0628468 -0.0647129 -0.0949384 8.47459e-05 0.142254 0.12652 0.0404583 0.0822594 0.145225 -0.0327595 0.0794567 -0.069687 -0.0285733 0.0499268 0.0761287 0.0409401 -0.0640115 0.0709392 0.115266 0.144145 0.129963 0.205567 -0.113466
internal_weight=0 104148 12329.8 2024.37 10305.4 553.562 91817.9 84521.7 10479.8 7890.7 6906.62 454.737 6451.89 1470.81 7296.15 8672.27 7577.64 5621.12 2957.19 74041.9 6289.96 67752 1094.63 3398.77 1514.5 1791.57 410.331 414.492 1607.2 6693.24 2589.13 6601.75 139.07 154.439 2663.92 1316.37 684.298 1442.69 1956.52 598.454 411.325 336.375 602.906 1402.55 2065.47 272.973 194.963 1388.72 426.443 176.463 91.4924 121.524 63.1392 553.976 291.702 78.01 74.95 262.274 288.807 234.631 54.1762 58.3848
internal_count=268644 250704 40750 5921 34829 4114 209954 193847 27834 19280 21313 930 20383 1807 16107 17940 14421 11294 8102 166013 12799 153214 3519 13516 4836 7805 1090 3542 5711 14202 8554 13891 572 562 3192 1245 2429 3266 3127 1257 1757 1581 1905 2024 1935 672 389 1962 1512 393 311 817 408 1103 756 283 176 347 273 205 68 409
is_linear=0
shrinkage=0.1


Tree=12
num_leaves=49
num_cat=0
split_feature=116 98 31 136 31 106 134 0 32 74 108 83 97 69 72 32 36 118 112 24 53 74 77 104 69 79 123 108 112 114 112 61 2 117 5 35 122 32 112 45 72 35 105 107 39 36 35 41
split_gain=413.099 678.551 383.709 639.858 657.065 684.495 679.639 597.883 548.089 905.773 537.794 508.582 405.302 374.617 333.663 245.293 220.252 193.767 183.621 181.348 147.869 143.125 139.591 132.995 118.569 102.816 90.0849 131.18 86.9328 77.6858 44.1697 92.547 50.4679 39.0705 42.193 27.7233 24.5452 23.7389 18.7201 14.5727 6.6207 0.897273 0.556394 0.313158 0.205167 0.197557 0.101969 0.0888982
threshold=-1.4952855706214903 -0.42486406862735743 0.99932488799095165 1.0000000180025095e-35 1.0043751597404482 -0.87166535854339589 1.0000000180025095e-35 0.55163100361824047 0.9625544846057893 -0.95778143405914296 -1.0283806920051572 -0.7856752574443816 -1.0567178130149839 0.013943074736744167 -0.76990070939064015 0.91919159889221203 0.91227421164512645 -1.6227728128433225 -1.314838111400604 1.0726170539855959 1.1051706671714785 -0.85963714122772206 -0.50985127687454213 -0.79766103625297535 0.086721152067184462 -0.26655496656894678 -2.1961604356765743 -1.066117465496063 -1.3023836016654966 -1.4075853228569029 -1.3364306688308714 0.74462115764617931 0.075648173689842238 -1.5374493598937986 0.024755560792982582 0.88426655530929577 -1.9943660497665403 0.84329709410667431 -1.2801780104637144 0.95140931010246288 -0.27323928475379938 0.90058287978172313 -0.81482714414596547 -0.99141421914100636 1.0345550775527956 0.92137411236763012 0.86188140511512767 1.1097307801246645
decision_type=2 2 2 2 2 2 2 2 2 2 2 2 2 2 2 2 2 2 2 2 2 2 2 2 2 2 2 2 2 2 2 2 2 2 2 2 2 2 2 2 2 2 2 2 2 2 2 2
left_child=13 2 7 4 6 -6 -4 10 9 -5 15 -12 39 16 -14 -2 29 24 19 42 -21 -3 41 -10 26 28 35 -28 -24 30 31 -1 -32 34 38 -15 -31 40 -23 -9 -35 44 -18 45 -19 -20 -27 -45
right_child=1 21 3 8 5 -7 -8 12 23 -11 11 -13 14 17 -16 -17 18 22 43 20 -22 33 25 -25 -26 46 27 -29 -30 36 32 -33 -34 37 -36 -37 -38 -39 -40 -41 -42 -43 -44 47 -46 -47 -48 -49
leaf_value=-0.14767731459773645 0.047460776748261352 0.24804949807131768 0.046747292623171517 0.089534589033914508 0.054076146504033355 0.012696953605555339 0.085134948356386464 -0.1102842296825461 0.11283593702678928 0.010127510303603333 0.033829552808741843 -0.048298037052183579 0.049607121128197096 -0.040326749428299564 0.081144271324384967 0.080230762027312108 -0.16037651824857777 -0.1267146999273914 -0.14360106430544908 -0.00402008271829784 0.1844863339516494 -0.11772252165320099 0.097859160037405746 -0.089911345707219675 0.15916087258031583 -0.11278166284439753 0.12236362659267741 -0.13196162789212271 0.14141018932930779 0.23749529193774677 -0.12975736372536964 0.20904162386837896 0.042742249715243347 -0.11653315903279726 0.17714498910309034 -0.143029805229239 0.0021740852182543656 0.10893574090204078 0.11656369560767398 0.073026584383934542 -0.060995963688384384 -0.18601956526121977 -0.12803798481809889 -0.12889291604692443 -0.14882210410226851 -0.16836444159831643 -0.13859367218763166 -0.14639272324304434
leaf_weight=15.237702623009683 7541.8574832640588 12.284730128943918 12715.752411216497 3894.0442689657211 8025.3028971627355 7965.5775902941823 7236.9215945750475 141.65852176211774 3250.0528711825609 2276.1320762336254 39086.038182076067 768.85225708037615 8052.4115118272603 63.550433641299605 5750.5531916804612 3276.5577435903251 18.702196747064594 8.5675239935517364 12.706017747521402 59.015029549598694 141.11634749174118 17.288244169205431 2046.7738157976419 32.679210603237152 45.060531083494425 19.281717605888847 70.470986142754555 28.476093351840973 590.59150402247906 9.423562169075014 152.39803809672594 13.91415326297283 19.084422439336777 300.56755115278065 9.9899152144789678 44.819667890667915 8.3687850758433324 4.9118375405669203 4.2485925480723408 4.4737035483121863 23.116105981171131 4.9423959404230109 7.4356463924050322 17.994846016168598 8.2308132648468 4.3158951103687277 1.662417348474263 3.4612140655517569
leaf_count=71 19291 12 27763 6022 16706 21086 11954 4013 4334 6081 104518 3470 16611 332 9140 6402 87 56 61 189 167 216 2933 117 34 235 83 186 506 8 836 21 52 4093 8 248 32 20 13 7 360 22 47 109 41 20 11 20
internal_value=0 0.0471528 0.047609 0.054655 0.0485666 0.0334638 0.0606707 0.0426592 0.0778054 0.0602419 0.0376126 0.0322452 0.0609921 0.0824639 0.062746 0.0573858 0.000876645 0.0959069 0.0622028 0.0965458 0.128899 -0.0876034 0.103795 0.110818 0.01214 0.105859 -0.019815 0.0491711 0.107612 -0.0734546 -0.0912141 0.0225843 -0.11056 -0.0990534 0.00728522 -0.0828026 0.12681 -0.109256 -0.0715047 -0.104672 -0.112567 -0.148566 -0.151177 -0.139751 -0.137547 -0.14988 -0.11483 -0.131716
internal_weight=0 110391 110019 45396.5 35943.6 15990.9 19952.7 64622.4 9452.91 6170.18 50673.3 39854.9 13949.1 3415.6 13803 10818.4 483.174 2932.43 264.747 226.269 200.131 372.407 2680.05 3282.73 252.378 2658.31 207.317 98.9471 2637.37 218.427 200.634 29.1519 171.482 360.122 31.5268 108.37 17.7923 328.595 21.5368 146.132 323.684 21.7407 26.1378 38.478 16.7983 17.0219 20.9441 21.4561
internal_count=268644 262237 257515 94063 77509 37792 39717 163452 16554 12103 133681 107988 29771 6407 25751 25693 1720 4687 700 490 356 4722 3804 4451 883 3685 849 269 3439 1020 980 92 888 4710 237 580 40 4473 229 4020 4453 119 134 210 97 81 246 129
is_linear=0
shrinkage=0.1


Tree=13
num_leaves=61
num_cat=0
split_feature=39 30 39 132 30 104 23 103 103 30 30 41 124 116 38 115 123 125 26 40 135 29 132 127 93 53 124 114 135 106 113 27 44 102 41 46 30 47 33 84 89 122 112 105 47 50 75 86 39 91 104 59 52 124 47 48 96 49 38 70
split_gain=412.874 411.825 533.072 498.553 441.95 700.086 390.142 384.337 377.848 563.251 371.025 335.4 287.957 739.586 602.646 536.926 484.961 395.099 295.655 281.102 219.183 203.109 195.639 378.341 233.025 226.987 174.18 281.232 161.711 100.292 98.9854 95.4916 144.522 97.0232 88.3447 73.0763 72.6177 70.3221 67.3705 65.1135 58.8068 58.0895 47.074 47.6151 45.7729 45.75 45.6611 44.833 44.2756 32.9108 59.7275 23.0433 19.8621 16.4422 15.1453 13.1573 4.16025 0.611637 0.129442 0.0491693
threshold=1.0380821824073794 1.0621770620346072 0.91032588481903087 1.0000000180025095e-35 1.0938844680786135 -0.92449688911437977 1.5688239336013796 -0.83375361561775196 -0.95916676521301258 1.0354478359222414 1.1011337637901308 0.9978732466697694 -1.3289754390716551 -0.967848241329193 0.95091620087623607 -0.9286365509033202 -1.2659690976142881 -1.5713441371917722 1.327794671058655 1.0208655595779421 1.0000000180025095e-35 1.1811814308166506 1.0000000180025095e-35 -2.0914030075073238 -0.92396885156631459 1.1149387359619143 -1.6485738754272459 -1.0665209293365476 1.0000000180025095e-35 -0.89342635869979847 -0.9736405313014983 1.1267022490501406 1.1616860628128054 -0.73406893014907826 1.0917997956275942 1.1984481215476992 1.0800533890724184 1.2490106821060183 0.85340759158134472 -1.3197506070137022 -1.0686905980110166 -2.0127347707748409 -1.1773331761360166 -0.93586778640747059 1.2359899878501894 1.1996098160743716 -1.0133079290390012 -0.6453171670436858 1.0393548011779787 -1.0574051141738889 -0.95171046257019032 0.91795217990875255 1.1419261097908022 -1.5976643562316892 1.2224855422973635 1.2081585526466372 -1.0280398726463316 1.2014492154121401 1.0195792317390444 -0.44265356659889216
decision_type=2 2 2 2 2 2 2 2 2 2 2 2 2 2 2 2 2 2 2 2 2 2 2 2 2 2 2 2 2 2 2 2 2 2 2 2 2 2 2 2 2 2 2 2 2 2 2 2 2 2 2 2 2 2 2 2 2 2 2 2
left_child=1 2 8 4 7 6 -6 11 21 38 -7 -3 13 17 18 -16 -15 -4 -14 -9 -11 30 23 24 35 48 27 -26 -23 41 -1 32 34 39 -25 53 42 47 -10 -33 -28 45 59 -44 -43 -27 -34 -31 52 56 -51 -39 55 -2 57 -24 -38 -50 -35 -5
right_child=22 3 12 36 5 10 -8 19 9 20 -12 -13 14 16 15 -17 -18 -19 -20 -21 -22 28 25 31 26 29 40 -29 -30 37 -32 33 46 58 -36 -37 49 51 -40 -41 -42 44 43 -45 -46 -47 -48 -49 54 50 -52 -53 -54 -55 -56 -57 -58 -59 -60 -61
leaf_value=0.042311383965806852 -0.14559330777171278 0.049048183193155466 0.033284920580192869 -0.12858645878712383 0.08719897591026074 0.00047653535079866902 -0.014491981380694342 -0.0071952201066622194 -0.1021794160868585 0.022514584988183789 -0.097034120985169114 0.078375485132460121 0.025954919995948525 -0.06700395068815744 0.11791331807923891 0.052013834451567667 0.017628220312268243 0.054323666176388688 0.17660427537847351 0.12002654575147226 -0.054802089529396407 0.16472391681679346 -0.14227791706358769 -0.082377058969427625 0.034306766844752291 -0.1773902285785838 0.049454852286201945 -0.11319924490554761 -0.15832854695319978 0.28343666509548093 -0.098456025842704964 0.14148739551617126 0.12792847432648488 -0.14926903206654393 0.045861910978110328 0.093569304240002815 0.11347382938325164 0.16929059293319049 0.054101875271460244 0.091981744735748439 0.12999121182166551 0.099360883757108887 0.11558666997664746 0.068694985261136349 0.13430437282344893 0.069080837831217018 0.048157392799834317 -0.13111380138378204 -0.14237793486522946 -0.080277792247792343 0.10981898952617784 -0.022776781822330693 0.13404318778072336 -0.057933685334817554 0.029506387752012642 0.071166274319369505 0.14362783617191935 -0.17164882794502148 -0.16981781737200519 -0.14307535513380273
leaf_weight=577.58087167143822 95.95056588947773 33567.985276147723 34169.672022117302 5.8112419992685318 1464.3574773818254 1920.447767406702 508.20986671000719 1674.6611076146364 657.99434849061072 1876.5404366254807 489.71351746469736 4412.1508108526468 5015.277419578284 1061.40119908005 2052.6700692474842 3109.0164580158889 1869.8825486004353 12082.540543839335 133.74609345197678 193.77227959036827 455.69573602080345 208.53402695804834 6.8054112568497676 91.506619602441788 1130.7050358466804 12.055811308324335 159.02274717390537 145.93701024353504 16.738866209983826 2.8103055953979483 54.683045879006386 398.63565218448639 195.96868327260017 9.5238222628831846 130.09535983204842 17.27050007879734 50.866286799311638 18.860229540616277 28.790864989161491 796.59087201952934 210.92087650299072 1005.0159744620323 350.78233318030834 565.88215413689613 597.86668068170547 20.066231682896614 113.20744029432535 36.386201433837414 35.21891526132822 17.990819856524467 203.29904769361019 9.3398523069918138 11.221549823880194 27.538508221507072 5.3724912256002417 5.0170943140983582 455.24207320809364 8.9536000192165357 4.5206009447574607 3.9235835671424848
leaf_count=1510 463 67832 92634 34 2176 4750 1598 4768 7102 5067 1946 8028 12693 3838 3105 6991 4948 25502 184 235 1636 260 34 344 2758 72 358 617 73 1 574 379 230 44 306 26 36 14 68 1323 278 935 323 789 315 30 242 244 181 53 189 69 13 111 11 12 213 40 19 20
internal_value=0 0.0417623 0.036538 0.0489774 0.0469618 0.016821 0.0609994 0.0502769 0.000607571 -0.0160315 -0.0193364 0.0524551 0.0388792 0.0356938 0.0540739 0.0782204 -0.0130166 0.0387809 0.029868 0.00599875 0.00740768 0.0591866 0.0703358 0.05671 0.024396 0.0974141 0.034953 0.0174449 0.14072 0.104798 0.0301367 0.0899024 0.0545428 0.105423 -0.0070921 -0.0990993 0.102884 -0.0147494 -0.0956279 0.108493 0.0953721 0.109726 0.0843161 0.0866391 0.112395 -0.0234229 0.0987196 -0.101391 -0.0757661 0.126532 0.0943642 0.105678 0.0387501 -0.126045 -0.129029 -0.051699 0.140597 -0.148311 -0.155883 -0.134426
internal_weight=0 109256 63370.8 45885.1 44231.3 4382.73 1972.57 39848.6 3876.56 3019.02 2410.16 37980.1 59494.2 49183.5 10310.7 5161.69 2931.28 46252.2 5149.02 1868.43 2332.24 857.537 5302.38 3527.39 1787.35 1774.99 1646.59 1276.64 225.273 1702.4 632.264 1740.05 530.778 1209.27 221.602 140.76 1653.8 67.3966 686.785 1195.23 369.944 1635 926.399 916.664 1602.88 32.122 309.176 39.1965 72.5891 727.398 221.29 28.2001 23.0441 123.489 49.545 11.8225 506.108 44.1725 14.0444 9.73483
internal_count=268644 259175 166185 92990 91333 10470 3774 80863 16290 13873 6696 75860 149895 126922 22973 10096 8786 118136 12877 5003 6703 2417 9469 7498 4611 1971 4011 3375 333 1680 2084 2887 1122 1765 650 600 1657 328 7170 1702 636 1352 1166 1112 1250 102 472 245 291 491 242 83 59 574 232 46 249 221 63 54
is_linear=0
shrinkage=0.1


Tree=14
num_leaves=50
num_cat=0
split_feature=73 115 79 122 84 110 126 110 123 31 81 128 35 86 111 114 32 80 53 0 130 35 73 31 35 110 136 32 106 30 39 107 70 72 97 7 2 14 30 79 31 97 61 114 105 31 0 107 3
split_gain=386.127 442.813 545.853 516.661 429.838 796.231 759.916 425.396 470.5 421.979 384.204 734.198 371.509 354.394 291.448 271.098 248.671 197.051 187.344 164.694 151.861 315.026 209.643 150.188 148.27 147.438 147.251 128.664 179.182 127.528 115.473 124.114 112.568 107.791 85.8811 85.7717 79.5032 26.8565 26.8414 22.863 19.083 16.0132 37.504 7.0532 6.49819 1.61849 1.57153 0.0827621 0.00132393
threshold=-0.93580549955368031 -0.9201156198978423 -1.4274753332138059 -1.1376745700836179 -1.3535958528518675 -0.88529482483863819 -1.5288529992103574 -0.87644827365875233 -1.2640395760536192 1.009389400482178 -1.34607857465744 1.0000000180025095e-35 0.93599978089332592 -1.3466431498527525 -0.91892734169960011 -0.86872196197509755 0.95160824060440075 -1.3775522112846372 0.9917387366294862 0.52817812561988842 1.0000000180025095e-35 0.92328992486000072 -0.84439280629158009 1.012152433395386 0.93358653783798229 -0.84452527761459339 1.0000000180025095e-35 0.94033753871917736 -0.90484619140624989 1.1032847762107851 0.9444984793663026 -0.81696975231170643 -0.45883233845233912 -0.70167401432991017 -0.99146899580955494 0.57248407602310192 0.56966155767440807 0.95352676510810863 1.0938844680786135 -1.1822959780693052 1.004628121852875 -1.0354871749877927 0.5384713113307954 -0.8218955099582671 -0.8769637644290923 0.99819931387901317 0.52609348297119152 -0.821344494819641 0.6969185769557954
decision_type=2 2 2 2 2 2 2 2 2 2 2 2 2 2 2 2 2 2 2 2 2 2 2 2 2 2 2 2 2 2 2 2 2 2 2 2 2 2 2 2 2 2 2 2 2 2 2 2 2
left_child=13 4 16 24 7 10 26 30 12 15 14 -12 -9 37 -6 -5 33 -10 -11 -8 22 -22 -18 27 45 -26 -7 28 29 -15 36 -32 -30 34 -3 -35 -2 -1 -25 46 43 42 -29 47 -43 -4 -40 -39 -45
right_child=1 2 3 9 5 6 19 8 17 18 11 -13 -14 23 -16 -17 20 -19 -20 -21 21 -23 -24 38 25 -27 -28 41 32 -31 31 -33 -34 35 -36 -37 -38 40 39 -41 -42 44 -44 48 -46 -47 -48 -49 -50
leaf_value=0.17050140443962736 -0.13080371722109776 0.11769682868980036 -0.15152554618607159 0.02597417894642097 0.11552106054203602 -0.11092235290230734 0.012311283986528967 -0.10364700879423588 0.086125134921685775 0.040239715106395735 0.039920968533531165 -0.0032523126469653982 0.026883120104638628 0.11946579259435752 0.054030146853848063 -0.03693060807728616 0.16334979470711194 0.003711802215002254 -0.097771063134025615 0.11957273258715201 -0.14697266172726806 0.17233912379601027 0.069371205928942151 0.050582805089407268 0.092320019635296971 -0.13066945425885201 0.050604849346251514 0.18590493621781104 0.057667735453015567 0.031037445323760529 0.11450178017062672 0.037662789333859581 -0.10372411987088077 0.15449685993734627 -0.15513924738316615 -0.13453224369704267 0.11283143842609372 -0.17633934321553724 -0.14081688382068899 0.080393344762594021 0.10009116271476921 0.13843841763733566 0.003229853231415634 -0.10690193446169582 0.19109331205860805 -0.16873282173525483 -0.18459705116739811 -0.16318808682744051 -0.10292532393174028
leaf_weight=3.6086803115904322 35.401608392596245 55.439618991687894 139.46380647085607 6705.709658883512 1015.9248139858246 757.13444066792727 860.52497653663158 300.47977842390537 1713.410346865654 124.89414195716381 87213.856955904514 4125.288446828723 794.80212715268135 1063.5409775972366 3194.5105818659067 763.06846993602812 411.59476693347096 349.26395094394684 462.9514042288065 171.71526251733303 70.82745648920536 54.80423529446125 560.7581924200058 10.209972739219664 58.574193745851517 60.048868715763092 60.983089655637741 28.373744681477547 1117.2241107523441 192.62570514529943 1837.6626135110855 237.36405567824841 44.955863624811172 11.619034022092817 14.568804942071436 88.262594083324075 21.545225575566292 9.9797429293394107 17.748706355690956 4.4515155255794516 4.2854273766279212 29.262931615114212 18.610211998224258 0.84552726894616981 117.73902103304863 89.895992591977119 15.238778308033941 9.1931935846805555 85.218082930892706
leaf_count=7 140 165 628 15671 1528 3085 2194 1228 3148 265 199291 11397 2253 1137 6504 3476 460 944 1770 242 291 61 1161 19 117 262 134 12 2221 424 2667 538 152 17 65 1087 34 41 89 8 6 27 41 14 43 374 63 39 3104
internal_value=0 0.0376554 0.0172006 0.0079739 0.0395821 0.0380743 -0.0268978 0.0673436 0.0440434 0.0131267 0.0393325 0.0379711 -0.00892653 0.0754279 0.0688671 0.0195473 0.0783638 0.0721704 -0.0684492 0.0301544 0.0957842 -0.00767948 0.109152 0.0828003 -0.111327 -0.0205608 -0.098882 0.0860095 0.079724 0.105906 0.101857 0.105712 0.0514247 -0.0342232 0.0609194 -0.10091 -0.038627 -0.0979161 -0.0931401 -0.132335 -0.10676 0.164369 0.113548 -0.115184 0.180612 -0.15827 -0.161041 -0.170033 -0.102964
internal_weight=0 112362 9672.48 8404.61 102690 97399.9 1850.36 5289.93 3157.96 8056.62 95549.6 91339.1 1095.28 2773.11 4210.44 7468.78 1267.87 2062.67 587.846 1032.24 1097.98 125.632 972.353 2659.98 347.983 118.623 818.118 2612.33 2418.35 1256.17 2131.97 2075.03 1162.18 169.89 70.0084 99.8816 56.9468 113.131 47.649 37.439 109.522 193.986 46.984 105.237 147.002 229.36 32.9875 19.1729 86.0636
internal_count=268644 261197 25870 22563 235327 224375 5655 10952 7573 21182 218720 210688 3481 7447 8032 19147 3307 4092 2035 2436 1973 352 1621 4236 1381 379 3219 4057 3934 1561 3379 3205 2373 1334 230 1104 174 3211 179 160 3204 123 53 3198 70 1002 152 80 3118
is_linear=0
shrinkage=0.1


Tree=15
num_leaves=53
num_cat=0
split_feature=41 73 31 134 4 49 130 31 31 98 124 30 0 122 80 115 108 98 31 108 45 32 100 33 49 108 47 81 37 123 51 71 70 53 104 3 53 107 46 48 30 35 79 51 53 61 121 97 0 36 114 52
split_gain=392.969 337.111 383.833 1045.39 802.186 530.174 537.727 456.116 442.333 413.999 314.898 310.361 411.076 332.535 299.167 286.198 240.686 239.56 123.002 117.342 132.024 102.36 164.404 96.8036 127.143 95.249 84.1994 83.5769 68.0027 61.7927 60.5247 55.6351 83.4171 68.5647 66.21 47.5109 36.1094 38.7102 35.474 33.7211 22.9521 22.067 19.6773 19.206 18.3416 18.3001 16.6962 15.8085 14.2913 11.2111 7.84405 2.46346
threshold=1.1123747229576113 -0.93580549955368031 0.99631163477897655 1.0000000180025095e-35 0.47758972644805914 1.1549900174140932 1.0000000180025095e-35 0.99282774329185497 1.0135332345962527 -0.80034554004669178 -1.5806861519813535 1.0980208516120913 0.59274023771286022 -1.0624704360961912 -1.3959685564041135 -1.0658332109451292 -0.87915408611297596 -0.99500125646591175 1.012152433395386 -1.0533360242843626 1.2124574780464175 0.94033753871917736 -0.96314173936843861 0.9329192340373994 1.2340370416641238 -1.0427803397178648 1.2202556729316714 -0.84478518366813649 0.98044630885124218 -2.1961604356765743 1.1946126818656924 -0.33846470713615412 -0.13509824872016904 1.1179401278495791 -0.81343024969100941 0.35129489004611975 1.1110543608665469 -0.98920384049415577 1.2206047177314761 1.2308280467987063 1.0938844680786135 0.87745675444602977 -1.1822959780693052 1.1632510423660281 1.1533008813858034 0.81017735600471508 -1.3209663629531858 -1.0354871749877927 0.11544615030288698 0.92252710461616527 -0.8218955099582671 1.1469749808311465
decision_type=2 2 2 2 2 2 2 2 2 2 2 2 2 2 2 2 2 2 2 2 2 2 2 2 2 2 2 2 2 2 2 2 2 2 2 2 2 2 2 2 2 2 2 2 2 2 2 2 2 2 2 2
left_child=1 14 3 11 7 6 8 -5 -4 -8 15 12 -3 -13 35 -7 -12 -6 21 20 38 22 -16 24 26 45 -21 -27 29 30 -22 34 43 -34 48 -1 -30 -38 49 -31 -20 50 -42 -33 -28 -26 -36 -23 -25 -2 -37 -51
right_child=19 2 5 4 17 10 9 -9 -10 -11 16 13 -14 -15 18 -17 -18 -19 40 23 28 47 -24 31 25 27 44 -29 36 39 -32 32 33 -35 46 41 37 -39 -40 -41 42 -43 -44 -45 -46 -47 -48 -49 -50 51 -52 -53
leaf_value=0.16301136873509778 0.0072783123290470686 0.027872297128758244 0.041858820967474022 -0.010036721262179971 0.15545299648969929 0.05030474903156882 0.005737253613845231 0.11375133195592511 -0.011724086485753599 0.19364903006065007 0.12397808630858453 0.014359334569171692 0.054882700609177687 -0.11145443740468619 0.08519702255258077 -0.14911608110233898 0.038296880908845525 -0.084056152782903945 0.045398208971132621 0.097454196824886166 -0.15320565747777173 0.099564189795932623 0.019444631481959733 0.01723723243559656 0.16542366602737768 0.057394975991579 -0.14768512527910152 -0.11629830337024012 0.15333577685053015 0.091671904205776547 0.13125464764713335 0.071910924744665927 -0.16108207687215761 0.051636961421756701 -0.15592234345900724 -0.1691046436919601 -0.19939624484875279 0.10848650716205693 0.081275150157570447 0.12632712011811764 -0.15218540777447692 0.12043189047821708 0.072078868181423603 0.1312761451283691 -0.051996967055450032 0.064234443076654879 0.034996192768717169 0.16407540221920569 0.13779776621878906 -0.14280144451693599 -0.10267950337197176 -0.20849506904986917
leaf_weight=6.8574647158384314 3.879642583429816 43392.773154908791 46045.453445207328 1103.1590431984514 42.888210088014603 854.15109694004059 6299.5897730067372 407.65254080295563 1593.9565459191799 119.46753975749016 1450.4387842714787 657.42234276980162 6475.3940552249551 308.73282872140408 1928.7752772085369 78.586999282240868 423.60330401360989 1588.7140844762325 10.236772999167441 22.297788143157959 17.748739847913388 51.407894745469093 473.65131259523332 19.903922438621521 58.889314994215965 79.073127590119839 65.808577692136168 42.641703050583601 6.4758053570985821 516.5086802393198 12.927981249988077 70.499688625335693 16.848898306488991 150.50894978642464 24.489490225911144 23.042952716350555 15.26199942082167 5.5755949020385716 8.8313248530030233 615.21558887511492 31.488710686564442 4.0420499593019477 4.4675070345401791 240.08415959775448 28.797686206176877 25.660086929798126 5.6344846338033667 145.48715704679489 19.431516453623772 11.101875536143782 77.802727265283465 11.749248512089251
leaf_count=7 8 113294 93574 3677 26 1657 16993 749 4201 104 1738 1693 12066 1285 2852 325 931 5760 19 37 128 61 1072 38 30 170 365 347 4 449 17 105 73 262 110 97 71 4 14 339 152 5 8 213 107 79 12 71 14 62 3103 66
internal_value=0 0.0337311 0.0328719 0.0268319 -0.0291417 0.0386052 0.036405 0.0233642 0.040066 0.00923455 0.0809805 0.030292 0.0313796 -0.0258442 0.0682703 0.0335027 0.104611 -0.0777604 0.0750401 0.0774299 0.0973748 0.0779146 0.0722336 0.0493586 0.00595932 0.0531803 -0.0773568 -0.00345691 0.10305 0.106715 -0.0333266 0.0749802 0.0871336 0.0302213 -0.00864627 -0.092002 -0.0529167 -0.117015 -0.0924867 0.110511 -0.0867097 -0.108675 -0.124321 0.117801 -0.118558 0.134714 -0.120212 0.147232 0.0767936 -0.149894 -0.117857 -0.176579
internal_weight=0 113599 110842 53976.7 3142.41 56865.2 54058.5 1510.81 47639.4 6419.06 2806.78 50834.3 49868.2 966.155 2757.26 932.738 1874.04 1631.6 2645.51 2095.85 1225.28 2599.32 2402.43 870.569 323.168 206.264 116.904 121.715 1189.71 1162.4 30.6767 547.401 477.942 167.358 69.4594 111.745 27.3134 20.8376 35.5621 1131.72 46.193 104.888 35.9562 310.584 94.6063 84.5494 30.124 196.895 39.3354 26.7308 100.846 22.8511
internal_count=268644 265520 258073 138550 10212 119523 114872 4426 97775 17097 4651 128338 125360 2978 7447 1982 2669 5786 4235 3124 1162 4056 3924 1962 1135 626 509 517 1012 933 145 827 653 335 174 3212 79 75 150 788 179 3205 160 318 472 109 122 132 52 136 3200 128
is_linear=0
shrinkage=0.1


Tree=16
num_leaves=59
num_cat=0
split_feature=40 58 70 61 39 71 69 35 127 105 109 45 49 54 108 47 106 124 41 71 107 55 82 39 129 62 135 100 124 111 48 72 72 51 69 120 128 108 40 61 62 43 66 22 105 99 41 106 40 45 74 51 123 68 14 118 116 54
split_gain=363.989 364.644 518.153 523.323 552.416 408.55 421.143 366.508 446.707 390.447 315.825 534.204 359.911 292.606 245.854 234.418 201.734 254.568 249.582 197.751 173.733 168.161 162.998 162.239 140.271 137.914 132.436 131.043 126.495 120.264 117.64 100.821 97.1973 79.9668 60.662 60.6116 51.8252 46.5226 45.2909 44.3192 44.0639 69.8783 52.7738 42.2972 41.0761 19.8895 13.4049 1.25443 1.05804 0.747284 0.678228 0.424613 0.217717 0.138153 0.111106 0.0764409 0.048523 0.00698061
threshold=1.0716405510902407 0.92054972052574169 -0.11851658299565314 0.73266783356666576 1.0272836685180666 -0.17720933258533475 -0.054003579542040818 0.94320228695869457 -2.0155405998229976 -0.81317853927612294 -1.1246107220649717 1.2032639384269717 1.1944671273231509 1.1613509654998782 -1.0683121085166929 1.2100163698196413 -0.90413039922714222 -1.6485738754272459 1.1151733398437502 -0.42636878788471216 -0.95663413405418385 1.0629392862319949 -0.17758738994598386 0.99771499633789074 1.0000000180025095e-35 0.64695516228675853 1.0000000180025095e-35 -0.75455516576766957 -2.3936582803726192 -1.2696434259414671 1.2394790053367617 -0.48896892368793482 -0.27323928475379938 1.1729902625083926 0.056756330654025085 -1.74258816242218 1.0000000180025095e-35 -1.0583029985427854 1.0629028677940371 0.74895232915878307 0.6766977608203889 1.1451945900917055 0.33549985289573675 1.1889843344688418 -0.79792547225952137 -0.73209613561630238 1.0989349484443667 -0.93620741367340077 1.088512182235718 1.2032639384269717 -0.42407734692096705 1.1667599678039553 -1.8065244555473325 0.13124625384807589 0.57015886902809154 -1.6015915870666502 -1.5071262121200559 1.0871469974517824
decision_type=2 2 2 2 2 2 2 2 2 2 2 2 2 2 2 2 2 2 2 2 2 2 2 2 2 2 2 2 2 2 2 2 2 2 2 2 2 2 2 2 2 2 2 2 2 2 2 2 2 2 2 2 2 2 2 2 2 2
left_child=1 2 3 7 29 6 19 9 -9 -1 11 37 20 14 -8 -6 24 18 27 25 -12 -21 35 -15 26 -3 32 43 -13 -5 -29 40 33 -2 -14 46 44 -4 -37 -38 42 -42 -19 -18 -20 48 -7 52 -33 -28 -34 -49 54 -51 -26 56 -24 -57
right_child=16 5 10 4 15 22 13 8 -10 -11 12 28 34 23 -16 -17 17 31 36 21 -22 -23 55 -25 47 -27 49 30 -30 -31 -32 45 50 -35 -36 38 39 -39 -40 -41 41 -43 -44 -45 -46 -47 -48 51 -50 53 -52 -53 -54 -55 -56 57 -58 -59
leaf_value=0.032035283555506493 0.042770357402273348 0.10647108142060067 -0.14463701046829372 0.075894649698554903 0.010630425228512477 0.13845165489497133 0.07339577827888856 -0.0021595519947419711 0.091330246462563436 0.0098289482949210638 0.13280002996208079 -0.075118966283527336 -0.17057815334205823 0.32413446393412637 -0.065948008128417071 0.12275859268177536 -0.16258532418274746 0.02521743736455876 0.077868791980783225 -0.075802932483941543 -0.010238780936009696 0.10895272825262731 -0.11122930569971037 -0.0087588957803959016 -0.11156482815609525 -0.088534251632425565 -0.14110531125176359 -0.082998676584018216 0.16158402406481151 -0.071084301172693778 0.059158934656916663 -0.14626293587962733 -0.17237782792697862 0.099009692176198816 0.14975612701069146 -0.13792106804643395 0.09660195755505141 -0.019621413176711271 0.10307800526169802 -0.1350722026146671 0.0058172633100748274 0.085783341859735032 0.14524960006008186 0.081536185013923235 0.012474996121929602 0.06840426896568795 0.19837076050163882 -0.15758110818467719 -0.2001035029936932 -0.17259489740811873 -0.12010283849292852 -0.20011793050383414 -0.1582098277955474 -0.19388325846106957 -0.13309196718876923 -0.11392096274136798 -0.125735493383309 -0.10597283155652293
leaf_weight=93383.989842580631 298.02882055565715 49.242070183157921 141.17250843346119 58.527680218219757 1523.1850365847349 173.89792729914188 138.19098538905382 685.65900763869286 2007.3659549206495 8651.3973679728806 1117.0815699156374 26.525622010231018 51.10600771009922 32.104638665914536 1512.2157215047628 212.45535956323147 7.6799477934837332 46.017874330282211 394.97412099689245 56.43830794095993 91.898640789091587 387.54315049946308 5.6531364545226097 26.912629595026374 3.1457521244883564 137.64255307987332 7.6379695087671307 401.86194561235607 151.66342210769653 1140.3275012224913 68.073392372578382 16.686299562454231 2.8838291913270977 1667.1113106235862 6.6849466860294333 13.183862604200838 12.246869340538977 37.720628447830677 19.08814063668251 25.347355529665947 136.62599617242813 545.92383013665676 179.52626959979534 93.567327335476875 126.91987584345043 4.739587500691413 47.544552713632584 4.5781149715185148 4.6718036234378806 8.2369992285966855 17.808689579367638 4.8147742003202438 2.9039552807807949 4.8394570648670188 10.080139793455599 1.1681401655077959 3.8944355323910731 20.444380570203066
leaf_count=206210 648 131 624 136 4186 100 342 1774 3309 26481 813 92 221 40 8797 344 34 85 624 248 223 991 67 106 35 623 38 1666 96 4570 235 82 13 1462 5 82 16 131 53 95 318 846 164 160 527 8 19 21 19 35 154 20 14 20 56 11 31 393
internal_value=0 0.0299074 0.0307921 0.0299465 -0.0117038 -0.0069226 -0.0206863 0.0311135 0.0675272 0.0301524 0.0868588 0.00379438 0.110273 -0.0464569 -0.0542805 0.0243558 0.0602549 0.0382417 0.00632584 0.0491427 0.121927 0.0854668 0.106149 0.172331 0.0826233 -0.0371525 0.0855865 -0.0401735 0.126348 -0.0639088 -0.0624062 0.07687 0.0882104 0.0904806 -0.133524 0.132658 0.0537971 -0.118277 0.00462429 -0.059601 0.0824392 0.0697765 0.120759 0.0630187 0.0619656 -0.116915 0.151317 -0.150333 -0.15804 -0.165957 -0.127388 -0.179385 -0.133416 -0.180473 -0.127972 -0.109694 -0.117146 -0.106402
internal_weight=0 111912 109287 107663 2934.5 2625.16 2340.29 104728 2693.02 102035 1623.85 357.082 1266.77 1709.42 1650.41 1735.64 4096.93 2064.86 1130.67 630.866 1208.98 443.981 284.875 59.0173 2032.07 186.885 2006.55 571.183 178.189 1198.86 469.935 934.192 1985.83 1965.14 57.791 253.714 559.488 178.893 32.272 37.5942 908.094 682.55 225.544 101.247 521.894 26.0977 221.442 25.5227 21.3581 20.7144 20.6925 9.39289 16.1298 13.0765 13.2259 31.1601 9.54757 21.6125
internal_count=268644 261249 249215 247010 9236 12034 11278 237774 5083 232691 2205 943 1262 9285 9139 4530 7395 4879 3357 1993 1036 1239 756 146 2516 754 2370 2095 188 4706 1901 1522 2277 2110 226 254 1262 755 135 111 1413 1164 249 194 1151 109 119 146 101 93 167 41 105 55 91 502 98 404
is_linear=0
shrinkage=0.1


Tree=17
num_leaves=62
num_cat=0
split_feature=39 110 117 60 70 71 70 107 108 127 94 52 50 71 43 102 40 109 104 32 51 33 71 105 109 50 72 32 43 83 71 95 30 102 72 60 37 104 50 72 82 111 33 122 58 71 39 41 110 121 112 46 48 111 47 31 108 71 61 59 126
split_gain=328.08 463.865 507.06 660.284 592.412 324.124 341.176 309.011 268.575 525.987 350.671 332.724 249.971 380.087 224.506 218.831 418.023 204.371 188.48 186.008 155.611 172.352 137.234 116.773 109.018 305.439 108.928 108.578 106.459 141.062 105.514 102.464 96.7483 96.2211 89.6238 96.9827 87.1127 80.4114 136.77 77.7533 73.4338 66.4059 70.5224 56.3281 57.4436 55.915 46.7402 40.4015 38.0405 32.4663 25.8617 19.932 8.77783 0.878092 0.483396 0.354618 0.274103 0.268004 0.223329 0.172267 0.0250065
threshold=1.0297394990921023 -1.1876391768455503 -1.5325338840484617 0.78539177775383007 -0.15395449846982953 -0.37083731591701502 -0.12384244054555892 -1.0121662020683286 -1.0619221925735471 -2.046682476997375 -0.91034710407257069 1.1419261097908022 1.1837878823280337 -0.17720933258533475 1.1081768274307253 -0.77119097113609303 1.0750777125358584 -1.1426512598991392 -0.75021743774414051 0.89047071337699901 1.1632510423660281 0.8562527894973756 -0.1908004432916641 -0.82192596793174733 -1.1246107220649717 1.1667414903640749 -0.51429137587547291 0.96201428771018993 1.1401286125183108 -1.3980095982551572 -0.30075466632843012 -0.87821444869041432 1.0140133500099184 -0.61193829774856556 -0.41626223921775812 0.7299497425556184 0.94690763950347911 -0.77301576733589161 1.1972721815109255 -0.32645788788795466 -0.17758738994598386 -1.2511464357376096 0.91633617877960216 -2.0030320882797237 0.89851981401443493 -0.25687129795551294 1.0345550775527956 1.0917997956275942 -1.1707421541213987 -1.1480984091758726 -1.2866230607032774 1.2354743480682375 1.2008093595504763 -0.95061680674552906 1.217774569988251 0.99943870306015026 -1.0735023021697996 -0.21971516311168668 0.78383052349090587 0.86774030327796947 -2.6291226148605342
decision_type=2 2 2 2 2 2 2 2 2 2 2 2 2 2 2 2 2 2 2 2 2 2 2 2 2 2 2 2 2 2 2 2 2 2 2 2 2 2 2 2 2 2 2 2 2 2 2 2 2 2 2 2 2 2 2 2 2 2 2 2 2
left_child=1 17 12 4 7 14 -7 -4 11 10 53 39 43 50 -5 32 -17 20 26 24 21 52 37 -6 36 -26 27 -11 29 -20 -23 -28 -12 47 35 -21 -19 46 -39 41 -15 45 -43 48 -45 -2 -13 -22 -3 -30 -14 58 -1 55 57 -10 -35 -41 -24 -55 -36
right_child=8 2 3 5 23 6 -8 -9 9 18 15 22 13 40 -16 16 -18 19 28 34 33 30 51 -25 25 -27 31 -29 49 -31 -32 -33 -34 56 60 -37 -38 38 -40 54 -42 42 -44 44 -46 -47 -48 -49 -50 -51 -52 -53 -54 59 -56 -57 -58 -59 -60 -61 -62
leaf_value=-0.14795585239467771 0.14726469183631669 0.12882626696377569 0.06126974012982677 -0.046802071318319621 0.18738812525702475 -0.069025869406991805 0.012407513893445 0.026695200932142074 -0.15612515492033796 0.041485453093649198 -0.11527474600335458 0.16885834540720021 -0.13523293299217304 0.15038172329475127 0.032704676862807432 -0.03784129208276555 0.039835262819703399 -0.12700740495700605 0.048974223968825718 -0.17023922259758312 0.0083678972940675733 0.070226631371485604 -0.15242082861181916 -0.086836462733586958 0.16705588898174717 -0.13819178467159876 -0.1344281237356357 0.092244765709070212 0.045997378556907303 -0.13252350166503901 -0.044627782305414185 0.08563350048291582 0.074200530420356042 -0.16086667612964733 -0.15348211355674485 0.15238361393485633 -0.047661259936947642 -0.011473623141446619 0.093614054959332976 -0.15656826604152529 -0.10976214238591181 -0.14511842406153835 0.063647578647432257 0.10294844087226507 -0.19565920231502087 -0.0214547145795011 0.10768670988844452 0.15394256622913879 0.045818076984519215 0.19246978406353957 0.068912503677171819 0.067021189657212363 -0.060368283715282446 -0.14767065429849582 -0.1753471887415794 -0.17759552769077336 -0.13202248572446929 -0.14040469485302579 -0.12183440575835264 -0.13865125276052104 -0.14476227516779566
leaf_weight=80.381329983472824 36.556182980537415 796.12006313726306 2655.0932268798351 450.05807800590992 269.99629233218729 1383.4994687438011 819.07893679477274 97919.642306704074 34.593340083956718 537.23630249500275 28.036192268133163 150.35545217990875 112.17654271796346 113.69896179437637 1684.2841605991125 1252.059039870277 1551.1297432370484 380.34500915184617 73.833685055375099 10.736561864614485 22.978096067905426 177.71999216079712 2.5934275686740866 16.476062223315239 60.727509990334511 71.232127949595451 46.206881552934647 1954.7730845808983 75.4650519490242 101.9521052762866 145.44843143224716 39.030846148729324 694.76760986447334 5.0695755258202544 11.072870865464209 70.501594766974449 217.48536076024175 150.47150490432978 699.95173018984497 16.584535717964172 11.995815228670834 48.67939093708992 24.237708553671837 14.9685355424881 11.309970900416372 42.454441621899605 738.01688203960657 111.93507765233517 59.322027713060379 18.928542360663414 6.5689112059772006 6.5395028814673415 13.341069892048834 46.621457204222679 6.7427794933319083 9.8926420360803586 9.4094444550573808 26.891326550394297 30.019433170557022 38.799530580639839 4.6783200949430457
leaf_count=374 62 512 4966 1571 233 6076 3957 221882 154 1124 126 142 884 84 4827 4692 3387 1961 179 45 77 374 15 163 33 481 197 2902 146 509 498 59 1209 23 49 98 880 344 649 75 188 238 49 19 48 130 631 123 90 9 56 16 51 217 31 41 59 145 261 201 22
internal_value=0 0.0263375 0.0270887 0.0263741 0.028017 -0.0118319 -0.038743 0.0276079 0.0467627 0.0369447 0.0118462 0.0790085 0.0938335 0.00435393 0.0159395 0.0177908 0.00514062 -0.0309928 0.0691695 -0.0626918 0.0152882 -0.0160921 0.0928305 0.171616 -0.0799834 0.00228247 0.0774997 0.0813019 -0.0102922 -0.0562907 0.0185341 -0.0336606 0.0668511 0.102857 0.0674174 0.109745 -0.098142 0.0969995 0.0750201 -0.0425614 0.125555 -0.00690472 -0.0757244 0.11864 -0.0255689 0.0566074 0.11804 0.129149 0.12307 0.0753692 -0.12394 -0.0923164 -0.135488 -0.149507 -0.150434 -0.1609 -0.142122 -0.146571 -0.124267 -0.143574 -0.150892
internal_weight=0 107717 106324 105198 100861 4336.92 2202.58 100575 8483.42 6503.33 3655.9 1980.09 1126.16 244.44 2134.34 3525.99 2803.19 1393.06 2847.43 826.779 566.283 416.891 1777.95 286.472 729.79 131.96 2577.25 2492.01 270.179 175.786 323.168 85.2377 722.804 149.392 96.9893 81.2382 597.83 1738.8 850.423 202.146 125.695 151.928 72.9171 881.721 26.2785 79.0106 888.372 134.913 855.442 94.3936 118.745 39.1524 93.7224 129.907 50.2186 44.486 14.479 43.4759 32.6129 85.421 15.7512
internal_count=268644 250704 245556 243675 227244 16431 10033 226848 17940 15152 10027 2788 1881 1212 6398 9414 8079 5148 5125 3569 1579 1297 2058 396 3355 514 4282 4026 843 688 872 256 1335 282 214 143 2841 1766 993 730 272 479 287 669 67 192 773 200 602 155 940 292 425 613 251 195 82 220 276 418 71
is_linear=0
shrinkage=0.1


Tree=18
num_leaves=56
num_cat=0
split_feature=117 92 0 34 107 125 128 133 86 21 4 92 70 20 110 36 118 124 98 99 39 109 75 112 123 73 36 53 82 75 115 64 61 88 33 104 107 118 111 33 55 0 106 40 123 56 38 52 57 5 45 102 57 49 70
split_gain=289.918 403.497 292.854 471.584 553.514 578.727 385.338 377.581 335.248 300.533 296.621 269.782 263.376 250.42 223.809 156.341 153.437 153.42 220.844 126.513 134.322 87.3556 80.7751 70.1047 137.122 67.0601 57.3527 50.4309 50.1053 83.2571 34.8851 31.5703 26.3057 23.7923 20.5982 22.3911 15.536 15.402 25.5046 28.0653 1.63525 1.47138 1.1529 0.936193 1.30096 0.917393 0.723694 0.694129 0.302431 0.297301 0.243968 0.200027 0.187289 0.072005 0.0275714
threshold=-1.5431468486785886 -0.28892980515956873 0.52161341905593883 0.87359121441841137 -0.95963340997695912 -1.6842219829559324 1.0000000180025095e-35 1.0000000180025095e-35 -1.3466431498527525 1.562045753002167 0.72541102766990673 -0.96275579929351796 -0.11851658299565314 1.4453253149986269 -1.2048828601837156 0.90642303228378307 -1.6227728128433225 -1.1215420961380003 -0.98352259397506703 -0.49389861524105066 1.0158448815345766 -1.1098847389221189 -0.50316837430000294 -1.3060675859451292 -2.1620515584945674 -0.41116234660148615 0.906833976507187 1.1265221834182741 -0.26299184560775751 -0.43781711161136622 -1.4438585042953489 0.39067815244197851 0.77950289845466625 -0.37642540037631983 0.83564099669456493 -0.70032411813735951 -0.98582631349563588 -1.5836195349693296 -1.2366951704025266 0.8201742172241212 1.0284567475318911 -0.28367973864078516 -0.90016242861747731 1.0732547044754031 -2.1505705118179317 0.9894329607486726 0.99437305331230175 1.145236670970917 0.97002893686294567 -0.036258677020668977 1.2055789232254031 -0.59049770236015309 0.97002893686294567 1.1793360114097597 -0.056550651788711541
decision_type=2 2 2 2 2 2 2 2 2 2 2 2 2 2 2 2 2 2 2 2 2 2 2 2 2 2 2 2 2 2 2 2 2 2 2 2 2 2 2 2 2 2 2 2 2 2 2 2 2 2 2 2 2 2 2
left_child=12 2 3 6 7 -6 13 -5 17 10 -10 -11 14 -2 19 -8 21 31 -19 20 33 28 36 24 -24 -22 37 -25 29 -14 34 -4 -30 -1 -28 -36 -18 38 40 -40 -3 49 -38 45 51 53 48 -43 -21 -39 -32 -45 -47 -16 -52
right_child=1 26 8 4 5 -7 15 -9 9 11 -12 -13 16 -15 43 -17 22 18 -20 46 25 -23 23 27 -26 -27 30 -29 32 -31 50 -33 -34 -35 35 -37 42 41 39 -41 -42 47 -44 44 -46 52 -48 -49 -50 -51 54 -53 -54 -55 -56
leaf_value=0.093513893218040281 0.015096466784634222 -0.22609020014779926 -0.16892415866837052 0.030229145358489775 0.0017917367660321701 0.027638080032322283 -0.082675488417014137 0.073119929039002121 0.038053961283147086 0.021767355323190407 0.076414568699960106 -0.097283498762974721 -0.12622314119593131 -0.025621536359999877 -0.14923300172951584 0.049763429464743353 0.075472632350465196 -0.075986706567250151 0.12966413194317014 -0.13907413564257934 0.14527130832836818 0.13170394458287743 0.043883136920142084 0.12175665486673848 0.10763873296882864 0.010790500708421559 0.1603930584028449 0.0091834527690725087 -0.14417787425924325 0.066678729294655334 -0.15079054877954323 0.093067803412063568 -0.02982992911439062 -0.14436012548896046 -0.14973179688813751 0.10852192213354778 -0.18142890372055881 -0.10554981499791581 -0.10998718142786053 0.068659667566203481 -0.12259083372789899 -0.13718331982734147 -0.12808543381337276 -0.14393107629910806 -0.19426839924284633 -0.1282282179449393 -0.17061069896405384 -0.11601417173948947 -0.11947568161885523 -0.11453911860911213 -0.11204330986193067 -0.11896333262898456 -0.11832260862851607 -0.13698190449388123 -0.12596385891403322
leaf_weight=4.8754744529724112 21789.539513865486 1.6160831302404428 106.89277811348438 4303.3738043010235 10561.915969409049 48188.686478994787 597.32188907824457 3924.090170763433 13244.998743891716 6145.2952601760626 2377.5593999549747 196.43244688212872 31.542693469673395 1622.9136186409742 15.327351480722429 104.76695378124714 3.8561280220747021 182.5833463575691 73.13520236313343 17.167578302323822 116.08710263669491 38.281651027500629 801.13288610428572 507.18601446971297 582.71351248025894 54.48329983651638 15.854377903044226 43.183067485690117 45.105276711285114 76.975318655371666 2.3519169241189948 4.8062171190977088 36.316818194463849 30.565188728272915 6.0937180519104004 7.4760392382740957 5.9185833632946059 108.86034995503724 14.681788193061946 21.927856724709272 27.552951214835048 31.18792886286974 12.844186104834076 10.287193715572357 5.1865354478359214 32.577868804335594 5.1177489310502997 30.772254213690758 14.544448167085646 55.572989005595446 7.4472313635051224 4.6632280722260484 46.094547763466835 6.983234077692031 1.7588360570371158
leaf_count=10 53133 7 449 10172 29245 106024 2082 6525 25014 13025 2925 753 244 4895 70 193 6 4232 108 90 138 29 1783 385 487 141 20 215 243 138 11 9 229 148 43 17 28 2663 241 51 333 172 80 54 24 196 24 287 116 580 92 38 378 36 13
internal_value=0 0.0242693 0.0245921 0.0220762 0.0263935 0.0229915 0.0100849 0.0506859 0.0348546 0.0364392 0.043892 0.0180798 0.05837 0.012274 -0.0203901 -0.0629127 0.0714889 -0.0598784 -0.0171708 0.0349906 0.0655089 -0.00610576 0.0805386 0.0827357 0.0707295 0.102316 -0.0856213 0.112924 -0.0338807 0.0106084 0.0251625 -0.157651 -0.0931751 -0.111636 0.0829871 -0.00745107 -0.10734 -0.101161 -0.0585656 -0.00298416 -0.128325 -0.113537 -0.144912 -0.131426 -0.151114 -0.1275 -0.135717 -0.12667 -0.130085 -0.108588 -0.122046 -0.136143 -0.122424 -0.145398 -0.114703
internal_weight=0 113757 113424 91092.6 66978.1 58750.6 24114.5 8227.46 22331.7 21964.3 15622.6 6341.73 2549.02 23412.5 363.961 702.089 2185.06 367.418 255.719 242.841 206.011 228.222 1956.83 1934.22 1383.85 170.57 333.154 550.369 189.94 108.518 40.9821 111.699 81.4221 35.4407 29.4241 13.5698 22.6189 292.172 65.7787 36.6096 29.169 226.394 18.7628 121.12 20.137 100.983 36.8298 61.9602 31.712 164.433 11.558 14.9504 78.6724 22.3106 9.20607
internal_count=268644 263314 258784 212269 151966 135269 60303 16697 46515 41717 27939 13778 5330 58028 1463 2275 3867 4798 4340 667 437 883 2984 2870 2270 279 4530 600 854 382 196 458 472 158 80 60 114 4334 632 292 340 3702 108 796 116 680 230 459 206 3243 116 92 574 106 105
is_linear=0
shrinkage=0.1


Tree=19
num_leaves=55
num_cat=0
split_feature=39 74 0 107 133 31 135 32 56 39 124 30 107 126 48 38 117 31 105 114 70 50 49 55 70 129 127 38 135 73 97 46 104 75 110 100 125 39 124 134 107 124 7 65 48 28 109 39 45 107 40 126 7 45
split_gain=294.281 355.988 610.027 597.961 704.138 532.758 516.318 508.873 469.59 518.542 471.004 458.822 452.846 612.189 452.602 388.45 358.366 343.218 339.029 336.912 328.83 511.004 393.908 270.328 506.801 259.437 254.659 175.773 156.361 153.416 141.545 136.069 205.171 201.689 277.384 119.233 109.625 167.977 89.1317 86.1847 85.4202 135.665 87.1393 43.9307 40.6595 36.1778 31.0957 21.5841 0.195531 0.361284 0.279895 0.166883 0.108441 0.00527157
threshold=1.0357013344764712 -0.93290176987647999 0.39105676114559179 -0.96112656593322743 1.0000000180025095e-35 1.0017789006233218 1.0000000180025095e-35 0.92057156562805187 0.95107337832450878 0.97264629602432262 -1.3525283336639402 1.0621770620346072 -0.87954741716384877 -1.7138411998748777 1.1603424549102785 0.9592094123363496 -1.0047157406806944 0.99469318985939037 -0.88548213243484486 -1.1054817438125608 -0.11851658299565314 1.1741973757743838 1.1710023283958437 0.92078247666358959 -0.29804711043834681 1.0000000180025095e-35 -1.7955770492553709 0.97661495208740245 1.0000000180025095e-35 -0.85101690888404835 -0.87935909628868092 1.2314325571060183 -0.75021743774414051 -1.0221942067146299 -0.92977884411811818 -0.76715847849845875 -1.5981002449989317 1.0462635159492495 -1.5508778095245359 1.0000000180025095e-35 -0.97546041011810292 -2.0417255163192745 0.056510999798774726 0.44975107908248907 1.2308280467987063 1.097253739833832 -1.1426512598991392 1.0532108545303347 1.2032639384269717 -0.96400266885757435 1.0716405510902407 -2.4407188892364498 0.18663396686315539 1.1934542655944826
decision_type=2 2 2 2 2 2 2 2 2 2 2 2 2 2 2 2 2 2 2 2 2 2 2 2 2 2 2 2 2 2 2 2 2 2 2 2 2 2 2 2 2 2 2 2 2 2 2 2 2 2 2 2 2 2
left_child=1 2 12 7 6 27 14 20 9 11 16 -4 17 30 -5 -12 -10 39 -8 -7 22 -22 -3 35 -25 -15 -11 -6 31 -19 -14 32 33 38 -35 -9 37 -34 -2 -1 44 42 -42 -38 46 -43 -33 -46 50 52 51 -30 -50 -52
right_child=28 3 8 4 5 19 18 23 10 26 15 -13 13 25 -16 -17 -18 29 -20 -21 21 -23 -24 24 -26 -27 -28 -29 48 -31 -32 40 36 34 -36 -37 43 -39 -40 -41 41 45 -44 -45 47 -47 -48 -49 49 -51 53 -53 -54 -55
leaf_value=0.019488097992500585 -0.067955175284053371 0.01725225839219904 0.0046753926049832957 -0.0023252140333696906 -0.1032128569779724 0.11192272229271163 0.014693419760005539 0.079517326573395428 0.0086473989292103603 -0.0093164198396797591 -0.03243129907947525 0.028197203961424923 -0.15512376590631147 0.034129640690533418 0.029607250855242961 0.036009640013922449 -0.092072267431781818 -0.16462959860395962 0.096178295663667229 -0.02976197382554599 0.10539564803932465 -0.003356513434018521 -0.032779837569111396 0.009376748185281468 0.066156418936434813 0.080992903717045692 0.068471597500329023 0.0082806548321139092 -0.14979376174890224 0.11615371963854276 -0.034063336014237743 0.082001327486229569 -0.13010074440377695 0.042580079285005845 -0.055652975188005917 -0.13639234849750015 -0.04348946761704868 0.0064803444535742787 0.089701955525588475 -0.1179415873692241 0.033229243593179858 0.093869286881806568 -0.14643078525361444 0.14428284836799685 0.11457056249562209 -0.031127277687974172 -0.074120984387493205 0.028013922147236532 -0.18643121431897247 -0.14058019087509108 -0.13577765906821113 -0.17373279386404983 -0.16805937535368218 -0.14091191753587903
leaf_weight=175.48697800934315 37.204931125044823 8155.6866307146847 10937.543462753296 17689.89144955948 1147.7973506301641 245.63133831322193 960.74371328949928 2153.2532354444265 573.55168075859547 475.60039153695107 1246.8574891090393 34296.117967158556 125.66231250762939 3644.7241983562708 5925.4332439880818 2476.2109732404351 919.76889224350452 19.702710151672363 1089.7837090343237 529.8722979426384 927.01400527358055 809.2320296484977 1949.8193715102971 3340.0985614210367 2969.6442579627037 1747.8182009533048 3656.2950739711523 161.26823770999908 5.4376405179500589 1575.5318515896797 417.32491052150726 31.189088121056557 147.40058080106974 3121.0446092896163 316.6135345697403 25.884725719690323 16.928181707859039 231.42120534926653 991.64736062288284 61.667361095547676 56.353136224672198 225.97800708562136 51.823446970432997 47.20052695274353 535.54781589657068 25.798520609736443 21.588048487901688 30.447232864797115 5.1203047931194332 3.9474595561623564 3.9992648363113394 6.2696902453899392 8.624318599700926 3.999899186193943
leaf_count=463 129 19926 30657 46892 4422 310 2131 3145 1306 1147 3700 68142 529 7958 17720 5263 3156 86 2065 1353 962 2567 7325 7528 5204 3085 5952 502 25 1834 1371 31 776 6131 1063 94 48 587 1221 245 269 297 287 47 355 68 55 68 21 22 21 26 37 20
internal_value=0 0.0213377 0.0263236 0.0148722 0.00532687 -0.050567 0.00986654 0.0279011 0.0225921 0.0256072 -0.00594189 0.0225096 0.0525433 0.039128 0.00568711 0.0130887 -0.0533881 0.0959987 0.0579998 0.0151149 0.014506 0.0547083 0.00759875 0.0465869 0.0360998 0.0493189 0.0595178 -0.0894776 0.0442129 0.112686 -0.0620801 0.0455075 0.0387202 0.0451579 0.0335327 0.0769527 -0.0261953 -0.0466637 0.0840008 -0.0162478 0.0795543 0.0408203 -0.0528393 0.0947162 0.102087 0.0810614 0.0181408 0.109914 -0.159614 -0.167245 -0.152763 -0.162614 -0.174903 -0.138345
internal_weight=0 110431 62349.9 48081.1 27750.4 2084.57 25665.9 20330.6 54581.9 49365.6 5216.39 45233.7 7767.92 5935.53 23615.3 3723.07 1493.32 1832.39 2050.53 775.504 11841.8 1736.25 10105.5 8488.88 6309.74 5392.54 4131.9 1309.07 5925.58 1595.23 542.987 5888.19 4909.46 4466.51 3437.66 2179.14 442.95 378.822 1028.85 237.154 978.725 359.953 108.177 64.1287 618.772 251.777 52.7771 565.995 37.3986 17.6921 19.7065 11.7073 13.7446 7.99916
internal_count=268644 257040 134894 122146 75395 6587 68808 46751 119323 105898 13425 98799 15571 12943 64612 8963 4462 2628 4196 1663 30780 3529 27251 15971 12732 11043 7099 4924 11604 1920 1900 11432 10002 8544 7194 3239 1458 1363 1350 708 1430 921 556 95 509 365 86 423 172 80 92 51 58 41
is_linear=0
shrinkage=0.1


Tree=20
num_leaves=53
num_cat=0
split_feature=73 115 78 122 90 112 76 88 31 111 130 54 110 113 85 77 131 54 116 76 44 53 132 35 29 120 82 75 74 110 32 110 122 79 29 30 21 99 1 57 48 113 114 25 112 31 115 39 4 80 3 103
split_gain=265.082 326.973 454.504 380.416 347.617 332.217 459.736 436.787 325.361 331.479 295.924 383.154 282.508 265.876 218.109 216.226 180.293 173.647 161.253 212.186 156.904 146.505 127.394 126.681 120.495 132.001 120.289 163.624 119.441 113.482 108.077 103.84 97.9254 76.6478 41.7373 33.9879 69.61 32.8168 58.4552 25.6341 9.64706 15.8722 5.79525 5.69486 3.69547 1.52617 1.34387 0.390332 0.377666 0.0860549 0.000746897 7.9867e-05
