tree
version=v4
num_class=1
num_tree_per_iteration=1
label_index=0
max_feature_idx=136
objective=binary sigmoid:1
feature_names=Column_0 Column_1 Column_2 Column_3 Column_4 Column_5 Column_6 Column_7 Column_8 Column_9 Column_10 Column_11 Column_12 Column_13 Column_14 Column_15 Column_16 Column_17 Column_18 Column_19 Column_20 Column_21 Column_22 Column_23 Column_24 Column_25 Column_26 Column_27 Column_28 Column_29 Column_30 Column_31 Column_32 Column_33 Column_34 Column_35 Column_36 Column_37 Column_38 Column_39 Column_40 Column_41 Column_42 Column_43 Column_44 Column_45 Column_46 Column_47 Column_48 Column_49 Column_50 Column_51 Column_52 Column_53 Column_54 Column_55 Column_56 Column_57 Column_58 Column_59 Column_60 Column_61 Column_62 Column_63 Column_64 Column_65 Column_66 Column_67 Column_68 Column_69 Column_70 Column_71 Column_72 Column_73 Column_74 Column_75 Column_76 Column_77 Column_78 Column_79 Column_80 Column_81 Column_82 Column_83 Column_84 Column_85 Column_86 Column_87 Column_88 Column_89 Column_90 Column_91 Column_92 Column_93 Column_94 Column_95 Column_96 Column_97 Column_98 Column_99 Column_100 Column_101 Column_102 Column_103 Column_104 Column_105 Column_106 Column_107 Column_108 Column_109 Column_110 Column_111 Column_112 Column_113 Column_114 Column_115 Column_116 Column_117 Column_118 Column_119 Column_120 Column_121 Column_122 Column_123 Column_124 Column_125 Column_126 Column_127 Column_128 Column_129 Column_130 Column_131 Column_132 Column_133 Column_134 Column_135 Column_136
feature_infos=[-1.8014661073684692:2.1873281002044678] [-1.7160434722900391:2.0962586402893066] [-1.6382262706756592:2.0136351585388184] [-1.5680137872695923:1.9394575357437134] [-1.5054070949554443:1.8737261295318604] [-1.4504051208496094:1.8164401054382324] [-1.4123568534851074:1.7937201261520386] [-1.3844102621078491:1.9274762868881226] [-1.3517893552780151:2.0758624076843262] [-1.3099035024642944:2.0974209308624268] [-1.2559221982955933:2.0118343830108643] [-1.1870334148406982:2.0267508029937744] [-1.1039742231369019:2.0742456912994385] [-1.0067610740661621:2.1771299839019775] [-0.90047705173492432:2.2825961112976074] [-0.78966546058654785:2.355140209197998] [-0.67814630270004272:2.4095718860626221] [-0.65620064735412598:2.4415178298950195] [-0.66012513637542725:2.4605560302734375] [-0.66667592525482178:2.4363620281219482] [-0.8555336594581604:2.3619022369384766] [-0.86833834648132324:2.2960772514343262] [-0.86565589904785156:2.1994528770446777] [-0.7797551155090332:2.1797337532043457] [-1.0841877460479736:2.1614029407501221] [-1.4308524131774902:2.0620582103729248] [-1.6366665363311768:1.9191513061523438] [-1.8254417181015015:1.7314887046813965] [-1.9454965591430664:1.5598906278610229] [-2.2033448219299316:1.3473584651947021] [-2.6534385681152344:1.1458766460418701] [-2.9375624656677246:1.0652625560760498] [-2.8964071273803711:1.0082290172576904] [-2.6209216117858887:0.99270999431610107] [-1.9672813415527344:0.99457055330276489] [-1.2877312898635864:1.0987448692321777] [-0.66409575939178467:1.3781088590621948] [-0.67049169540405273:1.4357191324234009] [-0.67192721366882324:1.5244829654693604] [-0.67710685729980469:1.427788257598877] [-0.67367839813232422:1.3506048917770386] [-0.77278417348861694:1.3033223152160645] [-0.78214722871780396:1.4334096908569336] [-0.67822211980819702:1.6771683692932129] [-0.67593681812286377:1.8418123722076416] [-0.67998087406158447:1.9795904159545898] [-0.67735743522644043:1.8671952486038208] [-0.67972826957702637:1.8940913677215576] [-0.67687547206878662:2.0411467552185059] [-0.6802976131439209:2.1347439289093018] [-0.67868822813034058:2.3221406936645508] [-0.68411111831665039:2.3866791725158691] [-0.6882440447807312:2.3278176784515381] [-0.69760811328887939:2.41339111328125] [-0.68820065259933472:2.0181429386138916] [-0.66555494070053101:1.7058380842208862] [-0.63047897815704346:1.5109990835189819] [-0.79989981651306152:1.3468891382217407] [-0.9627259373664856:1.3136518001556396] [-0.83332031965255737:1.2997530698776245] [-0.62303602695465088:1.2900781631469727] [-0.62908732891082764:1.6912268400192261] [-0.65896600484848022:1.8743280172348022] [-0.67422842979431152:1.7138135433197021] [-0.93073725700378418:1.3433690071105957] [-1.1305865049362183:1.0751444101333618] [-1.2528316974639893:0.99085426330566406] [-1.6713657379150391:0.88485002517700195] [-1.8910553455352783:0.75389385223388672] [-2.0949718952178955:0.60495084524154663] [-1.9126988649368286:0.45876148343086243] [-1.7446892261505127:0.33052113652229309] [-1.674402117729187:0.23037496209144592] [-1.5674382448196411:0.15855956077575684] [-1.4517455101013184:0.30397361516952515] [-1.6804615259170532:0.9557119607925415] [-1.8599822521209717:1.4404212236404419] [-1.985605001449585:1.2026444673538208] [-2.0616223812103271:1.1285310983657837] [-2.1171634197235107:0.92254304885864258] [-2.168381929397583:0.73609095811843872] [-2.1978850364685059:0.28676301240921021] [-2.2107267379760742:0.33890664577484131] [-2.208972692489624:0.39074629545211792] [-2.1915850639343262:0.5232703685760498] [-2.1574652194976807:0.47703936696052551] [-2.1063995361328125:0.50853937864303589] [-2.0390708446502686:0.53271615505218506] [-1.9571486711502075:0.67684948444366455] [-1.8639241456985474:0.56802195310592651] [-1.767259955406189:0.65060514211654663] [-1.8478662967681885:1.0689502954483032] [-1.6500253677368164:1.4172115325927734] [-1.5946441888809204:1.6287872791290283] [-1.530011773109436:1.6652539968490601] [-1.4843816757202148:1.6182962656021118] [-1.4547033309936523:1.5608183145523071] [-1.4384253025054932:1.5584512948989868] [-1.4264529943466187:1.5645072460174561] [-1.5819015502929688:1.5648646354675293] [-2.0638625621795654:1.5687597990036011] [-2.4619696140289307:1.5680602788925171] [-2.648137092590332:1.5700795650482178] [-2.5047333240509033:1.5662518739700317] [-2.1062953472137451:1.5674868822097778] [-1.4165751934051514:1.5623446702957153] [-1.2213733196258545:1.563502311706543] [-1.1215335130691528:1.561995267868042] [-1.1578797101974487:1.5723429918289185] [-1.225764274597168:1.5757462978363037] [-1.369315505027771:1.5835809707641602] [-1.6010570526123047:1.5861003398895264] [-2.1418814659118652:1.5904537439346313] [-2.4733853340148926:1.5896482467651367] [-2.5047738552093506:1.5896980762481689] [-2.0072333812713623:1.5865405797958374] [-1.577265739440918:1.5868538618087769] [-1.6321159601211548:1.7016431093215942] [-1.6864286661148071:2.5795986652374268] [-1.7459897994995117:2.8008601665496826] [-1.820858359336853:2.5472877025604248] [-1.9268163442611694:1.7488086223602295] [-2.1498878002166748:1.6308574676513672] [-2.3795907497406006:1.6220458745956421] [-2.6463632583618164:1.8138364553451538] [-2.951240062713623:2.1645474433898926] [-3.3299288749694824:3.0688047409057617] [-3.8750591278076172:4.2020993232727051] [0:1] [0:1] [0:1] [0:1] [0:1] [0:1] [0:1] [0:1] [0:1]
tree_sizes=4237 4060 3949 3957 4386 4275 4512 4411 6199 6768 6292 6301 5788 6231 5985 6067 6230 6325 6731 6631 6458 6471 5917 6256 6915 6143 5994 6356 6923 6775 6697 5026 6795 5899 6900 6166 5912 6700 6756 6300 6423 6143 6389 5495 6208 6658 6587 6885 6719 6717 6333 6359 5694 6621 6444 5234 5872 6766 6052 6970 5775 5874 6723 5715 6958 6239 5803 5535 5252 6473 3647 6636 6277 5445 6602 4771 5951 5895 6845 6466 6675 6507 6268 6029 5549 6110 4200 6567 6565 6390 6922 6331 5266 4518 6928 6422 6330 6692 6963 6178 6105 6895 5910 6431 6722 6798 5602 3982 6255 6705 6150 6157 6350 6808 6612 6729 6460 4520 6896 6527 6897 6972 5885 6956 6667 6882 5824 6950 5530 6697 6229 6591 5767 6184 6594 6720 6655 4581 4514 4520 5589 4491 5035 5985 5645 6517 3657 5950 6017 6946 6929 5904 6565 4080 6895 4911 6403 6917 4554 5395 6840 5533 5137 6592 6622 5040 4440 6785 4651 6794 6934 5269 5242 5952 6812 6475 6697 6961 6157 6020 5181 5528 6940 6569 6438 6688 6541 4646 4635 5494 5175 6823 5593 6380 6949 6317 4254 5457 6790 6069

Tree=0
num_leaves=39
num_cat=0
split_feature=114 30 41 57 132 70 31 106 130 29 28 31 110 71 103 47 54 37 74 48 93 81 5 85 8 30 71 105 85 30 131 113 46 114 0 0 0 0
split_gain=19004.5 11433.6 13589.5 9310.42 7951.76 7520.96 8290.87 6213.57 6002 4861.32 3031.87 2619.85 2149.99 2052.28 2002.94 1754.1 1676.63 1928.99 1387.01 1093.38 847.526 800.219 686.403 669.635 632.311 431.071 388.896 382.943 300.592 216.943 211.482 119.111 65.3179 51.3183 1.13687e-13 1.42109e-14 8.88178e-16 4.44089e-16
threshold=-0.82044050097465504 1.0589389801025393 1.109634578227997 0.97017374634742748 1.0000000180025095e-35 -0.11874210834503172 0.9974564015865327 -0.89903721213340748 1.0000000180025095e-35 1.2413664460182192 1.0081692934036257 1.0154340863227846 -1.1852106451988218 -0.17763138562440869 -0.64978894591331471 1.2203103303909304 1.0053121447563174 0.92098942399024974 -0.39843843877315516 1.2226380705833437 -1.0172104835510252 -1.3104528188705442 0.79449421167373668 -0.805342137813568 0.060417314991354949 1.0460599660873415 -0.23174785822629926 -0.92117169499397267 -0.805342137813568 1.0799976587295534 1.0000000180025095e-35 -1.0017352700233457 1.0823079347610476 -0.98237764835357655 0.48319774866104132 0.43564958870410925 0.34373188018798834 0.50762656331062328
decision_type=2 2 2 2 2 2 2 2 2 2 2 2 2 2 2 2 2 2 2 2 2 2 2 2 2 2 2 2 2 2 2 2 2 2 2 2 2 2
left_child=1 2 3 5 8 6 -1 15 9 11 13 -3 -7 -5 24 26 17 -10 -17 -12 29 -18 -11 27 -9 34 -4 -22 -16 31 32 -6 37 -31 35 -2 -25 -27
right_child=25 4 7 10 20 12 -8 14 16 22 19 -13 -14 -15 28 18 21 -19 -20 -21 23 -23 -24 36 -26 30 -28 -29 -30 33 -32 -33 -34 -35 -36 -37 -38 -39
leaf_value=-2.015785429960431 -2.6183027833920951 -1.8081064857447844 -1.8654595104173288 -2.5205038846939818 -1.2942248547957393 -1.8483735308033955 -1.8714694810633687 -1.3393434701334792 -2.0281605392448254 -2.5395917123048224 -2.1635267382998742 -2.1172607834253512 -1.4636783268412064 -1.973126478901353 -1.1794660378962489 -1.3136799002155921 -2.0272091836802142 -1.5168843309339501 -2.3429378007367871 -1.8202972259274373 -1.4827113140759969 -2.3307918445472193 -2.1257313885920714 -2.6183027833920951 -1.8710615574113185 -2.6183027833920951 -2.6183027833920951 -1.7635165100673202 -2.5261014226609828 -1.3267865373166472 -1.3585898882921661 -1.5082462313238563 -1.8244785547504327 -1.2028579632955156 -2.6183027833920951 -2.6183027833920951 -2.6183027833920951 -2.6183027833920951
leaf_weight=9720.8076852187514 89.169254250824451 12990.732622288167 22.886515073478222 415.27537759393454 41.826851427555084 228.5816815122962 6741.5849313437939 25.019165813922882 686.11260847002268 93.81485989689827 424.87216334789991 280.01862923800945 398.64567451924086 82.025002665817738 1.7107032537460316 556.57439900189638 131.17180621623993 82.686684407293797 13.408146589994429 118.75202264636755 208.08238331228495 256.83433597534895 69.959234729409218 4.5870388001203528 210.81686536967754 1.7375146970152839 9.7995828911662084 63.350689098238945 53.392329193651676 49.551827512681484 3.9079106226563454 68.738933727145195 1.5503575056791303 102.5995060801506 279.73986621946096 2.5715217515826216 1.3900117576122282 1.3900117576122282
leaf_count=86056 1283 90217 171 5602 93 1672 50743 66 6152 1282 4338 2740 1507 694 2 1337 1175 353 159 838 823 3017 690 66 1586 25 141 414 723 125 11 288 11 142 4025 37 20 20
internal_value=-2.51018 -1.89106 -1.94266 -1.96142 -1.82618 -1.94374 -1.95669 -1.56196 -1.84013 -1.82131 -2.25178 -1.81463 -1.60387 -2.43022 -1.94148 -1.37875 -2.0587 -1.97317 -1.33789 -2.08855 -1.4494 -2.22816 -2.3628 -1.5713 -1.81465 -2.60211 -2.09117 -1.54825 -2.48429 -1.32068 -1.90159 -1.42728 -2.35521 -1.24322 -2.6183 -2.6183 -2.6183 -2.6183
internal_weight=0 34155.6 19024.2 18130.5 15131.5 17089.6 16462.4 893.608 14591.3 13434.5 1040.92 13270.8 627.227 497.3 290.939 602.669 1156.81 768.799 569.983 543.624 540.127 388.006 163.774 277.41 235.836 380.066 32.6861 271.433 55.103 262.717 8.58579 110.566 4.67788 152.151 371.481 91.7408 5.97705 3.12753
internal_count=268644 263232 155635 151450 107597 139978 136799 4185 105626 94929 11472 92957 3179 6296 2377 1808 10697 6505 1496 5176 1971 4192 1972 1323 1652 5412 312 1237 725 648 67 381 56 267 5345 1320 86 45
is_linear=0
shrinkage=1


Tree=1
num_leaves=37
num_cat=0
split_feature=114 2 31 39 136 116 58 108 32 73 32 21 116 123 31 30 29 41 69 127 4 70 103 102 30 109 70 30 129 60 132 31 28 112 2 30
split_gain=6089.01 2663.95 3173.61 3019.89 2554.14 2440.39 2405.86 2644.5 2323.43 3582.09 2099.78 1544.7 1500 1452.27 1397.31 1348.7 1324.15 1271.18 1178.29 877.095 550.053 1472.3 728.63 529.891 523.864 435.908 419.495 403.361 369.172 317.852 245.432 235.372 232.402 32.5726 26.5498 0.000804236
threshold=-0.82044050097465504 0.62723258137702953 0.99930113554000866 1.0357262492179873 1.0000000180025095e-35 -0.92839106917381276 0.91743603348732006 -1.0359765887260435 0.96003043651580822 -0.79336115717887867 0.94859305024147045 1.5616714358329775 -1.4954742193222044 -1.4096246361732481 1.0064449906349184 1.0947743058204653 1.2070019841194155 1.1036041378974917 -0.36986531317234034 -1.7801386117935178 0.72536769509315502 -0.4737772792577743 -0.92377883195877064 -0.9435739517211913 1.0412302613258364 -0.86366605758666981 -0.52787894010543812 1.0922242403030398 1.0000000180025095e-35 0.42465071380138403 1.0000000180025095e-35 0.99385392665863048 1.392703711986542 -0.80843436717987049 0.59715703129768383 1.0440573096275332
decision_type=2 2 2 2 2 2 2 2 2 2 2 2 2 2 2 2 2 2 2 2 2 2 2 2 2 2 2 2 2 2 2 2 2 2 2 2
left_child=1 2 3 6 5 10 7 -1 9 -6 -4 20 -8 17 -7 16 18 -5 -13 -10 21 22 -3 32 29 -15 -18 -23 -26 -22 -25 35 -17 34 -33 -2
right_child=31 11 4 13 8 14 12 -9 19 -11 -12 15 -14 25 -16 23 26 -19 -20 -21 24 27 -24 30 28 -27 -28 -29 -30 -31 -32 33 -34 -35 -36 -37
leaf_value=0.36241699257880544 -0.10729264785321041 0.41919982032525199 0.40024159219679167 0.24052482525847255 0.40302881276207592 0.27543708094905706 0.31106495392746059 0.27640010840581436 0.43357544498887357 0.081178698500508698 0.31824189153649646 0.14109011361008703 0.10068627505505556 0.62112175928983149 0.084055023381384195 0.33793679206419724 0.37868397159216771 0.39921304947494901 0.50278250893193355 0.5607789332306945 0.75220397267408545 0.48244130699563093 0.24961998073706781 0.071187404377423755 0.49964481818563738 0.40801116918716329 0.50649953594229025 0.31988462263765333 0.029201521220538103 0.021407536204828177 0.50410818299727267 -0.11564291114359143 -0.11202659581566254 0.4195493943787969 0.32816988005370945 -0.10983820393065519
leaf_weight=4397.1565674468875 337.52800333499908 399.60827801376581 4473.5756932497025 667.66180007904768 1855.8118507266045 1400.9792535454035 489.57451882213354 19096.668106481433 1300.2213291078806 424.99524682760239 10342.673227153718 411.44753696769476 1101.2901747971773 308.33523609489202 524.25679013133049 172.76502433419228 1539.9177716001868 2069.4029593914747 115.31145816296339 929.61985014379025 7.1096189245581618 1343.7731752246618 692.36842782050371 277.37259919941425 1193.6097851470113 139.36259116232395 308.16478966921568 172.20747809112072 16.917099475860596 36.538840852677822 13.744157165288923 2.6580373272299758 12.295398846268652 9.1034929230809194 2.7347072884440422 1.2457125410437573
leaf_count=20401 5328 1347 16363 4279 6601 7076 2796 103765 4687 2851 48056 2564 9695 901 3599 731 5583 5007 309 2145 12 3750 3378 2060 2466 706 774 761 118 307 12 29 132 27 11 17
internal_value=0 0.326049 0.318036 0.296086 0.347233 0.329238 0.28444 0.292499 0.414021 0.343057 0.343001 0.385164 0.165428 0.387815 0.223322 0.329333 0.360132 0.360504 0.220267 0.486607 0.426378 0.400207 0.311678 0.175733 0.480798 0.554783 0.399997 0.463976 0.49307 0.140442 0.0916264 -0.0904172 0.308041 0.304178 0.109418 -0.107302
internal_weight=0 56234.7 49521.6 28269.5 21252.1 16741.5 25084.7 23493.8 4510.65 2280.81 14816.2 6713.15 1590.86 3184.76 1925.24 2851.02 2374.84 2737.06 526.759 2229.84 3862.13 2607.96 1091.98 476.177 1254.18 447.698 1848.08 1515.98 1210.53 43.6485 291.117 353.27 185.06 14.4962 5.39274 338.774
internal_count=268644 263232 238928 147550 91378 75094 136657 124166 16284 9452 64419 24304 12491 10893 10675 12165 9230 9286 2873 6832 12139 9236 4725 2935 2903 1607 6357 4511 2584 319 2072 5412 863 67 40 5345
is_linear=0
shrinkage=0.1


Tree=2
num_leaves=36
num_cat=0
split_feature=114 5 2 39 103 45 71 126 108 101 30 135 73 31 68 127 115 62 30 119 110 3 37 76 4 131 1 117 112 57 36 31 73 30 19
split_gain=3322.79 1632.44 1277.39 1590 1485.51 2579.23 1731.02 953.302 1041.5 929.453 865.853 907.878 700.72 562.636 389.805 342.067 257.335 199.508 180.918 148.974 319.064 113.275 101.025 75.114 72.5774 22.7074 34.1904 11.049 142.078 0.151657 0.0261132 0.000786738 0.000634468 2.85928e-09 1.13687e-13
threshold=-0.82044050097465504 -0.036280089989304536 0.5270802676677705 1.0297641754150393 -0.78748241066932667 1.1308218836784365 -0.19145424664020536 -1.7659810185432432 -1.0619931817054746 -0.83493322134017933 1.0619564056396487 1.0000000180025095e-35 -0.93613192439079274 1.0049800276756289 -0.033400714397430413 -3.3031785488128658 -0.98760604858398426 0.6725183129310609 1.0460599660873415 -1.6662524342536924 -1.1597164273262022 -0.18827455490827558 0.91516342759132396 -0.41409403085708613 -0.086226105690002428 1.0000000180025095e-35 0.50605675578117382 -1.5377240180969236 -1.2803654074668882 0.97017374634742748 0.92357918620109569 0.99238124489784252 -0.8950800597667693 1.0370753407478335 1.3362309336662295
decision_type=2 2 2 2 2 2 2 2 2 2 2 2 2 2 2 2 2 2 2 2 2 2 2 2 2 2 2 2 2 2 2 2 2 2 2
left_child=1 15 3 4 5 -3 -6 8 -5 10 11 -4 -12 14 -11 19 -15 -9 31 20 24 30 -23 -24 -1 26 -20 28 -21 -29 -17 33 -28 34 -2
right_child=18 2 9 7 6 -7 -8 17 -10 13 12 -13 -14 16 -16 21 -18 -19 25 27 -22 22 23 -25 -26 -27 32 29 -30 -31 -32 -33 -34 -35 -36
leaf_value=-0.1167698021668177 -0.10655072049441856 0.21006290432757427 0.21690878330469621 0.31756338737080148 0.1640109730844139 0.28723590863116705 0.38018196748134314 0.43818377138467657 0.22333441799537745 0.14877553740817673 0.32335180851073225 0.0202954811866152 0.24904356912050996 -0.1225500355583411 0.37519071108541274 -0.11387335597553927 0.24792432038143311 0.32005814084354434 0.36203804740333356 -0.11323288858778974 0.58868318279723886 0.87382206933629503 0.11615601791561055 0.50303258944547913 0.25538810235952808 0.31262600681040364 -0.10877745139085407 -0.12515888790854204 0.52800168531050717 -0.1108184344235994 -0.12827816349266419 -0.10931556414343768 -0.11134505269836664 -0.10654573174862175 -0.10655072049441856
leaf_weight=27.005440615117546 257.74611947312951 23990.526692330837 4558.4724915921688 1806.8382890820503 7393.5369993671775 5284.6840002536774 389.9690570756793 352.53629373759031 3343.6067247092724 82.575364299118519 1354.9579187370837 247.61311256885529 20009.582254119217 35.303130552172661 960.63034830987453 2.9913930594921139 39.98476380109787 240.53144885599613 2.5316235423088083 36.44042694568634 10.434798777103422 3.7409721836447742 10.130562849342828 9.9452492371201462 6.5018095523118999 10.949975848197937 2.1692251898348345 7.7887176349759093 3.8173189461231223 138.68902826309204 2.1724129915237427 1.0326153673231591 1.7298727259039868 1.1532287970185269 48.698841467499733
leaf_count=236 4467 96477 18680 2739 36732 19526 603 728 13317 407 2821 1566 63514 236 2446 30 141 790 5 384 10 6 55 37 23 11 31 49 9 1655 15 14 20 20 844
internal_value=0 0.23111 0.232037 0.221258 0.21367 0.223994 0.174842 0.270216 0.256391 0.248944 0.245129 0.206779 0.253756 0.338215 0.357269 -0.019163 0.0742058 0.390275 -0.0888817 -0.0598453 0.105818 0.304657 0.396714 0.307809 -0.0445556 0.225032 0.0758808 -0.0988287 -0.0524298 -0.111581 -0.119933 -0.10656 -0.109917 -0.106551 -0.106551
internal_weight=0 70351 70091.3 42802.2 37058.7 29275.2 7783.51 5743.51 5150.45 27289.1 26170.6 4806.09 21364.5 1118.49 1043.21 259.658 75.2879 593.068 326.012 230.678 43.942 28.9806 23.8168 20.0758 33.5073 17.3807 6.43072 186.735 40.2577 146.478 5.16381 308.631 3.8991 307.598 306.445
internal_count=268644 263232 260723 170912 153338 116003 37335 17574 16056 89811 86581 20246 66335 3230 2853 2509 377 1518 5412 2366 269 143 98 92 259 67 56 2097 393 1704 45 5345 51 5331 5311
is_linear=0
shrinkage=0.1


Tree=3
num_leaves=36
num_cat=0
split_feature=114 102 1 33 97 82 130 117 17 0 71 110 106 30 73 30 117 28 30 31 91 72 30 34 112 131 1 57 58 45 31 73 30 16 16
split_gain=2129.47 1066.49 906.614 1236.69 1051.26 857.144 840.866 728.727 557.547 632.904 580.243 479.436 468.89 575.016 462.87 402.455 390.224 237.753 148.802 141.36 80.6807 44.7247 214.886 40.5772 50.4185 14.3865 22.9501 0.835858 0.0640559 0.0163191 0.00057293 0.000456497 2.07359e-09 5.68434e-14 7.10543e-15
threshold=-0.82044050097465504 -0.55818068981170643 0.57568547129631054 0.83979985117912304 -0.99662193655967701 -1.2751399278640745 1.0000000180025095e-35 -1.549531817436218 1.3951445221900942 0.60631129145622265 -0.63290157914161671 -1.1802328228950498 -0.95099544525146473 1.1032723188400271 -0.38031046092510218 1.0947743058204653 -0.92139622569084156 1.2580360174179079 1.0460599660873415 0.97895374894142162 -0.39797562360763544 -0.27396418154239649 0.81529784202575695 0.83729004859924328 -1.2899055480957029 1.0000000180025095e-35 0.50605675578117382 0.97017374634742748 0.92240253090858471 1.2078925371170046 0.99238124489784252 -0.8950800597667693 1.0370753407478335 1.4007346630096438 1.6024157404899599
decision_type=2 2 2 2 2 2 2 2 2 2 2 2 2 2 2 2 2 2 2 2 2 2 2 2 2 2 2 2 2 2 2 2 2 2 2
left_child=1 2 3 5 16 17 -6 11 12 10 -10 28 19 -14 -7 -11 -5 -1 30 -4 -9 27 -23 24 -13 26 -20 -22 -3 -30 32 -28 33 -2 -35
right_child=18 7 8 4 6 14 -8 20 9 15 -12 23 13 -15 -16 -17 -18 -19 25 -21 21 22 -24 -25 -26 -27 31 -29 29 -31 -32 -33 -34 34 -36
leaf_value=0.17242219931236163 -0.1058886321217216 -0.12860148931983861 0.17544661676410248 0.16308620469131002 0.1843364203888157 0.069989497446309848 0.1470412943929805 0.27529741412578129 0.065668921586161444 0.21342559557206917 0.21446124365828867 0.088316708840410596 0.21770678562562581 0.027509478066237186 0.21024638776862778 0.13382359367119892 0.039747956854672438 0.29796929041030962 0.26355530793664605 0.30752691514248881 -0.1281510727353829 -0.11433781396973895 0.34437531485762041 0.39954645764328733 0.36998501184691951 0.24651282012762185 -0.10788134992301038 -0.10955970711531188 -0.11722267024780092 -0.11181461093477141 -0.108358711477895 -0.11016050440883857 -0.10588417921868998 -0.1058886321217216 -0.10588863212172156
leaf_weight=750.4365765824914 248.7821727655828 3.074022680521014 91.078395813703537 394.6531243249774 56349.790908716619 2170.1961572691798 6771.872387252748 6.2206211686134329 789.90074542164803 3302.3244895637035 392.23185325413942 11.218688480556013 6616.3636862188578 162.86677511781454 263.90668080002069 786.38753134012222 732.87618393450975 188.78494141995907 3.0912399739027032 734.52371038496494 28.256968393921852 46.31831981241703 13.100863941013811 55.398509584367275 14.658455014228819 12.402798771858215 1.9782656989991676 167.73162657767534 7.8374727591872242 19.369551002979279 0.94217737764120002 1.5812218338251103 1.0496710091829289 20.850015323609114 9.295850660651924
leaf_count=2954 4737 18 238 1354 180436 10168 27493 24 3389 8027 971 52 15611 673 672 3008 3555 433 5 1008 170 436 28 34 11 11 31 2193 64 212 14 20 20 397 177
internal_value=0 0.179376 0.180158 0.175527 0.178626 0.116508 0.180335 0.010716 0.204479 0.179483 0.115038 0.224717 0.221803 0.213137 0.0851962 0.198116 0.0829183 0.197657 -0.0875544 0.292956 -0.0805325 -0.089199 -0.0131998 0.351255 0.247871 0.182882 0.0642195 -0.11224 -0.114918 -0.113372 -0.105897 -0.108894 -0.105889 -0.105889 -0.105889
internal_weight=0 80871.4 80498.2 67622.5 64249.2 3373.32 63121.7 373.185 12875.7 5270.84 1182.13 111.557 7604.83 6779.23 2434.1 4088.71 1127.53 939.222 299.973 825.602 261.628 255.408 59.4192 81.2757 25.8771 19.0535 6.65073 195.989 30.281 27.207 280.92 3.55949 279.978 278.928 30.1459
internal_count=268644 263232 259990 227065 212838 14227 207929 3242 32925 15395 4360 391 17530 16284 10840 11035 4909 3387 5412 1246 2851 2827 464 97 63 67 56 2363 294 276 5345 51 5331 5311 574
is_linear=0
shrinkage=0.1


Tree=4
num_leaves=40
num_cat=0
split_feature=114 125 115 45 33 107 36 48 32 57 39 61 114 125 42 76 116 124 49 123 35 62 136 39 38 117 110 109 36 30 32 123 41 45 4 31 30 0 74
split_gain=1480.85 939.895 2105.19 1863.02 1566.08 1258.68 1025.39 977.745 939.595 830.938 1103.76 1178.33 787.353 929.845 537.012 521.554 716.74 468.628 459.111 436.114 285.839 265.812 240.3 273.707 227.6 224.848 348.021 274.357 154.937 126.56 119.609 98.2299 32.5119 10.4609 15.1953 0.000417974 1.51095e-09 1.13687e-13 1.42109e-14
threshold=-0.82044050097465504 -1.5712295174598692 -0.99802991747856129 1.1243007779121401 0.82798418402671825 -0.96441328525543202 0.96660584211349498 1.1603775024414065 0.91908386349678051 0.91170173883438121 0.97244679927825939 0.63645240664482128 -0.93889179825782765 -1.4921048283576963 1.0848366022109988 -1.2723715305328367 -0.98975521326065052 -1.3349833488464353 1.1604971289634707 -1.3825176954269407 0.90939414501190197 0.6667294204235078 1.0000000180025095e-35 1.0265462398529055 0.99371734261512767 -1.549531817436218 -1.1827096939086912 -0.99479666352272023 0.96499341726303112 1.0460599660873415 0.9646238684654237 -1.3436558842658994 1.10545289516449 1.070093631744385 0.65425285696983349 0.99238124489784252 1.0370753407478335 0.56416124105453502 -1.070815861225128
decision_type=2 2 2 2 2 2 2 2 2 2 2 2 2 2 2 2 2 2 2 2 2 2 2 2 2 2 2 2 2 2 2 2 2 2 2 2 2 2 2
left_child=1 2 4 9 25 8 22 -7 -6 10 11 -3 21 18 -15 20 -17 -12 -14 32 -11 24 23 -4 -5 26 -1 -27 -23 35 -24 -21 -8 34 -31 36 37 38 -2
right_child=29 3 6 12 5 7 19 -9 -10 15 17 -13 13 14 -16 16 -18 -19 -20 31 -22 28 30 -25 -26 27 -28 -29 -30 33 -32 -33 -34 -35 -36 -37 -38 -39 -40
leaf_value=-0.11764032622114794 -0.1052969726449571 0.15320257812451582 -0.085777726710193652 0.23838396462691441 0.14339039040741899 0.10949046823206823 -0.12824843317830636 0.15605720142046742 0.19282015863127094 0.063115114382259488 0.1723051110776338 0.092601587807685057 -0.019754259962366669 0.15699243673113142 0.35118525138860257 0.16228091219529048 0.067325026672700947 0.23397714911803602 0.27048059865507124 0.17918792014805374 0.2940989052404715 0.10026516369291434 0.037146236174054319 0.027683123503567272 0.30227563774811311 -0.026959351929537013 0.25009407924131527 0.17582394639679311 0.26317317710459837 -0.12132377439828437 0.26449267072049509 0.30759027495437413 0.16363488782967306 0.20607048784642551 0.18711840612046959 -0.10750662756646166 -0.10529298707823585 -0.1052969726449571 -0.1052969726449571
leaf_weight=37.090844869613647 0.95548950135707755 33777.01346860826 653.19733045995235 1727.0586769282818 9853.8736409023404 13348.108269661665 44.137906551361084 6808.9843726530671 6306.9691090732813 71.453821390867233 3093.4365051388741 3545.3040230497718 334.35659991204739 425.16260502487421 214.11899997293949 1140.896912664175 2621.2260596007109 2047.7286469340324 65.117382913827896 171.05075044929981 214.10709661245346 177.85415494441986 73.133755207061768 315.21790185570717 823.35711447894573 735.42799543589354 84.064740128815174 73.376180224120617 86.908452168107033 2.8498361743986633 33.853251561522484 91.423983544111252 4.1772959530353537 13.508553463965653 3.6338085532188416 0.85892866179346938 0.95484202355146308 191.67119397222996 61.103553611785173
leaf_count=339 20 89704 3670 3971 28364 45576 262 22144 16044 310 8172 12468 1705 1466 381 3180 10349 4378 166 379 500 680 297 1416 1445 5167 117 268 151 35 51 100 12 20 12 14 20 4012 1279
internal_value=0 0.145839 0.134105 0.154839 0.138609 0.14189 0.0131016 0.125221 0.162681 0.149303 0.15343 0.147446 0.221654 0.147244 0.222035 0.106011 0.0961212 0.196869 0.0275563 0.173089 0.236302 0.24911 -0.0331346 -0.0488464 0.25901 0.0104686 0.137515 -0.00856248 0.15374 -0.086348 0.109084 0.223912 -0.103012 0.155957 0.051545 -0.105304 -0.105297 -0.105297 -0.105297
internal_weight=0 88999.2 38634.1 50365.1 37247.9 36317.9 1386.19 20157.1 16160.8 46511.2 42463.5 37322.3 3853.93 1038.76 639.282 4047.68 3762.12 5141.17 399.474 310.79 285.561 2815.18 1075.4 968.415 2550.42 929.96 121.156 808.804 264.763 275.536 106.987 262.475 48.3152 19.9922 6.48364 255.544 254.685 253.73 62.059
internal_count=268644 263232 124206 139026 118019 112128 6187 67720 44408 129061 114722 102172 9965 3718 1847 14339 13529 12550 1871 753 810 6247 5434 5086 5416 5891 456 5435 831 5412 348 479 274 67 47 5345 5331 5311 1299
is_linear=0
shrinkage=0.1


Tree=5
num_leaves=39
num_cat=0
split_feature=114 40 102 118 8 111 48 74 107 0 104 71 52 111 121 106 108 126 53 62 9 45 108 73 91 31 44 60 5 70 111 108 35 32 30 31 0 25
split_gain=1082.07 756.684 1420.1 865.776 838.589 793.606 771.057 870.266 1437.06 1076.22 576.102 555.112 537.156 522.188 506.002 428.224 376.372 642.194 429.721 267.92 247.813 212.106 171.299 157.852 132.988 109.69 91.3189 90.5249 75.0268 69.3051 47.0994 34.7612 25.4246 10.4559 0.00121599 3.41868e-09 2.84217e-14 2.84217e-14
threshold=-0.82044050097465504 1.0702933669090273 -0.76870322227478016 -1.5837768912315366 0.11557038873434068 -1.2515687942504881 1.1603775024414065 -0.93309459090232838 -0.97589755058288563 0.37898467481136328 -0.73520845174789418 -0.36684142053127283 1.1470849514007571 -1.2697421312332151 -1.8284445405006406 -0.9473421275615691 -1.0534542202949522 -1.944979131221771 1.1137490868568423 0.67679560184478771 0.45935370028018957 1.231923580169678 -1.0429703593254087 -0.68532899022102345 -0.39797562360763544 0.99385392665863048 1.1737737059593203 0.78997987508773815 1.0000000180025095e-35 -0.18801601231098172 -1.0416387319564817 -0.96140170097351063 0.87678357958793651 0.94832205772399913 1.0446548461914065 0.99000343680381786 0.97715732455253612 1.2102043628692629
decision_type=2 2 2 2 2 2 2 2 2 2 2 2 2 2 2 2 2 2 2 2 2 2 2 2 2 2 2 2 2 2 2 2 2 2 2 2 2 2
left_child=1 2 6 5 24 13 7 9 -9 -1 15 20 -7 -4 -6 27 18 -18 -17 -13 -8 23 32 26 -5 34 -12 29 -25 -3 -24 -29 -23 -27 35 36 37 -2
right_child=25 10 3 4 14 12 11 8 -10 -11 21 19 -14 -15 -16 16 17 -19 -20 -21 -22 22 30 28 -26 33 -28 31 -30 -31 -32 -33 -34 -35 -36 -37 -38 -39
leaf_value=0.18241909257393496 -0.1047675796249033 -0.13978770276991395 0.14891133618479568 0.29266110805770995 0.18696168228168034 0.23822571540786952 0.2544375152208827 0.14091308219792245 0.091260618349511491 0.12562134537466488 -0.034596063400475434 0.10513898102829225 0.041014633535039868 -0.031820123772229883 0.071595147460491657 -0.0075466938630149531 0.09434371135205899 0.2161133263265978 0.21272920414007945 -0.068174832114677605 0.16779070889604497 0.35994343000967427 -0.081835335959902264 0.025259360655036076 -0.10326712584589426 0.18556633005917317 0.3078913423717522 -0.14302865756654323 -0.11920570855320232 0.21759342556671904 0.15372655715325398 0.17019977890417498 0.21082688116938109 0.033762570951135294 -0.10851169869849259 -0.10476144191598272 -0.1047675796249033 -0.10476758550705501
leaf_weight=3596.4094861447811 92.300261370837688 7.9223116785287884 338.54376718401909 8.7346356064081174 400.18844033032656 841.94252564013004 361.1379956305027 8617.7481323853135 18012.761436499655 46090.94506905973 13.07126262784004 338.87560324370861 165.2165855281055 302.90560032427311 7605.1188015416265 92.342650979757309 1094.9551196470857 716.50893853604794 2163.7187326997519 121.05792474746704 3838.07873377949 14.878202199935911 29.858789969235659 53.186385095119476 295.12961105629802 13.870763149112465 19.25123555958271 53.822448596358299 110.92461031675339 17.222768485546112 11.859228447079657 3.7926766127347937 49.39465457201004 6.7430298328399649 0.87067252025008102 0.91107019037008186 136.21346807479858 2.0849021375179282
leaf_count=8463 2125 40 959 19 650 713 635 21876 56712 119118 67 1057 991 1618 28652 360 3132 1437 1709 646 9647 19 249 303 3093 28 16 277 668 29 21 7 49 39 15 21 3136 48
internal_value=0 0.121914 0.119944 0.0843071 0.071173 0.150505 0.124326 0.121915 0.107328 0.129732 0.162164 0.163819 0.205875 0.0635662 0.0773624 0.171874 0.176456 0.142509 0.203713 0.0595215 0.175242 0.028914 0.142924 -0.032603 -0.0918861 -0.0851702 0.169389 -0.0533169 -0.0723863 0.104995 -0.0148719 -0.12241 0.245345 0.135909 -0.104782 -0.104768 -0.104768 -0.104768
internal_weight=0 95387.5 90934.8 9957.78 8309.17 1648.61 80977 76317.9 26630.5 49687.4 4452.71 4659.15 1007.16 641.449 8005.31 4150.29 4067.53 1811.46 2256.06 459.934 4199.22 302.424 105.991 196.433 303.864 252.994 32.3225 82.7602 164.111 25.1451 41.718 57.6151 64.2729 20.6138 232.38 231.51 230.599 94.3852
internal_count=268644 263232 254849 36695 32414 4281 218154 206169 78588 127581 8383 11985 1704 2577 29302 6991 6638 4569 2069 1703 10282 1392 338 1054 3112 5412 83 353 971 69 270 284 68 67 5345 5330 5309 2173
is_linear=0
shrinkage=0.1


Tree=6
num_leaves=41
num_cat=0
split_feature=114 1 31 40 82 104 136 31 31 134 23 108 20 30 107 124 102 27 60 113 103 72 129 128 130 72 132 32 70 56 36 73 33 4 94 30 30 31 45 0
split_gain=818.945 732.397 1158.1 1123 730.248 717.883 598.105 936.331 896.956 1187.68 863.632 776.987 500.883 543.786 439.556 580.808 420.231 296.062 295.875 272.56 229.822 226.581 173.705 133.885 131.133 124.92 121.196 96.3752 87.8566 64.2191 62.8829 17.9767 24.7411 0.160331 0.0970624 0.0185657 0.00207744 0.000774772 1.79281e-08 2.84217e-14
threshold=-0.82044050097465504 0.6317429542541505 0.99817979335784923 1.0702933669090273 -1.4375988841056822 -0.85226979851722706 1.0000000180025095e-35 1.0028616189956667 1.0043572187423708 1.0000000180025095e-35 1.3263093233108523 -0.90945881605148304 1.5514578819274905 1.0979841947555544 -0.98044440150260914 -1.6550852060317991 -0.76181644201278675 1.376687288284302 0.70903173089027416 -0.91597181558608998 -0.95237645506858815 -0.56538012623786915 1.0000000180025095e-35 1.0000000180025095e-35 1.0000000180025095e-35 -0.86313092708587635 1.0000000180025095e-35 0.9465635120868684 -0.67252123355865467 0.82621544599533092 0.74267724156379711 -0.90389183163642872 0.91047918796539318 0.72536769509315502 -1.125995874404907 1.0580460429191592 1.0460599660873415 0.9934993088245393 1.0723907351493838 0.63749223947525036
decision_type=2 2 2 2 2 2 2 2 2 2 2 2 2 2 2 2 2 2 2 2 2 2 2 2 2 2 2 2 2 2 2 2 2 2 2 2 2 2 2 2
left_child=1 2 3 4 21 -6 8 18 9 -4 -9 -10 22 17 16 -16 -5 30 -8 -19 28 -1 23 24 -3 -24 -22 35 -15 -25 -14 -29 -33 -27 -34 36 38 -36 39 -2
right_child=27 12 6 14 5 -7 7 10 11 -11 -12 -13 13 20 15 -17 -18 19 -20 -21 26 -23 25 29 -26 33 -28 31 -30 -31 -32 32 34 -35 37 -37 -38 -39 -40 -41
leaf_value=0.1652275218796613 -0.10429335994079872 0.17110888591386725 0.10290084900057109 -0.13795132298807397 0.09673505665385751 0.071142827715834453 0.13145333330390005 0.174974001125143 0.11760743238915075 0.15278756859846865 0.067460943407459104 0.068807289023982712 -0.13192590682456737 -0.12850054589006016 0.055009182767577172 0.16437028390195466 0.17260411758294081 0.1364272079853579 0.065559238816603402 0.037614378839431667 -0.060783345822784066 -0.056076091808044085 0.29278196351673874 -0.15322376132920609 0.0058357620759872317 -0.15187021280598917 0.227085014610241 0.19478366312808224 0.13950446096892544 0.13489426977921365 0.17532372313401617 0.23254856455975928 -0.13317361110250511 -0.13556738291902951 -0.10429050182798859 -0.11918362430701189 -0.1090618410144759 -0.10802960440786478 -0.10427823711588291 -0.10429336003642778
leaf_weight=1349.6257750242949 50.642034381628036 3114.7286376059055 13390.092381246388 44.363962441682816 22400.819803588092 21461.968530111015 1087.1488908976316 5115.1584579497576 5333.5523736178875 7415.1223007887602 874.94646979868412 8402.932476632297 53.795520141720772 13.608489625155924 1088.9549559541047 876.52835176885128 2441.5026569664478 3144.3138794153929 1825.8714593499899 306.34542202949524 276.72497304528952 47.906589567661285 8.5317810475826246 19.121079966425896 48.758797124028206 8.2691225558519381 15.441178098320959 12.680902950465681 120.90565241873264 12.992845386266707 7.6025336384773246 3.0929114744067174 3.1804202273488045 22.30170364677906 1.2228626385331156 0.84305354952812095 0.91760960966348548 1.0134155005216596 0.78686117753386398 157.96525441110134
leaf_count=3207 1283 4195 34063 242 60099 73860 2179 8221 12584 14703 2234 24641 296 82 3642 1776 2386 6169 5344 923 1421 228 8 86 163 37 7 8 281 26 13 3 27 116 31 8 14 16 20 4002
internal_value=0 0.103988 0.101617 0.0911937 0.0864801 0.0842128 0.113544 0.136655 0.107587 0.120681 0.15927 0.0877552 0.134777 0.110831 0.13912 0.10378 0.167062 0.123782 0.0901511 0.127655 0.00422886 0.157641 0.163936 0.166499 0.168562 -0.0455536 -0.0455693 -0.0839709 0.112391 -0.0366552 -0.0938811 0.119333 0.00689717 -0.139977 -0.121949 -0.104373 -0.104314 -0.105985 -0.104293 -0.104293
internal_weight=0 100330 93156.5 49711.7 45260.3 43862.8 43444.8 8903.13 34541.7 20805.2 5990.1 13736.5 7173.44 3938.74 4451.35 1965.48 2485.87 3512.06 2913.02 3450.66 426.68 1397.53 3234.7 3195.6 3163.49 39.1026 292.166 232.345 134.514 32.1139 61.3981 21.1905 8.50961 30.5708 5.4167 211.155 210.312 2.23628 209.394 208.607
internal_count=268644 263232 249409 145440 137394 133959 103969 17978 85991 48766 10455 37225 13823 9192 8046 5418 2628 7401 7523 7092 1791 3435 4631 4470 4358 161 1428 5412 363 112 309 85 77 153 74 5327 5319 47 5305 5285
is_linear=0
shrinkage=0.1


Tree=7
num_leaves=40
num_cat=0
split_feature=114 39 104 125 112 39 0 44 5 73 133 74 34 33 25 62 106 108 100 38 125 71 52 122 36 122 61 102 73 36 133 31 94 41 31 31 48 73 21
split_gain=635.145 588.507 812.305 768.383 1559.14 1397.14 655.224 581.347 1028.38 702.005 858.805 513.545 495.723 473.319 436.695 365.229 314.468 291.426 634.087 368.582 289.39 266.556 261.208 94.1391 85.7056 79.6445 66.6034 56.0306 37.6222 35.5549 0.647075 0.100312 0.0829176 0.0301556 0.00357634 0.000673731 3.84131e-07 1.24846e-09 2.84217e-14
threshold=-0.82044050097465504 1.0380639433860781 -0.82746979594230641 -1.5816719532012937 -0.95431718230247486 1.0017230510711672 0.41762670874595648 1.0832318663597109 0.60269170999526989 -0.78699040412902821 1.0000000180025095e-35 -0.83984801173210133 0.9106021821498872 0.85257536172866832 1.2266187071800234 0.5679939091205598 -0.9473421275615691 -1.0534542202949522 -0.756547451019287 1.0329435467720034 -1.6218553781509397 -0.33827997744083399 1.1470849514007571 -1.984366714954376 0.88994112610816967 -2.0118426084518428 0.73249307274818432 -0.76023536920547474 -0.90219131112098683 0.90118888020515453 1.0000000180025095e-35 0.99781823158264171 -1.125995874404907 1.1036041378974917 0.99418684840202343 0.99238124489784252 0.87566736340522777 -0.8555525243282317 1.463990390300751
decision_type=2 2 2 2 2 2 2 2 2 2 2 2 2 2 2 2 2 2 2 2 2 2 2 2 2 2 2 2 2 2 2 2 2 2 2 2 2 2 2
left_child=1 2 7 4 6 12 -4 8 13 15 -11 -10 -5 -1 -7 -9 26 22 21 -20 -6 -19 23 -18 31 -24 27 33 -26 -28 -31 34 -30 -3 36 37 38 -34 -2
right_child=24 16 3 5 20 14 -8 9 11 10 -12 -13 -14 -15 -16 -17 17 18 19 -21 -22 -23 25 -25 28 -27 29 -29 32 30 -32 -33 35 -35 -36 -37 -38 -39 -40
leaf_value=-0.00098766136057120107 -0.10386815335629901 -0.13258617040817244 0.066565445108462698 0.044858597815326015 -0.1047862658161787 0.11821963129805789 0.19784696155431505 0.20445735171164872 0.095189568511894126 0.075703400104186205 0.13907248768234337 0.161192532816159 0.089724213443728537 0.069564188801658974 0.18626463464179702 0.13197882727864682 -0.14948448622179414 0.17076352651903837 0.037017238369078796 0.14703894758595989 -0.0078168350671116854 0.056552724711098526 0.028054879946864238 0.063053127053543365 0.18815492577106782 0.17008203638599981 0.20308929579221233 0.16086555190599289 -0.12999081233031448 -0.13434999057286029 -0.17237116366464916 -0.13958090313802848 -0.10386242635278467 -0.14405481178574819 -0.10929587856787981 -0.10702645617195038 -0.10394101244136006 -0.10386819363871631 -0.10386815335629901
leaf_weight=1050.5537676289678 177.54956439137459 5.1820029765367526 16000.176376167685 4189.3373228609562 479.61701292544603 3369.8404860720038 389.42730695009232 972.66250629723072 41565.567381128669 5701.6508579105139 3422.3468883037567 1213.2401900663972 5975.2641208469868 10024.918365329504 1309.7315740138292 2437.792233094573 25.807598203420639 1320.3525072485209 1237.7598963975906 403.8391262665391 858.90381083637476 241.76780227571726 40.397448778152466 108.26882681250572 15.529691971838476 1744.7076960355043 3.2331304699182501 19.434563115239143 2.7059887312352666 54.107468843460083 4.8798362463712683 0.791321050375699 0.71609527245164006 4.111925333738327 1.2219008803367604 1.2216276228427885 0.72640369832515617 0.78879785910248512 11.437461841851471
leaf_count=3932 4952 29 51232 12941 2500 8367 639 1371 94363 15884 7429 2138 15013 27338 2007 5130 132 2250 3888 682 3499 695 101 258 8 1033 2 29 25 309 21 6 20 20 17 23 20 22 319
internal_value=0 0.0899239 0.0881987 0.0752642 0.0612098 0.092049 0.0696848 0.0945447 0.0900302 0.113941 0.0994727 0.0970615 0.0712329 0.0628721 0.137264 0.15265 0.122669 0.125941 0.107481 0.064083 -0.0425628 0.153087 0.156757 0.022143 -0.0830606 0.166868 -0.0616491 0.0642897 0.108919 -0.119798 -0.137495 -0.10405 -0.11759 -0.13766 -0.103903 -0.105282 -0.103868 -0.103865 -0.103868
internal_weight=0 104175 98961 32572.3 17728.1 14844.2 16389.6 66388.7 53854.3 12534.5 9124 42778.8 10164.6 11075.5 4679.57 3410.45 5213.85 5122.9 3203.72 1641.6 1338.52 1562.12 1919.18 134.076 212.689 1785.11 90.9489 28.7285 20.9622 62.2204 58.9873 191.727 5.43251 9.29393 190.935 2.72652 189.713 1.50489 188.987
internal_count=268644 263232 253783 96198 57870 38328 51871 157585 127771 29814 23313 96501 27954 31270 10374 6501 9449 9039 7515 4570 5999 2945 1524 390 5412 1134 410 78 98 332 330 5314 90 49 5308 65 5291 42 5271
is_linear=0
shrinkage=0.1


Tree=8
num_leaves=57
num_cat=0
split_feature=117 104 31 0 136 30 136 31 20 62 133 70 32 74 114 71 110 118 80 99 39 104 109 121 75 56 116 44 62 79 109 76 106 36 78 35 73 71 119 66 121 19 103 109 116 30 72 40 41 57 55 97 56 33 71 37
split_gain=604.486 1058.86 630.703 882.796 626.944 1024.69 614.629 730.921 829.96 601.556 574.721 569.519 568.803 1092.6 510.486 504.428 382.653 363.744 287.902 243.145 255.929 174.77 170.554 158.162 154.758 133.942 160.487 129.304 169.757 126.027 107.483 97.5604 85.3906 64.7006 45.6052 37.624 97.4147 35.9334 62.4979 35.4098 34.7027 29.3959 9.14464 6.64629 24.8087 4.42967 3.68369 0.677991 0.502606 0.31127 0.213799 0.186834 0.0740281 0.0616243 0.0473483 0.00320747
threshold=-1.5377240180969236 -0.72184860706329335 0.99930113554000866 0.58529892563819896 1.0000000180025095e-35 1.061491906642914 1.0000000180025095e-35 1.0043572187423708 1.2776136398315432 0.30636820197105413 1.0000000180025095e-35 -0.11874210834503172 0.96325680613517772 -0.95251530408859242 -0.87744554877281178 -0.64422249794006337 -1.2047700285911558 -1.6227559447288511 -0.23694247752428052 -0.49479684233665461 1.0158535838127138 -0.80462616682052601 -1.1101944446563718 -1.8578007221221922 -0.43805946409702295 1.0671366453170779 -1.4906904697418211 1.1675259470939638 0.70141327381134044 -0.38798220455646509 -0.99479666352272023 -0.88351374864578236 -0.9057631492614745 0.9066603183746339 -0.49851189553737635 0.87622997164726268 -0.38031046092510218 -0.24378972500562665 -1.6426436305046079 0.4146218895912171 -1.8755407333374021 0.90189874172210704 -0.64978894591331471 -1.1385866999626157 -1.5136087536811826 1.0704697966575625 -0.27396418154239649 1.0733329653739931 1.109634578227997 0.97017374634742748 1.0437465906143191 -0.41768290102481836 1.0008793473243716 0.83979985117912304 -0.17763138562440869 0.94806000590324413
decision_type=2 2 2 2 2 2 2 2 2 2 2 2 2 2 2 2 2 2 2 2 2 2 2 2 2 2 2 2 2 2 2 2 2 2 2 2 2 2 2 2 2 2 2 2 2 2 2 2 2 2 2 2 2 2 2 2
left_child=11 2 3 4 9 -6 7 8 -4 -2 -9 16 13 -8 15 -5 19 22 27 20 34 -14 23 40 -25 26 33 32 -29 -22 51 -32 -19 41 -1 46 -37 43 52 -33 -13 -3 -35 44 -18 -16 -28 49 -45 -21 -20 53 -39 -27 -52 -53
right_child=1 25 6 14 5 -7 12 10 -10 -11 -12 17 21 -15 45 -17 37 18 50 47 29 -23 -24 24 -26 30 35 28 -30 -31 31 39 -34 42 -36 36 -38 38 -40 -41 -42 -43 -44 48 -46 -47 -48 -49 -50 -51 54 55 -54 -55 -56 -57
leaf_value=0.099087523738683236 -0.059040256231370249 -0.13088122693068055 0.074921383705872133 0.08435937974621506 -0.013251468823873479 0.086127114757255568 0.12290432302298543 0.056434018954757463 0.11725755191887553 0.070097109785566478 0.11517774526543192 -0.12527343526043125 0.15301151986447414 0.034364019957397345 -0.10357712456001181 0.13275268506333116 0.13112789155024315 0.011289050550009425 -0.13900231642304312 -0.13983792204888487 0.19669742108164645 0.026621185198528931 0.19162539413671736 -0.12923226058390661 0.20022576935531863 -0.12513280610584687 -0.11478467087776752 -0.047120608510660147 0.14364305726089002 -0.079961963497754501 -0.13815921158730696 0.39928411214874687 0.21109500607722587 0.21885845331836548 -0.13892208079416943 -0.10367428498754372 0.15455483918749163 -0.13692554362900791 0.17501232034752867 0.17581042464219745 -0.029273864931237337 0.20335975073034349 0.11187870533660432 -0.12899687887218528 -0.14638322341644108 -0.169441614462294 -0.081062039200759717 -0.17734925158562195 -0.14599787872785955 -0.12208428034562945 -0.11259184068419525 -0.10927798252987245 -0.12310170849234764 -0.14202828299897177 -0.11990407148952523 -0.11433089438566157
leaf_weight=10.298990339040754 363.5361218303442 13.75886617600918 10422.695273980498 6095.1970205679536 2442.0191889703274 1804.0237025767565 4173.3518601357937 12905.244460955262 8332.5050331056118 46589.935826577246 1912.2394993752241 62.402830332517624 2649.8979795575142 2092.5651916116476 104.20796404778957 3331.0289425849915 4.6332143545150748 22.617858752608299 4.8434081673622122 20.269989177584648 183.13867397606373 114.11689196527004 50.663654051721096 19.529403075575829 52.82007785141468 5.9276265054941195 329.5194429717958 47.60999658703804 2309.3930936791003 18.091955274343491 7.6434967517852774 11.556128829717638 393.72624823451042 18.835807025432587 36.875668063759804 53.434400245547295 20.105577811598778 6.6372092217206982 11.762725874781607 18.348092254251242 94.949741542339325 3.2534850537776938 13.877075739204882 106.49161669611931 10.571704834699629 11.320258900523184 35.923452749848366 3.4603558778762809 20.782823346555233 19.258189529180527 16.092976003885266 6.209797788411378 9.3043001219630224 3.3953558579087257 19.689916938543323 1.5748545676469801
leaf_count=28 1531 107 25466 13004 8996 3956 6789 34070 14603 126566 3527 316 3566 5861 3192 4819 13 69 27 101 260 305 32 123 33 40 4792 173 2883 73 39 7 249 10 184 375 48 34 27 44 404 2 40 648 53 48 334 16 111 133 184 85 64 18 151 15
internal_value=0 0.0767845 0.0775165 0.070974 0.0657696 0.0289717 0.0868446 0.0806154 0.0937304 0.0690973 0.0640151 0.118715 0.110005 0.0933354 0.0988999 0.101461 0.0150954 0.134171 0.144993 0.0846777 0.122678 0.147793 0.0255509 -0.0110789 0.111295 -0.0624464 -0.07905 0.148865 0.13979 0.171824 0.0860175 0.180675 0.200241 0.0912168 -0.0869607 -0.0983368 -0.0330753 -0.104046 0.000160381 0.262169 -0.0673453 -0.0669601 0.173477 -0.124308 -0.0618206 -0.110031 -0.11147 -0.134904 -0.131773 -0.131188 -0.119284 -0.121737 -0.128857 -0.131286 -0.116615 -0.1103
internal_weight=0 103887 103344 60741.3 51199.5 4246.04 42602.6 33572.7 18755.2 46953.5 14817.5 3555.92 9029.93 6265.92 9541.75 9426.23 461.577 3094.34 2813.97 291.394 248.405 2764.01 280.366 229.702 72.3495 543.363 488.708 2773.35 2357 201.231 54.6554 37.5477 416.344 49.7252 47.1747 438.983 73.54 170.184 27.7042 29.9042 157.353 17.0124 32.7129 142.479 15.2049 115.528 365.443 42.9885 127.274 39.5282 40.6263 17.1076 15.9415 9.32298 35.7829 7.78465
internal_count=268644 262255 256299 162112 141049 12952 94187 77666 40069 128097 37597 6389 16521 12650 21063 17823 1745 4644 3736 795 545 3871 908 876 156 5956 5708 3374 3056 333 248 90 318 159 212 5549 423 950 125 51 720 109 50 825 66 3240 5126 250 759 234 362 158 98 58 335 100
is_linear=0
shrinkage=0.1


Tree=9
num_leaves=62
num_cat=0
split_feature=39 104 126 114 39 118 127 111 43 74 57 133 107 132 31 71 34 115 124 74 46 73 93 125 31 38 104 31 124 42 104 68 117 73 56 33 103 71 74 129 109 124 66 126 95 99 22 53 1 46 48 127 110 108 88 74 103 106 38 117 24
split_gain=530.442 648.622 563.75 1169.72 1058.67 504.583 579.854 456.462 455.265 669.464 661.219 595.448 605.192 582.149 755.257 414.619 526.571 352.356 647.921 292.226 267.552 661.526 249.538 294.968 245.758 231.949 391.096 227.601 224.886 288.445 222.918 222.027 218.003 232.198 217.01 212.306 197.37 193.076 179.135 133.598 128.715 252.148 119.445 105.808 94.1232 92.2434 82.3836 81.8384 74.9135 69.5427 56.03 51.4778 48.5589 39.3778 45.7737 25.3814 0.704183 0.191236 0.0864423 0.0364005 0.00300547
threshold=1.0357262492179873 -0.82341149449348439 -1.7167916893959043 -0.98397272825241078 1.0035319328308108 -1.5837768912315366 -3.3031785488128658 -1.2482870221137998 1.0750176310539248 -0.92091786861419667 0.90725764632225048 1.0000000180025095e-35 -0.94633173942565907 1.0000000180025095e-35 0.97998875379562389 -0.40734232962131495 0.9117783010005952 -0.95858046412467945 -1.3890392780303953 -0.57140231132507313 1.2184044122695925 -0.7049238085746764 -0.98585003614425648 -1.5423489212989805 0.95571801066398632 1.0225650072097781 -0.77195355296134938 0.99896577000617992 -1.4800374507904051 1.0958715081214907 -0.72911152243614186 0.03884853050112725 -1.3241258263587949 -0.80069249868392933 0.9603697955608369 0.94413888454437267 -0.73904782533645619 -0.30048155784606928 -0.39843843877315516 1.0000000180025095e-35 -1.1181042194366453 -2.0003720521926875 0.36500909924507147 -1.944979131221771 -0.8507879078388213 -0.62687659263610829 1.332977890968323 1.1597193479537966 0.31450821459293371 1.1942600607872011 1.2304967641830447 -1.9043502807617185 -1.218554615974426 -1.040175139904022 -0.74755108356475819 -0.86922672390937794 -0.64978894591331471 -0.9473421275615691 1.0197284221649172 -1.5767682790756223 1.017045319080353
decision_type=2 2 2 2 2 2 2 2 2 2 2 2 2 2 2 2 2 2 2 2 2 2 2 2 2 2 2 2 2 2 2 2 2 2 2 2 2 2 2 2 2 2 2 2 2 2 2 2 2 2 2 2 2 2 2 2 2 2 2 2 2
left_child=1 8 3 5 15 7 -7 -3 10 22 13 19 -13 14 -1 16 -4 31 -19 -11 21 35 23 -10 -15 26 39 -24 51 -30 38 -6 46 -34 -17 44 49 43 40 -23 50 -42 -38 -27 48 -39 -12 52 -2 -37 -22 -5 -32 -49 -55 -28 -54 60 -46 -59 -40
right_child=20 2 4 28 17 6 -8 -9 9 11 32 12 -14 24 -16 34 -18 18 -20 -21 30 25 27 -25 -26 37 55 -29 29 -31 47 -33 33 -35 -36 36 42 45 57 -41 41 -43 -44 -45 58 -47 -48 53 -50 -51 -52 -53 56 54 -56 -57 -58 59 -60 -61 -62
leaf_value=0.045947597668192501 0.14550106672607319 0.049556841825914626 0.027792736553118133 -0.12381384915243694 -0.0677422478827064 -0.11188578846913551 0.045252955147073004 0.1441238349626516 0.047308565566989792 0.060838191867579529 -0.047017498108292394 0.12927183158861441 -0.052291523434629762 0.073650883553794871 0.074065343823626215 0.044577194447139229 0.078264838590669183 -0.030625087182120092 0.11154265376050394 -0.10576616672416911 0.12651627501163634 0.06056243437224075 0.07560776357687668 0.13822645273874354 0.12529292990273105 0.056557803183459571 -0.03539401788890173 0.21444764530940491 -0.06388238413235546 0.070259281412698146 0.29271915444058666 0.14113782751052009 0.041672108329748533 -0.029187078797221828 -0.070872985450340473 0.15174705961036616 -0.14735538466574191 -0.092527617819720215 -0.11824853681418396 -0.047372892671071379 -0.0097115704683310849 0.13393272103159326 0.077703033518668085 0.13099853109663909 -0.14015977742320573 0.23905684475987707 0.24213826713157963 0.17416495783580105 0.020516225904241944 -0.011571127347562939 0.16047608922715353 0.10883169821664965 -0.14678771326926612 0.14181980936617808 -0.12599211758560233 -0.11807047011733862 -0.12245183396370363 -0.13570752469196148 -0.15579791794790204 -0.1457099619734874 -0.12210649113466115
leaf_weight=12129.130359657109 69.532403185963631 1043.5616829507053 3585.4719535578042 371.74374318122864 52.014392361044884 239.1346840262413 13042.590712796897 999.07687148824334 471.09137736260891 5204.180213317275 12.047426551580427 2438.0925948470831 198.53410810232162 1414.6517630964518 44975.31173190847 272.39050308987498 4881.0376934185624 420.23002369701862 1351.6844825297594 107.453787997365 1090.2065346837044 636.81222574412823 149.37350423634052 1471.3978256732225 2643.5044495016336 387.52929623425007 45.432538136839867 563.44568495452404 537.71130195260048 228.38704691827297 2.8493388742208472 2349.236489161849 886.77439171075821 966.45781770348549 404.72837463766336 1348.9053767323494 33.442249000072479 83.754002772271633 3.0195251069962996 139.86163198947906 181.16642506420612 375.46302594989538 79.978910386562347 376.39509554207325 21.473523914813999 9.3236664533615095 54.098829612135887 20.849709272384644 154.54671250283718 26.586366668343544 876.38541470468044 9.7608247399330121 18.922769501805305 11.235872492194177 14.773185819387434 203.24734222888947 31.993753701448441 11.995998099446298 4.231226995587348 5.2220800668001166 6.0958219617605209
leaf_count=33758 119 3443 13532 2098 176 2719 39617 1486 1186 13558 44 4409 713 3163 98216 1077 11274 1628 2925 501 957 1708 388 2279 4083 991 178 528 2440 717 3 3707 2398 3347 1608 1975 158 357 24 547 493 590 196 626 106 7 64 28 416 87 410 25 92 14 114 968 224 63 19 25 42
internal_value=0 0.0670688 0.0546167 0.0422474 0.0699166 0.0495398 0.0424237 0.0958106 0.0721028 0.0912748 0.0688802 0.0767518 0.1156 0.0706938 0.0680931 0.0508684 0.0568905 0.111652 0.0778259 0.0574678 0.0970204 0.07935 0.134747 0.116177 0.107291 0.0382712 0.00617904 0.185353 -0.0551312 -0.0238925 0.121164 0.136613 0.0110862 0.00471915 -0.0244298 0.123823 0.138135 0.0766677 0.126926 0.0411257 0.129634 0.0871808 0.0113445 0.0932357 0.0385085 -0.0593125 0.189473 -0.0248231 0.0592994 0.14859 0.14165 -0.117862 -0.109015 0.0717785 -0.0102978 -0.102966 -0.131496 -0.132541 -0.142734 -0.138741 -0.120829
internal_weight=0 103474 29788.8 16472 13316.8 15324.4 13281.7 2042.64 73685.5 10603.6 63082 7948.26 2636.63 61162.6 57104.4 9143.63 8466.51 4173.17 1771.91 5311.63 6271.23 3621.05 2655.31 1942.49 4058.16 1882.36 1025.35 712.819 1147.6 766.098 2650.18 2401.25 1919.38 1853.23 677.119 1738.7 1488.91 857.002 2549.55 776.674 2523.22 556.629 113.421 763.924 249.784 93.0777 66.1463 100.625 224.079 1375.49 1966.59 381.505 53.7659 46.8588 26.0091 248.68 50.9165 26.3334 25.7048 17.2181 9.11535
internal_count=268644 257107 88472 52545 35927 47265 42336 4929 168635 23562 145073 19181 5122 139220 131974 27491 24806 8436 4553 14059 11537 8458 4381 3465 7246 5382 3401 916 5280 3157 3079 3883 5853 5745 2685 3076 2416 1981 2604 2255 2450 1083 354 1617 660 364 108 475 535 2062 1367 2123 319 156 128 1146 316 154 125 88 66
is_linear=0
shrinkage=0.1


Tree=10
num_leaves=58
num_cat=0
split_feature=41 0 34 86 97 31 134 50 73 71 1 131 15 52 32 133 50 31 101 135 70 52 83 91 21 29 73 106 123 105 118 112 69 33 102 74 30 87 107 15 83 49 46 46 102 56 117 74 103 117 48 47 37 116 92 103 37
split_gain=478.664 515.26 787.475 600.764 538.234 508.768 745.95 580.6 378.069 547.925 706.156 329.134 309.897 340.928 406.488 220.929 197.694 176.635 174.782 162.583 152.822 130.99 124.565 115.233 114.058 142.283 98.1645 98.0376 81.0048 75.1848 64.6586 83.2948 63.7052 62.4729 95.2147 60.2839 54.3466 91.7615 45.2015 25.6971 17.684 17.1712 14.7558 12.2492 8.6111 3.10206 2.86194 1.0172 0.8538 0.697831 0.649133 0.337004 0.0220478 0.0136001 0.0133849 0.0119019 0.00141849
threshold=1.1121628284454348 0.52387911081314098 0.83617064356803905 -1.346703767776489 -0.99277904629707325 0.99695032835006725 1.0000000180025095e-35 1.1427277326583865 -0.93613192439079274 -0.62258717417716969 0.6357678771018983 1.0000000180025095e-35 0.54593604803085338 1.1069386005401614 0.88453376293182384 1.0000000180025095e-35 1.059785842895508 1.0100504755973818 -0.54099425673484791 1.0000000180025095e-35 -0.1686940863728523 1.149020850658417 -1.415986120700836 -0.67331814765930165 1.3117929100990298 1.1346742510795595 -0.67244127392768849 -0.94378387928009022 -1.0198889374732969 -0.8484128713607787 -1.6016443967819212 -1.2899055480957029 -0.015623159240931271 0.8371754288673402 -0.55818068981170643 -0.83428910374641407 1.0670897960662844 -1.3410876989364622 -0.9792252480983733 1.0448865890502932 -1.4315326809883115 1.2460379600524905 1.2435263991355898 1.051220238208771 -0.73061397671699513 0.8978843390941621 -1.5433681607246397 -0.39843843877315516 -0.64978894591331471 -1.3388097286224363 1.2304967641830447 1.2203103303909304 0.99957585334777843 -1.5012350678443906 -0.21246132254600522 -0.61965245008468617 0.94850847125053417
decision_type=2 2 2 2 2 2 2 2 2 2 2 2 2 2 2 2 2 2 2 2 2 2 2 2 2 2 2 2 2 2 2 2 2 2 2 2 2 2 2 2 2 2 2 2 2 2 2 2 2 2 2 2 2 2 2 2 2
left_child=1 2 12 16 15 6 -6 -7 24 10 -10 -11 30 14 -14 17 36 -4 20 -15 23 26 28 32 45 -26 44 47 -18 -28 31 -1 35 34 42 -2 40 -38 -29 -24 -3 48 -20 -17 -22 -5 -32 -23 50 51 -35 -25 -34 54 -36 -50 -55
right_child=18 3 4 8 5 7 -8 -9 9 11 -12 -13 13 19 -16 43 22 -19 33 -21 21 27 39 49 25 -27 29 38 -30 -31 46 -33 52 41 53 -37 37 -39 -40 -41 -42 -43 -44 -45 -46 -47 -48 -49 55 -51 -52 -53 -54 56 -56 -57 -58
leaf_value=-0.08974280605393363 -0.16208790033283235 -0.098129397350178782 0.0066080429406614252 0.19445016526782022 0.055719883387524122 0.064219051989776663 0.0035294627254832847 0.10900140943023853 0.016471397262910675 0.091755391879829798 0.07687935161073027 0.029206603740419498 -0.029870201397587448 0.066408251319153386 0.033513976260505306 0.15481546916384681 0.22530856328410631 -0.084735572703036721 0.088012453364335316 0.1804045335455047 0.19254006477463392 -0.17348932958718774 -0.15045202502426522 -0.16092804881704467 -0.0053463638514604974 0.11473901598922605 0.07599993206660012 0.13740649403243571 -0.065991823434295521 -0.078309813332811257 -0.071485670335595206 0.18257329943318149 -0.1563364841821572 -0.13282848697851954 -0.11943912401745843 0.088641740116719409 0.083653761761431689 -0.13206855390660108 0.10161723243006549 0.10768877329608705 -0.15957862295848535 0.067482348917872845 0.24415824968854807 0.25741828748463463 0.11107254449616975 0.22918016535664873 -0.11066033726453416 -0.11808440318181522 -0.12125216607457595 -0.13938605819122438 -0.18569430585935806 -0.19167519767891017 -0.16492759200890006 -0.10869353239132817 -0.11240348543035926 -0.11432650108813779 -0.11142133396334906
leaf_weight=26.906452409923077 10.24695575237274 132.32627542316914 906.78512121737003 43.342984244227409 30935.936540953815 42408.180587127805 3004.5781278908253 3107.2208416163921 3338.2603937536478 9606.9736516773701 4604.0225017555058 922.00917905569077 1284.6205554548651 847.77489761263132 4763.7770304530859 22.72976878285408 45.474961135536432 276.17712289094925 9.9476394578814507 146.76997505128384 26.849847286939621 6.1505752354860306 20.561733856797222 4.6174638122320237 103.46398134343326 2128.2958060633391 56.771613739430904 1412.4917123913765 12.082534018903969 71.143043018877506 20.695532932877541 19.28171144425869 8.007783964276312 5.6665465235710126 4.5868545845150956 149.42811501026154 40.185699068009853 38.715103209018707 470.42827018350363 4.746484398841857 72.486953649669886 5.002713829278945 15.454279586672783 23.839073792099953 25.106554120779037 63.246256098151207 188.56392715498805 7.1842108592390996 31.015220172703263 4.0913384705781928 3.9359445422887802 15.635272614657877 4.764590695500373 4.49224704876542 6.587253727018834 2.6971791386604336 3.3117120377719402
leaf_count=190 44 3998 2809 33 82995 93925 10066 5563 9009 16807 8951 2359 4866 2397 12361 27 44 1147 29 331 20 26 93 20 354 3100 103 813 48 259 143 10 35 31 36 268 84 155 795 10 346 15 22 15 34 22 3232 57 221 21 17 65 20 66 73 26 38
internal_value=0 0.0598755 0.0565049 0.0738797 0.0593503 0.0603663 0.0510997 0.0672762 0.0761152 0.0713194 0.051489 0.0862781 0.0250491 0.0289735 0.0200518 -0.00630681 -0.0530245 -0.0147173 0.105343 0.0832313 0.110832 0.118815 0.0828586 0.0266103 0.113998 0.109172 0.0372587 0.126551 0.164158 -0.00982342 -0.0831494 0.0239383 0.0553614 -0.0292536 0.056405 0.0725515 -0.0927125 -0.022197 0.128465 -0.102038 -0.119877 -0.107931 0.18301 0.207339 0.153173 0.215058 -0.106786 -0.14364 -0.128191 -0.177055 -0.154498 -0.184665 -0.159541 -0.113054 -0.115292 -0.120698 -0.109851
internal_weight=0 109160 87983.8 21176.2 80685.4 79455.9 33940.5 45515.4 20809.6 18471.3 7942.28 10529 7298.39 7042.94 6048.4 1229.53 366.58 1182.96 2365.61 994.545 2272.92 2076.13 82.8657 196.792 2338.35 2231.76 179.871 1896.25 57.5575 127.915 255.448 46.1882 172.447 92.6976 44.38 159.675 283.714 78.9008 1882.92 25.3082 204.813 48.3176 25.4019 46.5688 51.9564 106.589 209.259 13.3348 43.3149 24.3441 9.60249 20.2527 12.7724 18.9781 11.1741 33.7124 7.80396
internal_count=268644 265490 220077 45413 196547 192549 93061 99488 40635 37126 17960 19166 23530 19955 17227 3998 4778 3956 3154 2728 2580 2107 195 473 3509 3454 416 1691 92 362 3575 200 367 574 264 312 4583 239 1608 103 4344 310 51 42 54 55 3375 83 295 106 48 85 55 213 109 247 104
is_linear=0
shrinkage=0.1


Tree=11
num_leaves=58
num_cat=0
split_feature=117 104 5 33 105 82 40 69 30 132 29 52 127 94 80 69 26 131 81 58 59 107 67 47 49 30 97 119 54 103 53 108 35 103 50 111 44 61 107 80 33 31 39 105 51 121 40 105 4 57 3 57 38 122 22 54 57
split_gain=476.863 735.195 481.626 543.106 463.877 815.466 671.352 460.543 406.894 464.973 551.26 449.586 369.582 411.235 313.47 427.842 254.878 201.193 166.464 162.319 157.137 416.941 299.083 156.309 145.706 138.828 134.768 157.184 141.493 134.404 102.923 101.64 90.156 76.2442 124.115 86.95 68.9682 182.502 104.695 54.9342 85.094 37.4402 15.7597 13.9236 4.66548 4.48271 2.11744 0.809366 0.750459 0.439792 0.311977 0.1863 0.118257 0.101085 0.0735162 0.0608471 0.0520679
threshold=-1.5327461361885069 -0.73520845174789418 0.62162753939628612 0.94873574376106273 -0.81332060694694508 -1.3787485957145689 0.97561344504356395 0.010093932040035726 1.032290577888489 1.0000000180025095e-35 1.2353150248527529 1.0706145763397219 -2.0194175243377681 -0.91561949253082264 -0.317880168557167 0.086748030036687865 1.5362517237663271 1.0000000180025095e-35 -0.20693906396627423 0.91743603348732006 0.88348141312599193 -0.98044440150260914 0.31761321425437933 1.2151941657066347 1.2155954241752627 1.0736616849899294 -0.39332999289035792 -1.6274381875991819 1.1361970305442812 -0.900831639766693 1.0984407067298891 -0.93516260385513295 0.9621693789958955 -0.6989331543445586 1.1780925989151003 -1.263799726963043 1.1675259470939638 0.75374054908752453 -0.95998942852020253 -0.28598342835903162 0.8455849587917329 0.85829442739486705 1.0380639433860781 -0.86257049441337574 1.1669362187385561 -1.80335396528244 1.0733329653739931 -0.81659954786300648 1.0000000180025095e-35 0.97017374634742748 -0.10496640950441359 0.97017374634742748 0.97703906893730175 -2.064849734306335 1.0000000180025095e-35 1.0829859375953677 0.96847575902938854
decision_type=2 2 2 2 2 2 2 2 2 2 2 2 2 2 2 2 2 2 2 2 2 2 2 2 2 2 2 2 2 2 2 2 2 2 2 2 2 2 2 2 2 2 2 2 2 2 2 2 2 2 2 2 2 2 2 2 2
left_child=7 2 3 4 6 -6 -2 19 11 10 -10 16 13 -5 20 39 -4 -14 44 23 36 24 -23 33 -22 -11 27 30 32 -13 52 -30 -29 35 -35 -1 38 -38 -9 40 -16 -32 -41 -21 -17 -25 49 -48 50 -45 54 -52 -3 -50 -28 -20 -55
right_child=1 26 8 12 5 -7 -8 14 9 25 -12 29 17 -15 15 18 -18 -19 55 43 21 22 -24 45 -26 -27 48 28 31 -31 41 -33 -34 34 -36 -37 37 -39 -40 42 -42 -43 -44 46 -46 -47 47 -49 53 -51 51 -53 -54 56 -56 -57 -58
leaf_value=0.010583835961234925 0.028364289825980573 -0.16961464647952529 -0.0711371518324352 -0.1152647652735846 0.053243009680273928 -0.0063157000786952565 0.055498872825441872 0.17232655137028161 0.062357147505523236 0.085005245364760201 -0.019945617099431167 0.088993269327310387 0.11339288795093526 0.062325515774456275 0.026746969318752062 0.15777375478153932 0.085217395653635494 -0.057398785104132155 -0.13417751400481298 0.049684382791221206 -0.049895408073053767 -0.11879709568983886 0.070211544113441465 0.14378788812873911 0.13532548252642565 0.13144990392874506 -0.10286326309792682 -0.095355403684090775 -0.13356215918647329 -0.078057389882473238 0.068110204967917781 0.13181786634964984 0.12381883984573748 0.17616666343357407 -0.13906125996617336 -0.12387518016961208 -0.040025811475983442 0.12382947172728945 -0.0063256137087295524 -0.13001379126208434 -0.15329268460572334 0.20717326627868726 0.014811506294415789 -0.1372882057065242 0.19296195144908782 0.20185793846609537 -0.20285175522586407 -0.14411560397844739 -0.14511974315205164 -0.12219831093828211 -0.12373185767513034 -0.11209322610222908 -0.19004919954253952 -0.13076266652259541 -0.10824635138774263 -0.11767554715979228 -0.11606119972307774
leaf_weight=137.73311947286129 11799.665770336986 5.4136899262666685 614.8317293561995 142.58797425031662 4846.3936906121671 4373.3685492500663 40122.084890730679 454.25907643139362 38251.53816318512 1599.8073565363884 831.50969567149878 518.03018800914288 2341.7528022229671 1524.5119185298681 93.623723056167364 73.847782582044601 125.54776233434677 71.066314116120338 2.5265160128474262 4.3637696653604499 45.428349837660789 147.67308203503489 193.31647028401494 22.86282716691494 652.50546512007713 1076.7528308480978 32.605438798666 266.97315187007189 18.822004981338978 53.100072875618935 36.422500357031822 61.87690494954586 20.187020510435104 45.320570573210716 17.242441356182098 73.897485837340355 71.150667451322079 1522.8689518645406 35.355639711022377 103.08910332247615 36.481346063315868 41.328771859407425 8.1044805794954282 31.209449797868729 76.932329624891281 31.760039448738098 5.4667961150407791 4.1096601784229261 4.1158328056335476 50.67403406649828 18.518851965665817 53.446409657597542 5.9387252330780029 9.7455035001039487 114.32590101659298 19.328155990689993 3.2001289352774611
leaf_count=428 31099 23 5171 616 12361 14634 96152 293 78567 2759 2953 1162 4043 3419 366 35 302 237 15 8 141 892 539 31 401 815 1205 2335 115 210 98 108 28 73 87 354 235 1661 76 834 174 31 41 161 53 19 23 20 20 355 125 596 24 58 1868 165 30
internal_value=0 0.0527815 0.0534385 0.0480191 0.0456619 0.0249915 0.0493323 0.0881031 0.061645 0.0633675 0.0606061 0.00679966 0.0833447 0.0471361 0.0999185 0.018147 -0.0446238 0.108362 0.138343 -0.0102983 0.110758 0.0789893 -0.0116428 0.0230777 0.123269 0.103689 -0.0498958 -0.0182053 -0.0470703 0.073462 0.100962 0.0699213 -0.0799477 -0.00769566 0.0892895 -0.0363668 0.126599 0.116516 0.159426 -0.067846 -0.023736 0.142029 -0.119458 -0.124827 0.175728 0.177552 -0.133153 -0.177646 -0.111268 -0.12795 -0.109694 -0.115088 -0.180304 -0.131469 -0.107052 -0.119583 -0.127128
internal_weight=0 108985 108293 65221.4 61141.5 9219.76 51921.8 3961.13 43071.1 41759.6 39083 1311.51 4079.92 1667.1 3536.49 413.933 740.379 2412.82 172.635 424.64 3122.56 1038.92 340.99 328.816 697.934 2676.56 692.921 456.963 367.859 571.13 89.1037 80.6989 287.16 274.194 62.563 211.631 2083.63 1594.02 489.615 241.299 130.105 77.7513 111.194 95.8237 150.78 54.6229 91.4599 9.57646 235.958 81.8835 218.897 71.9653 11.3524 17.0615 146.931 21.8547 12.9456
internal_count=268644 261164 254500 162561 154246 26995 127251 7480 91939 85094 81520 6845 8315 4035 5921 1683 5473 4280 268 1559 4238 1973 1431 992 542 3574 6664 2762 2586 1372 176 223 2363 942 160 782 2265 1896 369 1415 540 129 875 567 88 50 559 43 3902 516 3794 721 47 108 3073 180 88
is_linear=0
shrinkage=0.1


Tree=12
num_leaves=53
num_cat=0
split_feature=42 3 22 127 94 97 116 115 130 31 2 86 30 104 1 38 104 31 82 93 22 105 69 127 100 35 52 83 14 51 106 36 124 36 39 107 48 106 0 109 105 56 108 71 69 105 49 47 103 101 1 105
split_gain=432.117 415.672 548.403 408.682 803.415 537.365 484.432 348.472 604.033 462.056 405.125 398.603 320.109 811.498 364.865 294.564 262.638 216.656 201.273 181.09 145.159 162.335 133.559 125.253 119.137 109.498 103.865 91.9479 89.2245 88.4385 79.9281 62.1011 57.1741 54.8071 49.7457 43.5467 43.5434 43.1689 79.2078 40.0237 38.5029 37.6643 40.4419 32.2148 30.6627 28.6497 19.399 1.11861 1.01668 0.682804 0.254561 0.0581855
threshold=1.1449706554412844 0.55487647652626049 1.4553450345993044 -1.6712368130683897 -1.0364666581153867 -0.9470919370651244 -0.9887591004371642 -0.91651678085327137 1.0000000180025095e-35 0.97671347856521618 0.62723258137702953 -1.3210588097572324 1.0967758893966677 -0.92812901735305775 0.6239852011203767 0.9590461552143098 -0.72911152243614186 1.0015513300895693 -1.4221650362014768 -1.0737053751945493 1.2477522492408755 -0.80803537368774403 -0.0035695432452484961 -1.6712368130683897 -0.83666509389877308 0.9359785020351411 1.1470849514007571 -1.448563754558563 1.0249533057212832 1.2036359906196596 -0.88240554928779591 0.94698801636695873 -2.4079550504684444 0.91760078072547924 1.0408359169960024 -0.99264743924140919 1.1203554272651675 -0.90794867277145375 -0.020638140849769112 -1.1477942466735838 -0.8484128713607787 1.0390613675117495 -0.92263293266296376 -0.60637438297271717 -0.039485426619648926 -0.93269631266593922 1.1968435645103457 1.2225415110588076 -0.64978894591331471 -0.70452213287353505 -0.20811151713132856 -0.77783659100532521
decision_type=2 2 2 2 2 2 2 2 2 2 2 2 2 2 2 2 2 2 2 2 2 2 2 2 2 2 2 2 2 2 2 2 2 2 2 2 2 2 2 2 2 2 2 2 2 2 2 2 2 2 2 2
left_child=1 2 3 4 25 15 -6 11 9 19 -11 20 14 -14 -13 -5 22 -7 36 -9 31 -22 35 -20 27 -1 40 -4 -29 39 -31 -3 33 -28 -34 46 -10 44 -39 -18 -24 -32 -43 -26 -37 -45 -2 -42 50 -48 -41 -50
right_child=16 7 24 5 6 17 -8 8 18 10 -12 12 13 -15 -16 -17 29 -19 23 -21 21 -23 26 -25 43 -27 32 28 -30 30 41 -33 34 -35 -36 37 -38 38 -40 48 47 42 -44 45 -46 -47 49 -49 51 -51 -52 -53
leaf_value=-0.11115519032505364 0.029065894985909852 -0.13261679260360468 0.21713138635948859 -0.022586125282594148 0.045236833557413182 0.076379747969873818 0.017579968034550027 -0.084844767004491006 -0.1464177574062919 0.037396893339525214 0.096534862931885554 0.053993872837732985 0.076509861305847693 -0.035794617024029154 0.080118803650626361 0.08878451877878149 0.24302483775652362 0.13367691621506081 0.21051680034513376 0.039659955031097711 0.10278235894056223 0.19878490097543342 0.042137194638845854 -0.022994298109243375 0.056263922822103102 0.11972212951261357 0.10403602536009854 0.065227400073981742 -0.039493869969495846 0.16250147775926352 0.19605811856282446 0.2064929702697334 0.082979143966752558 -0.17636494156168336 0.12518430077752707 -0.01017241385507915 0.22273971203939361 -0.16607990281724005 0.044224693745302031 -0.16653852744781295 -0.14763905116180848 -0.096342341072114757 0.081341525216265753 -0.04835794776262721 0.13854760459046842 -0.13111032774703119 -0.16776219304831003 -0.20124035264630682 -0.11890531554860369 -0.21447326505911835 -0.13840023638745022 -0.10912868018985343
leaf_weight=386.71031740307808 6.1658089756965664 32.540406212210655 16.540165185928345 787.18040033988655 51733.564116243273 2767.4858251977712 7216.7371967434883 350.19164800457656 155.83096866123378 3942.467678129673 1640.3769548684359 29305.777540609241 1332.1521361246705 1244.5019138902426 6538.6982864588499 340.08752821013331 3.0698068328201762 866.58815418183804 23.57971753180027 175.30080621875823 1004.6652171015739 213.57967618107796 18.351323865354061 889.24388105235994 12.428656220436094 21.694497480988503 14.880173578858377 97.719959989190102 485.99637599289417 33.072253167629242 6.9540475234389296 6.4748538434505454 349.18982097506523 13.1141250282526 1394.7245481237769 18.695936068892479 3.2620961815118781 22.6265759319067 85.894948095083237 3.8564131706953075 11.08659687638283 47.818481773138046 17.49656704813242 56.802499324083328 53.635194078087807 158.79309591650963 8.1433130837976933 6.0007623583078376 38.199883207678795 5.082499131560323 19.333681963384151 7.2414435856044284
leaf_count=1550 16 124 16 2507 129388 7253 19603 4000 1529 9587 2205 60743 2467 3869 10614 726 4 1174 24 469 1629 144 37 2977 38 35 22 216 1683 30 10 4 410 64 1045 46 3 98 190 17 58 431 35 196 42 726 36 27 302 21 100 104
internal_value=0 0.0472785 0.0420994 0.0431438 0.0408827 0.0713324 0.0418511 0.0544569 0.034185 0.046335 0.0547731 0.0581254 0.0563123 0.0222678 0.0587595 0.0110135 0.0921854 0.0900429 -0.0350526 -0.0433108 0.113532 0.119613 0.102482 -0.0169623 -0.0387495 -0.098891 0.111067 -0.0153742 -0.0219625 -0.024573 0.0337374 -0.0763392 0.114458 -0.0273198 0.116733 0.0249931 -0.138848 0.0402632 0.000376499 -0.110241 -0.0584428 -0.0251885 -0.0487445 -0.100283 0.100107 -0.109308 -0.117421 -0.166463 -0.126042 -0.185713 -0.14308 -0.117347
internal_weight=0 111807 64948.3 64120 59358.7 4761.34 58950.3 46858.6 7180.25 6108.34 5582.84 39678.4 38421.1 2576.65 35844.5 1127.27 2184.63 3634.07 1071.92 525.492 1257.26 1218.24 2007.59 912.824 828.281 408.405 1807.35 600.257 583.716 177.043 105.341 39.0153 1771.91 27.9943 1743.91 200.244 159.093 180.853 108.522 71.7012 35.4387 72.2691 65.315 228.024 72.3311 215.596 19.3916 17.0874 68.6314 13.2258 23.1901 45.4413
internal_count=268644 265499 165111 162236 150576 11660 148991 100388 20794 16261 11792 79594 77693 6336 71357 3233 3145 8427 4533 4469 1901 1773 2112 3001 2875 1585 1663 1915 1899 1033 506 128 1541 86 1455 449 1532 376 288 527 122 476 466 960 88 922 73 85 523 57 117 406
is_linear=0
shrinkage=0.1


Tree=13
num_leaves=57
num_cat=0
split_feature=117 104 31 30 129 134 75 136 31 134 134 31 23 69 136 29 80 69 49 57 81 74 47 97 117 48 110 108 54 108 103 50 111 35 80 33 54 0 32 54 39 30 97 42 35 40 106 2 57 57 5 57 73 54 71 72
split_gain=422.732 574.684 390.274 657.629 628.36 519.937 1034.28 400.108 566.738 729.907 607.404 556.806 554.955 381.578 369.198 321.377 245.858 351.751 202.447 137.189 137.128 130.505 127.081 120.507 125.856 105.965 344.133 328.228 103.735 76.8176 69.1779 81.2663 73.2059 65.5702 50.0723 71.548 33.8969 28.8641 25.3812 19.1738 14.5 13.3501 3.14748 2.96535 2.10354 1.53502 0.625169 0.605136 0.415047 0.303707 0.118783 0.0783108 0.0690894 0.0481533 0.0456273 0.0114835
threshold=-1.5327461361885069 -0.73520845174789418 0.99817979335784923 1.0786476135253908 1.0000000180025095e-35 1.0000000180025095e-35 -1.0629640221595762 1.0000000180025095e-35 1.0052599310874941 1.0000000180025095e-35 1.0000000180025095e-35 1.0028616189956667 1.3263093233108523 0.010093932040035726 1.0000000180025095e-35 1.2353150248527529 -0.317880168557167 0.086748030036687865 1.1482678055763247 0.96090036630630504 -0.20693906396627423 -0.4911635667085647 1.2151941657066347 -0.39332999289035792 -1.5280261039733884 1.1944249868392947 -1.2047700285911558 -1.0584295988082884 1.1361970305442812 -0.93516260385513295 -0.6989331543445586 1.1780925989151003 -1.263799726963043 0.9621693789958955 -0.28598342835903162 0.8455849587917329 1.0716367363929751 -0.19897323846817014 0.87358245253562938 1.0856792926788332 1.0380639433860781 1.0947743058204653 -0.47957684099674219 1.1292381882667544 0.90161097049713146 1.0733329653739931 -0.90094059705734242 -0.13307140767574308 0.97017374634742748 0.97017374634742748 -0.036280089989304536 0.97017374634742748 -0.38031046092510218 1.0829859375953677 -0.17763138562440869 -0.29899613559246058
decision_type=2 2 2 2 2 2 2 2 2 2 2 2 2 2 2 2 2 2 2 2 2 2 2 2 2 2 2 2 2 2 2 2 2 2 2 2 2 2 2 2 2 2 2 2 2 2 2 2 2 2 2 2 2 2 2 2
left_child=13 2 3 5 15 14 -7 8 9 -4 -10 18 -13 19 -2 -5 21 34 -9 22 43 39 30 24 36 27 -27 -23 33 -30 32 -32 -1 -26 35 -18 -3 -38 45 -15 -36 -6 -24 -19 -41 48 -47 50 -21 52 54 -52 -49 -22 -25 -51
right_child=1 23 7 4 41 6 -8 11 10 -11 -12 12 -14 16 -16 -17 17 20 -20 38 53 25 42 47 28 26 -28 -29 29 -31 31 -33 -34 -35 40 -37 37 -39 -40 44 -42 -43 -44 -45 -46 46 -48 49 -50 55 51 -53 -54 -55 -56 -57
leaf_value=0.0048608967258392047 0.037944301486469413 -0.060846665697301308 0.040832287479920897 0.064845800820670083 -0.16644554543193979 -0.10224055304457964 0.022126490451445754 0.023587620125848377 0.033717777322253513 0.075485632191816754 -0.046497360390984739 0.095017164271850363 0.014710453034652397 0.086138363758491557 0.0059036209472890233 -4.2156697086284347e-05 0.02053564891804309 0.13522296512958432 0.097238130368855716 -0.13486944484138527 -0.13145879695189178 -0.1288934454625765 0.18663745190996223 -0.10479118596282562 -0.080847586322393819 0.12200637762507271 0.044761902908779044 0.1532160524720845 -0.12908903095683386 0.10910698227171595 0.14361728894502773 -0.13632829555147458 -0.12008602830961229 0.10427508369946314 -0.12791515164186693 -0.14766434932794195 0.064893328856337626 0.21433459061352092 0.061511190233593055 -0.13847465135378526 0.013371110254837729 -0.10075608188336049 0.13718972065065096 0.16628850305891385 -0.21040987679714768 -0.19632379073113226 -0.14322047610207164 -0.1264633251614288 -0.12059621383069713 -0.11125074372732335 -0.11943471627762724 -0.10975260477001901 -0.14196085921579921 -0.11642162387575468 -0.10975620743791954 -0.11831018633005946
leaf_weight=140.26012529432774 39550.463848270476 9.5355057865381223 17625.846177067608 11090.890773534775 104.02054695785046 821.01891978085041 3604.1719160526991 2889.5081426352262 12294.463768921793 9277.5914748162031 1022.4924321770668 5785.938849657774 1010.8435229808092 3.8559547662735012 3956.0145101100206 819.69813516736031 94.702794820070267 43.575666278600693 428.57052278518677 35.321079835295677 2.4117095097899464 44.248493060469627 25.462354674935341 87.877112872898579 284.44068376906216 1327.9612715169787 1019.5707271881402 606.99902108311653 17.16688060760498 64.06906383857131 48.360426262021065 13.200038671493528 70.441533893346786 20.513017550110817 97.160265155136585 34.503871411085129 24.328290693461891 27.57294757664204 7.4104710817337027 18.39350347220898 7.8507953360676757 44.035192564129829 26.034907028079033 104.20734915882349 5.2183504998683921 4.5388469099998474 4.333665728569029 20.175069143995646 48.139254689216614 18.393602520227436 9.77132650464773 57.582044642418623 3.3550186902284613 18.204060550779104 23.44756848551333 2.6342918202280989
leaf_count=428 100959 28 38896 19878 444 2910 10522 6882 28718 16111 3073 8221 2256 5 12252 2547 366 28 652 189 15 183 12 2378 2408 1204 2350 371 113 108 73 69 349 28 834 174 62 15 12 103 41 179 31 60 22 19 22 129 355 208 75 770 17 165 304 21
internal_value=0 0.0418477 0.0424088 0.0369608 0.0578351 0.0317092 -0.0009477 0.0489019 0.0444309 0.0527824 0.0275588 0.0666804 0.0830736 0.0755437 0.0350309 0.0603801 0.0866043 0.0131913 0.0331005 -0.0140082 0.123424 0.0963713 0.0175827 -0.0504267 -0.0204962 0.0983588 0.0884579 0.134048 -0.0416454 0.0587711 -0.00966495 0.0835902 -0.0369112 -0.0683951 -0.0660646 -0.0243812 0.112447 0.144285 -0.11655 -0.12061 -0.117352 -0.146908 0.161639 0.157128 -0.154373 -0.130841 -0.170386 -0.110442 -0.126637 -0.120868 -0.107842 -0.111157 -0.128673 -0.118181 -0.105837 -0.112135
internal_weight=0 110996 110326 59990.3 12058.6 47931.7 4425.19 50335.3 40220.4 26903.4 13317 10114.9 6796.78 3852.37 43506.5 11910.6 3428.86 402.617 3318.08 423.503 168.399 3026.25 323.759 670.862 447.626 2998.78 2347.53 651.248 386.19 81.2359 272.262 61.5605 210.702 304.954 234.218 129.207 61.4367 51.9012 99.7433 27.4678 105.011 148.056 51.4973 147.783 23.6119 92.3328 8.87251 223.236 83.4603 44.558 178.678 67.3534 23.5301 20.6158 111.325 21.0279
internal_count=268644 261164 254500 149691 23048 126643 13432 104809 86798 55007 31791 18011 10477 7480 113211 22425 5921 1683 7534 1559 268 4238 962 6664 2762 4108 3554 554 2657 221 919 142 777 2436 1415 540 105 77 597 130 875 623 43 88 125 585 41 3902 544 375 3527 845 146 180 2682 229
is_linear=0
shrinkage=0.1


Tree=14
num_leaves=55
num_cat=0
split_feature=41 30 38 103 53 71 82 108 134 31 31 116 132 73 29 45 114 10 99 43 134 31 74 59 70 104 31 30 126 16 105 1 30 51 70 106 97 0 103 101 57 101 68 62 136 96 45 1 109 74 107 74 63 50
split_gain=387.235 359.736 620.582 497.917 420.154 513.256 438.078 548.349 405.975 985.66 726.495 516.222 459.92 410.907 396.725 366.553 321.018 293.517 285.737 279.934 273.105 194.178 152.957 147.705 122.771 100.552 98.6528 86.3837 85.8657 83.4028 71.5606 74.2389 69.4156 67.7776 105.985 68.4333 63.2671 78.6311 56.1482 41.4539 38.6921 31.2522 26.9812 31.5075 23.0738 20.3658 15.6655 2.80947 22.5608 0.757454 0.491961 0.455558 0.156118 0.0668793
threshold=1.1151168942451479 1.0624338388442995 0.89997658133506786 -0.83385372161865223 1.0227503180503847 -0.48519000411033625 -1.4375988841056822 -0.81520444154739369 1.0000000180025095e-35 0.99720874428749096 1.0062783956527712 -0.91455700993537892 1.0000000180025095e-35 -0.73906269669532765 1.219395697116852 1.1265045404434206 -0.96791881322860707 0.75247585773468029 -0.93887516856193531 1.0279796719551089 1.0000000180025095e-35 1.0154340863227846 -1.0274202823638914 0.72809386253356945 -0.1686940863728523 -0.72184860706329335 0.95157724618911754 1.032290577888489 -1.9249621033668516 1.0246652960777285 -0.88966450095176686 0.78537502884864818 1.0740441679954531 1.175264894962311 -0.13510580360889432 -0.94151648879051197 -0.70258286595344532 -0.020638140849769112 -0.71711337566375721 -0.71750053763389576 1.0241727232933047 -0.81662768125534047 0.23012875020504001 0.75025323033332836 1.0000000180025095e-35 -0.66857910156249989 1.2205436825752261 -0.1842488422989845 -1.1181042194366453 -0.39843843877315516 -0.95089408755302418 -0.71114903688430775 0.59323954582214367 1.1928794384002688
decision_type=2 2 2 2 2 2 2 2 2 2 2 2 2 2 2 2 2 2 2 2 2 2 2 2 2 2 2 2 2 2 2 2 2 2 2 2 2 2 2 2 2 2 2 2 2 2 2 2 2 2 2 2 2 2
left_child=1 2 14 8 5 20 22 -8 12 11 -11 -10 13 -3 16 17 18 21 -1 -7 -4 -5 -6 -19 27 33 -18 36 29 -17 31 -16 -14 34 39 49 52 50 -36 -26 -37 -30 43 -27 46 -39 -29 48 -44 -35 -38 -45 -2 -54
right_child=24 3 4 15 6 19 7 -9 9 10 -12 -13 32 -15 30 28 26 23 -20 -21 -22 -23 -24 -25 25 42 -28 44 41 -31 -32 -33 -34 35 38 40 37 45 -40 -41 -42 -43 47 51 -46 -47 -48 -49 -50 -51 -52 -53 53 -55
leaf_value=0.050021297716771641 -0.18356740518441383 0.038572907134508894 0.035786768484940362 -0.05060532107134269 0.12078792707762878 0.12008465883610581 0.032806367054840323 -0.069972929018944682 -0.10186414549499362 0.1011993314200591 -0.080944180081768957 0.11399973905186199 0.068814536202903329 0.084351449237804382 0.052443896143217421 -0.15917215239136462 -0.099476715411644198 -0.032926745920888095 -0.011320476300138297 0.062135078449771723 -0.07922695732525914 0.10348972900122669 0.0612051121744756 0.13582955375910663 0.15012474297489817 0.093505234180292759 -0.030257423565363362 -0.027939925436601367 0.089514437669183711 0.21664576742714869 0.246320087361624 0.20587653897152736 0.11154861295988219 -0.1727692432336089 -0.17206284554419649 0.1168228258178023 -0.17804561639118455 0.0082576591080307828 0.0143723828737349 -0.016118276739012852 0.027535516673076604 0.21111081578506508 0.24726680097991569 -0.16846430574070026 0.19552069844080158 0.14803549986300488 0.11621383248431663 0.14802507669083778 -0.12166298226880701 -0.11857912528736303 -0.14413671864544716 -0.11763685684800521 -0.15449694892335911 -0.16801445554446426
leaf_weight=1039.2142807543278 6.0640982240438452 35325.938358828425 622.35361804068089 1242.4593956768513 604.54944954812527 1214.7601986974478 56059.784927133471 523.94490300863981 437.91630671918392 3972.4556295871735 231.75578267872334 148.30093196034431 608.37372572720051 2075.9635064601898 92.04410395026207 16.048596784472469 396.50241401791573 77.077379301190376 2819.9661276116967 2656.6470787897706 308.94554342329502 87.536919608712196 1499.5601225309074 158.55859677493572 70.310212031006813 8.7050395086407644 428.32245033979416 13.274071201682093 27.764141067862511 9.3427382260560972 48.165607154369354 47.970356553792953 1013.0726283788681 5.1608805358409882 24.281471028923988 1127.7510562390089 12.218822568655016 20.273768186569214 48.261417634785175 19.067265421152115 50.716247156262398 88.549728468060493 3.1146530658006668 1.8701802492141677 18.403419017791748 21.45473438501358 17.447392508387566 5.3949036598205549 3.5431430116295815 5.1566519737243635 6.584163360297679 30.88028929010034 4.3824723362922695 22.206835702061653
leaf_count=2534 25 74358 1493 3951 1045 1743 139847 1917 1539 5212 764 159 834 3398 193 70 6386 217 8692 5359 993 139 3193 184 72 26 1343 33 47 4 25 25 824 22 104 882 51 50 101 47 108 55 5 8 6 21 17 2 39 40 34 295 20 93
internal_value=0 0.0377947 0.0332085 0.0446823 0.0358478 0.0642846 0.0335207 0.0318547 0.0467468 0.0742207 0.0911587 -0.047255 0.0433742 0.0411138 -0.00118549 -0.0082984 -0.00690503 -0.0222382 0.00519786 0.0803183 -0.00236744 -0.0404632 0.0783244 0.0806288 0.0881724 0.0971419 -0.0635319 -0.000332858 0.145716 -0.02089 0.14118 0.105011 0.0955146 0.102468 0.0417715 0.110735 -0.0569016 0.0036171 -0.048031 0.114659 0.11298 0.182086 -0.0373044 -0.0755931 0.106972 0.0801245 0.0539282 0.0943906 0.0509299 -0.145685 -0.166172 -0.120539 -0.169089 -0.165786
internal_weight=0 113884 68362.7 45521.1 63490.5 4802.71 58687.8 56583.7 43813.8 4790.43 4204.21 586.217 39023.3 37401.9 4872.19 1707.34 4684.01 1565.63 3859.18 3871.41 931.299 1330 2104.11 235.636 1546.52 1404.21 824.825 142.31 141.705 25.3913 188.18 140.014 1621.45 1350.71 161.92 1188.78 93.1849 60.5315 72.5429 89.3775 1178.47 116.314 53.5082 41.4555 49.1249 41.7285 30.7215 12.0527 6.6578 10.3175 18.803 32.7505 32.6534 26.5893
internal_count=268644 266543 174788 91755 155590 9588 146002 141764 87088 7674 5976 1698 79414 77756 19198 4667 18955 4491 11226 7102 2486 4090 4238 401 2101 1751 7729 350 176 74 243 218 1658 1376 324 1052 294 156 205 119 990 102 375 329 56 71 50 46 44 62 85 303 138 113
is_linear=0
shrinkage=0.1


Tree=15
num_leaves=56
num_cat=0
split_feature=118 127 73 29 31 134 51 114 70 78 107 69 39 118 2 42 125 7 81 70 79 74 75 121 102 123 41 52 61 123 78 73 103 47 108 119 32 30 30 91 111 116 1 4 38 120 72 40 57 3 111 102 33 52 6
split_gain=374.66 407.441 345.798 374.77 323.866 712.301 471.922 271.688 258.698 223.537 212.039 156.798 138.692 135.368 126.971 144.538 119.726 112.985 110.234 95.8377 89.391 88.8927 77.4934 81.1999 64.5579 61.6735 41.3231 40.7178 60.7801 39.8883 37.2277 33.0822 29.2831 18.741 15.3142 12.2429 21.2735 6.50153 24.5035 4.31454 22.2206 4.11295 2.08783 1.6784 0.88198 0.750315 0.536519 0.495947 0.30144 0.124977 0.107014 0.0987406 0.0823574 0.0462423 0.0335618
threshold=-1.5837768912315366 -3.3031785488128658 -0.93613192439079274 1.2413664460182192 0.99695032835006725 1.0000000180025095e-35 1.1333410739898684 -0.8444579243659972 -0.11874210834503172 -0.3414421528577804 -0.99720209836959828 0.086748030036687865 1.0158535838127138 -1.6227559447288511 0.62723258137702953 0.92783191800117504 -1.2190142273902891 0.87242257595062267 -0.20693906396627423 -0.62345796823501576 -0.38798220455646509 -0.48046913743019098 -0.44987463951110834 -1.8578007221221922 -0.98581990599632252 -2.1610133647918697 1.109634578227997 1.1363875269889834 0.75612360239028942 -2.2253013849258418 -0.49851189553737635 -0.41931296885013575 -0.70504093170166005 1.1863877773284914 -1.05505895614624 -1.6380510330200193 0.85711726546287548 1.0673846602439883 1.0670897960662844 -0.29655258357524866 -1.231492757797241 -1.5073106884956358 -0.23487233370542523 1.0000000180025095e-35 0.97561404109001171 -1.71408474445343 -0.29899613559246058 1.0733329653739931 0.97017374634742748 -0.017358168959617611 -1.263799726963043 -0.57716816663742054 0.82798418402671825 1.1406265497207644 0.029015277512371544
decision_type=2 2 2 2 2 2 2 2 2 2 2 2 2 2 2 2 2 2 2 2 2 2 2 2 2 2 2 2 2 2 2 2 2 2 2 2 2 2 2 2 2 2 2 2 2 2 2 2 2 2 2 2 2 2 2
left_child=8 39 7 4 5 -4 -6 14 10 13 12 26 30 22 16 -16 -3 24 44 -19 31 32 47 -24 -5 -23 42 28 34 -28 -1 -14 -15 -22 -12 41 -37 38 -9 40 -2 -29 -11 48 -13 -42 49 -10 54 -45 -32 -47 -50 -20 -41
right_child=1 2 3 17 6 -7 -8 37 9 11 27 18 20 21 15 -17 -18 19 53 -21 33 25 23 -25 -26 -27 29 35 -30 -31 50 -33 -34 -35 -36 36 -38 -39 -40 43 45 -43 -44 46 -46 51 -48 -49 52 -51 -52 -53 -54 -55 -56
leaf_value=0.064554238098069358 0.1485105530032152 0.13997996657567374 0.030817312978726048 0.18637545162643329 0.03665285408909337 -0.015441430263222748 0.081092099989622315 -0.10776674263959739 -0.12527733514258679 -0.11499243827243584 -0.13886733573943597 0.14555396595426939 0.15265624656259874 0.11745324476919106 0.074328296579393743 0.1461104667420676 0.0074850372964363164 -0.058360935011027085 -0.13028278390932971 0.11305606438551746 0.069476372630945457 0.084399465154468056 -0.022443896395610636 0.13834928747601347 -0.10870586375528168 0.11936908564354831 -0.11803752278532038 -0.12880967447408004 0.2330717142826052 0.13892105663534526 -0.14249896431504608 0.059117670489187008 -0.1581933705801426 -0.15144256482609295 0.067827928792789136 0.16763859049558602 -0.13646336784369567 -0.20308748178889005 0.18141736451846954 -0.11625481373619129 -0.18824755452439135 -0.084931936687103721 -0.14535533590311189 -0.12557334231071982 0.12357898040618509 -0.13677512314593604 -0.168531793890803 -0.15265036584588537 -0.10624190848339594 -0.14231279921914358 -0.13044112079545675 -0.1127949625495614 -0.11164967133683788 -0.11471495068611365 -0.12370119990494927
leaf_weight=11.636173561215399 3.8495436012744895 81.689718633890152 51090.355946980417 7.629502296447753 52224.645935758948 3560.7005053758621 2504.2513337358832 77.967122869566083 25.863792650401592 45.688025899231434 13.469918102025987 35.433173224329948 106.70079743862152 4.864375680685046 1779.1546704769135 333.01504448056221 413.0207085609436 79.872266069054604 2.0981104001402882 55.126909300684929 5.0411445349454906 1690.5353778526187 88.034164346754551 48.825127109885216 262.768529728055 718.7567944675684 11.496652763336897 107.79832441732287 9.0268640518188459 12.7308095023036 28.843453079462048 58.562963247299194 18.554780475795269 16.115700766444206 4.8843261450529125 4.1335649415850622 5.1870709806680679 6.2076205015182486 3.044496774673461 12.148462861776354 2.0408594459295264 26.643182411789894 44.906193360686302 15.016001261770729 37.693639546632767 2.499897487461566 4.5017622262239447 8.8954426124691945 94.884001487866044 6.344611957669259 9.882116302847864 5.4834671057760715 40.049105986952782 21.059486858546734 12.06293138861656
leaf_count=33 5 107 124581 18 110367 11292 4093 3224 171 538 70 19 111 3 2709 229 1096 264 13 93 10 2450 331 35 1369 563 116 717 3 31 139 121 91 73 9 13 30 25 1 105 9 159 220 101 29 16 20 50 1861 32 56 61 475 205 82
internal_value=0 0.0335087 0.0337616 0.032893 0.0332487 0.0278034 0.0386863 0.0691564 0.0680858 0.0788693 -0.00634013 -0.0200998 0.0549545 0.0868917 0.0749651 0.0856458 0.0293634 -0.0630777 0.074014 0.0116372 0.0947336 0.0929472 0.00105497 0.0349197 -0.10038 0.0948318 -0.0990195 -0.0911433 0.0206226 0.0169866 -0.0922929 0.11951 -0.100939 -0.0988031 -0.0838628 -0.11243 -0.00159862 -0.104457 -0.0968989 -0.109497 -0.0557109 -0.120114 -0.130043 -0.11353 0.134227 -0.134137 -0.137158 -0.132283 -0.109691 -0.130545 -0.139422 -0.120304 -0.107847 -0.116125 -0.119965
internal_weight=0 112678 112479 109785 109380 54651.1 54728.9 2694.1 3223.36 2815.44 407.926 211.106 236.782 2604.33 2606.88 2112.17 494.71 405.397 96.2844 134.999 186.421 2432.71 171.619 136.859 270.398 2409.29 114.822 171.143 27.3811 24.2275 50.3617 165.264 23.4192 21.1568 18.3542 143.762 9.32064 87.2192 81.0116 198.881 13.8738 134.442 90.5942 185.007 73.1268 10.0242 25.8624 34.7592 159.145 21.3606 38.7256 7.98336 134.933 23.1576 24.2114
internal_count=268644 262235 259468 252077 250333 135873 114460 7391 6409 4865 1544 1171 543 3694 4141 2938 1203 1744 266 357 315 3107 587 366 1387 3013 905 1001 82 147 228 232 94 83 79 919 43 3250 3225 2767 91 876 758 2676 48 86 153 221 2523 133 195 77 2336 218 187
is_linear=0
shrinkage=0.1


Tree=16
num_leaves=57
num_cat=0
split_feature=42 1 31 136 118 31 73 32 74 108 60 52 73 86 58 107 33 124 114 4 70 104 127 115 70 109 122 51 107 51 53 105 106 105 11 35 48 107 38 118 34 53 32 109 68 31 98 118 77 40 95 103 16 108 1 105
split_gain=342.115 320.255 415.057 468.989 538.489 690.174 583.952 446.318 847.062 441.884 568.311 451.26 622.99 335.698 315.609 311.862 290.97 366.91 235.162 200.926 418.76 189.473 180.745 156.603 155.032 104.328 151.496 112.874 87.6694 72.5909 68.0903 62.6985 57.1537 56.9351 52.6408 49.4911 47.1821 211.144 47.0687 60.993 38.8182 34.8207 33.8888 29.3513 28.8271 30.816 16.3578 21.4578 15.2158 8.4388 4.90756 0.93344 0.375317 0.325875 0.320915 0.0530565
threshold=1.1449706554412844 0.57568547129631054 0.99930113554000866 1.0000000180025095e-35 -0.96483927965164173 1.0091450810432436 -0.80557116866111744 0.96124419569969188 -0.95902332663536061 -1.0289025306701658 0.84087279438972484 1.1100956201553347 -0.71649149060249318 -1.346703767776489 0.89677372574806224 -0.97589755058288563 0.78888025879859935 -1.0813190340995786 -0.9354988932609557 0.72536769509315502 -0.4737772792577743 -0.72911152243614186 -1.7696655392646787 -0.91523879766464222 -0.4589687436819076 -1.1181042194366453 -1.7054399847984312 1.1731208562850954 -0.97459858655929554 1.2036359906196596 1.0023996233940127 -0.85008159279823292 -0.88240554928779591 -0.86882224678993214 0.84795713424682628 0.83705568313598644 1.2304967641830447 -0.98936370015144337 1.0329435467720034 -1.2502296566963194 0.95361518859863292 1.0097033977508547 0.96621727943420421 -1.1477942466735838 0.19687761366367343 0.82727751135826122 -0.99518102407455433 -0.87622112035751332 -0.4820162951946258 1.0793635249137881 -0.35267889499664301 -0.64978894591331471 1.118187487125397 -0.93117055296897877 -0.20811151713132856 -0.77783659100532521
decision_type=2 2 2 2 2 2 2 2 2 2 2 2 2 2 2 2 2 2 2 2 2 2 2 2 2 2 2 2 2 2 2 2 2 2 2 2 2 2 2 2 2 2 2 2 2 2 2 2 2 2 2 2 2 2 2 2
left_child=1 2 9 4 6 -6 -4 8 -5 10 15 14 -13 30 -11 -1 17 18 -15 20 -18 25 -9 -19 -21 27 28 31 33 43 46 48 -31 -27 41 -12 37 -29 39 -28 -30 -32 -40 -23 53 -46 47 -3 -2 -38 -33 54 -48 -34 -45 -53
right_child=21 13 3 7 5 -7 -8 22 -10 11 35 12 -14 16 -16 -17 19 23 -20 24 -22 29 -24 -25 -26 26 38 36 40 32 34 50 44 -35 -36 -37 49 -39 42 -41 -42 -43 -44 51 45 -47 52 -49 -50 -51 -52 55 -54 -55 -56 -57
leaf_value=0.035257550663008043 -0.068858563717368329 0.12571362568601241 0.051126326414555889 0.066642024800969285 0.014863776579198983 -0.09039619962281803 0.022430870497935657 0.065342839149983942 -0.016978139717409087 0.011140575234315534 0.33206346967835176 0.049713268103454063 0.0031414430228094157 0.022584953424968742 -0.086692418940971752 0.081781996838645871 0.01659490629764233 0.077665206318254479 -0.034422631048154829 0.090245468034989215 0.061477330723916104 0.1835750168337642 0.11038876216988502 -0.011549108976451276 0.024760317421907079 -0.18430941129772616 0.060319780851155094 0.094110090857625395 -0.14305184796894962 0.13443821606863188 -0.16467672814916132 -0.24782750718329419 -0.12117977780431513 0.074399396998804296 0.14761794159223388 -0.1049381570535052 0.098870564117709031 -0.20354590516540771 0.1211185494430968 -0.12364479902689605 0.1025008735756309 0.075661150234228744 0.032927741865828183 -0.16830697980801243 -0.11218943226180576 0.06630998226164983 -0.16347179237391951 -0.11096523468914572 0.08311560862356715 0.12567267872635524 -0.14007706924061597 -0.11789283202029953 -0.18125140838861156 -0.15152779970664179 -0.13639217665295511 -0.10755490653625446
leaf_weight=10935.521457634866 9.7873898446559924 4.0014676898717871 12679.416433557868 3298.4857324361801 4288.1904182471335 728.78670051693916 16092.253523603082 2686.5649974197149 1914.5671025812626 27945.10202229023 2.6154041662812224 7930.0921169538051 4503.5397846251726 3140.7101690173149 333.68325228616595 1659.4216677360237 3140.3488316982985 1422.3587504774332 940.22948856651783 2012.5082252323627 6149.6344073563814 3.2329473160207263 1332.5725087970495 228.34509627521038 440.68777488172054 9.9373417496681196 91.303906917572021 531.54097978770733 67.010676980018616 31.969051651656628 16.088708728551868 10.507792443037035 15.568125184625389 59.084711849689484 18.194552928209305 284.26730364188552 149.9385732114315 24.950048729777336 195.912258207798 22.454670622944832 7.1221725046634665 9.6404539942741376 56.03480339050293 3.8055579885840443 13.590701932087539 33.54034337028861 22.549429185688496 89.701684389263391 20.154060401022434 542.5620929338038 7.0716499611735335 35.875846043229103 25.075818419456482 4.5789449363946906 18.309119015932083 5.7617665939033023
leaf_count=25490 32 5 23674 5109 10483 2747 35895 4264 5227 74570 3 18651 14675 7065 1331 3021 6787 2387 2558 2335 9987 4 1348 662 831 46 174 459 269 30 68 48 127 71 18 2046 142 106 208 84 7 17 101 17 205 122 119 4023 25 295 45 302 103 22 100 104
internal_value=0 0.0302105 0.0279472 0.0352628 0.0298051 -0.00042672 0.0350767 0.0552372 0.0359313 0.0220748 0.0382173 0.0169672 0.0328447 0.0425927 0.00998617 0.0413873 0.0440123 0.0255421 0.00945067 0.0530272 0.0463055 0.0722242 0.0802781 0.065324 0.0784818 0.0816309 0.0432596 0.096691 -0.04395 -0.0299378 -0.0913141 -0.0545765 0.0243514 0.0371522 0.0174351 -0.100954 0.102446 0.0807648 0.0773976 0.0240072 -0.119461 -0.0746246 0.101504 -0.110374 -0.0279594 0.0148379 -0.125113 -0.100858 0.0334376 0.11987 -0.204483 -0.125281 -0.172833 -0.128077 -0.141884 -0.116462
internal_weight=0 114275 96615.1 43020.8 33788.6 5016.98 28771.7 9232.19 5213.05 53594.2 12881.8 40712.4 12433.6 17660.1 28278.8 12594.9 17474.8 5731.64 4080.94 11743.2 9289.98 1971.61 4019.14 1650.7 2453.2 1805.37 508.861 1296.51 143.155 166.232 185.252 47.5209 99.2472 69.0221 43.9237 286.883 1248.99 556.491 365.706 113.759 74.1328 25.7292 251.947 66.9852 67.2781 47.131 141.328 93.7032 29.9415 692.501 17.5794 63.7523 47.6252 20.1471 22.1147 41.6376
internal_count=268644 265499 228534 88747 72799 13230 59569 15948 10336 139787 30560 109227 33326 36965 75901 28511 32612 12672 9623 19940 16774 3145 5612 3049 3166 2112 960 1152 393 1033 4353 150 506 117 103 2049 1002 565 567 258 276 85 309 527 476 327 4250 4028 57 437 93 523 222 149 117 406
is_linear=0
shrinkage=0.1


Tree=17
num_leaves=58
num_cat=0
split_feature=40 59 70 71 111 70 109 53 101 47 58 108 47 128 51 44 135 106 124 53 41 28 110 106 107 48 72 111 122 33 105 48 109 37 15 115 83 69 123 37 133 42 44 107 78 52 47 40 45 122 127 47 36 117 116 36 74
split_gain=332.67 435.797 486.654 533.968 613.113 431.117 847.236 420.601 392.785 697.801 429.583 368.213 497.195 336.547 243.414 242.989 224.135 219.971 307.945 271.147 264.887 203.855 201.225 198.948 189.078 186.397 176.564 154.855 168.803 143.393 142.619 113.615 96.5183 88.2258 84.6331 75.6297 68.0922 126.146 63.6386 70.7984 62.484 62.2984 61.1766 56.5388 99.9285 55.5638 53.695 47.4378 42.4473 37.1873 28.7094 21.6879 19.8126 16.4189 1.12094 0.962661 0.892042
threshold=1.0702933669090273 0.85176518559455883 -0.085438378155231462 -0.35173133015632624 -1.2697421312332151 -0.14019175618886945 -1.1270102858543394 1.1266832351684573 -0.74490275979042042 1.1626182198524477 0.8597548007965089 -1.0212064385414121 1.1721551418304446 1.0000000180025095e-35 1.1570106744766238 1.1355269551277163 1.0000000180025095e-35 -0.90717837214469899 -1.6550852060317991 1.1137490868568423 1.1151168942451479 1.1313203573226931 -1.1877071261405943 -0.9473421275615691 -0.96153625845909108 1.205694913864136 -0.49522159993648524 -1.0143519043922422 -1.6617063879966734 0.81829091906547557 -0.82496038079261769 1.1904733180999758 -1.0927313566207884 0.99380192160606395 0.90080180764198314 -1.0503523349761961 -1.2169762849807737 -0.026083912700414654 -2.1948194503784175 0.95162183046340953 1.0000000180025095e-35 1.1145392060279848 1.1959033608436587 -0.97459858655929554 -1.0278898477554319 1.1314841508865359 1.2405518889427187 1.071756958961487 1.205589830875397 -1.3621852397918699 -2.1588858366012569 1.1845249533653261 0.92273190617561351 -1.5767682790756223 -1.4954742193222044 0.98046976327896129 -0.39843843877315516
decision_type=2 2 2 2 2 2 2 2 2 2 2 2 2 2 2 2 2 2 2 2 2 2 2 2 2 2 2 2 2 2 2 2 2 2 2 2 2 2 2 2 2 2 2 2 2 2 2 2 2 2 2 2 2 2 2 2 2
left_child=1 5 3 13 30 8 25 22 9 10 -1 12 -10 15 -6 -3 -13 19 20 33 27 -11 41 52 31 53 36 28 -19 -24 -5 -8 54 40 -15 49 37 -20 39 -25 47 -4 -34 46 -45 -26 -22 -2 -40 -28 -29 -38 -21 -7 -9 -37 -54
right_child=17 2 7 4 14 6 24 32 11 21 -12 16 -14 34 -16 -17 -18 18 26 23 43 -23 29 38 45 -27 35 50 -30 -31 -32 -33 42 -35 -36 55 51 -39 48 -41 -42 -43 -44 44 -46 -47 -48 -49 -50 -51 -52 -53 56 -55 -56 -57 -58
leaf_value=0.030419567856187588 0.014843996227659874 -0.033192104120915923 0.17598992711145731 0.12072935133338336 -0.019684928422689502 -0.075186468740682785 0.16581457426931137 -0.13648527477109348 0.045559902222065463 0.045907285297913464 0.013615350233671501 -0.091500830197342425 -0.034306150211834127 -0.0979504055866951 -0.08364670542080456 0.04778680133201927 0.047568327745716434 -0.078560214981679768 -0.081162662992665321 0.12862287910463235 -0.026420527883111292 0.088088377407755533 -0.11741599327239105 0.26507549543168041 -0.20092508816748614 0.18081437397649472 -0.022290774539188457 -0.1401109480633391 0.034581981842203097 0.12130278497678969 -0.12665615682412668 -0.044028051460252876 0.05723393555946571 0.12346029643675352 0.042734990232500075 -0.1515419557574306 0.05310631116227537 0.081358772569608412 0.031757450817599474 -0.12425898938496455 0.11366356625176095 -0.15655205119826343 -0.11092491147902579 0.082527190951636645 -0.012288920306713316 0.14448848697651703 0.12897329984891703 -0.12481521722318323 0.10060141350692503 0.20050417566815271 0.11043237981489556 0.15304334153636748 -0.15272699674592527 -0.15574812564758647 -0.11546402707838486 -0.1830382734941117 -0.12333054133191745
leaf_weight=76959.302017414011 31.848921149969101 452.54171876609325 6.6257807761430731 256.75357391685247 1011.3737353533506 32.088187590241432 646.62071678042412 39.910675264894962 1839.6456008553505 2286.9438912607729 18960.940042581409 621.48215783201158 1352.5754331052303 270.08292854577303 1445.1590292286128 2045.0948637016118 142.4546852260828 242.22616850957274 50.752811700105667 2.9923944026231757 27.02432955801487 2296.0193284004927 26.088621325790882 5.7798371315002468 19.60325077734888 20.757385075092316 37.034752920269966 144.69261281192303 289.42668567597866 708.88469351828098 25.630220558494329 26.874080300331116 77.458353342488408 28.183268308639526 50.80388854816556 25.000453904271126 25.217694982886314 809.54008284211159 94.478574141860008 24.338263899087906 16.626645401120186 37.619889549911022 30.018824892118573 204.35986191034317 243.71243233606219 6.1081699877977362 125.51091496646404 102.90059034526348 1720.6545570939779 9.391589403152464 4.7228943556547156 156.35013872385025 20.39653296768665 119.55178639292717 69.610245225951076 15.860364541411398 20.900638110935692
leaf_count=167988 78 1532 4 338 3080 124 461 273 4392 4783 47601 3624 4286 1053 7108 5253 383 1207 152 2 77 3798 349 2 150 18 95 616 685 599 174 80 556 37 117 117 46 1302 203 113 24 212 464 305 846 4 68 426 1518 4 10 142 98 536 921 65 145
internal_value=0 0.0267302 0.00170984 -0.00982755 -0.0412718 0.0282869 0.0983249 0.0660717 0.0277026 0.0289192 0.0270978 -0.00320447 0.0117199 0.0207286 -0.0573131 0.0331144 -0.065568 0.0545207 0.0339923 0.0784395 0.000446285 0.0670396 0.100361 0.0895988 0.147281 -0.10023 0.0720697 -0.0422452 -0.0169667 0.112829 0.0982757 0.157441 -0.0570571 -0.0389923 -0.0756766 -0.0645473 0.0835155 0.0717709 0.0946259 -0.0495435 -0.0692378 -0.106754 0.0102665 0.0488569 0.0309555 -0.118866 0.101443 -0.0918059 0.0970181 0.0227784 -0.132191 0.139163 -0.119845 -0.138701 -0.123124 -0.163767 -0.137849
internal_weight=0 111885 6553.66 5557.44 2738.92 105331 871.604 996.217 104459 100503 95920.2 3956.16 3192.22 2818.52 2456.53 2497.64 763.937 4479.92 2410.82 2069.1 1281.68 4582.96 779.219 1889.54 699.206 172.397 1129.15 681.068 531.653 734.973 282.384 673.495 216.998 179.559 320.887 87.2872 1041.86 860.293 1845.25 30.1181 151.376 44.2457 107.477 600.608 448.072 25.7114 152.535 134.75 1815.13 46.4263 149.416 181.568 44.2896 151.64 109.521 40.8608 41.2972
internal_count=268644 260261 22033 18655 10700 238228 1373 3378 236855 224170 215589 12685 8678 7955 10188 6785 4007 8383 5737 2646 3814 8581 1164 2081 695 678 1923 2518 1892 948 512 541 2214 565 1170 281 1642 1454 1836 115 528 216 1020 1296 1151 154 145 504 1721 99 626 188 245 660 1194 182 243
is_linear=0
shrinkage=0.1


Tree=18
num_leaves=62
num_cat=0
split_feature=39 110 116 60 70 71 107 52 72 126 105 40 56 46 103 129 125 92 114 106 50 51 108 111 32 30 36 106 104 58 101 31 123 106 50 81 55 121 71 109 123 118 50 75 73 36 50 67 73 32 6 39 90 60 124 2 62 36 38 88 42
split_gain=314.88 455.556 429.889 627.411 564.121 412.429 390.383 373.427 378.694 356.77 638.493 313.798 305.392 283.26 389.337 223.819 210.887 357.862 280.737 195.226 283.752 195.027 330.441 329.211 196.125 161.466 212.083 153.603 147.225 139.513 135.447 133.153 132.703 117.556 110.911 105.895 101.398 93.584 92.0824 86.4107 79.3814 71.531 70.6407 69.0542 68.2068 67.5478 61.5265 61.4287 82.1241 60.6886 59.5141 52.614 51.8308 48.3679 45.8485 26.9457 18.7001 2.96377 1.74186 0.632734 0.236255
threshold=1.0297641754150393 -1.1852106451988218 -1.4814364314079282 0.78649693727493297 -0.16153333336114881 -0.37099899351596827 -1.0104518532752989 1.1406265497207644 -0.27396418154239649 -1.8413234353065489 -0.81816250085830677 1.0793635249137881 0.98216393589973461 1.2137023210525515 -0.76418077945709217 1.0000000180025095e-35 -1.7138957381248472 -1.0005115270614622 -1.0278095602989195 -0.9127410054206847 1.2098067402839663 1.1429206728935244 -1.0584295988082884 -1.2697421312332151 0.89387595653533947 1.0236152410507204 0.97041627764701854 -0.89661300182342518 -0.84725379943847645 0.935756415128708 -0.76457315683364857 0.90287804603576671 -2.209143757820129 -0.9536149501800536 1.1696771383285525 -0.20693906396627423 1.0235494375228884 -1.8213492631912229 -0.3344613760709762 -1.1426093578338621 -2.2453391551971431 -0.97823840379714955 1.1489641070365908 -1.0220928788185117 -0.76697021722793568 0.97570914030075084 1.1818832159042361 0.23860374838113788 -0.67995500564575184 0.96249881386756908 0.49842305481433874 1.0272931456565859 -1.0959648489952085 0.81866183876991283 -1.3890392780303953 0.35222055017948156 0.65995746850967418 0.8998040258884431 0.97849440574646007 -0.20712856948375699 1.1325414776802065
decision_type=2 2 2 2 2 2 2 2 2 2 2 2 2 2 2 2 2 2 2 2 2 2 2 2 2 2 2 2 2 2 2 2 2 2 2 2 2 2 2 2 2 2 2 2 2 2 2 2 2 2 2 2 2 2 2 2 2 2 2 2 2
left_child=1 21 7 4 6 15 -4 37 46 10 13 16 -7 14 29 -5 18 -18 -12 33 -21 22 24 32 39 26 30 -6 -26 -2 41 51 59 -15 -33 -10 -34 40 44 -1 -3 -11 -39 55 49 56 -9 60 -49 -27 -46 -25 -45 -16 -32 -28 -40 -24 -59 -23 -13
right_child=9 2 3 5 27 12 -8 8 35 25 11 47 -14 19 53 -17 17 -19 -20 20 -22 23 57 31 28 38 43 -29 -30 -31 54 34 36 -35 -36 -37 -38 42 45 -41 -42 -43 -44 52 50 -47 -48 48 -50 -51 -52 -53 -54 -55 -56 -57 -58 58 -60 -61 -62
leaf_value=-0.013284260289438722 0.057818599707840493 0.074599293709100734 0.059987139514246814 -0.0063944375953775478 0.17393052364479361 0.082118777552336208 0.023666714358211046 0.068271700133646765 0.14496963982793312 0.073861213530845807 -0.031799756615137738 -0.17836179063512836 -0.061216505584813265 -0.10949594928423084 -0.053563150560035779 0.065287909711628692 -0.13482737550339424 0.076860359430023881 -0.14872324879645712 -0.073400806570197902 0.073760575186350277 -0.16261911861236036 0.18575289052132993 -0.11726607479480861 -0.032641212330309193 0.081104939627623149 0.18702517526967727 -0.14611759369175162 0.13763664554831875 -0.08898775501277946 -0.099250544860071968 -0.10719006635224444 -0.1525463663973057 0.096604700108965144 0.087843437420564496 -0.11267718670648737 0.10197943183547734 0.21594424263348788 0.054640208263673731 -0.11011876497036395 0.14008290600351989 -0.076287175378453753 -0.16676472670053433 -0.1092621454598996 0.15345026063799297 0.09308465142000677 -0.12160176137476175 0.096374954004149055 0.022487213436656429 -0.18458138294708359 0.093331631361898579 -0.027095805541037056 0.078831558687128891 -0.15829688985299828 0.15475226952823903 0.099988738038656377 -0.15747368093184883 0.1367823357472078 0.16611064225867012 -0.13114370523801741 -0.15231405231965037
leaf_weight=180.39659433066845 1129.3095084279776 261.87891285121441 3051.7058779448271 1409.5077080838382 302.66820567846298 162.5314322784543 97731.848335152492 18.994975671172142 127.43637400865555 137.50087848305702 786.68252485059202 6.5544603168964368 1739.8559366837144 28.122083257883787 317.52250798046589 630.39913064241409 107.97248553484678 306.70614740252495 277.88845339417458 190.73060055077076 418.55412318557501 8.7976107001304609 39.046365648508072 561.80554031953216 93.976480215787888 18.613855957984924 42.169139564037323 15.7774735186249 110.46020057797432 68.668979622423649 152.64832729101181 49.461149245500565 17.159421786665916 1740.6469959914684 71.031425893306732 18.2351332642138 178.15024803578854 6.4106176942586925 4.8861953169107428 188.38656683266163 631.57607632875443 41.246529400348663 19.474799916148186 26.597513407468796 186.31371062994003 24.784316867589951 168.06055750697851 226.17115263640881 449.17266267165542 15.976888373494146 1417.1664138436317 73.134379431605339 32.61403451859951 51.205378890037537 7.4533604085445395 227.30633740127087 27.823212340474129 38.450814366340637 42.782917454838753 23.305927362293005 7.4285519123077393
leaf_count=561 2273 312 5594 4466 352 298 221743 27 82 242 2983 27 8420 160 1039 1342 514 582 1253 684 613 39 26 2863 267 32 24 201 164 319 632 193 78 1775 158 207 330 4 9 757 350 123 84 88 175 32 1331 302 1072 66 2111 321 54 235 8 286 127 26 19 154 35
internal_value=0 0.0235389 0.0243546 0.0236603 0.0251864 -0.0154774 0.0247665 0.0826039 -0.00817463 0.0435548 0.0307996 -0.0127879 -0.0489706 0.0547612 0.021747 0.0157578 -0.0387554 0.0217419 -0.0623207 0.0765115 0.0276931 -0.0281851 0.0124205 -0.0568365 -0.0191994 0.0765527 0.0348926 0.158074 0.0593625 0.0494036 -0.0206216 -0.0885909 0.048647 0.0933279 0.00778389 0.112717 0.0796174 0.115458 0.092954 -0.0627505 0.120889 0.039214 -0.0719855 0.0921231 0.09732 -0.0314365 -0.102321 0.0429366 0.0472321 -0.0416111 0.100317 -0.10688 -0.00565914 -0.0681076 -0.0874257 0.113609 -0.125788 0.163111 0.152229 -0.139769 -0.164524
internal_weight=0 107973 106296 105044 101102 3942.29 100784 1252.07 332.727 8476.44 6113.34 2168.58 1902.39 3944.76 1566.71 2039.91 1479.25 414.679 1064.57 2378.05 609.285 1676.35 693.5 982.846 573.22 2363.1 667.536 318.446 204.437 1197.98 338.849 755.432 227.413 1768.77 120.493 145.672 195.31 919.34 1695.56 368.783 893.455 178.747 25.8854 328.687 1638.07 57.4937 187.056 689.327 675.344 34.5907 1603.48 634.94 59.2115 368.728 160.102 269.475 32.7094 120.28 81.2337 32.1035 13.983
internal_count=268644 250769 244813 242416 227890 14526 227337 2397 1647 17875 13866 6768 8718 7098 3866 5808 5332 1096 4236 3232 1297 5956 1820 4136 1749 4009 1457 553 431 2592 1005 3535 601 1935 351 289 408 750 2552 1318 662 365 88 452 2384 168 1358 1436 1374 98 2286 3184 142 1274 640 310 136 71 45 193 62
is_linear=0
shrinkage=0.1


Tree=19
num_leaves=61
num_cat=0
split_feature=39 110 117 60 70 53 126 113 108 51 56 22 74 66 123 92 23 39 36 106 74 113 126 41 62 107 36 43 62 129 103 122 62 41 131 73 70 107 72 90 124 113 67 31 115 50 72 75 42 65 0 69 13 112 50 51 32 133 37 69
split_gain=268.418 473.672 368.845 463.478 447.412 376.025 358.157 640.003 347.844 455.768 312.176 332.26 254.31 244.367 220.366 282.283 206.063 263.287 202.74 191.301 181.626 160.049 145.738 156.734 140.163 151.444 139.806 128.025 113.806 111.777 110.038 104.156 95.3733 197.953 112.486 96.1793 84.8944 76.0773 73.5653 64.4012 61.3451 57.631 57.6177 54.9288 49.0224 42.1541 173.989 31.1438 43.9731 25.2196 19.9532 16.9099 15.5556 12.3386 9.52486 2.61076 0.448467 0.0905189 0.07275 0.0158318
threshold=1.0272931456565859 -1.1877071261405943 -1.5433681607246397 0.77560600638389599 -0.16522006690502164 1.0885892510414126 -1.8413234353065489 -1.0040520429611204 -1.0619931817054746 1.1634160876274111 0.97947388887405407 1.2396589517593386 -0.57140231132507313 0.35422345995903021 -1.4409053325653074 -1.0005115270614622 1.2388933897018435 1.0408359169960024 0.89047282934188854 -0.79030755162239064 -0.39843843877315516 -1.3541069030761717 -1.7484859228134153 1.1005081534385683 0.70480501651763927 -0.98156136274337757 0.98046976327896129 1.1314833760261538 0.66853532195091259 1.0000000180025095e-35 -0.82683134078979481 -2.0118426084518428 0.66853532195091259 1.0874904394149782 1.0000000180025095e-35 -0.71823155879974354 -0.12944876402616498 -0.97459858655929554 -0.49522159993648524 -1.196179151535034 -1.5008509159088133 -1.3903515934944151 0.24957095831632617 0.91377851366996776 -1.0369175076484678 1.1839326024055483 -0.27396418154239649 -0.58916082978248585 1.1080757379531863 0.45734561979770666 0.24340259283781054 0.044360216706991203 0.98598530888557445 -1.296020448207855 1.1860074400901797 1.1709551811218264 0.90838709473609935 1.0000000180025095e-35 0.98594969511032116 0.021285649389028553
decision_type=2 2 2 2 2 2 2 2 2 2 2 2 2 2 2 2 2 2 2 2 2 2 2 2 2 2 2 2 2 2 2 2 2 2 2 2 2 2 2 2 2 2 2 2 2 2 2 2 2 2 2 2 2 2 2 2 2 2 2 2
left_child=1 12 31 4 5 -4 7 8 9 36 13 -12 18 -5 26 50 17 -10 52 32 -11 24 23 49 25 -14 54 -18 -17 39 57 45 34 35 40 -34 -2 -6 -28 -24 -8 -26 -31 -32 -35 53 -47 48 -23 -21 -16 -49 56 -3 -9 -33 -1 -20 -36 -57
right_child=6 2 3 10 37 -7 19 14 16 20 11 -13 21 -15 15 28 27 -19 30 22 -22 47 29 -25 41 -27 38 -29 -30 42 43 55 33 44 58 -37 -38 -39 -40 -41 -42 -43 -44 -45 -46 46 -48 51 -50 -51 -52 -53 -54 -55 -56 59 -58 -59 -60 -61
leaf_value=-0.16035616978804201 -0.0110709576935481 0.1227182706522594 0.021258503673080294 0.014710043636339501 0.18178034244333874 0.04807942069192437 0.073580739172148343 -0.14839766826786654 -0.024782247063575652 0.091699655771031563 -0.025303850906724424 0.026995822527720467 -0.033428075061832901 0.12380147594258668 0.047184022959698146 -0.082505492607273134 -0.020097916137365002 0.033076787297790629 -0.16985746106828745 -0.1483214479905689 -0.080499768237480715 -0.15314238969561716 0.10432967354677343 0.12248216863393174 0.026925640879071157 0.12242883312994819 0.10504516347680957 0.090144759539757896 0.10044951077251658 0.0076363961556553204 -0.071724416220255466 -0.21009830612262892 0.020173080312128566 -0.060091555873976091 -0.17414369643862665 -0.11655784655010604 -0.13443234647918953 -0.035143515091092981 -0.17096179341805914 -0.040167003802933393 0.11463266955355288 -0.13572747551767975 0.1474404009962606 0.12872231251499214 0.099358686376885275 -0.16273468579047687 0.11754890910364735 -0.1437624484244194 0.089933514192873237 -0.063152960604871383 -0.14036155259025479 0.016801270026378649 0.028045459776521082 0.062154587621316718 -0.057087091492547849 -0.11601682038017871 -0.19309439375262205 -0.18607913945726817 -0.18886326484937635 -0.12337983520739162
leaf_weight=34.778095051646233 129.51229791343212 451.03684601187706 92191.965370312333 619.83387184143066 205.13933427259326 5541.3922083545476 621.88372875750065 297.2454430013895 1385.9789945185184 1784.7731908485293 4557.298315891996 1656.1768212169409 440.34739904850721 307.05277489125729 5.9788086861371985 42.690206274390221 130.59002876281738 1818.2602312490344 8.1792829632759076 76.195096120238304 63.428124275058508 14.833531752228739 40.721656978130341 36.78104729950428 25.27154153585434 72.62723009288311 37.684598550200462 544.80804295837879 167.0191947221756 39.371048405766487 14.847195714712141 4.3863133490085628 298.31344106793404 20.061193555593491 9.6787703335285169 62.166479244828224 97.995408222079277 17.550612647086382 12.983968392014502 127.16667610406876 877.83872467279434 157.83504893258214 117.33251632750034 172.57994501292706 496.20871539413929 28.756557943299413 96.367944940924644 242.15915033221245 14.935775771737097 63.947471812367439 110.84415897727013 6.7417413406074038 4.7052224427461615 36.349978074431419 11.880555689334868 4.4346607476472846 4.7565578669309607 5.9366686046123496 5.1413049250841132 8.5513778254389745
leaf_count=150 359 273 207170 1656 183 11507 1082 1403 5142 1981 16812 4314 1599 315 16 147 322 3861 34 372 367 66 57 38 87 71 41 904 252 98 54 19 722 60 40 269 426 196 55 389 1081 1115 127 242 578 192 132 1126 31 255 571 30 9 42 42 39 20 24 21 58
internal_value=0 0.0210511 0.0217662 0.0213089 0.0231018 0.0227792 0.0385617 0.0257706 0.0363087 0.0693496 -0.00328778 -0.0113636 -0.0408889 0.0508491 -0.0656703 -0.0061903 0.018631 0.00805013 0.050014 0.0679292 0.08579 -0.0638101 0.0117762 -0.0612401 -0.0381714 -0.0113618 -0.119651 0.068829 0.0632057 0.0515749 0.0925657 0.0980608 0.0797059 0.0534577 0.0949007 -0.00340682 -0.064207 0.164684 0.0343176 -0.00511904 0.0976098 -0.113279 0.112315 0.112844 0.0931628 0.104909 0.0531331 -0.127852 -0.031187 -0.109459 -0.130763 -0.139413 -0.143838 0.118201 -0.144888 -0.143396 -0.164295 -0.17668 -0.17925 -0.120865
internal_weight=0 106947 105726 105096 97956 97733.4 9534.48 6641.67 5955.35 2075.71 7140.36 6213.48 1220.53 926.887 686.327 326.532 3879.64 3204.24 245.783 2892.81 1848.2 974.751 501.516 176.924 696.081 512.975 359.795 675.398 209.709 324.592 201.543 629.884 2391.29 876.75 1514.54 360.48 227.508 222.69 50.6686 167.888 1499.72 183.107 156.704 187.427 516.27 612.511 125.125 278.67 29.7693 140.143 116.823 248.901 44.2399 487.387 309.126 17.3724 39.5347 14.116 14.8201 12.986
internal_count=268644 247566 242908 242153 219056 218677 21078 15889 13362 3133 23097 21126 4658 1971 2527 986 10229 9003 533 5189 2348 4125 1336 665 2872 1670 1541 1226 399 671 354 755 3853 1629 2224 991 785 379 96 446 2163 1202 225 296 638 639 324 1253 97 627 587 1156 179 315 1445 116 170 58 61 97
is_linear=0
shrinkage=0.1


Tree=20
num_leaves=59
num_cat=0
split_feature=1 69 62 101 114 34 54 38 135 104 103 86 33 115 30 30 73 29 115 82 69 30 102 30 92 30 112 113 132 74 17 111 73 121 29 132 111 30 19 31 77 123 102 31 67 3 43 12 106 116 124 46 113 118 29 4 73 135
split_gain=269.8 372.328 369.452 332.59 341.609 304.406 473.048 570.931 341.025 364.248 316.686 303.649 263.987 306.728 272.443 251.955 182.479 226.898 173.855 179.249 170.79 167.105 276.068 276.658 151.756 147.789 144.589 129.997 116.913 117.488 100.391 117.673 108.823 168.672 98.7216 90.0909 206.599 99.2455 88.8133 82.978 82.4101 81.7967 76.3983 67.3506 61.8907 96.2002 43.065 31.2814 30.2511 60.0827 19.2916 29.223 18.3015 17.5671 1.02649 0.352003 0.214338 0.133188
threshold=0.6317429542541505 -0.3368352055549621 0.39145481586456304 -0.94416221976280201 -0.92215216159820546 0.83617064356803905 0.98956537246704113 0.92849591374397289 1.0000000180025095e-35 -0.81825417280197132 -0.90466785430908192 -1.346703767776489 0.78482097387313854 -0.91097980737686146 1.095745384693146 1.0649455785751345 -0.94019290804862965 1.1669756770133974 -0.91390302777290333 -1.2926727533340452 -0.39775589108467096 1.0938727259635928 -0.93862080574035633 1.0979841947555544 -1.1559777259826658 1.0822989344596865 -0.92519077658653248 -0.93179187178611744 1.0000000180025095e-35 -1.026012599468231 1.3951445221900942 -1.0120769739150999 -0.80474787950515736 -0.99192291498184193 1.2139686942100527 1.0000000180025095e-35 -0.93069338798522938 1.0362901091575625 1.4326204061508181 1.0154340863227846 -1.1632052063941953 -1.0198889374732969 -0.94699177145957936 0.98407140374183666 -0.15889582037925717 0.69693657755851757 0.88579449057579052 0.97825789451599132 -0.88005641102790821 -0.92525142431259144 -1.0565701723098753 0.86540615558624279 -0.91774708032608021 -0.90253007411956776 1.2353150248527529 0.6809937357902528 -0.93613192439079274 1.0000000180025095e-35
decision_type=2 2 2 2 2 2 2 2 2 2 2 2 2 2 2 2 2 2 2 2 2 2 2 2 2 2 2 2 2 2 2 2 2 2 2 2 2 2 2 2 2 2 2 2 2 2 2 2 2 2 2 2 2 2 2 2 2 2
left_child=1 3 18 30 15 8 11 -8 10 -10 -4 -7 13 14 16 38 34 -18 19 47 -17 25 24 26 42 35 -24 -21 29 -16 31 40 33 -32 -2 36 -14 -37 -5 -33 -1 -26 -23 -25 45 -27 -46 -3 52 -50 54 53 -6 -52 56 -20 -15 -57
right_child=12 2 5 4 48 6 7 -9 9 -11 -12 -13 21 50 28 20 17 -19 55 27 -22 22 23 43 41 44 -28 -29 -30 -31 32 39 -34 -35 -36 37 -38 -39 -40 -41 -42 -43 -44 -45 46 -47 -48 -49 49 -51 51 -53 -54 -55 -56 57 -58 -59
