tree
version=v4
num_class=1
num_tree_per_iteration=1
label_index=0
max_feature_idx=136
objective=binary sigmoid:1
feature_names=Column_0 Column_1 Column_2 Column_3 Column_4 Column_5 Column_6 Column_7 Column_8 Column_9 Column_10 Column_11 Column_12 Column_13 Column_14 Column_15 Column_16 Column_17 Column_18 Column_19 Column_20 Column_21 Column_22 Column_23 Column_24 Column_25 Column_26 Column_27 Column_28 Column_29 Column_30 Column_31 Column_32 Column_33 Column_34 Column_35 Column_36 Column_37 Column_38 Column_39 Column_40 Column_41 Column_42 Column_43 Column_44 Column_45 Column_46 Column_47 Column_48 Column_49 Column_50 Column_51 Column_52 Column_53 Column_54 Column_55 Column_56 Column_57 Column_58 Column_59 Column_60 Column_61 Column_62 Column_63 Column_64 Column_65 Column_66 Column_67 Column_68 Column_69 Column_70 Column_71 Column_72 Column_73 Column_74 Column_75 Column_76 Column_77 Column_78 Column_79 Column_80 Column_81 Column_82 Column_83 Column_84 Column_85 Column_86 Column_87 Column_88 Column_89 Column_90 Column_91 Column_92 Column_93 Column_94 Column_95 Column_96 Column_97 Column_98 Column_99 Column_100 Column_101 Column_102 Column_103 Column_104 Column_105 Column_106 Column_107 Column_108 Column_109 Column_110 Column_111 Column_112 Column_113 Column_114 Column_115 Column_116 Column_117 Column_118 Column_119 Column_120 Column_121 Column_122 Column_123 Column_124 Column_125 Column_126 Column_127 Column_128 Column_129 Column_130 Column_131 Column_132 Column_133 Column_134 Column_135 Column_136
feature_infos=[-1.8014661073684692:2.1475074291229248] [-1.7160434722900391:2.0597634315490723] [-1.6382262706756592:1.9801409244537354] [-1.5680137872695923:1.9086390733718872] [-1.5054070949554443:1.8452587127685547] [-1.4504051208496094:1.7899996042251587] [-1.4123568534851074:1.7937201261520386] [-1.3844102621078491:1.9274762868881226] [-1.3517893552780151:2.0758624076843262] [-1.3099035024642944:2.0974209308624268] [-1.2559221982955933:2.0165181159973145] [-1.1870334148406982:2.073509693145752] [-1.1039742231369019:2.1457490921020508] [-1.0067610740661621:2.2142360210418701] [-0.90047705173492432:2.2825961112976074] [-0.78966546058654785:2.4052433967590332] [-0.67814630270004272:2.5269482135772705] [-0.65542465448379517:2.5277442932128906] [-0.65910369157791138:2.5653238296508789] [-0.66488730907440186:2.5221147537231445] [-0.66501742601394653:2.4413206577301025] [-0.67306733131408691:2.3840618133544922] [-0.67701548337936401:2.2409591674804688] [-0.7797551155090332:2.1030042171478271] [-1.0841877460479736:2.0889520645141602] [-1.4308524131774902:1.9925726652145386] [-1.6366665363311768:1.8694267272949219] [-1.8254417181015015:1.7314887046813965] [-1.8748650550842285:1.5598906278610229] [-2.1668190956115723:1.3462176322937012] [-2.5042393207550049:1.1444870233535767] [-2.6850478649139404:1.0652625560760498] [-2.8964071273803711:1.0182701349258423] [-2.6209216117858887:1.0153312683105469] [-1.9672813415527344:1.0222163200378418] [-1.2877312898635864:1.096311092376709] [-0.66291677951812744:1.2162210941314697] [-0.67050886154174805:1.4357191324234009] [-0.67336314916610718:1.5244829654693604] [-0.67729061841964722:1.3777114152908325] [-0.67391806840896606:1.3165556192398071] [-0.67713803052902222:1.2206546068191528] [-0.67526406049728394:1.2687077522277832] [-0.67821109294891357:1.5027958154678345] [-0.67593681812286377:1.6759111881256104] [-0.67998087406158447:1.7528411149978638] [-0.67735743522644043:1.7343066930770874] [-0.68056988716125488:1.8940913677215576] [-0.67851173877716064:2.0411467552185059] [-0.68057990074157715:2.1347439289093018] [-0.67672491073608398:2.1180493831634521] [-0.68208664655685425:2.0443711280822754] [-0.6882440447807312:2.1199874877929688] [-0.69760811328887939:2.1755821704864502] [-0.68820065259933472:1.9014968872070312] [-0.66498374938964844:1.663224458694458] [-0.63047897815704346:1.3939603567123413] [-0.79989981651306152:1.3603483438491821] [-0.9627259373664856:1.3460699319839478] [-0.83332031965255737:1.3262704610824585] [-0.62303602695465088:1.3006186485290527] [-0.62908732891082764:1.2786284685134888] [-0.65896600484848022:1.4036217927932739] [-0.67422842979431152:1.3564696311950684] [-0.89532732963562012:1.1429597139358521] [-1.1747497320175171:1.0751444101333618] [-1.3727543354034424:0.99085426330566406] [-1.6710461378097534:0.88485002517700195] [-1.7223098278045654:0.75389385223388672] [-1.7951450347900391:0.60495084524154663] [-1.7363165616989136:0.45876148343086243] [-1.7446892261505127:0.33052113652229309] [-1.674402117729187:0.23037496209144592] [-1.5101885795593262:0.15855956077575684] [-1.3374539613723755:0.2961885929107666] [-1.5821062326431274:0.9557119607925415] [-1.8401819467544556:1.4404212236404419] [-2.0371255874633789:1.2026444673538208] [-2.1728529930114746:1.1271375417709351] [-2.2573421001434326:0.66064220666885376] [-2.3058340549468994:0.36351838707923889] [-2.3315773010253906:0.28676301240921021] [-2.3403120040893555:0.33890664577484131] [-2.3343968391418457:0.39074629545211792] [-2.3124566078186035:0.43792322278022766] [-2.2730567455291748:0.47703936696052551] [-2.2140905857086182:0.50853937864303589] [-2.1362462043762207:0.53271615505218506] [-2.0426793098449707:0.67684948444366455] [-1.9374580383300781:0.56802195310592651] [-1.8240519762039185:0.65060514211654663] [-1.8478662967681885:1.0689502954483032] [-1.6520191431045532:1.4172115325927734] [-1.5958865880966187:1.6290324926376343] [-1.5394163131713867:1.6649528741836548] [-1.4922878742218018:1.6171708106994629] [-1.4526540040969849:1.5605852603912354] [-1.4226374626159668:1.5595740079879761] [-1.4104764461517334:1.5630311965942383] [-1.5819015502929688:1.5628886222839355] [-1.8966314792633057:1.5685317516326904] [-2.4619696140289307:1.5680602788925171] [-2.648137092590332:1.5700795650482178] [-2.5047333240509033:1.5650482177734375] [-2.1062953472137451:1.5674868822097778] [-1.4475361108779907:1.5623446702957153] [-1.1201972961425781:1.563502311706543] [-1.1215335130691528:1.561995267868042] [-1.1656886339187622:1.5723429918289185] [-1.225764274597168:1.5757462978363037] [-1.369315505027771:1.5835809707641602] [-1.6010570526123047:1.5858457088470459] [-1.9974493980407715:1.5904401540756226] [-2.2577559947967529:1.5886306762695312] [-2.2886085510253906:1.5877697467803955] [-1.9469403028488159:1.5865405797958374] [-1.5739866495132446:1.5868538618087769] [-1.6282110214233398:1.7016431093215942] [-1.6828017234802246:2.5795986652374268] [-1.7428308725357056:2.8008601665496826] [-1.8188323974609375:2.5472877025604248] [-1.9267433881759644:1.7488086223602295] [-2.1567583084106445:1.6308574676513672] [-2.3918964862823486:1.6220458745956421] [-2.6616356372833252:1.6080794334411621] [-2.9659750461578369:1.9929251670837402] [-3.3342947959899902:2.7791450023651123] [-3.8750591278076172:3.7871904373168945] [0:1] [0:1] [0:1] [0:1] [0:1] [0:1] [0:1] [0:1] [0:1]
tree_sizes=4023 3644 4151 4592 4504 4599 4278 4621 6002 6185 6630 6091 6795 6324 6701 5915 6619 6350 6363 5256 6466 6124 6796 6911 6789 5848 5627 6045 5596 6935 6739 6446 6701 6765 5614 5805 5673 6182 5711 6832 4758 6662 6382 6733 6944 6152 6940 6453 6320 5858 5336 6347 6460 6278 6570 6070 6517 6295 6961 6933 6483 6383 6800 4214 6779 5619 3991 5810 5432 6358 5465 5231 4280 6890 5416 4093 6259 6178 6632 6796 6632 6473 5887 6446 6584 5554 6221 6803 3941 3974 6064 6952 5959 5771 4323 5695 6909 6511 6178 6936 6929 6396 6711 4545 3783 5721 6935 6919 5778 6374 6369 4333 6243 6015 5447 6520 6910 5731 5006 6581 5149 6925 5997 6451 5465 5741 5972 4839 6627 6839 5317 6606 6234 5607 6611 3751 4893 6928 5443 4970 6218 6674 6080 5950 5158 5165 5235 6286 5252 5539 5622 6825 6012 6928 5583 5660 6081 6203 6656 6504 6963 6497 6862 6439 5759 6607 5949 6823 6540 6750 6048 6561 5344 5372 6914 4992 6315 4864 6778 6469 5848 6389 6185 6137 6205 5601 6134 5750 3328 6915 4410 6811 6921 6502 6027 6719 6783 6254 5511 6785

Tree=0
num_leaves=37
num_cat=0
split_feature=114 30 41 57 132 70 31 106 130 29 4 76 103 109 54 47 32 57 74 50 103 30 5 37 95 55 85 71 31 107 131 56 21 30 20 20
split_gain=18629.8 12230.7 13118.2 10316.6 7447.07 7174.05 8627.69 5952.49 5119.86 4772.22 3738.37 2359.57 2285.45 2232.87 2199.38 1872.75 1866.99 1893.65 1184.45 1150.1 1074.13 664.405 630.863 611.805 387.681 365.143 351.637 322.717 288.017 267.212 210.596 105.078 88.0919 70.414 5.68434e-14 1.77636e-15
threshold=-0.8204444646835326 1.0588521361351015 1.1096953749656679 0.9686383605003358 1.0000000180025095e-35 -0.11815258860588072 0.99782314896583568 -0.89899232983589161 1.0000000180025095e-35 1.2412909269332888 0.72546473145484935 -0.67865660786628712 -0.64898231625556935 -1.1199274063110349 1.0874180793762209 1.2205502986907961 0.96729287505149852 0.86939176917076122 -0.39823669195175165 1.2099452614784243 -0.90406638383865345 1.0451717972755434 0.79412060976028453 1.0056000351905825 -1.0044695138931272 0.99695086479187023 -0.80595338344573964 -0.2313425615429878 0.98236528038978588 -1.008735120296478 1.0000000180025095e-35 0.94797539710998546 1.0157111287117007 1.0753403306007387 1.638876795768738 1.7295078039169314
decision_type=2 2 2 2 2 2 2 2 2 2 2 2 2 2 2 2 2 2 2 2 2 2 2 2 2 2 2 2 2 2 2 2 2 2 2 2
left_child=1 2 3 5 8 6 -1 15 9 10 -3 19 23 -7 -13 27 17 -10 -17 -5 24 34 -11 -9 33 -18 28 -4 -22 -26 31 -23 -14 -6 -2 -36
right_child=21 4 7 11 20 13 -8 12 16 22 -12 14 32 -15 -16 18 25 -19 -20 -21 26 30 -24 -25 29 -27 -28 -29 -30 -31 -32 -33 -34 -35 35 -37
leaf_value=-2.0145993308602863 -2.6183559091400936 -1.8297339342093788 -1.9208801705623988 -2.1893500837325828 -1.4170932934428642 -1.8725529259451876 -1.8660753897839983 -1.9455333223632396 -1.9574551627823227 -2.5369848822599974 -1.6386992326565513 -1.7357557133442603 -2.5470344193038121 -1.4612416506962889 -2.4567249904578246 -1.3164633317123087 -1.4108444774680766 -2.2222588560799799 -2.3146283009432196 -1.85090789941852 -1.87345167935332 -2.6183559091400936 -2.1355157514599981 -1.6263962897635613 -2.2922574619704807 -2.1436644681901074 -2.6183559091400936 -2.6183559091400936 -1.5442459705471505 -1.4447545545733214 -1.326411480161092 -1.7872188065143804 -1.7462917622484806 -1.2294404085676074 -2.6183559091400936 -2.6183559091400936
leaf_weight=9899.1125117540359 359.51019936054945 12215.350062534213 21.175398819148544 424.59803891181946 23.565102458000183 199.68282496929169 6465.7153071835637 133.53704319149256 648.07080845534801 90.752983570098877 1118.138398565352 46.018173635005951 51.770255237817764 389.29990544170141 525.4169842377305 537.91861488670111 54.021181277930737 462.98200902342796 12.156720802187918 131.50563002377748 49.567871749401093 3.1273842975497228 68.823988780379295 109.18629688024521 3.774250552058219 7.7783827856183043 4.3088405877351752 9.6601426079869253 57.292889676988125 260.0821440666914 4.7632747069001198 2.9616708010435104 1.4113379716873158 132.03525291383266 3.1273842975497228 6.0462763085961342
leaf_count=87528 5173 87261 169 4436 79 1505 48347 1096 5390 1238 6025 289 711 1463 6780 1306 178 4977 141 965 374 45 685 576 43 78 62 139 259 938 12 20 9 215 45 87
internal_value=-2.51023 -1.89116 -1.94474 -1.96306 -1.82432 -1.94358 -1.95592 -1.56699 -1.83764 -1.82022 -1.81371 -2.25596 -1.93206 -1.60069 -2.39866 -1.38103 -2.03804 -2.0678 -1.33852 -2.10932 -1.4563 -2.59566 -2.36384 -1.80197 -1.38305 -1.50308 -1.73266 -2.13939 -1.69695 -1.45688 -1.82448 -2.2141 -2.52578 -1.25786 -2.61836 -2.61836
internal_weight=0 34154.7 18958.2 18081.3 15196.5 16953.8 16364.8 876.816 14665.9 13493.1 13333.5 1127.54 295.905 588.983 571.435 580.911 1172.85 1111.05 550.075 556.104 530.626 379.536 159.577 242.723 419.457 61.7996 111.17 30.8355 106.861 263.856 10.8523 6.08906 53.1816 155.6 368.684 9.17366
internal_count=268644 263262 155460 151313 107802 138843 135875 4147 105832 95209 93286 12470 2392 2968 7069 1755 10623 10367 1447 5401 1970 5382 1923 1672 1275 256 695 308 633 981 77 65 720 294 5305 132
is_linear=0
shrinkage=1


Tree=1
num_leaves=33
num_cat=0
split_feature=114 5 31 0 39 136 32 134 32 73 107 71 0 97 126 127 30 31 117 111 38 79 123 73 19 117 112 54 30 27 21 21
split_gain=5933.94 2637.82 2182.83 2578.2 2988.9 2315.42 3036.85 3345.25 2384.69 4205.24 2008.2 1769.56 1646.47 1563.98 1447.62 837.743 615.356 342.405 246.744 435.74 259.165 124.804 72.1329 37.4116 50.6032 15.646 253.445 0.123721 0.0038863 0.00299632 5.68434e-14 1.42109e-14
threshold=-0.8204444646835326 -0.03632512874901294 0.99929609894752514 0.54971531033515941 1.0356737375259402 1.0000000180025095e-35 0.94859585165977489 1.0000000180025095e-35 0.96024239063262951 -0.79335102438926686 -1.0072127580642698 -0.62643957138061512 0.61058998107910167 -0.96520203351974476 -1.8410275578498838 -1.7748455405235288 1.0362001657485964 0.99294298887252819 -1.5493806004524229 -1.2342389822006223 0.99720537662506115 -0.60666483640670765 -2.210302352905273 -0.90222197771072377 1.1936953663825991 -1.5375593304634092 -1.2805726528167722 1.0874180793762209 1.0437141060829165 1.1900210976600649 1.2292270064353945 1.2876679897308352
decision_type=2 2 2 2 2 2 2 2 2 2 2 2 2 2 2 2 2 2 2 2 2 2 2 2 2 2 2 2 2 2 2 2
left_child=1 18 3 4 10 6 7 -4 9 -7 -3 12 -5 -8 -6 -10 -13 28 19 20 22 -20 -1 -19 29 26 -23 -27 30 -25 -2 -32
right_child=17 2 5 11 14 8 13 -9 15 -11 -12 16 -14 -15 -16 -17 -18 23 21 -21 -22 25 -24 24 -26 27 -28 -29 -30 -31 31 -33
leaf_value=-0.070092448120991663 -0.1072922657705308 0.38315409183947646 0.35013294873217232 0.23660796113882743 0.35878499205943559 0.40831034694579893 0.20742010160701244 0.52587318628555901 0.44084787106174661 0.060737882163484636 0.27620937256615513 0.13010383963490374 0.36616774985282102 0.31997211863416553 0.54237718474899999 0.56719237337715844 0.44016461081559877 0.41476130076397855 0.44376967564048209 1.0302155038910195 0.83049702060862352 -0.11075292812217186 0.58777826624933727 -0.10997035773502642 0.52099778490109894 -0.12003480057960424 0.99713895560802657 -0.10867947959290275 -0.11289226573120492 -0.11576482871822813 -0.1072922657705308 -0.1072922657705308
leaf_weight=29.07619846612215 239.57811686396599 1910.8210302591324 4156.7849766090512 1385.7484455406666 2603.0728168040514 1910.9249709770083 1398.8049624040723 1464.8433651253581 1351.5885318368673 425.63025040924549 21650.693149231374 65.724711298942566 3357.1798183098435 10517.065876916051 514.34577294439077 857.92751164734364 2450.2482101917267 13.714672192931177 4.4172055646777144 5.4040270373225203 3.9235407635569564 28.486230999231342 1.7680249586701418 2.0584702938795085 1.9311109930276869 10.39986529946327 2.2262197732925406 123.97537361085415 1.2438542246818531 1.5753682553768156 31.54677477478981 63.853712797164917
leaf_count=326 3782 9081 17473 7272 8887 6896 7981 3654 4706 2948 120443 486 10891 48555 1894 1943 7616 29 23 18 14 357 14 29 6 76 8 1700 14 16 498 1008
internal_value=0 0.326032 0.327357 0.311434 0.297057 0.351828 0.335342 0.395926 0.415426 0.344996 0.284883 0.364275 0.328314 0.30676 0.389076 0.489906 0.432065 -0.083812 -0.0279945 0.194838 0.0649934 -0.0808047 -0.0323826 0.326027 0.107344 -0.0948406 -0.0304464 -0.109558 -0.107313 -0.112482 -0.107292 -0.107292
internal_weight=0 56231.1 56021.4 33937.8 26678.9 22083.6 17537.5 5621.63 4546.07 2336.56 23561.5 7258.9 4742.93 11915.9 3117.42 2209.52 2515.97 355.502 209.677 40.1718 34.7678 169.505 30.8442 19.2796 5.56495 165.088 30.7125 134.375 336.222 3.63384 334.979 95.4005
internal_count=268644 263262 260726 166570 140305 94156 77663 21127 16493 9844 129524 26265 18163 56536 10781 6649 8102 5382 2536 372 354 2164 340 80 51 2141 365 1776 5302 45 5288 1506
is_linear=0
shrinkage=0.1


Tree=2
num_leaves=38
num_cat=0
split_feature=114 5 73 117 102 50 40 70 109 118 31 4 129 76 32 30 117 80 122 101 127 11 32 73 19 117 112 54 30 54 31 108 109 27 43 14 15
split_gain=3217.48 1410.05 1242.44 1127.42 1827.42 1877.85 1473.7 1031.8 525.439 482.228 306.964 436.056 285.794 271.342 264.548 217.712 170.158 147.015 114.807 117.718 100.027 92.6572 88.4605 43.2038 37.9703 14.6272 104.041 0.0857662 0.0313688 0.0210641 0.0140033 0.00874174 0.00171663 0.00134037 1.37331e-08 5.68434e-14 3.55271e-15
threshold=-0.8204444646835326 -0.03632512874901294 -0.93614056706428517 -1.5375593304634092 -0.76842215657234181 1.1466614603996279 1.0701200366020205 -0.11815258860588072 -1.1388131976127622 -1.6230311393737791 0.98095914721488964 0.65975248813629161 1.0000000180025095e-35 -1.1593121290206907 0.94656899571418773 1.1032109856605532 -1.5493806004524229 -0.23617431521415708 -2.09209132194519 -0.50532785058021534 -1.4045789837837217 0.16169855743646624 0.8568287491798402 -0.90222197771072377 1.1946057081222536 -1.5375593304634092 -1.2805726528167722 1.0874180793762209 1.0451717972755434 1.0874180793762209 0.99782314896583568 -1.0093535184860227 -1.1199274063110349 1.1864637732505801 0.72308677434921276 1.3818187713623049 1.5222863554954531
decision_type=2 2 2 2 2 2 2 2 2 2 2 2 2 2 2 2 2 2 2 2 2 2 2 2 2 2 2 2 2 2 2 2 2 2 2 2 2
left_child=1 16 10 7 5 -5 -6 8 -4 -9 13 20 -13 22 28 -15 17 18 -1 -20 -12 25 -3 -16 30 26 -18 -27 34 32 33 -31 -19 -25 35 -2 -37
right_child=14 2 3 4 6 -7 -8 9 -10 -11 11 12 -14 15 23 -17 21 29 19 -21 -22 -23 -24 24 -26 27 -28 -29 -30 31 -32 -33 -34 -35 -36 36 -38
leaf_value=0.50641440858534381 -0.10655037809217989 0.039425718470005727 0.22958904463646321 0.22850472922789933 0.15815867905390935 0.29994906978674946 0.26042493684928297 0.15525744023602758 -0.041830397261251873 0.3360990088690573 0.37752548704927369 0.38468196305662677 -0.047306666275902118 0.30754948465896731 0.3412793864530701 -0.048358605143892119 -0.10965521097899199 -0.11447132102008591 0.36053354646818914 -0.1104179345509498 -0.12034609471160092 0.32086349555982724 0.20501297935869714 -0.10654468225141132 0.36641493686713522 -0.11784063057415062 0.40231596401363712 -0.10794322643374775 -0.11707952374715443 -0.10795096307847565 -0.11973744821659038 -0.1165248038505748 -0.11768407627446067 -0.11068854240474142 -0.10653944013445889 -0.10655037809217988 -0.10655037809217988
leaf_weight=11.720532327890394 275.10109877586365 45.897935301065445 183.06979591399431 54189.986153945327 6037.6453087851405 3946.9256191179156 1838.0885415002704 159.70141712576151 116.84996784478426 1922.7024458572268 4.9206404536962536 736.89912986755371 15.639757663011549 818.32115130871534 15.426182821393015 17.556028433144093 26.02022168785334 2.2910053879022598 10.246574901044367 11.010858431458475 22.430181935429573 5.5982373207807532 108.59602779150009 2.4790918752551074 2.5009400844573975 9.4863518178462964 4.6837753951549521 113.61951246112585 2.8560923337936392 6.2983808815479287 1.3645162545144556 1.4659625291824321 6.0682216286659258 1.1392981000244615 1.1522508412599552 14.078160256147385 13.443489097058773
leaf_count=8 4768 257 781 200280 30741 14475 5356 796 981 3086 10 1250 85 1942 13 129 357 21 40 147 167 24 390 43 5 75 8 1700 27 93 14 15 48 15 20 244 233
internal_value=0 0.231039 0.231811 0.22967 0.227231 0.233355 0.182026 0.297254 0.123843 0.32223 0.314523 0.361449 0.375704 0.277571 -0.0821576 0.300074 -0.0286231 0.134146 0.255137 0.116592 -0.0307749 -0.0787599 0.155819 0.24563 0.048472 -0.093305 -0.031556 -0.108706 -0.106648 -0.11332 -0.111105 -0.10957 -0.116804 -0.107849 -0.10655 -0.10655 -0.10655
internal_weight=0 70373.7 70165.2 68395 66012.6 58136.9 7875.73 2382.32 299.92 2082.4 1770.26 779.89 752.539 990.371 329.541 835.877 208.51 49.1015 32.978 21.2574 27.3508 159.408 154.494 22.91 7.48385 153.81 30.704 123.106 306.631 16.1236 4.98291 7.76434 8.35923 3.61839 303.775 302.623 27.5216
internal_count=268644 263262 260726 256496 250852 214755 36097 5644 1762 3882 4230 1512 1335 2718 5382 2071 2536 372 195 187 177 2164 647 90 77 2140 365 1775 5292 177 72 108 69 58 5265 5245 477
is_linear=0
shrinkage=0.1


Tree=3
num_leaves=42
num_cat=0
split_feature=114 3 34 107 127 51 72 34 70 74 133 30 80 38 101 132 101 41 38 108 32 53 29 32 91 31 116 0 111 30 7 113 73 73 25 31 109 30 26 45 11
split_gain=2049.82 1091.45 1486.39 1413.75 1789.65 1872.84 1141.85 1084.54 857.096 837.214 794.971 705.919 698.423 887.655 678.396 661.337 509.551 508.856 502.657 367.947 320.301 265.946 230.633 214.833 158.105 142.273 142.175 140.523 132.257 131.147 47.71 40.7531 26.9202 29.0398 15.1284 0.0231052 0.00774831 0.003373 0.000994443 9.99825e-09 5.68434e-14
threshold=-0.8204444646835326 0.55523234605789196 0.83597972989082348 -0.95811012387275685 -2.0205236673355098 1.1220242381095888 -0.273753672838211 0.872765213251114 -0.10771770030260085 -0.85005825757980336 1.0000000180025095e-35 1.0357750654220583 -0.61529403924942005 0.89738574624061596 -0.8342037796974181 1.0000000180025095e-35 -0.96826463937759388 0.99854564666748058 0.90597519278526317 -1.0427405834197996 0.8913094997406007 1.0633542537689211 1.2142206430435183 0.94656899571418773 -0.94317981600761402 0.95926669239997875 -1.4953680038452146 0.43617123365402227 -1.2481645345687864 1.0888982415199282 0.64320275187492382 -1.2078860998153684 -0.90222197771072377 -0.90048247575759877 1.3292577266693117 0.99463379383087169 -0.79773047566413868 1.0451717972755434 1.2177479863166811 1.02379846572876 0.97314903140068065
decision_type=2 2 2 2 2 2 2 2 2 2 2 2 2 2 2 2 2 2 2 2 2 2 2 2 2 2 2 2 2 2 2 2 2 2 2 2 2 2 2 2 2
left_child=1 2 12 7 6 -6 -5 8 -4 11 -9 16 13 19 15 -13 22 -16 -18 -1 24 -15 -3 35 34 -26 28 30 -14 -29 -22 -28 -25 -34 -11 37 -35 39 -38 40 -2
right_child=23 9 3 4 5 -7 -8 10 -10 20 -12 14 26 21 17 -17 18 -19 -20 -21 27 -23 -24 32 25 -27 31 29 -30 -31 -32 -33 33 36 -36 -37 38 -39 -40 -41 -42
leaf_value=0.17700410007832654 -0.10588832504142701 0.15263703699548684 0.15137966993870469 0.11289696322158567 0.15957096952724323 0.22311714485978423 0.37370856065427066 0.20200788909824793 0.23625167524917803 0.46545830565898039 0.27355755184272484 0.1856829835746785 -0.11501872361082786 0.060359955906065604 0.33101994697541248 0.24676533276842388 -0.068085062876613311 0.21273795104636006 0.1787564040478912 0.053209588497404994 0.29284261676080603 0.25019493932028619 0.45011304797411189 0.26660186250114348 -0.041934786737076166 0.18817809369077487 -0.10214012897994856 0.32464974474980601 0.17118298551694758 0.061231687863500611 -0.043685904876284355 0.2485521201388981 0.2946319146797185 -0.11587473234330735 0.30693353461558881 -0.11858471333780435 -0.10587573842302248 -0.11125467327535631 -0.10959856173841021 -0.10587854251253744 -0.10588832491910401
leaf_weight=292.77911286056042 64.857857752591372 414.9538638740778 4789.3759527243674 7142.088504191488 18752.80001475662 6161.8261727839708 171.90359139814973 3888.9411566592753 1583.2037758268416 10.435678452253343 2585.1295835822821 28188.322750411928 25.228014577180147 87.257793545722961 584.51447143405676 1891.4581139534712 251.65905618667603 962.82856111228466 122.72810792922974 1334.2609896957874 5.9140578806400326 478.39002153277397 27.809294492006302 17.626342736184601 45.435572288930416 65.74896451830864 205.20914900675416 751.99163901805878 44.852711174637079 19.387559428811073 14.644330844283102 3.3680460676550856 2.8362073265016106 1.4083966240286852 14.227330297231672 1.4459676444530476 2.3062934577465 1.1762391328811634 1.0415695644915102 1.0487723760306824 210.59109693020582
leaf_count=1010 1235 1676 18908 30808 65205 19037 154 11420 3022 10 6752 83015 270 433 1144 2850 1592 2914 489 6266 16 1553 26 13 266 187 2415 1416 202 77 77 20 4 14 32 13 44 14 15 20 4010
internal_value=0 0.17929 0.169561 0.173701 0.162519 0.175287 0.119027 0.201751 0.172465 0.193153 0.230578 0.190475 0.0940498 0.113001 0.192846 0.189524 0.0987075 0.257419 0.0128322 0.0754859 0.286817 0.220911 0.171321 -0.0807222 0.144952 0.0941424 -0.0550734 0.311152 0.0681546 0.318029 0.0531237 -0.0964772 0.198793 0.0413706 0.37401 -0.105977 -0.109652 -0.105911 -0.107034 -0.105888 -0.105888
internal_weight=0 80918.7 47546.6 45075.3 32228.6 24914.6 7313.99 12846.7 6372.58 33372.1 6474.07 32444.3 2471.35 2192.69 31627.1 30079.8 817.15 1547.34 374.387 1627.04 927.785 565.648 442.763 304.339 135.848 111.185 278.658 791.938 70.0807 771.379 20.5584 208.577 25.2188 7.59247 24.663 279.12 4.75626 277.674 3.34786 276.498 275.449
internal_count=268644 263262 167475 155306 115204 84242 30962 40102 21930 95787 18172 93706 12169 9262 89923 85865 3783 4058 2081 7276 2081 1986 1702 5382 495 453 2907 1586 472 1493 93 2435 90 77 42 5292 73 5279 59 5265 5245
is_linear=0
shrinkage=0.1


Tree=4
num_leaves=41
num_cat=0
split_feature=114 31 30 108 82 33 33 129 136 31 20 108 31 23 74 78 74 29 126 1 134 134 40 57 67 53 31 42 32 115 80 85 31 122 70 31 26 30 21 58
split_gain=1417.09 794.298 1105.3 1586.65 1229.79 1059.38 990.662 874.769 763.301 992.573 1019.87 979.276 813.219 780.44 641.689 609.77 581.864 528.146 601.912 501.359 496.558 422.224 410.553 320.935 631.245 260.819 252.696 244.678 181.261 179.076 95.8151 71.7248 52.8385 16.2369 20.3959 0.0168917 0.00884828 0.00245205 9.57542e-05 7.28261e-09
threshold=-0.8204444646835326 0.99929609894752514 1.0685495138168337 -1.0286240577697752 -1.4378047585487364 0.94880908727645885 0.82741895318031322 1.0000000180025095e-35 1.0000000180025095e-35 1.0052472949028017 1.2774603962898257 -0.91055217385292042 1.0028491020202639 1.326222360134125 -0.90561646223068226 -1.2301337122917173 -0.96381634473800648 1.2301203608512881 -1.1824047565460203 0.62431526184082042 1.0000000180025095e-35 1.0000000180025095e-35 1.0701200366020205 0.87933707237243663 0.17965240031480792 1.0233616232872011 1.0076944828033449 1.0867876410484316 0.94656899571418773 -0.97063764929771412 -0.93162724375724781 -1.0771704912185667 0.96356353163719188 -0.97192609310150135 -0.32958216965198511 0.99463379383087169 1.2201644182205202 1.0451717972755434 1.2171264886856081 0.69550269842147838
decision_type=2 2 2 2 2 2 2 2 2 2 2 2 2 2 2 2 2 2 2 2 2 2 2 2 2 2 2 2 2 2 2 2 2 2 2 2 2 2 2 2
left_child=1 2 3 6 27 -6 30 17 9 10 14 21 23 16 -3 -13 -14 19 -19 -4 -12 -11 -8 29 -25 32 -15 -5 35 -10 -1 -27 -9 34 -30 37 38 39 -36 -2
right_child=28 8 7 4 5 -7 22 25 12 11 20 15 13 26 -16 -17 -18 18 -20 -21 -22 -23 -24 24 -26 31 -28 -29 33 -31 -32 -33 -34 -35 36 -37 -38 -39 -40 -41
leaf_value=0.39703134910645638 -0.1052966903243662 0.15438341309325382 0.15537516863312506 0.19515452051809301 0.10528084729568904 0.18026420913009855 0.15463516996265805 0.016544879321049852 0.010700907513035464 0.1692441724398005 0.16791462091057702 0.10942982916962203 0.27605576457561476 0.14719108105553097 0.086673141703190945 -0.0030833892983551771 0.1986612204080829 0.019122186999358099 0.16214920227073515 0.19523168440649591 0.21840315628404411 0.01440134909280256 0.20099835566475371 0.059380847021076245 0.19807052188979657 0.17332925109171993 0.016235311187871953 0.33714180179617509 0.23549558546818369 0.20570597520447054 -0.059603935221607264 -0.13039005571429746 -0.12318230549586731 0.21690239807713252 -0.10529484704295618 -0.11661937415828741 -0.11541855772010867 -0.11008268408106288 -0.10659853725745616 -0.1052879366469328
leaf_weight=4.6960596442222586 250.56540220603347 8045.3265071511269 9107.6088175326586 1204.6002720147371 23869.576624784619 2045.6494304686785 8283.087024923414 33.759141698479652 50.99701139330864 4011.9990737512708 4251.4064892753959 5630.9695901274681 1400.7742438465357 612.45372787117958 1694.4113235473633 526.73785906285048 3169.1220506131649 520.47538100928068 676.90900691598654 4829.7814339548349 3595.3614575862885 184.18515804409981 2482.3473209477961 956.43481186032295 499.6066964417696 60.621310368180275 194.03142064809799 134.9636407494545 3.0070390701293972 614.97650641202927 213.73646705970168 8.9194637387990934 136.46094889938831 19.428882475942373 1.3849578686058528 1.3292807042598713 1.634520962834358 1.0750554427504528 0.94973471760749806 0.95401811972260375
leaf_count=6 5245 23039 24484 3556 90494 5626 26246 157 204 10237 10697 18602 1729 1553 5863 2304 6470 2103 1597 8336 6174 747 3697 3592 1008 165 731 224 1 1206 1627 50 738 26 29 13 16 14 18 20
internal_value=0 0.145744 0.138065 0.128961 0.116029 0.1112 0.161048 0.160709 0.15736 0.149757 0.164219 0.125193 0.185689 0.206379 0.142604 0.0998053 0.222384 0.163711 0.0999787 0.169187 0.191048 0.162448 0.165326 0.13327 0.106969 -0.0288062 0.115685 0.20946 -0.0794457 0.190773 -0.0497868 0.134373 -0.0954707 0.169914 0.0390498 -0.105376 -0.109776 -0.105317 -0.105825 -0.105297
internal_weight=0 89052 53613.2 38238.7 27254.8 25915.2 10983.9 15374.5 35438.8 27940.4 17586.5 10353.9 7498.4 5376.38 9739.74 6157.71 4569.9 15134.8 1197.38 13937.4 7846.77 4196.18 10765.4 2122.02 1456.04 239.761 806.485 1339.56 280.329 665.974 218.433 69.5408 170.22 26.4051 6.97625 253.924 3.96921 252.594 2.33469 251.519
internal_count=268644 263262 169106 131476 99900 96120 31576 37630 94156 77663 45773 31890 16493 10483 28902 20906 8199 36520 3700 32820 16871 10984 29943 6010 4600 1110 2284 3780 5382 1410 1633 215 895 90 64 5292 63 5279 47 5265
is_linear=0
shrinkage=0.1


Tree=5
num_leaves=42
num_cat=0
split_feature=114 2 33 96 21 71 103 117 108 71 30 29 73 103 73 83 102 20 114 48 4 72 31 47 30 75 132 29 36 89 77 121 36 73 36 31 31 42 30 30 54
split_gain=1031.54 647.398 1150.1 907.46 863.153 614.161 1049.93 638.982 610.676 659.793 543.148 655.312 528.695 446.697 445.728 399.514 392.011 335.855 293.298 266.523 271.894 369.227 251.276 242.792 238.596 216.085 183.809 168.196 156.507 112.701 122.957 68.8102 26.4938 22.3295 24.7774 0.282761 0.035253 0.00910432 0.00154728 0.000455095 1.7053e-13
threshold=-0.8204444646835326 0.62731075286865245 0.83807733654975902 -1.0375275015830991 1.5627597570419314 -0.2432117164134979 -0.78638640046119679 -1.5027865171432493 -0.94662493467330922 -0.17747796326875684 1.0968321561813357 1.2073624730110171 -0.86576917767524708 -0.63599076867103566 -0.90389397740364064 -0.15457645803689954 -0.94692331552505482 1.5616639852523806 -0.91929510235786427 1.0338861346244814 0.72546473145484935 -0.76314908266067494 1.0116257667541506 1.0003918409347536 1.0411679148674013 -1.1300322413444517 1.0000000180025095e-35 1.2500821948051455 0.8894137740135194 -1.2869187593460081 -1.277027368545532 -1.0477574467658994 0.86307308077812206 -0.90222197771072377 0.8928964138031007 0.99782314896583568 0.99829247593879711 0.99463209509849559 1.0451717972755434 1.0251302123069765 0.76924878358840953
decision_type=2 2 2 2 2 2 2 2 2 2 2 2 2 2 2 2 2 2 2 2 2 2 2 2 2 2 2 2 2 2 2 2 2 2 2 2 2 2 2 2 2
left_child=1 2 8 22 19 6 -5 -7 9 13 11 14 17 -1 -6 -11 27 -10 -13 20 21 -3 25 -14 -22 -4 -18 -12 35 32 -31 -24 -21 -30 -35 37 38 39 -36 40 -2
right_child=28 4 3 5 10 7 -8 -9 12 15 16 18 23 -15 -16 -17 26 -19 -20 29 24 -23 31 -25 -26 -27 -28 -29 33 30 -32 -33 -34 34 36 -37 -38 -39 -40 -41 -42
leaf_value=0.032091488170602568 -0.1047673324181623 0.11347961655048618 0.037162030624256846 0.12664012848020087 -0.03654057546681698 0.17359718763128024 0.09470200828350428 -0.009852938583141466 0.086789259533966864 0.24589749138991523 0.16069244600101085 0.15395179730776801 0.20172190626080783 -0.10132613833923559 0.10930824741050614 -0.11082944146607482 -0.046019471059722108 -0.033299298592366293 0.049590887066944374 0.11096989577018419 -0.0054315518032919501 0.17408817317166939 0.2406078728845305 0.10543547624713293 0.19509803776805418 0.22406323058957289 0.26093374960970234 -0.064326710821649521 0.20943066779005426 0.29405247755376179 0.15331503859393231 -0.090875444143736647 -0.13770679634780561 0.24744303507874507 -0.10485328841784856 -0.15978530094478183 -0.12641280979070305 -0.11481556904244386 -0.1086043699255346 -0.1072608736316141 -0.10476737183511729
leaf_weight=1442.1625081002712 227.02623672783375 1821.4911376982927 798.64024345576763 61224.258588641882 364.66156306862831 3425.0322509407997 12373.127754636109 201.01136885583401 2032.3220994472504 194.61910114809871 216.96138074249029 3140.1374602541327 582.85220346599817 303.81673668324947 492.58144681155682 37.433626804500818 396.60786714404821 263.0301540568471 294.55975273251534 9.6982326805591601 60.934822484850883 2242.7135194987059 6.4993773102760306 475.55003854259849 2259.0538885295391 67.052160546183586 20.517614111304283 39.223588198423386 18.733630597591404 272.63641060888767 80.379102557897568 171.62852378189564 7.6745055615901938 2.9638297557830793 2.2409724444150925 0.93958377093076606 1.1419259309768675 0.90672959759831329 2.1591598093509674 0.73428673669695754 0.99897522851824661
leaf_count=5849 5227 4723 2816 166626 1550 5155 42311 900 6543 224 396 5958 1123 3157 1299 516 1751 1246 871 24 318 4066 10 1581 2646 94 9 219 10 199 196 847 39 1 51 5 11 9 33 12 23
internal_value=0 0.122023 0.118937 0.121998 0.144034 0.12325 0.121271 0.163428 0.0739983 0.0299308 0.112381 0.125481 0.0999891 0.00887557 0.0472658 0.188352 0.0288767 0.073028 0.145002 0.167301 0.162517 0.146925 0.0293825 0.15846 0.189831 0.0516385 -0.030921 0.126241 -0.0782626 0.249771 0.262008 -0.0787806 0.00111556 0.148422 0.0140558 -0.105039 -0.110757 -0.104815 -0.106694 -0.104775 -0.104767
internal_weight=0 95318.9 83599 78267.3 11719.8 77223.4 73597.4 3626.04 5331.79 1978.03 4965.25 4291.94 3353.75 1745.98 857.243 232.053 673.31 2295.35 3434.7 6754.58 6384.19 4064.2 1043.82 1058.4 2319.99 865.692 417.125 256.185 257.845 370.388 353.016 178.128 17.3727 27.2395 8.50589 230.606 5.54206 229.666 4.40013 228.759 228.025
internal_count=268644 263262 238998 218759 24264 214992 208937 6055 20239 9746 12053 9678 10493 9006 2849 740 2375 7789 6829 12211 11753 8789 3767 2704 2964 2910 1760 615 5382 458 395 857 63 106 96 5276 95 5271 84 5262 5250
is_linear=0
shrinkage=0.1


Tree=6
num_leaves=39
num_cat=0
split_feature=114 39 59 116 71 73 110 108 30 105 30 106 129 106 108 99 53 71 35 44 30 36 31 78 99 122 20 102 65 73 36 42 31 31 42 30 30 55
split_gain=776.334 631.166 1144.71 1110.58 661.798 599.811 563.129 973.219 554.998 1134.85 505.161 349.846 332.501 321.913 322.333 675.889 423.687 337.765 326.323 229.157 164.576 136.659 129.888 117.907 117.219 109.164 65.9242 110.845 26.8816 17.1705 20.1286 0.995923 0.203616 0.0264394 0.00661046 0.00113118 0.000331923 1.42109e-13
threshold=-0.8204444646835326 1.038061320781708 0.85188281536102306 -1.4906458258628843 -0.35371613502502436 -0.93614056706428517 -1.1801398396492002 -1.0705358386039732 1.0968321561813357 -0.93432328104972828 1.0667955279350283 -0.88010102510452259 1.0000000180025095e-35 -0.94714853167533863 -1.0533002018928526 -0.77165022492408741 1.1138556003570559 -0.33360837399959559 0.96248826384544384 1.1958562731742861 1.1060194373130801 0.8894137740135194 0.98043829202651989 -0.34099300205707544 -0.99897298216819752 -2.0130283832550044 1.123549818992615 -0.75991168618202198 0.389041617512703 -0.90222197771072377 0.8928964138031007 1.1532010436058047 0.99782314896583568 0.99829247593879711 0.99463209509849559 1.0451717972755434 1.0251302123069765 0.7368248999118806
decision_type=2 2 2 2 2 2 2 2 2 2 2 2 2 2 2 2 2 2 2 2 2 2 2 2 2 2 2 2 2 2 2 2 2 2 2 2 2 2
left_child=1 2 5 6 12 20 7 -4 10 -10 -7 -6 -5 23 16 17 28 -16 -17 -8 22 32 -1 26 -22 -18 31 -28 -15 -23 -31 -3 34 35 36 -32 37 -2
right_child=21 13 3 4 11 8 19 -9 9 -11 -12 -13 -14 14 15 18 25 -19 -20 -21 24 29 -24 -25 -26 -27 27 -29 -30 30 33 -33 -34 -35 -36 -37 -38 -39
leaf_value=0.1392396687114083 -0.10429314807587034 -0.13434216048449982 0.17646349809762718 0.042805876894116413 0.022932331578596019 0.09943700873799588 0.20517955305010183 0.0016446703501965981 0.13491848954608199 -0.010491514260398479 0.11574158480698904 -0.063776386142365624 0.13288507165764654 0.16391345272933264 0.19020181581732129 0.054966810101190366 0.019898509369010855 0.017336941942367654 0.15461212421696577 -0.12320493791702075 0.10270631175915486 0.18659763654281608 0.18664770921241824 0.31618229949075122 -0.10331841047100476 0.18879942347526679 -0.15135480193811424 0.2788539183042244 -0.10260974169635458 0.21512275054923916 -0.10437042719110914 -0.17113561923933573 -0.15227120678429629 -0.12382494861991587 -0.11323549647318509 -0.10773197237837184 -0.1065245642934507 -0.10429317924511999
leaf_weight=1335.8509635776281 206.18975403904915 50.471738189458847 588.56013951450586 1410.3860540762544 1109.3342781998217 55956.871407657862 656.24101458489895 693.86670961230993 962.41085809469223 1213.4528595656157 28773.880855031312 801.52655372023582 577.58407486975193 4.0573668777942649 1259.5654688328505 1270.9003624916077 39.148870155215263 124.17528086155653 443.28112550079823 21.961548928171396 107.95768336951733 18.90986126661301 1018.5664745792747 8.1252672225236875 37.108374312520027 1697.1528331786394 12.372770160436632 11.607725277543066 56.229681983590126 3.0617372989654523 2.0366180427372456 8.6120089441537839 0.88991805166005988 1.0537413731217382 0.83130302280187507 1.9687001444399355 0.66876783594488998 1.0262202210724343
leaf_count=2590 5224 284 979 5517 4293 156723 699 3123 1973 4406 64476 5632 1602 9 2221 4137 115 433 779 197 225 10 1180 8 213 1085 57 9 258 1 51 39 5 11 9 33 12 26
internal_value=0 0.104091 0.102276 0.0594574 0.0285845 0.105082 0.12085 0.0818765 0.103693 0.0538251 0.104974 -0.0134384 0.0689775 0.138776 0.142244 0.122701 0.175942 0.174689 0.0807347 0.194546 0.15338 -0.0772494 0.159749 -0.0473855 0.0500045 0.184991 -0.0829493 0.0568871 -0.0846725 0.134368 0.0127469 -0.139705 -0.104539 -0.109731 -0.104336 -0.106023 -0.1043 -0.104293
internal_weight=0 100251 95265.6 5859.46 3898.83 89406.1 1960.63 1282.43 86906.6 2175.86 84730.8 1910.86 1987.97 4985.7 4894.51 3097.92 1796.59 1383.74 1714.18 678.203 2499.48 236.637 2354.42 91.1895 145.066 1736.3 83.0642 23.9805 60.287 27.0307 8.1208 59.0837 209.606 5.05906 208.716 4.00532 207.885 207.216
internal_count=268644 263262 253828 22042 17044 231786 4998 4102 227578 6379 221199 9925 7119 9434 9037 7570 1467 2654 4916 896 4208 5382 3770 397 438 1200 389 66 267 106 96 323 5276 95 5271 84 5262 5250
is_linear=0
shrinkage=0.1


Tree=7
num_leaves=42
num_cat=0
split_feature=114 39 59 71 110 71 116 0 35 97 21 29 106 46 73 38 103 34 71 101 111 83 32 106 126 107 125 104 36 2 104 61 63 33 103 31 20 41 29 31 29
split_gain=598.684 547.703 985.529 846.664 637.754 675.133 489.683 488.509 843.679 771.764 505.216 369.807 355.761 324.963 834.554 378.761 356.486 320.723 300.274 297.468 287.764 284.756 237.974 208.343 199.028 172.775 167.357 134.363 120.344 52.22 37.5945 36.0296 13.9266 20.3155 0.222927 0.15401 0.0479193 0.00764529 0.00170455 0.000187814 5.04855e-10
threshold=-0.8204444646835326 1.0356737375259402 0.85188281536102306 -0.20837246626615522 -1.2104350328445432 -0.36822165548801417 -1.4906458258628843 0.52662253379821788 0.81336882710456859 -0.99391829967498768 1.5627597570419314 1.2051754593849184 -0.9483882188796996 1.2137761116027834 -0.70016342401504505 1.0225958824157717 -0.78364482522010792 0.86277404427528392 -0.30696460604667658 -0.53973251581192005 -1.2481645345687864 -1.2744833230972288 0.96598348021507274 -0.9483882188796996 -2.9054045677185054 -0.97552078962326039 -1.7229688167572019 -0.74998545646667469 0.8894137740135194 -0.1961373835802078 -0.69970357418060292 0.71309024095535289 0.47959077358245855 0.90969878435134899 -0.64898231625556935 1.0009165406227114 1.2243990302085879 0.97074607014656078 1.0984940528869631 0.92302668094635021 1.1365191936492922
decision_type=2 2 2 2 2 2 2 2 2 2 2 2 2 2 2 2 2 2 2 2 2 2 2 2 2 2 2 2 2 2 2 2 2 2 2 2 2 2 2 2 2
left_child=1 2 7 4 24 -6 20 8 21 -10 12 -12 -9 14 22 16 -16 -8 -17 23 -5 -1 26 31 -4 -25 -3 -24 35 30 -21 -15 -30 -34 -31 37 38 39 -35 40 -2
right_child=28 13 3 6 5 -7 17 10 9 -11 11 -13 -14 19 15 18 -18 -19 -20 29 -22 -23 27 25 -26 -27 -28 -29 32 34 -32 -33 33 36 -36 -37 -38 -39 -40 -41 -42
leaf_value=0.10024513969123282 -0.10386796349641425 -0.00050036872059435703 -0.067666807929645648 0.036171402107288968 0.066607981293501581 -0.018661031252321728 -0.098922184985093753 0.16234437913739899 0.0077406004109431409 0.090671087684321958 0.025123560128837159 0.091518091720056705 0.10957874718992176 0.20207536690625907 0.10622305558592754 0.12111089586243398 -0.054363241130530184 0.17597935492762268 -0.049858709552652786 0.19547454115728574 0.1793018894708491 0.027259914991926083 0.18071668073464373 0.16510659119305943 0.19541237445602147 0.10319167286131617 0.12214352981389967 -0.013888625201977074 0.17155764709327406 -0.14224575694356043 -0.11233379806228763 -0.14394540852069437 0.21637477806953742 -0.1042057275188638 -0.12526774101599641 -0.15102420779334566 -0.13000072518890823 -0.11282688607403993 -0.10841121391049635 -0.10560383152342685 -0.10386536799228988
leaf_weight=649.24729225039482 187.4005348905921 135.47496648132801 32.261293575167656 171.90577203407884 1528.5232235491276 2365.6471359655261 143.80231882631779 1425.1844146847725 1140.8788121491671 68407.881987988949 1019.2556356042624 4740.9259585440159 12354.189766004682 3.3705148994922665 188.52101516723633 594.47833544015884 518.27435587346554 60.209652528166771 124.1851079761982 10.364733248949053 768.04502639174461 3026.4168420657516 1006.088596150279 2135.7092230468988 264.72497972846031 571.25759063661098 622.56499847769737 36.775822922587395 18.40472806990147 9.9226523935794813 6.4292297437787047 28.073960468173027 3.059320926666258 2.1459578722715382 35.057897195219994 0.69662907719612022 1.0684431605041025 0.95860281586646934 1.7495130039751527 0.62536036223173042 0.75243112072348495
leaf_count=1780 5227 533 145 658 5267 11288 1826 1902 3964 175321 3300 10202 24662 3 495 1309 2275 106 482 16 913 10048 1494 1680 337 1289 1328 125 12 50 83 154 1 57 227 4 7 11 29 13 21
internal_value=0 0.0899856 0.088188 0.0463934 0.025581 0.0148084 0.122644 0.0905917 0.086843 0.0893107 0.10464 0.0797697 0.115036 0.119247 0.0976136 0.0404475 -0.0115306 -0.017791 0.0915673 0.144172 0.153125 0.0401516 0.142862 0.149068 0.166834 0.152041 0.100225 0.173854 -0.0763401 -0.0728336 0.0776363 -0.106856 0.123628 0.013682 -0.129013 -0.104091 -0.11124 -0.103919 -0.106094 -0.103874 -0.103868
internal_weight=0 104126 98099.1 5335.12 4191.16 3894.17 1143.96 92764 73224.4 69548.8 19539.6 5760.18 13779.4 6026.55 3226.36 1425.46 706.795 204.012 718.663 2800.19 939.951 3675.66 1800.9 2738.41 296.986 2706.97 758.04 1042.86 216.862 61.7745 16.794 31.4445 26.428 8.02323 44.9805 190.434 4.96391 189.737 3.89547 188.778 188.153
internal_count=268644 263262 251719 20540 17037 16555 3503 231179 191113 179285 40066 13502 26564 11543 8041 4561 2770 1932 1791 3502 1571 11828 3480 3126 482 2969 1861 1619 5382 376 99 157 106 94 277 5276 93 5272 86 5261 5248
is_linear=0
shrinkage=0.1


Tree=8
num_leaves=55
num_cat=0
split_feature=41 104 32 44 4 74 133 126 106 45 116 82 108 58 116 136 22 58 132 31 46 73 62 30 44 103 0 130 44 105 105 72 109 124 50 106 45 71 47 105 46 61 85 32 71 114 74 106 34 70 33 0 102 113
split_gain=516.005 705.681 917.861 775.457 903.416 730.424 894.222 711.937 646.767 603.287 552.272 501.336 771.274 640.929 516.77 469.895 447.442 570.865 430.317 623.33 346.237 336.241 313.027 275.045 264.241 218.171 208.55 190.648 164.58 158.823 156.321 150.365 141.572 289.803 139.23 113.283 68.0239 62.1593 57.4261 41.05 38.7856 56.989 32.6169 23.5544 15.2 4.56397 0.898964 0.106309 0.0544382 0.0118845 0.0158137 0.00116339 0.000840209 0.000751099
threshold=1.1122053265571596 -0.82640808820724476 0.96441769599914562 1.0846606492996218 0.58861890435218822 -0.92365947365760792 1.0000000180025095e-35 -1.8410275578498838 -0.91777947545051564 1.1513136029243471 -1.0662008523941038 -1.4378047585487364 -0.81505557894706715 0.83647236227989208 -1.4953680038452146 1.0000000180025095e-35 1.4562145471572878 0.78935593366622936 1.0000000180025095e-35 0.97474974393844616 1.163535535335541 -0.51990699768066395 0.56926709413528453 1.0411679148674013 1.0931453704833987 -0.64898231625556935 0.44953566789627081 1.0000000180025095e-35 1.1571826934814455 -0.89352884888648976 -0.76866853237152089 -0.63662555813789357 -1.1159315705299375 -2.0235787630081172 1.190933406352997 -0.90926238894462574 1.1603013873100283 -0.29940572381019587 1.2406005263328554 -0.85002332925796498 1.2433121204376223 0.81796571612358104 -0.80595338344573964 0.96419993042945873 -0.17747796326875684 -0.8204444646835326 -0.39823669195175165 -0.96155881881713856 0.84736460447311412 -0.11815258860588072 0.83938679099082958 -0.16269699484109876 -0.5358200967311858 -1.3625113368034361
decision_type=2 2 2 2 2 2 2 2 2 2 2 2 2 2 2 2 2 2 2 2 2 2 2 2 2 2 2 2 2 2 2 2 2 2 2 2 2 2 2 2 2 2 2 2 2 2 2 2 2 2 2 2 2 2
left_child=1 3 11 4 16 22 21 10 -8 15 20 13 14 45 -13 -9 17 -1 19 -6 -4 -7 31 -20 -24 29 -18 -15 -12 43 -11 -5 34 35 39 -34 -14 -35 -36 -31 48 -42 -43 46 -44 -3 47 -2 52 53 -51 -48 -27 -50
right_child=25 2 7 5 18 6 8 9 -10 30 28 12 36 27 -16 -17 26 -19 23 -21 -22 -23 24 -25 -26 40 -28 -29 -30 32 -32 -33 33 37 38 -37 -38 -39 -40 -41 41 42 44 -45 -46 -47 51 -49 49 50 -52 -53 -54 -55
leaf_value=0.092786342131076019 -0.15439545410924696 -0.14584473537996798 -0.019121478166878522 0.20847409771828851 0.057270663009366146 0.06990606805519417 0.14394850169892393 0.078588585856816759 0.0036935863819800591 0.1731378828118193 -0.094591931775679705 0.099135211671658299 -0.11404559157085917 0.14143438318801946 0.050190548680341 0.15193088214917957 -0.038213047414806578 0.049729924632955266 0.053281754326155575 0.089560382515762163 0.1026072271165378 -0.077770780314986312 0.079754459272713102 0.13649129721580563 0.14579621584613206 -0.10905924415749529 0.1216369882365191 0.038524097943404952 0.046800381324553157 0.0394353497173753 0.051928242422487558 0.018696348228974421 0.060026232165952445 0.13943899826199757 0.14129453637716854 -0.13771322598348815 0.032983850273053783 0.057721198432155091 0.1834599499387308 -0.17290870113065393 0.32542336303377367 0.29271524810072319 -0.11695969382870207 0.097654932899450347 0.071928275706516512 -0.10349480993804748 -0.12298739216890185 -0.17108762457953669 -0.11657986811780841 -0.11941181666961061 -0.12444414701867451 -0.12042261216330939 -0.10555631443306462 -0.11896608546946917
leaf_weight=4255.8285356685519 6.5551317930221602 37.988385170698166 319.90530779957771 748.1297672688961 7474.1700084805489 5682.1427847445011 3190.9081434011459 4652.4012906849384 366.55398489534855 1375.9508738517761 340.51517996191978 2389.723567340523 296.92240063101053 1311.0209576841444 22168.167465724051 1075.5004771649837 645.83277820795774 11139.167221948504 474.33134315907955 29874.94988643378 866.72783583402634 158.47919647395611 843.25637835264206 2444.3163001090288 2151.9041253775358 1.5543856322765353 93.42441026866436 208.6696657538414 108.57256874442101 26.07464973628521 115.31779550015926 44.217605993151665 52.863000482320786 484.23828555643559 1059.3195521086454 64.105335332453251 35.196857333183289 115.23477056622505 464.68044222891331 13.987917393445967 5.4098080769181278 2.7682468891143825 17.360339384526021 4.5840182155370703 5.6456982865929559 77.08036495745182 3.0720618516206741 9.1289403587579709 2.7817897275090218 9.0995532907545584 19.90212045609951 4.16821612417698 1.2238825745880593 2.5087011232972136
leaf_count=9984 29 177 1125 931 20814 15187 6116 11753 1248 1929 1530 5197 2443 2715 69255 1467 2572 30671 1531 63074 1971 726 2061 3033 3879 22 234 641 321 62 315 137 93 757 753 279 120 253 207 68 10 1 198 8 26 2365 21 38 23 71 129 30 25 19
internal_value=0 0.077235 0.0657359 0.0830814 0.0779774 0.104914 0.0899728 0.0936128 0.129497 0.10711 0.0340441 0.0564296 0.0529062 0.110074 0.0549533 0.0923597 0.0579833 0.0616325 0.0859885 0.0830987 0.0697903 0.065899 0.141989 0.122968 0.127203 0.124359 -0.0180118 0.127304 -0.0604086 0.12957 0.163765 0.197883 0.132451 0.0956369 0.149314 -0.0483463 -0.0984639 0.123731 0.154151 -0.034705 -0.0518404 0.0303492 -0.0315844 -0.109278 -0.0706064 -0.117476 -0.150657 -0.164111 -0.120979 -0.12207 -0.122865 -0.121511 -0.107516 -0.117711
internal_weight=0 104967 35379.7 69587.6 56402 13185.6 9398.08 8854.89 3557.46 7219.17 1635.72 26524.8 24890 1634.76 24557.9 5727.9 16134.3 15395 40267.8 37349.1 1186.63 5840.62 3787.51 2918.65 2995.16 2376.27 739.257 1519.69 449.088 2308.01 1491.27 792.347 2280.5 716.441 1564.06 116.968 332.119 599.473 1524 40.0626 68.2545 31.1841 25.7743 27.5084 23.006 115.069 22.9244 15.6841 37.0704 34.2922 29.0017 7.24028 2.77827 5.29049
internal_count=268644 265522 103324 162198 131913 30285 23277 20411 7364 15464 4947 82913 77015 5898 74452 13220 43461 40655 88452 83888 3096 15913 7008 4564 5940 3122 2806 3356 1851 2598 2244 1068 2472 1382 1090 372 2563 1010 960 130 524 235 225 126 224 2542 118 67 289 242 200 51 47 42
is_linear=0
shrinkage=0.1


Tree=9
num_leaves=57
num_cat=0
split_feature=41 58 31 30 108 52 51 58 37 129 46 107 127 117 74 71 69 132 53 107 103 129 70 73 83 6 116 74 109 124 45 106 121 65 52 99 114 27 110 69 53 46 35 0 46 60 39 119 46 103 51 34 70 33 102 113
split_gain=468.68 622.506 468.968 729.015 976.222 604.795 576.611 689.447 1085.88 557.85 458.807 420.334 417.637 633.412 481.299 373.452 441.984 333.54 275.472 251.753 177.151 175.08 250.865 220.173 203.988 192.944 170.248 159.244 143.26 222.046 147.586 93.3553 90.8357 80.1491 63.0615 78.8759 61.8812 57.2705 53.3093 49.4745 41.0457 40.2762 39.9981 34.5358 34.2792 39.2408 26.4119 18.6338 13.0666 0.0670626 0.0482408 0.038426 0.00834506 0.0109066 0.000612895 0.000528773
threshold=1.1122053265571596 0.93348395824432384 0.9981774389743806 1.0719065666198733 -1.0286240577697752 1.110219478607178 1.1220242381095888 0.86001247167587291 0.94155725836753856 1.0000000180025095e-35 1.1139699220657351 -0.97793886065483082 -1.9130403995513914 -1.06190550327301 -0.97262752056121815 -0.35110157728195185 0.086452186107635512 1.0000000180025095e-35 1.2026403546333315 -0.9904080033302306 -0.64898231625556935 1.0000000180025095e-35 -0.25356687605381006 -0.72428327798843373 -1.2965587377548216 0.37964415550231939 -1.4953680038452146 -0.5265398621559142 -1.1159315705299375 -2.0235787630081172 1.2124471664428713 -0.90926238894462574 -1.8581909537315366 0.21351390331983569 1.142290532588959 -0.74510943889617909 -1.2364059090614317 1.2150259613990786 -1.1684959530830381 -0.0067634957376867524 1.1350257396698 1.2433121204376223 0.85362142324447643 -0.31051231920719141 1.2433121204376223 0.86723157763481151 1.0424724817276003 -1.6588090062141416 1.2206665873527529 -0.61822301149368275 1.1986170411109927 0.84736460447311412 -0.11815258860588072 0.83938679099082958 -0.5358200967311858 -1.3625113368034361
decision_type=2 2 2 2 2 2 2 2 2 2 2 2 2 2 2 2 2 2 2 2 2 2 2 2 2 2 2 2 2 2 2 2 2 2 2 2 2 2 2 2 2 2 2 2 2 2 2 2 2 2 2 2 2 2 2 2
left_child=1 2 3 4 11 -6 7 10 -9 17 -4 -1 13 -8 -14 21 18 -5 19 -17 28 22 37 24 -23 -24 42 -28 30 31 47 38 40 -11 35 -31 -20 -3 -30 -36 -32 -34 -18 -33 51 -46 49 -2 -49 -47 -25 54 55 -54 -22 -53
right_child=20 15 6 9 5 -7 12 8 -10 33 -12 -13 14 -15 -16 16 26 -19 36 -21 44 23 25 50 -26 -27 27 -29 29 34 32 43 41 -35 39 -37 -38 -39 -40 -41 -42 -43 -44 -45 45 46 -48 48 -50 -51 -52 52 53 -55 -56 -57
leaf_value=0.072628712342990523 0.035876116336202406 -0.13696475523479543 0.074268194470436019 0.079116272352246109 0.037255089144187008 0.067496685437258633 0.10792653209075434 -0.038051779155468875 0.062523630386468451 -0.10758541273299338 0.10930948240318283 0.12512048028621048 -0.12023527632971032 -0.024006150595610832 0.16167636257050375 0.079511412286729075 0.025119817089767956 0.13536905890413822 -0.0006715909169719862 -0.089472390499893237 -0.10813601465145442 -0.081829581165236157 0.13502537851290686 -0.13621121907752384 0.2926670802105889 -0.018555007242895258 0.26009401661745912 -0.080679630304086841 0.16689696149890398 0.11528055690090751 -0.15826737906027255 0.14991940194611311 0.13603427409646579 0.10937924008821348 0.074165484073961008 -0.076920717990240639 0.29859747200498832 0.12862578581983561 -0.034332305182141247 0.13885874963320255 0.088104759657854026 0.18230577045886728 0.20916275429836065 -0.14991868783531556 0.24881258220843799 -0.12333844717376297 0.095177082239952804 -0.15833236507277004 0.01811841581609357 -0.10966370081380546 -0.14640866762900381 -0.11476074273972281 -0.11726322562342584 -0.12161592757005553 -0.10500081185080597 -0.11684873399792205
leaf_weight=9338.6689863912761 11.840224131941794 78.077772751450539 32020.11462421529 14362.399957574904 21203.962230639532 9610.1862987056375 2268.8710969239473 1300.9418472796679 6140.0581718981266 176.77698718756437 4230.18114772439 1823.3501588217914 62.98862037062645 433.41361440718174 1570.9790443181992 100.01070220023394 13.383671417832373 1137.5288245379925 9.4892109706997854 744.17869306355715 1.4178598299622538 17.368155553936958 228.19779953360558 9.179251894354822 89.475758656859398 127.50847567617893 17.700800940394402 60.868229947984219 22.682252496480942 45.641035541892052 14.297406226396562 4.1161291897296897 1266.820384606719 18.840988546609879 175.63735911250114 40.120916545391083 25.413408800959587 9.0613099932670575 31.375846602022648 361.55951741337776 12.830486759543417 220.91891470551491 100.34490411728621 57.566412478685379 6.3245662525296238 6.1580882705748108 9.9970180317759496 18.247214794158939 5.450322598218917 8.5870740152895433 9.3791881650686246 2.5549123138189316 8.3766997121274489 18.405283242464066 1.1129743978381146 2.3089779242873218
leaf_count=23750 38 404 69381 29580 67466 26783 4257 4436 14679 818 8087 3192 249 1329 2091 248 75 909 52 5543 22 68 568 48 56 553 12 691 14 61 70 9 844 39 364 134 29 21 87 486 20 89 64 272 10 48 35 96 14 142 44 23 71 129 25 19
internal_value=0 0.0678702 0.0688187 0.0627402 0.0558652 0.0466867 0.0761179 0.072666 0.0449396 0.0811267 0.0783573 0.0812034 0.110898 0.0867661 0.150809 0.00672604 -0.0280307 0.0832446 -0.0580707 -0.069453 0.112974 0.0722573 0.0427196 0.176567 0.23179 0.0799721 0.109298 -0.0039068 0.117605 0.0813626 0.134873 -0.0458335 0.139599 -0.0866884 0.104995 0.0253655 0.217233 -0.109347 0.0501015 0.117707 -0.0417425 0.142905 0.187504 -0.12991 -0.049506 0.0265203 -0.0303018 -0.0665656 -0.11775 -0.115375 -0.141365 -0.118614 -0.119562 -0.120255 -0.106757 -0.115752
internal_weight=0 107339 105699 57671.7 41976.2 30814.1 48027.5 43691.3 7441 15695.5 36250.3 11162 4336.25 2702.28 1633.97 1639.64 1071.39 15499.9 879.092 844.189 2354.35 568.248 442.845 125.402 106.844 355.706 192.298 78.569 2289.1 738.699 1550.4 115.741 1514.87 195.618 622.959 85.762 34.9026 87.1391 54.0581 537.197 27.1279 1487.74 113.729 61.6825 65.2435 31.0667 24.7422 35.5378 23.6975 14.7452 18.5584 34.1767 31.6459 26.782 2.53083 4.86389
internal_count=268644 265522 257046 152537 121191 94249 104509 96583 19115 31346 77468 26942 7926 5586 2340 8476 6714 30489 5872 5791 3122 1762 1546 216 124 1121 842 703 2598 1427 1171 382 1023 857 1045 195 81 425 101 850 90 933 139 281 524 235 225 148 110 190 92 289 242 200 47 42
is_linear=0
shrinkage=0.1


Tree=10
num_leaves=61
num_cat=0
split_feature=39 60 70 50 109 71 119 108 125 112 53 45 126 28 57 43 36 127 132 31 25 104 129 12 51 102 52 105 43 123 35 116 111 35 76 91 39 41 102 70 61 48 41 109 124 28 103 113 105 121 123 51 49 125 70 68 40 9 60 42
split_gain=437.516 838.362 698.809 1003.61 875.056 642.209 503.219 420.376 524.96 515.969 429.313 414.193 1270.18 1524.15 775.479 714.001 709.394 782.031 596.534 964.735 454.507 314.282 302.965 286.156 285.816 324.408 276.612 249.956 257.508 257.074 220.679 220.272 209.792 207.342 165.705 165.634 261.153 156.904 156.234 135.203 134.234 174.684 123.418 123.316 122.913 106.556 104.29 100.952 76.2862 73.3027 65.847 65.4551 63.9398 56.6928 41.4363 40.3757 24.4942 11.6741 0.715459 0.0708249
threshold=1.0324754118919375 0.78676587343215953 -0.11291879415512084 1.182271480560303 -1.1245476603507993 -0.37028305232524866 -1.6527166366577146 -1.0618640780448911 -1.7141141295433042 -0.98197904229164112 1.1138556003570559 1.1311044096946719 -1.7165184617042539 1.14218145608902 0.90695291757583629 1.1128507256507876 0.925427407026291 -1.825239300727844 1.0000000180025095e-35 0.97722345590591442 1.2734878063201907 -0.89027532935142506 1.0000000180025095e-35 0.71678414940834057 1.2037373781204226 -0.75839608907699574 1.0779257416725161 -0.76866853237152089 1.1439322829246523 -1.3272507190704343 0.91071376204490673 -1.4096912145614622 -1.2696210741996763 0.839442938566208 -0.45622599124908442 -1.0775664448738096 1.0172834992408755 1.1053181290626528 -0.62057390809059132 -0.069772996008396135 0.74727189540863048 1.1793186068534853 1.1073869466781618 -1.0970401763916013 -1.5003538727760313 1.0787534713745119 -0.78638640046119679 -0.96749559044837941 -0.80018028616905201 -1.8581909537315366 -2.0329807996749873 1.1637245416641238 1.166726887226105 -2.5875260829925533 -0.20797691494226453 0.1560817435383797 1.0662205219268801 0.5062302052974702 0.82415640354156505 1.1423355340957644
decision_type=2 2 2 2 2 2 2 2 2 2 2 2 2 2 2 2 2 2 2 2 2 2 2 2 2 2 2 2 2 2 2 2 2 2 2 2 2 2 2 2 2 2 2 2 2 2 2 2 2 2 2 2 2 2 2 2 2 2 2 2
left_child=1 11 5 4 52 22 34 10 9 24 46 14 13 15 18 -13 20 -18 19 -1 -16 -15 30 -24 25 -9 -20 40 29 -29 -3 42 38 -34 -5 36 -14 57 -7 -8 44 -42 50 -6 -10 -39 54 -37 -26 -44 -12 56 -4 -53 -2 -30 -48 -11 -33 -60
right_child=7 2 3 6 43 32 39 8 27 37 31 12 35 21 16 -17 17 -19 26 -21 -22 -23 23 -25 48 -27 -28 28 55 -31 -32 58 33 -35 -36 47 -38 45 -40 -41 41 -43 49 -45 -46 -47 51 -49 -50 -51 -52 53 -54 -55 -56 -57 -58 -59 59 -61
leaf_value=0.034441903549556473 -0.04266851037805576 0.067281013594661015 0.16351251721846893 -0.12790863197831659 0.15385174531713386 0.12837745026406436 -0.11534632477176919 0.087673364811533525 0.10845575124092022 -0.041884690148835363 0.17863162210142269 -0.0016412047405687125 0.102315756155824 -0.13892791877680127 -0.013348278589774701 0.06355127902099901 0.016447089485695721 0.082739429705214237 0.10383959991077284 0.066317609448922357 0.041933205536768242 0.11668881937412956 0.11892376717121274 -0.097484719111162452 0.13440521658650292 0.0094494092997178987 -0.01508297459903964 -0.11357074797796562 0.0063475840908244477 0.1185137794334829 -0.014040769806700555 -0.16498955021365158 0.16192908413707294 -0.046878054536299729 0.089208245235906827 0.14922659740786104 0.17283320284470338 -0.15018656164722233 -0.13399189054919719 0.011805577808346216 -0.072080732703342587 0.10079912193904848 -0.0081391910665482171 -0.06891107142225171 0.16567242638817745 0.13132080098009188 0.066480870707863279 0.25511096532710792 0.036363652530339512 0.13225543271335677 0.30805003998230918 -0.16666301466458369 -0.13933158517331926 0.082206820624934854 0.19269413794370699 0.18375698391415285 -0.14805180803909518 -0.13676908206680857 -0.11984217678458349 -0.13314573642487398
leaf_weight=11486.124249596149 10.891727581620215 528.09229854494333 7.3878404647111884 38.949012771248817 1220.2384477555752 122.71318177133799 352.66427562758327 860.29046347737312 854.39142043888569 13.891810312867163 262.28830205649137 3030.1909556239843 1277.506986245513 48.720643892884254 3315.1413883790374 3770.2655834108591 2873.9446201622486 4672.844067722559 4293.6806486397982 54768.671405825764 2697.3079288899899 3772.8329383134842 606.9959257543087 67.940830156207085 483.45350200682878 1381.5882791392505 204.92308074235916 144.64916796982288 15.106335103511809 71.229260697960854 906.48699804767966 4.6203313916921642 48.6427883207798 2126.4471754133701 360.56083520874381 172.57644349336624 891.77498251199722 19.100830033421516 27.846110984683037 109.61907981336117 73.210540533065796 289.83464653789997 38.114636842161417 25.367022283375263 669.77265423536301 45.420149475336075 5.7401622831821433 188.28176029026508 94.95174453780055 1531.9503588974476 46.245251968502998 12.43340429663658 123.74033000320196 34.697689935564995 23.880214765667915 85.065686613321304 73.059298157691956 194.7409213334322 21.42359991371632 4.9209486395120612
leaf_count=35534 37 1724 8 237 1010 201 2868 1829 1530 67 301 9655 2635 195 10877 9730 7978 10402 7527 119147 7433 7322 1175 272 602 4283 698 642 44 134 3229 20 126 9245 1245 236 1355 91 168 1015 278 529 130 97 767 71 15 73 418 1075 33 57 519 73 23 103 354 1011 161 30
internal_value=0 0.0592126 0.024924 0.070472 0.123448 0.00193483 -0.0141581 0.0844297 0.0694954 0.0429266 0.122639 0.0615605 0.0780659 0.0628987 0.0589858 0.0345024 0.0370782 0.0574942 0.0631842 0.0607915 0.0114521 0.11343 0.0418892 0.0971395 0.0556367 0.0394668 0.0984224 0.106799 0.024493 -0.0369943 0.0158951 0.135849 -0.0343064 -0.0422084 0.0680411 0.14174 0.131305 -0.0883036 0.0798519 -0.0851954 0.120583 0.0659367 0.14021 0.149315 0.133599 0.0479832 -0.0343362 0.204473 0.118311 0.128847 0.19803 -0.0766673 -0.122269 0.0165538 0.118971 0.157003 -0.132424 -0.130451 -0.128693 -0.122327
internal_weight=0 104138 6673.69 2238.53 1376.73 4435.17 861.793 7366.96 5296.7 3093.44 2070.27 97464.8 13152.2 10622 84312.6 6800.46 13559.2 7546.79 70753.4 66254.8 6012.45 3821.55 2109.52 674.937 2820.28 2241.88 4498.6 2203.26 316.05 215.878 1434.58 1909.56 2325.65 2175.09 399.51 2530.14 2169.28 273.154 150.559 462.283 1887.21 363.045 1878.6 1245.61 1524.16 64.521 160.702 360.858 578.405 1570.06 308.534 125.931 131.128 47.1311 34.7719 100.172 78.7995 208.633 30.9649 26.3445
internal_count=268644 253936 23139 6999 1634 16140 5365 14708 12399 8372 2309 230797 31201 26902 199596 19385 36690 18380 162906 154681 18310 7517 6400 1447 7132 6112 8225 4027 923 776 4953 1750 9740 9371 1482 4299 3990 1240 369 3883 3104 807 1539 1107 2297 162 559 309 1020 1205 334 499 527 130 60 147 369 1078 211 191
is_linear=0
shrinkage=0.1


Tree=11
num_leaves=56
num_cat=0
split_feature=41 125 115 45 36 58 0 96 123 112 72 118 30 136 40 77 31 123 94 124 34 32 32 76 123 108 79 46 108 132 95 4 121 71 3 96 82 10 51 23 34 59 70 43 71 53 41 48 52 21 29 70 106 74 18
split_gain=408.514 507.502 1298.87 1023.99 650.13 605.257 575.902 572.886 783.083 570.37 535.131 445.016 408.861 711.678 681.247 395.077 351.243 346.79 544.413 346.097 285.785 246.862 214.006 186.357 174.518 160.941 149.168 196.193 176.562 138.085 106.963 96.4167 92.7572 82.3044 76.0807 69.9991 76.877 75.9035 64.3552 64.0104 47.682 47.6209 43.2538 113.385 38.9907 38.1488 28.1187 24.3557 21.0322 14.3733 10.8099 9.40185 2.0422 0.666534 0.576578
threshold=1.1122053265571596 -1.5626075267791746 -0.99816337227821339 1.1239476203918459 0.9666532874107362 0.88648352026939403 0.43617123365402227 -0.90685638785362233 -1.3732484579086301 -0.91132876276969899 -0.63829132914543141 -1.0736427307128904 1.0516005754470827 1.0000000180025095e-35 0.99410688877105724 -1.277027368545532 1.0049780607223513 -1.3413259387016294 -0.97280174493789662 -1.503044545650482 0.93170562386512767 0.88419097661972057 0.95643034577369701 -1.1359626650810239 -1.307700455188751 -1.0533002018928526 -0.84046050906181324 1.2433121204376223 -1.0427405834197996 1.0000000180025095e-35 -0.9494413137435912 0.23688742518424991 -1.8581909537315366 -0.36822165548801417 0.43620158731937414 -0.94042974710464466 -1.4548128843307493 0.65236285328865062 1.173449754714966 1.0574395656585696 0.95389711856842052 0.84961226582527172 -0.12351160869002341 1.1845658421516421 -0.33763973414897913 1.1350257396698 1.1053181290626528 1.2307231426239016 1.1532422304153445 1.1971628665924074 1.05284059047699 -0.10223454236984252 -0.94136118888854969 -0.39823669195175165 0.85606449842453014
decision_type=2 2 2 2 2 2 2 2 2 2 2 2 2 2 2 2 2 2 2 2 2 2 2 2 2 2 2 2 2 2 2 2 2 2 2 2 2 2 2 2 2 2 2 2 2 2 2 2 2 2 2 2 2 2 2
left_child=1 2 6 5 17 12 7 11 -9 22 21 -1 13 -3 -14 20 -12 23 -19 46 -11 -8 24 -4 -5 29 41 31 51 48 -24 50 45 -21 -17 36 -7 -37 39 -34 -30 49 44 -44 -43 53 -6 -40 -2 -27 -28 -29 54 -31 -50
right_child=25 3 4 9 19 35 10 8 -10 15 16 -13 14 -15 -16 34 -18 18 -20 33 -22 -23 30 -25 -26 26 27 28 40 32 -32 -33 38 -35 -36 37 -38 -39 47 -41 -42 42 43 -45 -46 -47 -48 -49 52 -51 -52 -53 -54 -55 -56
leaf_value=0.042116940812156313 0.0069933061693971807 0.047123788033161994 -0.10266916973476133 0.019386922998128595 -0.14682401640067352 -0.0046712865311553577 -0.050384998299882688 0.045435416133068146 0.10939018364053568 0.011053801258535169 0.1354555789765548 -0.032952198095179096 0.055808701790221606 -0.038831187150835424 0.094596995949677132 0.10283523507069824 -0.052051816428086442 -0.098068160728911766 0.094475402783927742 -0.10035919625719712 0.10386648099985672 0.063019876026904204 0.12042027903713058 0.026801761022727844 0.11345668864216747 -0.18676524044528175 -0.1449008188092312 0.11352664856079252 -0.11366793700018905 -0.17081887263304027 0.16674937129317721 0.12195082971431177 -0.21527679362081079 0.13146687123708156 -0.14188355589207771 -0.069078883013092035 -0.13522835804073882 0.15242826563776612 0.11541810318755984 0.070088456403826674 0.12074607393662196 0.059003728552205814 -0.089255073967254073 0.14322578740010852 0.12038949086266836 0.081027599462730304 0.10784659133135327 0.14303488492144678 -0.11811141733056846 0.025228459337099121 0.00060529950231871647 0.18581954386362232 -0.22433677417723358 -0.12988779560355587 -0.16031908777719264
leaf_weight=1575.9924713522196 12.207119114696981 7862.365349330008 1034.1768191456795 249.07934968173504 61.180928349494934 58.572154462337494 209.96837863326073 36282.195644438267 2021.1810659915209 533.3758467361331 1734.9898251593113 1582.7557552903891 43573.389001041651 1097.745754159987 5053.0603354126215 14.299206450581549 106.00509691238403 273.28043338656425 317.41178698837757 16.042918264865875 877.67398236691952 2236.9635345488787 864.1810198277235 124.56379217654467 947.13678422570229 7.7306302636861783 92.546703387051821 25.336610779166222 42.558002311736345 5.9354866705834892 1177.157154083252 16.871844619512558 9.7351427376270276 337.21380549669266 113.87573230266571 43.775734096765518 196.11636264622211 23.924538522958755 598.07391045242548 40.819260105490685 10.89976631104946 142.03557200729847 42.175270408391953 41.742159694433212 381.11288820207119 13.078645955771206 4.6661509275436392 685.20608015730977 5.1695763319730785 5.4550109505653381 5.4038995951414099 62.038478206843138 4.1754895895719519 12.066368330270054 8.6552771180868131
leaf_count=3624 37 24291 4360 675 295 199 732 97101 3577 1638 2481 4963 92251 4736 9233 30 329 1115 711 55 1853 4440 1377 336 1693 32 509 33 319 31 1442 26 47 435 500 162 840 38 436 57 11 298 144 47 488 32 10 342 42 11 11 39 18 74 38
internal_value=0 0.0532058 0.0454583 0.0591283 -0.0301629 0.0554575 0.0490427 0.0454346 0.0488102 0.103629 0.0839311 0.00450201 0.0562224 0.036593 0.0598394 0.053514 0.124659 -0.0569625 0.00539621 0.0817048 0.0687834 0.0532887 0.127455 -0.0887511 0.0938692 0.0960514 0.0624545 -0.00182402 0.0772758 0.117145 0.147136 -0.0988421 0.121825 0.120939 -0.114583 -0.0811793 -0.105203 0.00919933 0.125804 0.0151363 -0.0658721 0.0889488 0.0930324 0.0263854 0.103723 -0.0489515 -0.128777 0.130164 -0.0943323 -0.0990617 -0.136873 0.164856 -0.163047 -0.143383 -0.144536
internal_weight=0 110604 47918.6 62685.7 2168.54 57908.9 45750.1 41462.1 38303.4 4776.78 4287.93 3158.75 57586.6 8960.11 48626.4 1539.22 1840.99 1749.43 590.692 419.104 1411.05 2446.93 3237.55 1158.74 1196.22 2271.03 875.907 255.655 140.833 1395.12 2041.34 114.822 1364.91 353.257 128.175 322.389 254.689 67.7003 1333.83 50.5544 53.4578 620.252 607.066 83.9174 523.148 31.0805 65.8471 1283.28 30.2075 13.1856 97.9506 87.3751 18.0003 18.0019 13.8249
internal_count=268644 265522 124564 140958 7317 131750 117247 109265 100678 9208 7982 8587 130511 29027 101484 4021 2810 6522 1826 795 3491 5172 5187 4696 2368 3122 1968 948 402 1154 2819 546 1019 490 530 1239 1039 200 882 104 330 1020 977 191 786 137 305 778 135 43 520 72 98 105 80
is_linear=0
shrinkage=0.1


Tree=12
num_leaves=62
num_cat=0
split_feature=106 125 36 116 72 0 136 30 49 125 42 113 123 36 128 71 44 125 34 30 71 0 30 104 72 104 108 53 129 40 82 133 1 117 123 33 75 32 85 136 76 101 124 15 123 46 73 76 91 113 22 56 104 71 33 36 118 41 50 72 96
split_gain=397.972 545.543 1194.96 897.7 755.361 717.322 617.77 826.041 585.163 712.786 503.697 491.322 858.112 486.926 446.559 386.088 383.671 504.088 371.037 783.354 746.568 538.659 502.397 725.078 406.346 644.882 622.023 481.374 392.405 354.441 344.315 321.968 316.382 314.135 298.068 250.765 249.774 231.208 256.978 200.994 181.409 152.53 148.545 147.535 125.961 120.974 110.122 107.801 103.947 110.328 99.9681 93.5443 89.6604 99.8677 134.486 76.0919 53.5645 48.0847 26.7096 4.95118 0.0251281
threshold=-0.87124085426330555 -1.5759387016296384 0.91971132159233104 -1.0138503313064573 -0.61847683787345875 0.42267578840255743 1.0000000180025095e-35 1.0541698932647707 1.1536148190498354 -1.7229688167572019 1.1057947278022768 -0.92818996310234059 -1.2195284366607664 0.95233631134033214 1.0000000180025095e-35 -0.46038161218166346 1.1076043844223025 -1.5158174037933347 0.872765213251114 1.0685495138168337 -0.23719298839569089 0.64388835430145275 1.0948309302330019 -0.9168412685394286 -0.65836986899375904 -0.87246611714363087 -0.9862527847290038 1.0148725509643557 1.0000000180025095e-35 0.99056711792945873 -0.26289661228656763 1.0000000180025095e-35 0.62431526184082042 -1.0589635968208311 -1.3777058124542234 0.9335514008998872 -1.1619443893432615 0.95245894789695751 -1.2895379066467283 1.0000000180025095e-35 -1.1359626650810239 -0.8116355538368224 -1.4697415232658384 1.0125545263290407 -1.29973828792572 1.0968457460403445 -0.90569162368774403 -1.1771838068962095 -1.1091703176498411 -0.92818996310234059 1.2838637232780459 0.98226147890090953 -0.89174517989158619 -0.48780724406242365 0.94948816299438488 0.84392186999320995 -0.94911083579063404 1.1004658341407778 1.1003479957580569 -0.77311080694198597 -0.98472493886947621
decision_type=2 2 2 2 2 2 2 2 2 2 2 2 2 2 2 2 2 2 2 2 2 2 2 2 2 2 2 2 2 2 2 2 2 2 2 2 2 2 2 2 2 2 2 2 2 2 2 2 2 2 2 2 2 2 2 2 2 2 2 2 2
left_child=14 3 4 5 6 8 15 -8 33 -10 39 16 13 -13 18 -3 17 -4 19 20 21 -1 32 -24 25 31 28 -27 -26 43 -22 -20 -21 -2 57 -28 -14 38 46 42 -41 -31 -5 -7 -18 50 59 -36 49 -40 -6 -47 60 58 -55 -50 -48 -12 -54 -16 -39
right_child=1 2 11 10 45 29 7 -9 9 -11 34 12 36 -15 37 -17 44 -19 24 22 30 -23 23 -25 26 27 35 -29 -30 41 -32 -33 -34 -35 47 -37 -38 52 48 40 -42 -43 -44 -45 -46 51 56 -49 55 -51 -52 -53 53 54 -56 -57 -58 -59 -60 -61 -62
leaf_value=0.014027221309691383 0.026290485567473532 0.033274521653422727 0.024667466317643924 -0.13308403857592765 0.045589598683090871 0.19309256095989688 -0.044701303952171 0.080222113011452323 0.020382521071100723 0.08587886777472177 -0.13976373501465275 -0.011327389450158126 0.15983913322919652 0.084229013858039506 0.16598439498709833 -0.023905867875195819 0.098341876457229943 0.094965312701726201 0.00077213608427609845 0.058809362535848841 0.090092148849959697 0.093538453199637897 0.058846112600158353 -0.031225292537302825 0.078030243186094847 0.0044093254498003857 0.027110798677719906 0.13839482030356431 -0.13801703091537701 -0.16349835070863816 -0.064532261653185263 0.18029739422129668 0.086816278462144 -0.015039353997562852 -0.017445353067875223 0.072091227496918736 0.076912390293270405 -0.16289435550952505 0.016174828581374569 -0.126544305569676 0.12378615139678939 0.088451834002258672 -0.05631349322553697 0.093657125250174333 0.13713655950068038 -0.098384314645059909 0.16060191485392344 0.12669504463903628 -0.16274458141464421 -0.1802735319451341 -0.050462054616446761 0.10248023089838842 0.10240705876346382 -0.033941225925299294 0.14255648075404401 -0.064300054636247397 -0.15972820439202312 0.04750348609511372 0.19489685194809514 0.22183177825057221 -0.17073287357066808
leaf_weight=10958.676044076681 4951.2304849624634 15265.160675857216 1675.5837151110172 507.0553659144789 166.98345631361008 410.79071550071239 591.17325374111533 5058.5942699313164 3532.3835863992572 3137.3859615176916 77.291973769664764 2202.648420587182 434.96740463003516 703.61004454642534 32.429664880037308 1279.8457605950534 2530.5108098983765 2607.3243132382631 777.47622357308865 15360.572420105338 2327.1704228855669 923.86445292457938 2538.2079433128238 1379.4700917601585 9486.7753250226378 304.16209174692631 5559.7679746747017 2264.3653068244457 84.820780403912067 52.51709708571434 153.5123917683959 114.62765611708164 5469.7910436838865 2925.7300995290279 65.626969218254089 1594.9894407391548 2201.6391761153936 8.2562577724456805 234.73541429638863 44.068478778004646 84.375559538602829 44.295181900262833 501.1384836435318 234.33388249576092 1250.5303662121296 451.17884740233421 7.6545190364122417 247.80751460790634 101.37155617773533 32.552824661135674 308.61869570612907 24.441193282604218 73.616565644741058 124.27832642197609 66.151174336671829 348.23387741297483 16.413797795772552 16.668370544910431 54.220056861639023 31.09670102596283 8.1039816439151746
leaf_count=32703 13464 39913 4148 2429 577 375 3035 8885 13060 6045 404 6693 640 1531 34 4529 4297 4474 2098 30704 3702 1707 4993 4099 18968 740 14501 2740 395 223 652 98 8117 8753 200 3145 4693 35 598 187 132 87 1942 397 1724 1775 10 325 445 134 1012 55 128 384 84 1215 73 42 45 17 34
internal_value=0 0.0418574 0.0486859 0.0269481 0.0348607 0.034287 0.0386005 0.0671505 0.0293951 0.0511913 -0.0457203 0.0722034 0.0492836 0.011807 0.0536946 0.0288513 0.0879577 0.067463 0.0548859 0.049203 0.0306261 0.0202092 0.0599846 0.0271307 0.0658963 0.0970878 0.0594429 0.122528 0.0761157 0.130199 0.0805235 0.0238396 0.0661636 0.0109394 0.0496822 0.0371382 0.090593 -0.00832429 -0.0373804 -0.0799146 0.0378991 -0.0482219 -0.094924 0.156974 0.111173 -0.052401 0.124307 0.0965149 -0.0571364 -0.00775046 -0.0167384 -0.0880623 0.0615307 0.0732667 0.0273703 -0.0864961 -0.0578527 -0.106543 0.141635 0.193322 -0.166777
internal_weight=0 53585.5 36752.8 16832.7 23146 15288.7 22194.8 5649.77 14546.7 6669.77 1544.03 13606.8 5542.87 2906.26 60437.4 16545 8063.95 4282.91 59298.2 39111.3 14363.2 11882.5 24748 3917.68 20187 3460.63 16726.4 2568.53 9571.6 741.937 2480.68 892.104 20830.4 7876.96 407.395 7154.76 2636.61 1139.11 804.488 1136.64 128.444 96.8123 1008.19 645.125 3781.04 951.222 87.5947 313.434 716.894 267.288 475.602 475.62 334.626 318.266 190.43 449.605 24.0683 93.9603 127.837 63.5264 16.3602
internal_count=268644 136046 87981 48065 59781 42404 56362 11920 41322 19105 5661 28200 13557 8224 132598 44442 14643 8622 129362 86677 38764 34410 47913 9092 42685 5676 37009 3480 19363 1082 4354 2196 38821 22217 971 17646 5333 3236 2526 4690 319 310 4371 772 6021 3419 134 525 2392 732 1589 1830 710 641 468 1660 83 446 173 51 69
is_linear=0
shrinkage=0.1


Tree=13
num_leaves=58
num_cat=0
split_feature=41 31 134 55 31 130 43 58 37 31 1 89 108 58 126 20 82 98 76 73 115 0 124 28 111 69 73 131 106 108 80 46 108 45 10 51 123 51 37 33 52 62 122 97 69 24 71 51 30 109 119 118 46 30 70 88 132
split_gain=371.443 412.521 1015.66 688.071 563.381 505.412 633.816 591.119 866.636 588.94 485.644 565.012 482.622 705.424 425.854 423.373 387.074 360.279 356.871 319.106 597.732 519.853 319.062 317.465 312.339 292.716 276.922 177.733 156.504 150.2 125.886 168.983 132.091 117.978 104.924 82.9563 64.974 74.7021 47.5193 42.9271 41.0123 74.4914 38.951 35.707 31.0217 82.0761 55.1934 30.5871 26.1502 25.9742 17.4945 14.7369 11.8347 8.23458 7.51371 2.53417 1.29189
threshold=1.1122053265571596 0.99669215083122265 1.0000000180025095e-35 1.0198255777359011 0.99382564425468456 1.0000000180025095e-35 1.1003454923629763 0.85343027114868175 0.92912515997886669 1.0156078338623049 0.54367077350616466 -1.249752879142761 -1.0286240577697752 0.93094283342361461 -1.8119438290596006 1.5110452175140383 -1.3146263957023618 -0.99522343277931202 -1.134379982948303 -0.81068450212478627 -1.0112461447715757 0.33245410025119787 -1.4481225609779356 1.1349640488624575 -0.92679601907730091 -0.11745033040642737 -0.72428327798843373 1.0000000180025095e-35 -0.83143630623817433 -1.0533002018928526 -0.84319064021110524 1.2433121204376223 -1.0427405834197996 1.2124471664428713 0.75413873791694652 1.1755965352058413 -2.1967910528182979 1.1948360204696657 0.98045215010643016 0.93683412671089183 1.142290532588959 0.68911668658256542 -1.4637432694435117 -0.78592994809150685 -0.0067634957376867524 1.187544107437134 -0.29940572381019587 1.173449754714966 1.082466781139374 -1.1222378611564634 -1.6588090062141416 -0.97220769524574269 1.2206665873527529 1.0136901140213015 -0.10223454236984252 -0.22777301073074338 1.0000000180025095e-35
decision_type=2 2 2 2 2 2 2 2 2 2 2 2 2 2 2 2 2 2 2 2 2 2 2 2 2 2 2 2 2 2 2 2 2 2 2 2 2 2 2 2 2 2 2 2 2 2 2 2 2 2 2 2 2 2 2 2 2
left_child=1 2 10 17 23 9 7 8 -7 19 12 34 13 -1 26 -13 -14 48 -19 20 -3 -21 -9 -5 27 -6 -8 -11 -16 33 40 35 54 50 -12 -32 37 55 47 -34 41 42 -31 -43 45 -42 -46 -38 -4 -40 -2 -26 56 -37 -33 -35 -52
right_child=29 5 3 4 25 6 14 22 -10 24 11 15 16 -15 28 -17 -18 18 -20 21 -22 -23 -24 -25 51 -27 -28 -29 -30 30 31 32 39 36 -36 53 38 -39 49 -41 44 43 -44 -45 46 -47 -48 -49 -50 -51 52 -53 -54 -55 -56 -57 -58
leaf_value=0.054521881738355239 0.025077781960254383 0.10052483149895314 0.05556309651581124 -0.064060227388720678 -0.11942904937761296 0.0010887676707160814 -0.060960369121175154 -0.11078098361398876 0.11254524121511562 0.041604078624761461 0.23348181590490766 0.071645362400646798 0.041826551886621384 -0.056279431183528475 0.14762481893666057 0.039585309118389228 0.015555808195430166 -0.12787624450252877 -0.034450683871321601 0.074969704872793183 0.055162704055897988 0.039104960048302474 -0.014545888948347019 0.05149613139564059 -0.074279904035812319 0.19187403838521505 0.090272149972127846 -0.063833596203975052 0.050317334413956118 -0.034210534099326027 0.10014339839865208 0.097029892556093345 -0.10918820496157766 -0.22026810481487444 -0.10380366082751132 -0.14223636355099731 0.030229367327837039 0.15453449600861804 -0.1138266761423859 0.090154548627211464 -0.17797984852214246 0.058372257587153989 0.15698221381354494 -0.17254680567996583 0.12675351310343877 0.071777367875362097 0.04240982944691439 0.12001684697673731 0.17754356990953996 0.079070959983287462 -0.13194451104255397 -0.1417302504549863 0.013115961875666202 -0.01747541142492598 0.16235623537726201 -0.13543885179351206 -0.18599625676036005
leaf_weight=11868.006434898823 11.159396275877951 3450.8258115947247 24.143811121582985 409.36293230578303 33.9169842004776 2699.6189160868526 266.16930681467056 477.12449625134468 940.73521561920643 468.99726316332817 9.5706255435943586 8448.0961795151234 8742.6297219507396 603.82718438655138 677.94136226177216 8038.215120902285 15645.177453873679 576.30289649963379 1407.2709468305111 4996.2579119056463 18358.921136867255 21149.798537090421 1239.5576133951545 567.08838941156864 39.306187614798546 275.9910611063242 222.11871248483658 242.55654966831207 218.57462130486965 16.388666227459908 17.803958654403687 24.762071616947651 39.983495423570275 4.6621778011322013 254.02734508924186 90.180539859458804 39.216434687376022 13.025154132395981 13.599730581045153 14.801792830228804 14.413561552762983 9.3819490224122983 30.459842503070831 23.39236769080162 264.53443540632725 151.01440323889256 109.78467962890863 1166.3894767463207 64.59656785428524 14.342103704810141 7.4681946635246321 184.14214877784252 4.7552627027034751 5.620040461421012 60.930156402289867 14.395285230129959 10.840400353074074
leaf_count=26976 38 5048 41 1724 137 7867 902 1925 1567 955 9 14913 22484 3509 695 17073 47933 2214 4902 9157 35742 47193 3643 1524 130 324 406 774 488 46 31 33 315 21 4446 510 66 14 53 17 60 15 21 98 283 271 217 730 25 19 53 796 13 12 39 98 49
internal_value=0 0.0422117 0.0362303 -0.0171148 0.0403338 0.0483366 0.0226692 0.00707999 0.0298912 0.0518761 0.0395724 0.0536915 0.0331563 0.0491574 0.0829752 0.0560139 0.0249734 -0.0527751 -0.0615943 0.0534086 0.0623401 0.0459584 -0.0412929 0.00305082 -0.0267264 0.157804 0.00783422 0.00566217 0.123901 0.0839501 0.0518799 -0.00739305 0.0659449 0.1055 -0.0915576 -0.098079 0.110454 -0.0300404 0.114108 -0.0553301 0.0761953 0.00919781 0.0900987 -0.106444 0.0860787 0.0500163 0.102016 0.117096 0.144356 -0.0148154 -0.0777085 -0.129865 -0.127441 -0.134917 0.143479 -0.156191 -0.163948
internal_weight=0 112601 56968.2 3358.67 1286.36 55632.6 6741.84 5357.04 3640.35 48890.8 53609.6 16749.9 36859.6 12471.8 1384.8 16486.3 24387.8 2072.31 1983.57 47955.8 21809.7 26146.1 1716.68 976.451 935.002 309.908 488.288 711.554 896.516 2173.31 873.452 254.082 140.478 1299.85 263.598 113.605 1265.63 32.0826 1233.55 54.7853 619.37 79.6228 46.8485 32.7743 539.747 165.428 374.319 1205.61 88.7404 27.9418 34.2233 223.448 23.0639 95.8006 85.6922 19.0575 18.3086
internal_count=268644 265522 148234 10891 3709 117288 17493 15002 9434 99795 137343 36441 100902 30485 2491 31986 70417 7182 7116 97140 40790 56350 5568 3248 2655 461 1308 1729 1183 3122 1968 957 404 1154 4455 553 1001 133 868 332 1011 180 67 113 831 331 500 796 66 72 153 926 115 522 72 119 102
is_linear=0
shrinkage=0.1


Tree=14
num_leaves=62
num_cat=0
split_feature=40 110 116 60 71 50 72 102 71 106 127 53 54 129 53 44 107 32 109 53 41 101 105 106 31 110 78 82 31 48 72 104 72 72 108 81 104 123 45 123 123 35 132 41 53 58 49 76 103 115 109 50 93 63 72 61 133 46 41 80 72
split_gain=361.161 509.988 505.703 753.695 496.495 476.149 460.622 346.521 337.476 300.944 307.312 295.893 280.684 236.593 231.737 223.606 500.679 318.63 266.083 604.251 220.206 267.958 208.619 154.957 146.011 138.078 135.959 122.515 97.9497 94.8364 91.5136 83.1781 79.7323 76.8078 74.6666 184.583 73.1907 64.1726 80.8638 73.8364 59.0641 82.9906 59.1125 58.3198 58.0661 57.9201 164.933 56.2868 48.764 41.7602 39.1592 36.7812 34.4003 29.174 66.3234 27.8675 14.8793 14.3482 13.2644 6.22277 1.03621
threshold=1.0701200366020205 -1.1851939558982847 -1.4816207885742185 0.79392331838607799 -0.27312174439430231 1.182271480560303 -0.273753672838211 -0.74241903424262989 -0.34801405668258661 -0.9070167839527129 -2.1212216615676875 1.1138556003570559 1.0727896094322207 1.0000000180025095e-35 1.1536081433296206 1.186983108520508 -0.99253135919570912 0.89019510149955761 -1.1245476603507993 1.1004351973533633 1.1150666475296023 -0.7469511330127715 -0.92842817306518544 -0.94714853167533863 0.96962088346481334 -1.2007570266723631 -0.29806095361709589 -0.26289661228656763 0.98280176520347606 1.1870445609092715 -0.41447760164737696 -0.72836554050445546 -0.37117673456668848 -0.49398413300514216 -1.0441777706146238 -0.84401732683181752 -0.84901893138885487 -2.1624554395675655 1.1686318516731264 -2.2463145256042476 -2.1967910528182979 0.88372430205345165 1.0000000180025095e-35 1.0990461111068728 1.1138556003570559 0.92640453577041637 1.2158149480819704 -1.1335623264312742 -0.92687213420867909 -1.0054584741592405 -0.90960058569908131 1.1842635273933413 -0.92372068762779225 0.63811910152435314 -0.32702443003654474 0.78382280468940746 1.0000000180025095e-35 1.2433121204376223 1.1073869466781618 -0.88182124495506276 -0.32082624733448023
decision_type=2 2 2 2 2 2 2 2 2 2 2 2 2 2 2 2 2 2 2 2 2 2 2 2 2 2 2 2 2 2 2 2 2 2 2 2 2 2 2 2 2 2 2 2 2 2 2 2 2 2 2 2 2 2 2 2 2 2 2 2 2
left_child=1 15 5 4 7 37 44 -4 13 11 14 24 -10 -5 20 17 27 18 25 -20 21 -11 48 51 53 -1 -8 32 47 -6 -24 -22 -17 43 57 -36 -26 39 -39 -3 41 -25 -42 -30 -7 46 -18 49 -19 -12 -49 -13 -35 56 -55 -29 -2 -16 -47 -38 -53
right_child=9 2 3 8 29 6 26 -9 12 10 28 23 -14 -15 34 16 45 22 19 -21 31 -23 30 40 36 -27 -28 55 33 -31 -32 -33 -34 52 35 -37 59 38 -40 -41 42 -43 -44 -45 -46 58 -48 50 -50 -51 -52 60 -54 54 -56 -57 -58 -59 -60 -61 -62
leaf_value=-0.036699558243758888 -0.1514695786359454 0.097121981882444863 0.039673594307413823 -0.0035300718719402367 0.20434809699973189 0.071889346812011728 0.17135251595576062 -0.004260470730663035 0.017383523724097492 0.051061927498975382 0.15728767802496837 0.2321514312694189 -0.067069049251469726 0.06115610777639801 0.073724094856996547 0.31801805775078706 -0.14363181516186105 0.11512352501656452 0.18015080619982757 -0.14832137662431974 0.063596722865545768 -0.083937657787252817 0.1204583622796755 0.19205325328428519 -0.17228616318571147 -0.10932198854237413 -0.11559947172684815 -0.16337427420737194 0.074798209430035803 -0.034194465799722497 -0.01783053255243169 -0.13149076571343807 0.14173384657508556 -0.1529099765373105 0.091527907429633626 -0.088890371432671089 0.20357260663552543 0.20698583745246585 -0.15583264366457694 0.15705614166908255 0.048570230597552749 -0.15712500008542141 0.11567523760977308 0.13218925171337079 -0.11882859567187878 -0.12203698310649258 0.30752560516078931 0.095375270210145913 -0.16046938784146011 -0.044763280568946497 -0.1390961728424096 -0.1552913299983332 0.086952402387572722 0.0645316484844735 -0.15311325237811405 0.11009649048401188 0.012690233756955422 0.15516187827484473 -0.0067508813658386626 0.12694381042831807 -0.11866818316251376
leaf_weight=518.97496408596635 59.779615618288517 296.44368095695972 101230.24194412865 1564.4250703379512 212.88993916288018 17.522941805422306 124.99837987869978 1827.6684779766947 602.5711967498064 210.17438422143459 24.131263002753258 3.0179259777069083 1134.4704676382244 885.46308325231075 27.229673251509666 29.505420967936516 20.530262999236584 7.4396713823080054 136.27692149579525 95.076738283038139 352.74768303334713 489.37084037996829 225.30792431533337 10.618911534547808 7.7055833637714377 528.34084239602089 19.024596460163593 14.827940315008165 306.50858567655087 18.082042038440704 60.757535070180893 23.298454608768225 196.71524963155389 16.686428472399715 240.18778662383556 74.231402978301048 19.834307134151459 9.8242634087800997 16.393442288041115 670.40856777131557 141.91575860232115 18.959773875772953 1750.1589512825012 419.25987766683102 179.42968975007534 118.73436744883657 13.386714980006216 8.972842335700987 46.863418579101562 17.755787819623947 34.547156751155853 12.53903822600841 9.3179631233215314 29.659000277519226 26.5215660110116 4.9770292788743964 6.08325071632862 105.28514089435339 10.895906355231999 22.755708873271942 20.125606983900074
leaf_count=1670 282 302 228255 5342 229 28 75 6962 1716 465 19 1 6507 2001 56 25 104 9 96 473 563 2127 365 16 32 2291 224 64 550 56 184 174 215 80 397 538 15 8 75 368 250 97 1447 549 1360 896 8 15 218 58 143 57 16 59 138 14 15 57 97 25 166
internal_value=0 0.03737 0.0382962 0.0375367 0.0392227 0.0994866 -0.00246971 0.0388945 -0.00405646 0.066302 0.0417053 0.0935555 -0.0377729 0.0198495 0.0149452 -0.0123086 0.0537007 -0.0290072 -0.0518953 0.0451624 -0.0102034 -0.0433778 0.0569771 0.104616 -0.0320624 -0.0733355 0.133448 0.143846 0.0903722 0.185673 0.0910871 0.0515098 0.164726 0.101901 0.0754679 0.0489329 0.111319 0.134494 -0.0198778 0.13868 0.10845 -0.0317681 0.110642 0.107952 -0.10186 -0.0819065 0.0344358 -0.0111097 -0.122712 0.0716389 -0.0907534 -0.101866 -0.0669618 -0.0911516 -0.0382136 -0.0946505 -0.136307 0.138428 -0.112347 0.16263 -0.132727
internal_weight=0 110838 108810 107476 103289 1334.05 340.976 103058 4186.93 4489.38 2359.71 2129.67 1737.04 2449.89 1522.53 2028.61 409.573 1619.04 1278.67 231.354 1075.59 699.545 340.369 1957.34 172.339 1047.32 144.023 246.026 837.18 230.972 286.065 376.046 226.221 751.773 446.934 314.419 50.2956 993.07 26.2177 966.852 1921.65 29.5787 1892.07 725.768 196.953 163.547 33.917 85.407 54.3031 41.8871 43.52 35.6826 26.0044 122.043 56.1806 19.805 65.8629 132.515 129.63 42.59 32.6646
internal_count=268644 260237 253508 251068 235502 2440 1687 235217 15566 8407 5807 2600 8223 7343 4377 6729 1423 5306 4530 569 3329 2592 776 2034 566 3961 299 318 1430 285 549 737 240 1195 1048 935 72 753 83 670 1810 113 1697 1099 1388 1105 112 235 227 77 158 224 96 494 197 78 297 113 993 40 223
is_linear=0
shrinkage=0.1


Tree=15
num_leaves=54
num_cat=0
split_feature=73 30 105 89 115 78 122 123 116 37 37 33 31 30 131 32 22 30 31 3 42 31 101 127 35 105 77 131 78 86 80 74 64 19 69 31 112 32 57 98 83 72 107 79 111 78 100 121 43 96 37 21 104
split_gain=346.155 392.625 650.616 369.988 364.032 551.521 483.607 478.136 853.806 736.381 527.823 432.747 431.938 419.344 254.945 244.531 230.526 183.297 149.452 140.17 184.153 216.619 166.684 138.264 135.658 131.381 235.349 124.823 124.217 115.942 103.312 84.7642 72.1552 91.9773 63.7476 57.6246 48.3392 44.0191 29.5962 47.4459 25.4265 24.7274 22.4793 21.8811 96.1615 20.6239 13.5426 11.0549 9.04744 0.181167 0.146736 0.0032526 0.000235278
threshold=-0.93614056706428517 1.0968321561813357 -0.93432328104972828 -1.2869187593460081 -0.91890481114387501 -1.3999191522598264 -1.1331862211227415 -1.252793490886688 -0.97139844298362721 0.92957314848899852 0.97325417399406444 0.8338870406150819 1.0093707442283633 1.0609273910522463 1.0000000180025095e-35 0.95290598273277294 1.5841071605682375 1.1032109856605532 1.0002679228782656 0.65436804294586193 0.92717137932777416 1.0076944828033449 -0.94967335462570179 -1.7715070247650144 0.93354383111000072 -0.90972396731376637 -1.1857700943946836 1.0000000180025095e-35 -1.2910082340240476 -1.0031877756118772 -1.0874161124229429 -0.95812472701072682 0.43013033270835882 1.3229985833168032 -0.25628028810024256 0.9881390929222108 -0.932299643754959 0.89459699392318737 0.84791782498359691 -0.99896034598350514 -1.1908841133117674 -0.76797026395797718 -0.99947449564933766 -1.3095532059669492 -0.89466983079910267 -1.0681554079055784 -0.9482017159461974 -0.93113434314727772 0.81549009680747997 -1.0629528164863584 0.96410042047500621 1.6544675230979922 -0.82640808820724476
decision_type=2 2 2 2 2 2 2 2 2 2 2 2 2 2 2 2 2 2 2 2 2 2 2 2 2 2 2 2 2 2 2 2 2 2 2 2 2 2 2 2 2 2 2 2 2 2 2 2 2 2 2 2 2
left_child=3 4 16 38 7 15 24 8 11 13 -10 -2 -8 -9 -11 18 23 25 -6 28 21 22 -21 35 -7 26 -4 -17 34 31 41 -18 33 -30 46 -3 -27 -25 48 -40 -23 -19 -31 47 -45 -32 -5 -22 51 -50 -34 52 -1
right_child=1 2 17 19 5 6 12 9 10 14 -12 -13 -14 -15 -16 27 29 30 -20 20 43 40 -24 37 -26 36 -28 -29 32 42 45 -33 50 -35 -36 -37 -38 -39 39 -41 -42 -43 -44 44 -46 -47 -48 -49 49 -51 -52 -53 -54
leaf_value=-0.10368013155066245 -0.0072494300521616251 0.16100893734052568 0.10898161103976765 -0.17761417620367212 -0.037324728121816309 -0.13876144794801729 0.018000881114992873 0.011935925072964098 -0.058336842725575211 0.095910944111784746 0.052566970334909181 0.035357455699706941 -0.076670851358353651 0.046592021159777543 0.022246344130755828 0.084850012843668263 -0.060792066435307116 -0.14208031213748401 0.15298630473054628 0.093033601466130267 0.17357614156914863 -0.2097364520834494 0.013444233216793715 0.037984893002802507 -0.017048325916998053 -0.038424242505328672 -0.036285447088015163 0.18249499128247873 0.14008463186144601 -0.023976897026650148 0.19991578199235727 0.092155829882133333 -0.17706549221491125 0.02574135131452231 0.17512485338113917 -0.047607127079003553 -0.10546476476088998 0.10310223476515057 0.16622698165962299 -0.16401815034530801 0.028074877756362027 -0.083356341658087377 -0.15675460967505339 0.15537892201980319 -0.12263438705914481 0.0077762785159344126 -0.045669892314056833 0.12840767311894033 -0.20311488647230719 -0.17841312079518082 -0.19877424517638353 -0.11075187550381221 -0.10337389472343635
leaf_weight=49.470772344619036 2470.3987978436053 15.078191772103308 151.27785800397396 39.972857728600502 238.62860191427171 281.4857425391674 6971.0016883742064 4219.3805702477694 1632.8514021635056 3588.8938070237637 582.12851153314114 68021.288490533829 517.71837894618511 20239.374459281564 540.58316031098366 828.92013849318027 71.669232025742531 247.13614355027676 49.891734220087528 1496.1000988520682 229.9481315612793 29.35668209195137 319.29641570150852 125.02331440150738 135.72889459133148 220.33379227668047 424.42604219913483 155.47177699953318 93.507599994540215 15.727334335446356 10.338221505284311 73.287836298346519 7.7949736118316633 284.0521174762398 6.7726390212774268 108.65433047711849 210.12285853922367 611.8881139010191 10.189583212137224 7.5915144495666018 5.3090145587921134 101.01255915313959 67.367983549833298 69.009878307580948 15.177730575203894 12.154346033930777 9.6585925072431547 70.890276923775673 7.7198128402233124 4.8247108459472638 5.1845722496509552 0.62663108855485816 50.901537198573351
leaf_count=1454 9791 18 210 171 1556 1203 17751 11321 5433 5946 1364 156618 1801 38687 1280 1540 226 1073 62 1984 94 119 683 225 407 674 1286 134 121 43 11 116 32 754 5 306 772 729 7 39 10 350 310 52 50 31 30 64 31 20 21 14 1615
internal_value=0 0.0336427 -0.00582517 0.0691539 0.0345235 0.015454 0.00561818 0.0362515 0.0319434 0.0472081 -0.0291897 0.0338643 0.0114559 0.0406135 0.0862676 0.0765431 0.0519435 -0.0515053 -0.00441562 0.0771785 0.0874014 0.0743068 0.0790352 0.0756306 -0.0991656 -0.0293598 0.00188641 0.100272 0.0260554 -0.0374491 -0.111623 0.0165358 0.0460903 0.05406 -0.112666 -0.0221849 -0.0711494 0.0920545 -0.0947316 0.0252311 -0.173316 -0.125042 -0.131624 0.150322 0.105257 0.096089 -0.151937 0.162933 -0.113518 -0.193614 -0.185737 -0.10357 -0.103525
internal_weight=0 112939 2465.5 2813.36 110474 9178.85 7905.93 101295 72706.7 28588.2 2214.98 70491.7 7488.72 24458.8 4129.48 1272.91 1088.7 1376.8 288.52 2682.03 2235.09 1850.06 1815.4 860.644 417.215 1006.16 575.704 984.392 446.943 228.052 370.641 144.957 390.539 377.56 56.4041 123.733 430.457 736.911 131.325 17.7811 34.6657 348.149 83.0953 385.026 84.1876 22.4926 49.6315 300.838 113.543 12.5445 12.9795 100.999 100.372
internal_count=268644 261274 6380 7370 254894 24454 21162 230440 173206 57234 6797 166409 19552 50008 7226 3292 1973 4407 1618 4190 3056 2796 2667 1278 1610 2942 1496 1674 1134 695 1465 342 928 875 206 324 1446 954 3180 46 129 1423 353 260 102 42 201 158 3134 51 53 3083 3069
is_linear=0
shrinkage=0.1


Tree=16
num_leaves=61
num_cat=0
split_feature=40 110 116 60 50 72 71 35 108 71 53 54 12 124 53 105 35 46 107 32 109 53 104 78 116 72 110 71 82 109 87 123 45 106 34 31 7 108 105 123 45 123 110 103 116 22 58 47 103 119 106 106 41 37 63 41 46 49 33 108
split_gain=321.942 406.003 462.546 595.061 389.774 392.091 373.497 320.774 287.33 273.116 263.66 231.958 220.633 213.315 235.277 263.41 229.449 182.284 470.805 252.248 246.067 474.081 165.265 110.692 106.651 102.009 100.12 94.2587 81.4974 80.1584 152.134 78.1875 72.0209 71.8966 71.0432 67.838 64.6282 61.044 58.0375 55.5621 65.6362 60.5939 52.196 50.1931 69.7008 45.4913 42.2889 128.794 41.4089 33.3252 24.4415 17.0933 12.7881 0.848582 0.430618 0.225221 0.26151 0.129687 0.0718952 0.0368011
threshold=1.0701200366020205 -1.1851939558982847 -1.4816207885742185 0.79392331838607799 1.182271480560303 -0.273753672838211 -0.27312174439430231 0.94208499789237987 -1.0582113265991209 -0.34801405668258661 1.1138556003570559 1.0748564004898074 0.69538912177085888 -1.6433568596839903 1.1536081433296206 -0.83957844972610463 0.96248826384544384 1.2137761116027834 -0.99253135919570912 0.89019510149955761 -1.1245476603507993 1.1004351973533633 -0.87488555908203114 -0.29806095361709589 -1.4096912145614622 -0.48732672631740565 -1.2007570266723631 -0.29940572381019587 -0.26289661228656763 -1.1159315705299375 -0.73082071542739857 -2.1967910528182979 1.1788550615310671 -0.93179309368133534 0.85959008336067211 0.98280176520347606 0.35371004045009619 -1.0839909911155698 -0.75914093852043141 -2.1624554395675655 1.1686318516731264 -2.2463145256042476 -1.1708939671516416 -0.78364482522010792 -1.5073469281196592 1.0614996552467348 0.92640453577041637 1.2272337079048159 -0.92687213420867909 -1.6067283749580381 -0.91245526075363148 -0.88677114248275746 1.1073869466781618 1.0056000351905825 0.63811910152435314 1.1096953749656679 1.2185171246528628 1.1971682310104372 0.95479786396026622 -1.0917552113533018
decision_type=2 2 2 2 2 2 2 2 2 2 2 2 2 2 2 2 2 2 2 2 2 2 2 2 2 2 2 2 2 2 2 2 2 2 2 2 2 2 2 2 2 2 2 2 2 2 2 2 2 2 2 2 2 2 2 2 2 2 2 2
left_child=1 17 4 6 39 42 7 -4 10 12 37 -11 -5 14 15 33 -17 19 28 20 26 -22 48 -7 31 35 -1 -24 49 51 -31 34 -8 -10 -12 36 -15 55 -37 41 -41 -3 -6 -39 -45 -33 47 -20 -21 -19 -30 -16 -48 58 -26 57 -57 -2 -27 -56
right_child=8 2 3 9 5 23 32 -9 13 11 24 -13 -14 25 29 16 -18 18 46 22 21 -23 27 -25 54 53 -28 -29 50 30 -32 45 -34 -35 -36 38 -38 43 -40 40 -42 -43 -44 44 -46 -47 52 -49 -50 -51 -52 -53 -54 -55 59 56 -58 -59 -60 -61
leaf_value=-0.041200627538223129 -0.1528724710254209 0.088236933024025743 0.030244238896792203 0.026894171041556787 -0.1332346433987876 0.15596072611382228 0.17110001273844949 0.063506143602085258 -0.095663233549722337 0.0067421833665852436 0.07559947973560896 -0.067939033435899882 -0.056542691713298988 0.21441442418943202 0.1415078705550695 -0.092230677078924989 0.035875127239632897 0.12411373515984721 -0.13965057209117779 0.1008722013085752 0.159186962109331 -0.14270750293491916 0.097530019397117251 -0.1139941510919673 -0.15329111303247467 -0.12935491639971292 -0.10435789971636392 -0.067466486730492242 -0.15592774577538393 0.078191909055319753 -0.071295008654754743 0.091804780960055593 -0.036069815907842126 0.067015443212440434 -0.15823226199879459 0.09023637073946493 -0.028499387396250769 0.12477864619988875 -0.043531449022353425 0.17589194100025773 -0.14992383031845516 0.14339297470565104 -0.017947372293553313 0.087444066756460104 -0.14302433093128042 0.12649420793253699 -0.12048402587378876 0.23267663358868412 -0.15469060418589758 0.22514101774938833 0.10689445465155188 0.048405853700590529 -0.0078560725889126031 -0.17691802254125466 -0.11507103522542482 -0.13385149932870849 -0.16537421369164304 -0.16815077445139323 -0.14550110980849756 -0.12639138109626732
leaf_weight=500.25905223935843 20.8772286772728 287.81897487491369 101030.39058256522 2107.7682770267129 131.04708122462034 122.73454046994448 223.87602250277996 2985.0472165644169 29.629810079932213 702.26473979651928 32.422930017113686 1019.9153883308172 373.00970360264182 12.417783647775648 130.66624362766743 458.70254760794342 201.11226832866669 212.84612177312374 23.651385016739368 7.3841857165098181 136.11435209214687 84.190322410315275 249.99143755435944 17.334322825074196 4.1649001687765148 8.1128844022750872 503.75029776245356 40.189834401011467 12.72303853929043 277.32000234723091 90.231023689731956 1070.4533542990685 18.140209585428238 326.89241120964289 21.682065516710281 846.57497423887253 92.826405271887779 22.034051582217216 33.726534307003021 10.179940953850748 15.747690066695212 646.74162109196186 56.07553911395371 21.425535924732685 33.861630968749523 584.43235243856907 126.04235879331827 15.301272511482237 44.84142655134201 38.567146942019463 4.9015339016914359 23.225153636187315 10.957663953304289 7.8582935184240332 13.597084462642673 10.786386057734488 3.4810615405440322 7.5704044848680487 4.1779861450195304 3.6406126990914318
leaf_count=1624 94 302 229503 6044 1017 75 228 5714 103 2033 89 6190 1299 5 76 2085 385 241 128 9 96 421 408 224 20 47 2222 141 57 437 519 1001 57 582 116 1325 275 24 107 8 75 368 371 38 177 468 1009 11 216 37 12 115 97 33 126 65 18 32 20 25
internal_value=0 0.0298916 0.0307077 0.0300003 0.0902891 -0.00397524 0.0314875 0.0311988 0.0574871 -0.00689076 0.0874678 -0.0374858 0.0143486 0.0356755 0.0122557 -0.0157617 -0.0531839 -0.0146265 0.0418557 -0.030669 -0.0518889 0.0438168 0.045205 0.122552 0.0974098 0.071486 -0.0728891 0.0746782 0.125039 0.0668639 0.041494 0.100188 0.155572 0.0534956 -0.0181064 0.0760398 0.000162064 -0.0558506 0.0851114 0.1224 -0.0219991 0.126406 -0.0986862 -0.00284685 -0.0537105 0.104056 -0.0853346 0.00660595 -0.118557 0.139611 -0.0828348 0.127457 -0.111476 -0.151253 -0.124434 -0.151796 -0.141543 -0.156938 -0.134843 -0.117462
internal_weight=0 111760 109748 108460 1287.68 327.191 104257 104015 4393.9 4202.96 1850.43 1722.18 2480.78 2543.47 1537.78 1016.34 659.815 2011.71 444.991 1566.72 1224.31 220.305 342.407 140.069 1730.39 1005.69 1004.01 290.181 269.038 521.442 367.551 1708.99 242.016 356.522 54.105 985.546 105.244 120.036 880.302 960.488 25.9276 934.561 187.123 77.3212 55.2872 1654.89 175.953 38.9527 52.2256 251.413 17.6246 153.891 137 20.1492 21.4026 42.7151 14.2674 28.4476 12.2909 17.2377
internal_count=268644 260237 253508 251068 2440 1687 235502 235217 8407 15566 2293 8223 7343 6114 4302 3155 2470 6729 1592 5137 4363 517 774 299 1845 1812 3846 549 347 1147 956 1674 285 685 205 1712 280 448 1432 753 83 670 1388 239 215 1469 1245 139 225 278 69 191 1106 100 171 209 83 126 67 151
is_linear=0
shrinkage=0.1


Tree=17
num_leaves=58
num_cat=0
split_feature=2 96 31 108 136 32 74 31 61 106 33 29 30 81 51 33 74 70 73 103 31 73 42 29 132 30 103 30 1 70 92 113 77 70 42 51 119 32 15 135 30 6 132 112 18 115 122 95 6 98 75 119 80 80 102 111 0
split_gain=315.557 506.41 422.322 607.167 490.493 577.194 858.763 561.035 591.271 526.453 401.655 420.645 400.636 371.878 346.236 305.138 241.7 230.499 306.255 220.108 219.567 210.337 189.566 172.608 169.735 166.071 339.684 217.81 208.856 373.473 162.187 162.181 153.568 152.938 140.915 122.401 118.797 106.996 102.275 99.1668 93.8156 85.9593 77.3756 68.6824 67.6183 66.3189 87.9516 63.0741 102.54 84.2931 61.5459 53.9282 96.8996 43.1017 42.088 35.4712 25.1767
threshold=0.62731075286865245 -1.0408610105514524 0.99929609894752514 -1.0286240577697752 1.0000000180025095e-35 0.95988848805427562 -0.96537315845489491 1.0044716000556948 0.60654604434967052 -0.87466162443161 0.78488716483116161 1.2051754593849184 1.0968321561813357 -1.4372253417968748 1.1421187520027163 0.82560357451438915 -1.0630413889884947 -0.52831202745437611 -0.93614056706428517 -0.97055622935295094 1.0028491020202639 -0.8970125913619994 1.1449602842330935 1.1595582365989687 1.0000000180025095e-35 1.0939009189605715 -0.92253923416137684 1.1010968685150149 0.6316848397254945 -0.47842869162559504 -1.1562647819519041 -0.92964139580726612 -1.2036433219909666 -0.43200372159481043 0.90858647227287304 1.070236384868622 -0.87807828187942494 0.94939836859703075 1.4114362597465517 1.0000000180025095e-35 1.0895226597785952 0.83724352717399608 1.0000000180025095e-35 -0.9849281609058379 1.4414376616477969 -0.91657349467277516 -0.97192609310150135 -1.074596583843231 0.70047453045845043 -0.98354572057723988 -0.94820350408554066 -0.90400049090385426 -1.4284578561782835 -0.93162724375724781 -0.94692331552505482 -0.92957076430320729 0.57077217102050792
decision_type=2 2 2 2 2 2 2 2 2 2 2 2 2 2 2 2 2 2 2 2 2 2 2 2 2 2 2 2 2 2 2 2 2 2 2 2 2 2 2 2 2 2 2 2 2 2 2 2 2 2 2 2 2 2 2 2 2
left_child=1 16 3 15 7 6 -6 8 -4 -9 11 19 17 35 -15 53 37 18 -13 38 -7 43 -17 -23 41 28 30 31 29 34 54 -28 -32 44 -12 -5 -31 45 50 47 -19 -14 -35 -21 -30 -1 -47 49 -49 -18 -2 -39 -53 -3 -27 -40 -29
right_child=10 2 4 13 5 20 -8 9 -10 -11 25 12 24 14 -16 22 39 40 -20 21 -22 23 -24 -25 -26 26 27 56 33 36 32 -33 -34 42 -36 -37 -38 51 55 -41 -42 -43 -44 -45 -46 46 -48 48 -50 -51 -52 52 -54 -55 -56 -57 -58
leaf_value=0.13808091941709852 0.11895864005678143 0.094916260613102515 0.065639892507530259 -0.10754845820090884 0.063468260305679453 0.035957570506596821 -0.026424639886521217 0.034415980862558919 0.028065456031388238 -0.0036063013760581466 -0.015236177037955798 0.091388176048104161 -0.098613860755347477 0.0090134512133992605 0.032949378511608007 0.0369208677104736 -0.13762834507259755 0.11831637788630407 0.01822426543932841 0.021012181607444134 0.088806376274944518 -0.14066290665531211 0.075720925542760262 0.033368405352856824 0.13606771284787175 -0.17360611391065642 0.038223398546596433 0.066154762483210755 0.10937059810068478 0.071149762643165221 0.12141889300491998 -0.065303757244079705 0.047390880583621627 -0.062405955192916057 0.11192678886094361 0.062504256139543427 -0.14778752067828668 0.19873367499143266 -0.078883129131506274 0.18645821882697963 -0.032714071279359644 0.0037561528620816634 0.053224099234931405 -0.12284368711320517 0.071786467989794503 -0.05930049791260792 0.071469085071613855 -0.15784271816292625 0.016239024340797336 -0.044843961547631095 -0.15701448645106519 0.15422572421792394 -0.083046191390547044 -0.087329859265385362 0.01933962467592026 0.053392276162216007 -0.15675585293731462
leaf_weight=26.172798350453377 129.78131265379488 13.820324957370756 6021.1320817619562 43.321969699114561 2721.6830756515265 985.15007968246937 1743.51656883955 6684.6051134243608 13755.432052373886 7999.1642964780331 895.86529812216759 741.40384532511234 316.02858298271894 34498.92957855016 7326.7091887500137 12632.551750030369 305.7742757499218 491.65138407051563 2505.7355269044638 36.27061715722084 3891.4067748337984 72.922699669376016 1398.6183748096228 260.85948407649994 43.152854517102242 35.647054344415665 426.14032807946205 5.3079002499580374 1392.553055241704 2618.7496619671583 381.33568701148033 234.63397970795631 1056.8860895335674 85.579868905246258 96.534128621220589 1842.9077017866075 25.020558759570122 37.304322078824043 60.648504227399826 13.391458615660666 44.883498892188072 110.77751073241234 178.73844674229622 390.59464962407947 729.43494211137295 216.74331419914961 67.432961832731962 48.038813635706902 114.45168054103851 144.03569527715445 8.6175956912338716 39.114002391695976 30.738046139478683 212.69044529274106 16.556266307830811 30.452242411673069 111.56991405785084
leaf_count=31 284 23 9507 166 4276 1937 4920 13351 29485 20268 2192 860 1330 90757 20728 29539 1225 559 5154 90 5078 634 1974 540 23 134 862 11 1309 3804 324 686 1778 250 105 3602 91 33 215 9 113 299 325 4530 1006 668 132 213 272 462 44 46 111 1527 34 260 458
internal_value=0 0.0258991 0.0266096 0.02101 0.0340204 0.0543446 0.028368 0.0285107 0.0395053 0.0137029 0.0421424 0.0204814 0.0341463 0.0151651 0.0132064 0.0389297 -0.0434201 0.0449623 0.0349294 -0.0382223 0.07813 -0.0641204 0.0407884 -0.0046529 -0.0529344 0.055843 0.0327801 -0.020796 0.0645285 0.0494424 0.0607342 0.001462 0.067019 0.0875162 -0.0028666 0.0585986 0.0690777 0.0155056 0.0476135 -0.0827394 0.105682 -0.0720437 0.0157859 -0.11062 0.096451 -0.0142409 -0.0282698 -0.088627 -0.0352266 -0.107917 0.101775 0.101658 0.0498154 -0.0762103 -0.112413 -0.0346674 -0.146633
internal_weight=0 102815 101772 57969.5 43802.1 9341.76 4465.2 34460.3 19776.6 14683.8 13534.3 5243.78 4253.63 43711.9 41825.6 14257.7 1043.2 3783.67 3247.14 990.147 4876.56 760.647 14031.2 333.782 469.959 8290.55 2268.08 777.652 6022.48 3636.17 1490.43 660.774 1438.22 2386.31 992.399 1886.23 2643.77 417.505 229.5 625.692 536.535 426.806 264.318 426.865 2121.99 310.349 284.176 612.3 162.49 449.81 138.399 107.156 69.852 226.511 52.2033 91.1007 116.878
internal_count=268644 240340 237138 148316 88822 16211 9196 72611 38992 33619 28304 14935 8338 115253 111485 33063 3202 6686 6014 6597 7015 5794 31513 1174 1652 13369 4287 2017 9082 6192 2270 1548 2102 2890 2297 3768 3895 1021 803 2181 672 1629 575 4620 2315 831 800 2172 485 1687 328 190 157 1550 168 475 469
is_linear=0
shrinkage=0.1


Tree=18
num_leaves=58
num_cat=0
split_feature=1 97 35 86 3 44 27 60 20 30 29 70 124 96 4 70 103 30 116 101 70 70 130 30 129 30 127 42 64 4 132 102 122 70 16 37 74 87 70 31 58 83 99 0 117 2 32 32 32 114 31 31 75 131 81 105 78
split_gain=271.552 470.933 448.119 357.615 306.193 433.16 655.098 401.652 295.669 287.683 346.756 327.847 245.585 390.477 237.21 369.98 314.978 241.749 230.115 226.2 207.363 191.609 203.421 179.899 172.145 175.546 166.384 179.495 169.077 142.615 135.108 106.685 94.3878 72.0115 146.775 63.5158 56.4632 94.9395 46.6086 35.7921 54.5487 22.3001 22.1198 17.4743 14.6024 5.47471 0.523336 0.303233 0.244373 0.212466 0.159359 0.158872 0.0407017 0.0268535 0.00347694 0.000374985 8.41867e-05
threshold=0.57613161206245433 -0.99650275707244862 0.79132887721061718 -1.3467994332313535 0.57546168565750133 1.0853397250175478 1.2234929203987124 0.71103182435035717 1.5521095395088198 1.0968321561813357 1.2051754593849184 -0.4902008175849914 -1.5812696218490598 -0.89463567733764637 0.72546473145484935 -0.47054645419120783 -0.92122530937194813 1.0915791988372805 -0.95413264632225026 -0.85627454519271839 -0.52831202745437611 -0.43745344877243036 1.0000000180025095e-35 1.0618810057640078 1.0000000180025095e-35 1.04402232170105 -1.5018284320831297 0.99946048855781566 0.3410621732473374 0.6509978473186494 1.0000000180025095e-35 -0.94692331552505482 -1.1331862211227415 -0.39634075760841364 1.1371540427207949 0.82274708151817333 -0.89026096463203419 -0.87981343269348133 -0.056653844192624085 1.0156078338623049 0.82886475324630748 -1.1929705142974851 -0.95637136697769154 0.64388835430145275 -0.98118352890014637 0.72420653700828563 0.94886213541030895 0.94886213541030895 0.94775807857513439 -0.87288349866867054 1.0156078338623049 0.99840620160102855 -1.1284998655319212 1.0000000180025095e-35 -1.3932092189788816 -0.88409721851348866 -1.596536338329315
decision_type=2 2 2 2 2 2 2 2 2 2 2 2 2 2 2 2 2 2 2 2 2 2 2 2 2 2 2 2 2 2 2 2 2 2 2 2 2 2 2 2 2 2 2 2 2 2 2 2 2 2 2 2 2 2 2 2 2
left_child=1 18 19 33 5 7 -7 -4 14 10 11 -10 35 -14 15 16 -5 -17 32 21 -12 22 -3 -23 25 -16 46 29 -29 -28 31 -11 42 34 -2 -6 37 -21 -38 44 -41 -26 48 47 -34 53 52 51 -1 -49 -48 -35 -20 -36 -47 -45 -57
right_child=3 2 4 8 12 6 -8 -9 9 30 20 -13 13 -15 24 17 -18 -19 26 36 -22 23 -24 -25 41 -27 27 28 -30 -31 -32 -33 39 43 45 -37 38 -39 -40 40 -42 -43 -44 55 -46 54 50 49 -50 -51 -52 -53 -54 -55 -56 56 -58
leaf_value=-0.19498759075472558 0.14943803651664947 -0.030266755939278411 0.019877499305635416 0.050651127858211409 -0.042732712586642255 0.024739558566131192 0.068433757347368729 -0.0067032044823476522 -0.061261277781357842 0.0031175026267928679 0.028891834637311598 0.08795423077940373 0.036459763258129128 -0.090596700783990958 -0.047786237063805678 0.062052747681922239 -0.011321466435853075 -0.0026566428612199997 -0.17966874605122532 -0.09831500051344616 0.086599250368607231 -0.074611141094251571 0.070051266201086065 0.08039128708166271 -0.18643813289172784 0.082636212990773339 -0.098799711168049267 0.13506099553657522 -0.013588274222119282 -0.022904319747596991 0.12522379933537278 -0.083908856589517494 0.18911896390663613 -0.16455118677997099 -0.17394546940432098 0.1013045108411504 -0.12225272339631524 0.23688051451723055 0.26827837594027309 -0.097394159739663255 0.20272651194074101 0.041813757108332517 0.060091501000605611 -0.10456055892900035 0.11316570522420362 -0.10315816393297139 -0.16476045088481275 -0.18578695054842603 -0.16883477121561133 -0.16265174460586648 -0.1547543426650981 -0.1838982038633592 -0.19156919871619124 -0.18307602019584812 -0.11073356962646755 -0.10283333496031576 -0.10346771225985499
leaf_weight=5.9608149826526668 32.169900417327881 1831.8739272933453 20624.212748244405 1365.9901443570852 32.069895952939987 44659.368600448593 3716.8771007955074 7848.0499899722636 691.50545763969421 213.65818224102259 3295.8503296524286 187.08262394368649 16421.499298710376 245.49692718684673 107.83006232604384 5194.6967805027962 2052.3238427937031 649.52702109515667 6.394463911652565 25.307276986539364 767.73279631137848 92.595671370625496 227.20360710844398 391.31900066137314 28.248632222414017 2404.2034888118505 430.69968054443598 101.66445523500443 309.33890626952052 582.36794935166836 44.946684762835503 413.45461244136095 38.728459477424622 4.9036904126405707 7.471005365252493 674.76778915524483 243.63837059214711 12.685429237782953 3.0948294196277848 16.93316508829594 9.4279717653989774 5.0447389185428611 5.2110435664653769 1.3099333960562933 73.06841167062521 38.562611347064376 69.276539608836174 4.9133326262235668 8.9185552448034269 20.665903061628342 20.664124980568886 31.570448085665703 5.2202223241329175 5.6625015437602997 0.61554998159408469 67.890542898327112 2.158444980159401
leaf_count=24 28 5438 46985 2475 85 109171 6789 20480 2408 549 6254 289 32440 796 377 8107 4957 1458 26 109 1045 353 506 659 116 2694 1621 146 929 1659 27 1673 20 21 31 893 2132 15 15 59 4 9 10 32 92 1316 293 20 37 88 91 128 21 23 13 2541 67
internal_value=0 0.0229606 0.0238703 0.0364307 0.0250475 0.022337 0.0280967 0.0125508 0.0380231 0.0191304 0.0274779 -0.029488 0.0370367 0.0345883 0.0470059 0.0395759 0.0134434 0.0548609 -0.0294706 -0.0153542 0.0397945 -0.00589031 -0.0191974 0.050732 0.0740438 0.0770378 -0.0413765 -0.0325575 0.0231811 -0.0551708 -0.0422552 -0.0542589 0.085311 -0.0908863 -0.0186433 0.0947694 -0.0998797 0.0136038 -0.117354 0.114762 0.00994299 -0.151853 -0.117215 -0.136633 0.139477 -0.122008 -0.165041 -0.175443 -0.179312 -0.167096 -0.162462 -0.181297 -0.185017 -0.177882 -0.103277 -0.102884 -0.102853
internal_weight=0 98733.9 97050.1 17640 94222.3 76848.5 48376.2 28472.3 17422.1 5614.23 4942.17 878.588 17373.8 16667 11807.9 9262.54 3418.31 5844.22 1683.87 2827.72 4063.58 2542.99 2059.08 483.915 2545.33 2512.03 1525.63 1424.07 411.003 1013.07 672.059 627.113 158.248 217.894 84.4816 706.838 284.726 37.9927 246.733 138.158 26.3611 33.2934 20.0904 133.412 111.797 52.3117 101.555 62.0534 14.8794 25.5792 89.9407 36.4741 11.6147 13.1335 39.1782 71.3589 70.049
internal_count=268644 231898 226866 36746 217639 183425 115960 67465 32438 12245 9996 2697 34214 33236 20193 16997 7432 9565 5032 9227 7299 6956 5944 1012 3196 3071 4786 4355 1075 3280 2249 2222 246 4308 1411 978 2271 124 2147 175 63 125 71 2897 112 1383 431 257 61 108 384 149 47 54 1329 2640 2608
is_linear=0
shrinkage=0.1


Tree=19
num_leaves=48
num_cat=0
split_feature=73 29 39 60 70 54 71 53 103 66 108 101 53 49 87 132 99 30 107 32 68 62 74 119 112 100 107 111 42 72 18 97 2 99 76 75 31 1 14 89 16 115 0 5 114 48 103
split_gain=260.753 299.937 272.286 421.453 410.278 702.917 540.8 326.14 491.03 338.832 294.672 374.391 323.34 241.033 238.756 138.688 122.831 105.824 120.917 139.351 163.858 105.524 77.3846 60.0995 59.9591 70.9872 58.9809 128.887 60.5806 56.5589 45.1562 45.0038 42.8193 40.2725 29.8805 36.8073 28.8025 74.7494 23.4083 20.6187 9.70602 3.71417 3.32204 0.576699 0.349008 0.000653105 0.000259829
threshold=-0.93614056706428517 1.2412909269332888 1.0315333604812624 0.77901583909988414 -0.12351160869002341 1.0770324468612673 -0.37028305232524866 1.0886842608451845 -0.77526226639747609 0.33602996170520788 -1.0639268755912779 -0.761205494403839 1.1138556003570559 1.2280223965644839 -1.346702456474304 1.0000000180025095e-35 -0.63776582479476918 1.1060194373130801 -0.90124046802520741 0.93941611051559459 -0.16848417371511457 0.67508503794670116 -1.0630413889884947 -0.89420184493064869 -0.97329664230346669 -0.96071121096611012 -0.90069031715393055 -0.90901717543601979 0.65399721264839183 -0.32702443003654474 1.517816483974457 -1.0359839200973509 0.80605092644691478 -0.9391266107559203 -1.1543148159980772 -1.1100410819053648 0.97940263152122509 0.72474837303161632 1.1584157943725588 -1.1336009502410886 1.3506171703338625 -0.82437205314636219 0.57452508807182323 0.79412060976028453 -0.8204444646835326 0.89576777815818798 -0.97055622935295094
decision_type=2 2 2 2 2 2 2 2 2 2 2 2 2 2 2 2 2 2 2 2 2 2 2 2 2 2 2 2 2 2 2 2 2 2 2 2 2 2 2 2 2 2 2 2 2 2 2
left_child=14 2 3 7 6 -6 -5 9 -9 -2 12 21 29 -13 41 26 -14 18 24 20 -20 -12 23 40 30 -26 36 28 -28 -4 -16 -21 33 -17 42 -36 39 -38 -25 -3 -19 -1 -24 -29 -43 46 -46
right_child=1 15 10 4 5 -7 -8 8 -10 -11 11 13 16 -15 17 32 -18 22 19 31 -22 -23 34 38 25 -27 27 43 -30 -31 -32 -33 -34 -35 35 -37 37 -39 -40 -41 -42 44 -44 -45 45 -47 -48
leaf_value=-0.18131129773518406 0.02082995865638779 0.037243878226888891 -0.021483530230158851 0.010328439302786287 0.08247718562009014 -0.025430565116889205 -0.048291884748057595 0.05404940469555302 -0.044467597417726865 0.12842184340966001 0.074718790138492752 -0.0018891474484530721 -0.12220890571370294 0.066692695637213292 0.070061891029659443 -0.14732203020052653 0.095324607310608031 0.043419133177083465 0.040538254082189445 0.041886987421241841 -0.15706629552990473 0.023723291856721774 -0.13782794750515856 0.043588875834501085 0.10421829377899897 -0.0022612519672000667 -0.098141976270689726 -0.14249104382270292 0.10479141324908621 -0.15538820230384018 -0.22140646168917175 0.14434538708421804 0.18488194898730123 0.10080603536571822 0.11555927191899734 -0.086327102016139967 -0.13241597725661167 0.19466659444467457 -0.21436028491144754 -0.13467403757306948 0.13260332721478249 -0.13867595138064426 -0.21772716973727674 -0.16383006800387734 -0.10328686237962677 -0.10630118473598843 -0.10260764546933404
leaf_weight=6.7240707725286475 90426.229120671749 7.233918383717536 120.32712706178427 3967.6135952621698 1372.5580560676754 1077.6197847053409 2608.39780696854 5545.491951175034 556.71473804116249 293.65207679197192 1663.3846361786127 2978.502432372421 26.414496213197708 618.94833529554307 10.77708011865616 10.763694733381273 1499.1998129151762 18.068849831819534 1278.9967827759683 57.208791166543961 43.387262314558029 536.70146726816893 8.5070499479770678 5.5252043381333342 831.08114197850227 67.711703225970268 19.857476502656937 31.313922435045242 56.754072412848473 42.750400453805923 10.4883526712656 171.042644739151 24.743410781025887 16.674372121691704 10.94614118337631 51.606349408626556 21.537815034389496 10.342080727219583 9.6842547357082349 195.80654232949018 37.589190870523453 2.7914578467607489 13.401627883315085 21.265704974532127 6.118781315162777 0.4962359182536592 70.809088064357638
leaf_count=28 201903 31 377 10573 1785 6263 10057 10917 1918 413 2630 8369 214 1236 16 35 1498 38 2472 92 173 1199 47 15 767 148 75 153 128 215 46 92 11 15 11 205 126 10 40 1033 26 14 56 90 200 9 2875
internal_value=0 0.0217492 0.0220604 0.0207568 9.02989e-05 0.035018 -0.0129235 0.0226835 0.0450615 0.0211782 0.0404911 0.0297835 0.0772519 0.00991049 0.0531189 -0.0629773 0.0915582 0.0585167 0.0635501 0.0465094 0.0340549 0.0622787 -0.0215453 0.0555107 0.0922698 0.0961965 -0.0848277 -0.0305549 0.0521917 -0.0565863 -0.0736936 0.118665 0.0894907 0.00346774 -0.0861994 -0.0509987 -0.114674 -0.0263079 -0.120654 -0.128549 0.103651 -0.109922 -0.186703 -0.151122 -0.103937 -0.102685 -0.102662
internal_weight=0 113751 113335 105848 9026.19 2450.18 6576.01 96822.1 6102.21 90719.9 7486.23 5797.54 1688.69 3597.45 2712.96 416.293 1525.61 2626.02 2470.69 1550.64 1322.38 2200.09 155.329 70.8675 920.058 898.793 364.112 129.191 76.6115 163.078 21.2654 228.251 52.1815 27.4381 84.4612 62.5525 234.92 31.8799 15.2095 203.04 55.658 86.9396 21.9087 52.5796 80.2156 77.4241 76.9279
internal_count=268644 261274 259567 243829 28678 8048 20630 215151 12835 202316 15738 13434 2304 9605 7370 1707 1712 4244 3806 2829 2645 3829 438 119 977 915 1646 446 203 592 62 184 61 50 319 216 1200 136 55 1064 64 3126 103 243 3098 3084 3075
is_linear=0
shrinkage=0.1


Tree=20
num_leaves=59
num_cat=0
split_feature=0 33 108 127 0 135 48 74 74 36 32 69 49 27 132 81 127 135 112 70 104 129 62 101 74 48 29 30 105 129 128 0 29 5 70 106 13 2 79 74 31 121 29 127 103 46 127 35 72 30 130 78 30 4 1 71 71 112
split_gain=243.315 394.195 317.7 622.999 692.761 573.434 544.331 473.092 331.047 317.404 283.997 371.868 323.354 267.341 332.095 362.339 281.941 253.847 244.183 227.326 208.162 205.932 192.491 199.554 190.602 170.401 159.045 155.66 259.075 136.36 133.818 120.382 112.833 105.38 100.108 94.7187 92.2342 89.2986 78.8377 74.4552 71.0169 63.0216 49.2745 41.2728 41.2585 75.085 37.6489 26.564 54.055 22.3269 17.3849 16.0908 12.3589 4.51142 0.941282 0.983258 0.459902 0.0488149
threshold=0.59791016578674328 0.83807733654975902 -1.0146132707595823 -1.9651830196380613 0.33245410025119787 1.0000000180025095e-35 1.1605958342552187 -0.93557339906692494 -0.95982477068901051 0.72420215606689464 0.91902074217796337 0.01759863551706076 1.1714117527008059 1.3949621915817263 1.0000000180025095e-35 -1.1760967373847959 -1.2241097092628477 1.0000000180025095e-35 -0.9062378704547881 -0.33554115891456598 -0.90077808499336232 1.0000000180025095e-35 0.29844394326210028 -0.94105300307273854 -1.008222162723541 1.1967974305152895 1.2073624730110171 1.1032109856605532 -0.93968933820724476 1.0000000180025095e-35 1.0000000180025095e-35 0.58583569526672374 1.1973549127578738 0.57394394278526317 -0.43461602926254267 -0.97161078453063954 1.1267126202583315 0.80605092644691478 -0.78109008073806752 -1.0054425597190855 1.0088322162628176 -0.96601241827011097 1.1906239390373232 -1.4595579504966734 -0.95222181081771839 0.93767294287681591 -1.3197631835937498 0.71336427330970775 -0.78934282064437855 1.1060194373130801 1.0000000180025095e-35 -1.1485663056373594 1.058200001716614 0.72546473145484935 0.56462335586547863 -0.62643957138061512 -0.6164472997188567 -0.89990374445915211
decision_type=2 2 2 2 2 2 2 2 2 2 2 2 2 2 2 2 2 2 2 2 2 2 2 2 2 2 2 2 2 2 2 2 2 2 2 2 2 2 2 2 2 2 2 2 2 2 2 2 2 2 2 2 2 2 2 2 2 2
left_child=1 18 10 5 8 6 -4 -6 -5 13 11 12 -3 38 15 16 -15 21 22 -7 -17 -12 26 32 -25 -13 50 29 44 30 34 -28 -24 -31 -11 -19 53 39 47 -16 -32 54 43 -43 46 -46 -29 51 -49 -38 -1 -2 -39 -30 57 -56 -35 -20
right_child=9 2 3 4 7 19 -8 -9 -10 27 17 25 -14 14 37 20 -18 35 41 -21 -22 -23 23 24 -26 -27 31 28 36 33 40 -33 -34 56 -36 -37 49 52 -40 -41 -42 42 -44 -45 45 -47 -48 48 -50 -51 -52 -53 -54 -55 55 -57 -58 -59
