tree
version=v4
num_class=1
num_tree_per_iteration=1
label_index=0
max_feature_idx=136
objective=binary sigmoid:1
feature_names=Column_0 Column_1 Column_2 Column_3 Column_4 Column_5 Column_6 Column_7 Column_8 Column_9 Column_10 Column_11 Column_12 Column_13 Column_14 Column_15 Column_16 Column_17 Column_18 Column_19 Column_20 Column_21 Column_22 Column_23 Column_24 Column_25 Column_26 Column_27 Column_28 Column_29 Column_30 Column_31 Column_32 Column_33 Column_34 Column_35 Column_36 Column_37 Column_38 Column_39 Column_40 Column_41 Column_42 Column_43 Column_44 Column_45 Column_46 Column_47 Column_48 Column_49 Column_50 Column_51 Column_52 Column_53 Column_54 Column_55 Column_56 Column_57 Column_58 Column_59 Column_60 Column_61 Column_62 Column_63 Column_64 Column_65 Column_66 Column_67 Column_68 Column_69 Column_70 Column_71 Column_72 Column_73 Column_74 Column_75 Column_76 Column_77 Column_78 Column_79 Column_80 Column_81 Column_82 Column_83 Column_84 Column_85 Column_86 Column_87 Column_88 Column_89 Column_90 Column_91 Column_92 Column_93 Column_94 Column_95 Column_96 Column_97 Column_98 Column_99 Column_100 Column_101 Column_102 Column_103 Column_104 Column_105 Column_106 Column_107 Column_108 Column_109 Column_110 Column_111 Column_112 Column_113 Column_114 Column_115 Column_116 Column_117 Column_118 Column_119 Column_120 Column_121 Column_122 Column_123 Column_124 Column_125 Column_126 Column_127 Column_128 Column_129 Column_130 Column_131 Column_132 Column_133 Column_134 Column_135 Column_136
feature_infos=[-1.7844352722167969:2.1873281002044678] [-1.6962581872940063:2.0962586402893066] [-1.6161398887634277:2.0136351585388184] [-1.5440802574157715:1.9394575357437134] [-1.4800789356231689:1.8737261295318604] [-1.4241359233856201:1.8164401054382324] [-1.3852788209915161:1.7788288593292236] [-1.3575865030288696:1.7939627170562744] [-1.3260828256607056:2.0758624076843262] [-1.2853907346725464:2.0974209308624268] [-1.2320997714996338:2.0165181159973145] [-1.1626077890396118:2.064321756362915] [-1.0779223442077637:2.1106562614440918] [-0.97803342342376709:2.1771299839019775] [-0.86829191446304321:2.2671928405761719] [-0.75375783443450928:2.4052433967590332] [-0.63882678747177124:2.5269482135772705] [-0.65591526031494141:2.5277442932128906] [-0.65910369157791138:2.5302853584289551] [-0.66488730907440186:2.4445860385894775] [-0.8555336594581604:2.3591430187225342] [-0.86833834648132324:2.2909350395202637] [-0.86565589904785156:2.1508355140686035] [-0.70636492967605591:2.1797337532043457] [-0.6794590950012207:2.1696581840515137] [-0.79406124353408813:2.0883691310882568] [-1.1302109956741333:1.9448176622390747] [-1.6305375099182129:1.7314887046813965] [-1.9454965591430664:1.5598906278610229] [-2.1668190956115723:1.3455723524093628] [-2.5042393207550049:1.1459542512893677] [-2.6881959438323975:1.0691677331924438] [-2.6397361755371094:1.0182701349258423] [-2.3245775699615479:1.0153312683105469] [-1.6179424524307251:1.0222163200378418] [-0.85442560911178589:1.0987448692321777] [-0.66342759132385254:1.3781088590621948] [-0.67050886154174805:1.4357191324234009] [-0.67336314916610718:1.5244829654693604] [-0.67729061841964722:1.427788257598877] [-0.67375040054321289:1.3506048917770386] [-0.77278417348861694:1.3033223152160645] [-0.78214722871780396:1.4334096908569336] [-0.67821109294891357:1.6771683692932129] [-0.67593681812286377:1.8418123722076416] [-0.67998087406158447:1.9795904159545898] [-0.67735743522644043:1.8671952486038208] [-0.68031680583953857:1.8940913677215576] [-0.67687547206878662:2.0411467552185059] [-0.6802976131439209:2.1347439289093018] [-0.67868822813034058:2.1180493831634521] [-0.68411111831665039:2.0443711280822754] [-0.6882440447807312:2.0736305713653564] [-0.69760811328887939:2.0259709358215332] [-0.68820065259933472:1.9014968872070312] [-0.66555494070053101:1.7058380842208862] [-0.63047897815704346:1.5109990835189819] [-0.61600887775421143:1.3603483438491821] [-0.88048118352890015:1.3460699319839478] [-0.69688475131988525:1.3262704610824585] [-0.62303602695465088:1.3006186485290527] [-0.62908732891082764:1.6912268400192261] [-0.65896600484848022:1.8743280172348022] [-0.67422842979431152:1.7138135433197021] [-0.89532732963562012:1.3433690071105957] [-1.1747497320175171:1.0613176822662354] [-1.3727543354034424:0.98026233911514282] [-1.6710461378097534:0.87500208616256714] [-1.7223098278045654:0.74292320013046265] [-1.8893227577209473:0.59156680107116699] [-1.7363165616989136:0.44254273176193237] [-1.7446892261505127:0.31167539954185486] [-1.674402117729187:0.20973041653633118] [-1.5101885795593262:0.13722024857997894] [-1.4517455101013184:0.30397361516952515] [-1.6804615259170532:0.9557119607925415] [-1.8599822521209717:1.4404212236404419] [-1.985605001449585:1.2026444673538208] [-2.0616223812103271:1.1285310983657837] [-2.1171634197235107:0.92254304885864258] [-2.1664650440216064:0.73609095811843872] [-2.193009614944458:0.27998179197311401] [-2.2026488780975342:0.32789856195449829] [-2.1982688903808594:0.37759476900100708] [-2.1793761253356934:0.5232703685760498] [-2.1451029777526855:0.46151745319366455] [-2.0946900844573975:0.49370381236076355] [-2.0287144184112549:0.51996833086013794] [-1.9487637281417847:0.67684948444366455] [-1.8579472303390503:0.55988889932632446] [-1.767259955406189:0.65018975734710693] [-1.8478662967681885:1.0688302516937256] [-1.648851752281189:1.4172115325927734] [-1.5846540927886963:1.6287872791290283] [-1.5209465026855469:1.664950966835022] [-1.4698792695999146:1.6182941198348999] [-1.4279601573944092:1.5608183145523071] [-1.3987493515014648:1.5595740079879761] [-1.3711740970611572:1.5645072460174561] [-1.5819015502929688:1.5648646354675293] [-2.0638625621795654:1.5687597990036011] [-2.4619696140289307:1.5680602788925171] [-2.648137092590332:1.5700795650482178] [-2.4631106853485107:1.5662518739700317] [-2.0338072776794434:1.5674868822097778] [-1.4475361108779907:1.5623446702957153] [-1.2213733196258545:1.563502311706543] [-1.117332935333252:1.561995267868042] [-1.168958306312561:1.5723429918289185] [-1.2179133892059326:1.5757462978363037] [-1.3317182064056396:1.5835809707641602] [-1.6010570526123047:1.5861003398895264] [-1.9859442710876465:1.5904537439346313] [-2.2512052059173584:1.5896482467651367] [-2.2886085510253906:1.5896980762481689] [-1.9469403028488159:1.5865405797958374] [-1.6131480932235718:1.5868538618087769] [-1.6321159601211548:1.611059308052063] [-1.6864286661148071:2.4495923519134521] [-1.7459897994995117:2.6529664993286133] [-1.820858359336853:2.5047237873077393] [-1.9280952215194702:1.7488086223602295] [-2.1567583084106445:1.6308574676513672] [-2.3918964862823486:1.6220458745956421] [-2.6616356372833252:1.8138364553451538] [-2.9761693477630615:2.1645474433898926] [-3.3320021629333496:3.0688047409057617] [-3.8750591278076172:4.2020993232727051] [0:1] [0:1] [0:1] [0:1] [0:1] [0:1] [0:1] [0:1] [0:1]
tree_sizes=4322 3940 4592 4387 4694 4816 4411 4921 6828 6864 6564 6897 6319 6221 6848 6397 6750 6626 6192 6612 6929 6440 6107 6866 6365 6779 5937 5563 6119 5989 6905 6695 5754 6131 6647 6207 6899 6945 6807 5926 6697 6929 6594 6058 5956 6954 6113 6709 6269 6100 6177 6403 5208 6168 6904 5869 6643 6805 6584 5541 6011 6480 4604 6779 5569 6496 6353 6923 6432 5007 6032 3987 5266 6794 6492 6730 6950 6256 4122 6815 6975 6051 6601 6401 6538 5840 6922 6534 5266 5979 6593 5299 4936 6703 5874 6464 6217 6403 6768 6309 6049 6147 6695 6582 4187 6950 6126 5794 5914 5705 6538 6853 6829 5750 6455 5960 6064 6342 5249 6426 6780 4629 4641 5138 6630 6136 5927 6106 3431 5443 6663 4425 6660 6806 6565 5855 6788 5400 6773 6820 5744 4069 6688 5088 6538 6676 6341 6463 6906 6705 6557 6746 5807 6927 6567 6692 6175 6422 6800 6785 6889 6688 5837 5446 6477 5388 6136 6532 5906 5221 5498 6458 4933 5382 6901 6571 6934 6054 6595 6942 5085 5909 6352 6982 4549 6259 6230 4291 5994 6130 5907 5668 4856 5716 6909 5681 6395 6064 6058 3682

Tree=0
num_leaves=40
num_cat=0
split_feature=114 30 41 57 132 70 31 130 106 29 2 123 104 110 71 74 55 36 51 98 125 37 48 0 5 30 105 36 30 4 77 72 25 75 46 22 0 0 0
split_gain=18560 12811.7 13593.9 10681.9 8178.35 7295.43 9222.33 6038.1 5859.47 4620.17 3529.86 2610.12 2402.35 2228.26 2184.34 1820.18 1642.28 1774.82 1365.12 974.307 894.909 879.905 769.85 635.817 526.413 516.661 359.255 337.971 279.477 366.51 236.789 137.605 188.65 130.903 63.6953 1.13687e-13 1.77636e-15 8.88178e-16 8.88178e-16
threshold=-0.8242276906967162 1.0589466094970705 1.1094869375228884 0.97030079364776622 1.0000000180025095e-35 -0.11801741644740103 0.99818080663681041 1.0000000180025095e-35 -0.89897719025611866 1.241639316082001 0.6270866096019746 -2.0721800327301021 -0.7210627794265746 -1.1853684186935423 -0.17610869556665418 -0.39634768664836878 0.97386822104454052 0.90310642123222362 1.1712478399276736 -0.92062020301818837 -1.4887861013412473 1.0057281255722048 1.2225162386894228 0.3597953468561173 0.80467018485069286 1.0445834994316103 -0.92342248558998097 0.91417387127876293 1.0744093656539919 0.73747423291206371 -1.382285952568054 -0.70951983332633961 1.2376922965049746 -1.0522661805152891 1.2436508536338808 1.5383086204528811 0.70590594410896312 0.28742633759975439 0.50189876556396495
decision_type=2 2 2 2 2 2 2 2 2 2 2 2 2 2 2 2 2 2 2 2 2 2 2 2 2 2 2 2 2 2 2 2 2 2 2 2 2 2 2
left_child=1 2 3 5 7 6 -1 9 15 10 -3 14 21 -7 -5 18 17 -9 -4 28 -18 -10 -13 37 -11 35 -25 -17 29 -6 31 -27 -33 -30 -14 -2 -37 -21 -32
right_child=25 4 8 11 19 13 -8 16 12 24 -12 22 34 -15 -16 27 20 -19 -20 23 -22 -23 -24 26 -26 30 -28 -29 33 -31 38 32 -34 -35 -36 36 -38 -39 -40
leaf_value=-2.0174907528704926 -2.6183559091400936 -1.8393366123543737 -2.0384434677914025 -2.5373570493627153 -2.0036023633207778 -1.864718786112681 -1.8630769490631782 -2.039656793949379 -1.9684744009014361 -2.467846471202459 -1.7154690577666667 -2.1906944451050641 -2.6183559091400936 -1.4700498520562622 -1.9331620713211 -1.4861034649561231 -2.4082960326624612 -1.6005421933812169 -1.3175127198609504 -2.6183559091400936 -2.0655085262070623 -1.5927159452746444 -1.8981971138730107 -1.5013628547110958 -2.06158380919143 -1.3449902199587151 -1.8047623235417434 -2.6183559091400936 -1.2290924059859836 -1.4170932934428642 -2.6183559091400936 -1.335768126442985 -2.6183559091400936 -1.374903957598901 -2.3978332906374042 -2.6183559091400936 -2.6183559091400936 -2.6183559091400936 -2.6183559091400936
leaf_weight=10188.452349163592 356.59130734950304 10384.721995808184 27.590551666915417 410.26485664397478 12.012396700680254 222.10384826362133 6234.7211896926165 735.87277971208096 132.56940843164921 114.48372710496187 2955.3260870799422 420.17692210525274 31.690827548503876 401.93244975805283 70.053625524044037 3.2610499113798168 169.91602909564972 105.20355404168367 546.86779547482729 3.405374012887477 138.02758500725031 117.60088743269444 114.50540617853403 128.91838226467371 44.211168065667152 4.8327721357345581 55.972366109490395 13.760490909218786 147.06283011287451 94.260409832000732 1.528943434357642 1.9192093685269336 2.8493945822119713 105.90933165699244 22.324734807014465 2.0849228650331488 5.6987891644239426 2.8493945822119713 2.7103997245430946
leaf_count=90357 5131 75100 250 5598 105 1658 46448 6676 1116 1489 18009 4395 456 1543 567 13 2117 530 1333 49 1285 584 890 532 410 13 387 198 239 316 22 5 41 314 276 30 82 41 39
internal_value=-2.51023 -1.89119 -1.94603 -1.96488 -1.82279 -1.94612 -1.95887 -1.83701 -1.56576 -1.81828 -1.8119 -2.28004 -1.92242 -1.61052 -2.44924 -1.38233 -2.05707 -1.98473 -1.35214 -1.44436 -2.25465 -1.79184 -2.12805 -1.62676 -2.35466 -2.59558 -1.59321 -2.40143 -1.34731 -1.48339 -1.99589 -1.72104 -2.10216 -1.29014 -2.52721 -2.61836 -2.61836 -2.61836 -2.61836
internal_weight=0 34156 18957.9 18062.2 15198.2 17047.2 16423.2 14647.8 895.666 13498.7 13340 1015 304.186 624.036 480.318 591.48 1149.02 841.076 574.458 550.39 307.944 250.17 534.682 191.146 158.695 378.216 184.891 17.0215 359.245 106.273 13.8407 9.60138 4.7686 252.972 54.0156 364.375 7.78371 6.25477 4.23934
internal_count=268644 263281 155682 151456 107599 140006 136805 105616 4226 95008 93109 11450 2432 3201 6165 1794 10608 7206 1583 1983 3402 1700 5285 1009 1899 5363 919 211 974 421 120 59 46 553 732 5243 112 90 61
is_linear=0
shrinkage=1


Tree=1
num_leaves=36
num_cat=0
split_feature=114 102 31 2 39 136 32 134 32 73 117 104 125 18 73 116 110 30 77 32 39 0 39 35 72 33 112 72 40 116 57 38 125 1 0
split_gain=5915.66 3081.28 2125.36 2545.42 2751.75 2456.31 3242.73 3479.3 2367.19 3706.27 1723.43 1662.38 1588.43 1568.25 1039.88 744.903 752.185 673.728 377.392 292.535 78.2531 68.5522 61.7272 51.9672 155.286 35.7243 52.3385 18.118 58.5574 8.20964 0.0307798 0.0112133 0.00439671 5.68434e-14 4.44089e-16
threshold=-0.8242276906967162 -0.55698296427726735 0.99931102991104137 0.66993343830108654 1.0356733202934267 1.0000000180025095e-35 0.94865801930427562 1.0000000180025095e-35 0.95990154147148143 -0.79569935798645008 -0.95310476422309864 -0.85216578841209401 -1.6439021825790403 1.4737818241119387 -0.78611356019973744 -1.5015175342559812 -1.1777983903884885 1.0969073772430422 -1.2081173062324522 0.94666647911071788 0.96408852934837352 -0.2819408774375915 0.95471754670143139 0.87186998128891002 -0.2718000710010528 0.81989595293998729 -1.2926224470138548 -0.70951983332633961 0.98381376266479503 -1.4959142804145811 0.97030079364776622 0.91630497574806224 -1.2345148921012876 -0.1109640598297119 0.42939703166484838
decision_type=2 2 2 2 2 2 2 2 2 2 2 2 2 2 2 2 2 2 2 2 2 2 2 2 2 2 2 2 2 2 2 2 2 2 2
left_child=1 2 3 4 11 6 7 -4 9 -7 -8 -1 -6 18 -10 16 21 -15 -5 31 27 30 -17 29 -25 26 -18 -21 -29 -24 -3 33 34 -2 -22
right_child=19 15 5 13 12 8 10 -9 14 -11 -12 -13 -14 17 -16 22 25 -19 -20 20 32 -23 23 24 -26 -27 -28 28 -30 -31 -32 -33 -34 -35 -36
leaf_value=0.31672923731664754 -0.1072922657705308 -0.11670699060112631 0.35024115409650902 0.5593549441466531 0.36598905949236749 0.40781120755410455 0.32213401422458465 0.52853282157947068 0.58425773606680764 0.084583377624961847 0.21988880783598344 0.267428204193217 0.59202971899021417 0.36728745880085084 0.44139868457833931 0.43778670487413562 0.32537076890672378 0.21266827492491869 0.44354423840234819 0.44127032441588593 -0.10729226577053055 0.4969181366784895 -0.02632766396005223 -0.10936111459040193 0.76652404234909643 0.69165169051247499 0.7138255772974621 -0.10729226577053066 0.48029160816908956 -0.10484070964151904 -0.10907808137304782 -0.11342273239300389 -0.11409572694003166 -0.1072922657705308 -0.10729226577053071
leaf_weight=13976.530982144177 74.622692137956619 7.0871043950319352 4158.1865562647581 437.94880163669586 2844.9642669409513 1788.3358340263367 9900.3161304965615 1485.5716764032841 756.11514347046614 442.53206652402878 1977.9351150989532 13393.508362308145 349.02023773640394 1754.8210615739226 1562.3650293648243 2.2454546168446532 8.3248376473784429 335.72619996219873 787.07691247016191 10.861870273947718 1.773714244365695 1.986819028854369 14.268631733953951 7.3421736359596252 2.794534392654894 21.315620817244053 5.9457372277975074 2.9139591157436397 4.0580387115478516 199.9068236798048 20.840155959129333 3.0109196305274954 1.3814274072647057 254.65468794107437 1.2669387459754942
leaf_count=66110 1178 59 17490 676 9765 6493 45559 3688 1591 2966 10974 78772 1128 5949 5422 17 35 1851 1676 14 28 2 145 99 3 22 10 46 2 2494 285 38 17 4020 20
internal_value=0 0.325922 0.327613 0.311882 0.302854 0.35176 0.334762 0.397172 0.41723 0.343693 0.305108 0.292604 0.390689 0.395103 0.487989 0.00195495 0.298973 0.342457 0.484947 -0.0838396 0.267145 -0.0706367 -0.0839163 -0.0891387 0.132107 0.609671 0.487218 0.360517 0.23471 -0.0996101 -0.111014 -0.107348 -0.109418 -0.107292 -0.107292
internal_weight=0 56243 55951 33879.6 30564 22071.4 17522 5643.76 4549.35 2230.87 11878.3 27370 3193.98 3315.57 2318.48 292.058 65.5003 2090.55 1225.03 354.544 22.2559 29.9141 226.558 224.312 10.1367 35.5862 14.2706 17.8339 6.972 214.175 27.9273 332.288 4.42208 329.277 3.04065
internal_count=268644 263281 260110 165927 155775 94183 77711 21178 16472 9459 56533 144882 10893 10152 7013 3171 413 7800 2352 5363 127 346 2758 2741 102 67 45 62 48 2639 344 5236 65 5198 48
is_linear=0
shrinkage=0.1


Tree=2
num_leaves=42
num_cat=0
split_feature=114 102 73 108 83 31 33 32 71 69 82 31 32 70 32 44 84 97 117 41 34 101 56 5 57 110 71 71 0 126 38 116 31 71 72 120 34 38 100 0 15
split_gain=3207.53 1579.91 1003.22 1068.6 2378.36 1567.26 770.478 610.594 579.173 522.782 591.954 358.566 232.217 445.294 230.034 202.81 193.941 66.2454 57.1302 47.4116 12.4092 6.29087 13.9472 24.7375 0.296245 0.0260442 0.0187474 0.0137607 0.00924001 0.00873782 0.00839347 0.00789784 0.00329761 0.00307081 0.00198217 0.000427557 0.000184957 3.44271e-06 2.6677e-08 5.68434e-14 2.84217e-14
threshold=-0.8242276906967162 -0.55698296427726735 -0.93556964397430409 -1.0273495912551878 -0.80767256021499623 0.99666509032249462 0.82768273353576671 0.91911610960960399 -0.17610869556665418 0.087353147566318526 -0.176873043179512 1.0121369361877444 0.93946158885955822 -0.45916223526000971 0.94666647911071788 1.1957055926322939 -0.88393566012382496 -1.035548150539398 -0.94115269184112538 1.0054877996444704 0.84055015444755565 -0.85462859272956837 0.94801020622253429 0.67873284220695507 0.97030079364776622 -1.1853684186935423 -0.17610869556665418 -0.17610869556665418 0.56396284699440014 -2.9570132493972774 0.91630497574806224 -1.5015175342559812 0.99462589621543895 -0.22503519058227536 -0.28748543560504908 -1.7585416436195371 0.83838677406311046 0.96712383627891552 -0.85643538832664479 0.9761045277118684 1.0507719516754153
decision_type=2 2 2 2 2 2 2 2 2 2 2 2 2 2 2 2 2 2 2 2 2 2 2 2 2 2 2 2 2 2 2 2 2 2 2 2 2 2 2 2 2
left_child=1 2 11 6 5 -5 16 -8 -6 24 15 12 13 -1 30 20 -4 -14 -13 21 -11 22 23 -16 25 36 29 37 -20 -26 39 -29 38 -27 -17 -28 -3 -12 -21 -2 -41
right_child=14 9 3 4 8 -7 7 -9 -10 10 27 18 17 -15 19 34 -18 -19 28 32 -22 -23 -24 -25 26 33 35 31 -30 -31 -32 -33 -34 -35 -36 -37 -38 -39 -40 40 -42
leaf_value=0.3072153394715606 -0.10655037809217989 -0.11374167774815361 0.28945514484487073 0.20816918097136702 0.0077121837017043934 0.24137143992869414 0.2504860646185384 0.30982127542535315 0.43851518195368294 0.45720100306382022 -0.10711954949024866 0.19236838730769884 0.30475984749351309 -0.081554052219982243 -0.11257705499981817 -0.1076336377778821 0.010467875960846902 0.46886060402756097 -0.12127571388335477 -0.10653045499813872 0.36730021834470333 0.31933001642464726 0.32706263503173622 0.31238715009469087 -0.10723437521030865 -0.11719355547972879 -0.11255642484453521 -0.11766139853676967 -0.12543294880428202 -0.1125112498345518 -0.11209529850854445 -0.11339835003631278 -0.11269976180637396 -0.12085686432211191 -0.11105327115175433 -0.11434328154626759 -0.11474577264610381 -0.10732913127751682 -0.10655037809218003 -0.10655037809217989 -0.10655037809217989
leaf_weight=1628.5025264620781 120.87600711733103 6.6567181795835513 29.842019781470299 24947.323426529765 589.22541391849518 33053.063065543771 7143.2055278643966 2290.4050801694393 32.952155619859695 29.560323312878609 2.0475234128534789 7.7922987341880825 31.52910552918911 30.004875101149082 2.7470371946692484 2.335152965039013 150.99054566770792 111.93517883121967 12.456060230731966 1.1508569195866609 31.947499692440033 10.72213961929083 5.2813442647457123 2.7321305274963379 137.36028071120381 2.6133601814508465 3.0875842347741127 4.9041299372911444 9.3669114559888822 3.2113385275006285 2.7550035715103141 38.170214109122753 1.2684749588370321 18.394593358039856 6.1836427375674248 2.3646841272711745 2.5324239879846573 1.2698809877038 1.615526586771008 7.6160539090633383 171.4189103320241
leaf_count=3759 2095 63 85 102480 4188 115219 25176 7637 62 41 33 30 75 190 39 36 971 92 88 20 33 13 6 4 2194 22 32 43 58 36 38 369 17 129 75 22 23 20 28 132 2971
internal_value=0 0.231064 0.232032 0.230072 0.225004 0.22709 0.260973 0.264892 0.0305286 -0.000806093 0.163636 0.305068 0.31074 0.300182 -0.0822914 0.347172 0.0565079 0.432796 -0.0400653 0.206045 0.410506 0.265119 0.211101 0.099327 -0.109443 -0.118459 -0.107578 -0.113406 -0.12306 -0.107355 -0.106601 -0.113884 -0.108478 -0.120401 -0.110116 -0.113331 -0.114018 -0.1072 -0.106542 -0.10655 -0.10655
internal_weight=0 70361.2 70068.6 68237 58622.6 58000.4 9614.44 9433.61 622.178 292.639 116.418 1831.59 1801.97 1658.51 328.183 70.0266 180.833 143.464 29.6153 25.5175 61.5078 21.4827 10.7605 5.47917 176.221 30.1971 146.024 46.3917 21.823 140.572 302.666 43.0743 4.03486 21.008 8.5188 5.45227 9.18914 3.3174 2.76638 299.911 179.035
internal_count=268644 263281 260110 255818 221949 217699 33869 32813 4250 3171 650 4292 4116 3949 5363 185 1056 167 176 127 74 62 49 43 2521 237 2284 465 146 2230 5236 412 65 151 111 54 86 53 48 5198 3103
is_linear=0
shrinkage=0.1


Tree=3
num_leaves=40
num_cat=0
split_feature=115 2 39 49 103 62 114 109 101 30 135 109 104 126 45 5 31 117 29 30 103 2 38 31 123 56 40 112 18 45 15 100 73 73 118 114 100 31 59
split_gain=2045.2 1041.03 1460.58 1597.19 1364.85 2020.74 874.363 1082.93 758.341 815.269 960.362 754.863 689.055 723.745 1406.38 687.167 664.578 853.509 645.684 538.561 522.802 476.641 469.819 431.956 343.122 321.822 413.71 226.895 191.576 189.69 187.512 130.289 39.0539 27.1922 17.6477 0.0927315 0.00131969 0.000538003 6.28533e-05
threshold=-0.82893860340118397 0.52707594633102428 1.0315341949462893 1.1949331164360049 -0.69782036542892445 0.66386482119560253 -1.2792233228683469 -1.1430256366729734 -0.83486285805702198 1.0619239211082461 1.0000000180025095e-35 -1.1247320175170896 -0.75248318910598744 -1.8404012918472288 1.2054994106292727 0.043569782748818404 1.0100032091140749 -0.95649728178977955 1.2194650769233706 1.093946695327759 -0.64910888671874989 0.80275723338127147 1.017120957374573 1.0044748187065127 -1.5331932902336118 0.88439914584159862 0.97590234875679027 -0.95488500595092762 1.1174545884132387 1.0532483458518984 1.0158336162567141 -0.84868621826171864 -0.90176442265510548 -0.75996169447898854 -0.85537865757942189 -0.8242276906967162 -0.88690641522407521 0.99584314227104198 0.8087141513824464
decision_type=2 2 2 2 2 2 2 2 2 2 2 2 2 2 2 2 2 2 2 2 2 2 2 2 2 2 2 2 2 2 2 2 2 2 2 2 2 2 2
left_child=1 2 3 4 5 -1 7 -5 9 10 21 -6 13 14 -4 20 19 -18 -12 -11 -14 -3 -17 25 -8 30 -27 33 -15 35 -10 -29 -31 -25 -34 -2 -36 -37 -38
right_child=29 8 12 6 11 -7 24 -9 23 16 18 -13 15 28 -16 22 17 -19 -20 -21 -22 -23 -24 27 -26 26 -28 31 -30 32 -32 -33 34 -35 36 37 38 -39 -40
leaf_value=0.16850645407272688 -0.12457163187065519 0.16105611820637278 0.14677875111365649 0.29239806742784458 0.020432262711631805 0.043143125000015686 0.12374621880026515 -0.013725803795818767 0.45744321271892247 0.208648495717046 -0.097421833993140014 0.29411571407184561 0.28321120995114607 0.30570764057046684 0.26683010386429123 -0.03184424088878781 0.18578806881366849 0.043562659943917337 0.28904363261555516 0.16263319671595594 -0.046877298752266872 0.39327930739960459 0.15463689877494452 -0.12811993009161923 0.30699434267554854 0.37731352324843714 0.25060978381649834 -0.056136444948810905 -0.0059771688899317972 0.25122885805088296 0.04185523715402039 0.25830393254372713 0.16646195279242704 0.12151161556457282 -0.10937311855371508 -0.10588832488749962 -0.10670258185454629 -0.10813321666198882 -0.10586793930474624
leaf_weight=39077.819174319506 2.6852557957172385 5098.3301544487476 1842.1760601699352 130.06861330941319 110.47146997600794 1329.5336819216609 323.41150584816933 1035.9749137684703 12.723194465041159 19953.527183011174 228.7600821852684 1148.6780284121633 343.94448569417 1139.4198807477951 2074.92515989393 262.15490877628326 1389.921884432435 605.8683378174901 53.304969534277916 2915.0812926143408 55.760693863034248 89.944662272930145 278.76223006844521 37.109870702028275 149.37546569108963 440.29020534455776 621.41564731672406 16.846246898174286 20.06748715788126 18.517218291759495 74.012804433703423 60.506803870201111 3.9655341729521769 4.9450752884149543 2.1455309763550776 271.615248888731 1.6510149911045977 1.0717762634158123 1.9894480593502519
leaf_count=138263 17 18321 7103 361 558 6948 1668 8119 16 50962 1408 1586 417 2465 2674 1508 4082 2719 124 8570 576 123 961 217 449 684 1702 86 95 32 360 140 22 18 34 5172 29 17 38
internal_value=0 0.179261 0.170182 0.163768 0.167576 0.164382 0.0669322 0.0204214 0.193431 0.190264 0.155312 0.270104 0.216347 0.230914 0.210371 0.137732 0.197953 0.142612 -0.0243872 0.202783 0.237162 0.165082 0.064259 0.269202 0.181643 0.288024 0.303154 0.0881836 0.300313 -0.0807551 0.102817 0.189824 0.165933 -0.0987667 0.00396459 -0.106079 -0.107406 -0.105897 -0.106246
internal_weight=0 80925.1 49322.5 43305.3 41666.5 40407.4 1638.83 1166.04 31602.6 30334.7 5470.34 1259.15 6017.21 5076.59 3917.1 940.622 24864.4 1995.79 282.065 22868.6 399.705 5188.27 540.917 1267.85 472.787 1148.44 1061.71 119.408 1159.49 303.641 86.736 77.3531 28.2687 42.0549 9.75153 275.372 5.78599 272.687 3.64046
internal_count=268644 263283 173751 157952 147355 145211 10597 8480 89532 86309 19976 2144 15799 12337 9777 3462 66333 6801 1532 59532 993 18444 2469 3223 2117 2762 2386 461 2560 5361 376 226 155 235 123 5206 101 5189 67
is_linear=0
shrinkage=0.1


Tree=4
num_leaves=43
num_cat=0
split_feature=114 0 34 40 58 71 52 32 0 71 30 83 4 70 75 38 32 42 135 72 103 4 114 129 18 29 52 32 118 109 55 124 22 72 28 28 74 38 20 46 117 44
split_gain=1415.96 858.021 1361.85 861.247 1089.4 1375.01 972.85 596.814 513.355 617.639 500.417 477.225 465.667 554.563 648.729 436.808 412.306 391.971 354.116 351.201 306.095 292.432 292.354 269.08 223.387 219.638 171.476 164.936 64.4852 110.566 30.2071 29.6818 25.8186 4.12332 5.15464 17.8829 0.335812 0.0185337 0.000935844 0.000390437 0.000101557 3.34541e-09
threshold=-0.8242276906967162 0.52401781082153331 0.82998403906822216 1.0715711712837221 0.90457779169082653 -0.20008271932601926 1.1101728081703188 0.87035369873046886 0.61012002825737011 -0.63653689622879017 1.0969073772430422 -0.51110410690307606 0.72516286373138439 -0.47011829912662501 -1.1408297419548032 0.8965241312980653 0.89669010043144237 0.91923189163208019 1.0000000180025095e-35 -0.2718000710010528 -0.64910888671874989 0.64422163367271434 -0.91488251090049733 1.0000000180025095e-35 1.5046656727790835 1.187354624271393 1.0824854373931887 0.94666647911071788 -1.6020914316177366 -1.078793406486511 0.87759748101234447 -2.2418428659439082 1.2452778816223147 -0.70951983332633961 1.1427666544914248 1.143971920013428 -0.39634768664836878 0.91630497574806224 1.1935368180274966 1.0652164816856386 -0.84178778529167164 1.0288382768630984
decision_type=2 2 2 2 2 2 2 2 2 2 2 2 2 2 2 2 2 2 2 2 2 2 2 2 2 2 2 2 2 2 2 2 2 2 2 2 2 2 2 2 2 2
left_child=1 2 11 4 6 -6 -4 8 9 21 22 15 13 17 -15 16 -1 -9 -12 20 -5 -3 -10 24 -14 -11 -17 37 29 -13 -25 -30 38 -34 -35 -36 -21 39 40 41 -29 -2
right_child=27 7 3 19 5 -7 -8 12 10 25 18 28 23 14 -16 26 -18 -19 -20 36 -22 -23 -24 30 -26 -27 -28 32 31 -31 -32 -33 33 34 35 -37 -38 -39 -40 -41 -42 -43
leaf_value=0.048590742150720484 -0.10529669021487686 0.22662113331524233 0.1404530576163445 0.19682579722430621 0.076159826156423777 0.234697790403607 0.17804886218786309 0.11800316723598697 0.17545571278485686 0.095912463472959272 0.17614180390438927 -0.11236598851753606 0.22723365262926676 0.11628995309222752 0.19755319136843258 0.00017841920779880323 0.11340853997232044 0.24912928003168947 -0.027692173850128388 -0.14875643589972695 -0.043559543447481516 0.0270464458163471 0.019489991669500356 -0.14094622344674099 -0.13042541866958812 0.20988966026485545 0.19697864217183936 -0.10660006168635859 -0.11173092711755322 0.31331159223363175 0.14959213012256772 0.14732565739913583 0.21497519303437507 0.23467151334970554 0.24472780369945349 -0.10776920076051154 -0.12258774048059649 -0.113754684144996 -0.1094550707294461 -0.10717571555673099 -0.10528297714108506 -0.10529075851729652
leaf_weight=1833.5474129840732 246.50475785136223 79.745441451668739 50097.123318843544 3755.5618144273758 4266.2547986581922 627.53647856041789 7979.0743536353111 2424.6636075675488 3479.5225349664688 279.56484419852495 134.93466870486736 14.15541246160865 2121.4542425870895 1181.7003276199102 5823.8505428433418 48.664517164230347 2111.5026050880551 251.62727347016335 231.37651544064283 5.9195906668901435 53.729055363684893 925.58819822967052 124.48472271859646 22.510209396481518 17.607980035245419 427.77750818431377 490.76951300352812 1.1509525626897814 137.46624706313014 10.724923536181448 4.2549245208501807 4.5698644965887061 16.038397848606117 3.0642300024628586 2.974163293838501 2.7886868715286255 28.577143479138613 2.6232938319444647 1.1101138629019258 1.1107600443065155 1.1915080547332793 0.9544811025261869
leaf_count=7775 5160 207 151782 6479 19565 1184 24017 6741 7355 1062 393 168 2729 3476 12448 240 6692 391 1204 29 579 3630 458 111 102 870 1567 20 1785 5 10 20 14 2 1 48 207 38 17 18 25 20
internal_value=0 0.145826 0.140963 0.144605 0.1418 0.0964893 0.145618 0.165651 0.13901 0.0932492 0.15875 0.0886441 0.17843 0.169053 0.183846 0.0948238 0.0832831 0.130332 0.0473923 0.190559 0.193435 0.0428772 0.170069 0.220347 0.22429 0.164842 0.179225 -0.0796013 -0.0773819 0.0711267 -0.0947586 -0.103396 0.149185 0.184765 0.129875 0.0741518 -0.127078 -0.105393 -0.107064 -0.105305 -0.10593 -0.105297
internal_weight=0 88995.8 71465.2 66813.8 62970 4893.79 58076.2 17530.7 5682.99 1712.68 3970.32 4651.4 11847.7 9681.84 7005.55 4484.48 3945.05 2676.29 366.311 3843.79 3809.29 1005.33 3604.01 2165.83 2139.06 707.342 539.434 279.511 166.916 24.8803 26.7651 142.036 28.3181 24.8655 8.82708 5.76285 34.4967 251.193 3.45257 248.57 2.34246 247.459
internal_count=268644 263281 222094 203842 196548 20749 175799 41187 15179 5769 9410 18252 26008 23056 15924 16274 14467 7132 1597 7294 7058 3837 7813 2952 2831 1932 1807 5363 1978 173 121 1805 127 65 51 49 236 5236 62 5198 45 5180
is_linear=0
shrinkage=0.1


Tree=5
num_leaves=44
num_cat=0
split_feature=114 1 31 108 82 136 31 109 20 32 123 82 114 70 19 29 30 102 69 135 42 106 30 73 70 0 104 32 32 111 58 30 51 11 72 7 3 38 24 46 117 50 0
split_gain=1030.06 709.209 880.745 1308.82 817.212 804.476 1002.09 1162.13 917.932 883.812 1404.95 680.385 580.487 559.479 551.382 365.464 497.872 431.051 357.483 320.658 235.283 233.266 329.404 464.04 232.711 220.445 219.82 143.381 133.596 65.7716 63.2211 52.1496 51.1585 18.4014 3.42344 5.05039 15.3465 0.0139089 0.000531735 0.000284247 6.13545e-05 2.44557e-09 2.84217e-14
threshold=-0.8242276906967162 0.59710079431533825 0.99931102991104137 -1.0359154343605039 -1.4374862909317014 1.0000000180025095e-35 1.0048449635505678 -0.92497810721397389 1.2774087190628054 0.96324506402015697 -1.3158018589019773 -0.26298590004444117 -0.91714429855346669 -0.11801741644740103 1.5232173204421999 1.2029612660408022 1.0948801040649416 -0.94061532616615284 -0.37017111480236048 1.0000000180025095e-35 1.0866993665695193 -0.95610246062278736 1.093946695327759 -0.93247514963150013 -0.52755501866340626 0.60131868720054638 -0.79759392142295826 0.94666647911071788 0.88556039333343517 -1.1238905191421507 0.61420807242393505 1.0290728807449343 1.1863341927528384 0.75704696774482738 -0.70951983332633961 0.65473154187202465 0.57025772333145153 0.91630497574806224 1.2354910373687746 1.0652164816856386 -0.84178778529167164 1.0616943240165713 0.57780003547668468
decision_type=2 2 2 2 2 2 2 2 2 2 2 2 2 2 2 2 2 2 2 2 2 2 2 2 2 2 2 2 2 2 2 2 2 2 2 2 2 2 2 2 2 2 2
left_child=1 2 3 11 20 6 8 -8 -4 10 -7 13 -6 -1 21 18 24 -18 19 -16 -5 28 25 -24 -17 -23 -11 37 30 -30 -3 -20 -13 38 -35 -36 -37 39 40 41 -29 42 -2
right_child=27 14 5 4 12 9 7 -9 -10 26 -12 32 -14 -15 15 16 17 -19 31 -21 -22 22 23 -25 -26 -27 -28 33 29 -31 -32 -33 -34 34 35 36 -38 -39 -40 -41 -42 -43 -44
leaf_value=0.12780796362932756 -0.10476733246651787 0.14719340153837113 0.11776990114730149 0.16295017294711089 0.10068656665258711 0.010337433336840215 0.1373926191725488 0.072496717719984102 0.16419875177225429 0.20985320085762849 0.15648646923110704 -0.092125568279786074 0.04397662139725142 0.17742081473117424 0.066308396907451481 0.13225078365999038 0.13306504792703427 -0.022102604462026332 -0.13099574897558858 -0.10511239988672585 0.30290047062549241 0.14932969945593619 0.18813852882382626 0.07110523760829833 0.19989352002614935 0.190900918931771 -0.092074975605077491 -0.10589571244228363 0.045924320015599547 0.23420940626507403 -0.079005886919867457 0.21000554008362571 0.059598906490824846 0.18717020358923492 0.21507556282878385 0.21330993665846565 -0.10729378622608779 -0.11242750642103574 -0.10817804181600679 -0.10644735881809685 -0.10475626799877594 -0.10476201347370169 -0.10476733238374253
leaf_weight=7176.6944960281253 53.944248877465725 33.514671251177788 9922.9187226742506 1222.5456937253475 32723.14021390304 768.019241720438 4725.8758421167731 6631.7039690315723 7459.373563721776 2532.6814367622137 4581.7109961658716 130.17221046239138 1910.3616824746132 3326.5521875172853 311.00451941788197 2731.1568511128426 347.12959518283606 369.7023149728775 4.6610010713338843 168.1067166030407 133.21764750778675 2854.6761843413115 535.37257897853851 922.69505907595158 624.98390617966652 2306.0494488328695 24.345273181796074 0.93689333647489559 19.109041586518288 637.20687536895275 19.571633003652096 118.60696087777615 26.798246920108795 16.54652118682862 3.0618255138397164 3.0649633407592773 2.9111601039767265 2.4002417735755435 0.99390400946140278 1.0115827694535244 0.95350630581379214 0.86778569221496482 170.17195122689009
leaf_count=21816 1242 70 27366 3511 108326 2919 11683 21412 14845 3798 9401 852 7315 5022 994 5814 986 1659 26 877 222 5777 706 2531 963 3014 105 18 56 692 84 187 252 14 1 1 53 38 18 18 22 20 3918
internal_value=0 0.122045 0.11877 0.109656 0.10054 0.130372 0.1226 0.0994998 0.137694 0.158619 0.135505 0.140433 0.0975585 0.143521 0.14477 0.117937 0.128689 0.0530381 0.0452367 0.00616164 0.176702 0.161889 0.156048 0.114077 0.144847 0.167906 0.206979 -0.0784777 0.216385 0.228727 0.0637992 0.197112 -0.0662229 0.133141 0.160135 0.11064 0.0571337 -0.104855 -0.106305 -0.104775 -0.105321 -0.104767 -0.104767
internal_weight=0 95299.7 83296.1 46649.5 35989.3 36646.6 28739.9 11357.6 17382.3 7906.76 5349.73 10660.2 34633.5 10503.2 12003.5 4675.35 4072.97 716.832 602.379 479.111 1355.76 7328.2 6618.79 1458.07 3356.14 5160.73 2557.03 256.865 709.402 656.316 53.0863 123.268 156.97 28.4688 25.5845 9.03795 5.97612 228.396 2.8843 225.996 1.8904 224.984 224.116
internal_count=268644 263281 238845 147316 119374 91529 75306 33095 42211 16223 12320 27942 115641 26838 24436 11506 9422 2645 2084 1871 3733 12930 12028 3237 6777 8791 3903 5363 902 748 154 213 1104 127 69 55 54 5236 58 5198 40 5180 5160
is_linear=0
shrinkage=0.1


Tree=6
num_leaves=40
num_cat=0
split_feature=114 40 103 45 58 29 79 125 117 40 111 91 35 132 71 122 106 107 98 41 53 59 123 70 32 37 60 0 31 65 118 74 122 38 35 31 45 50 0
split_gain=775.656 610.153 1211.16 1297.49 1180.7 903.235 1019.41 790.079 969.572 943.548 778.356 753.079 697.944 663.824 574.741 367.636 282.527 325.452 564.463 425.716 415.025 228.889 157.689 150.357 125.926 97.7078 94.6245 99.9641 38.1644 9.10288 15.8391 1.70843 0.0706524 0.0104254 0.0103872 0.000926664 0.000207415 2.23736e-09 2.84217e-14
threshold=-0.8242276906967162 1.0715711712837221 -0.78725269436836232 1.1310960054397585 0.86126020550727855 1.0930380225181582 -1.2983479499816892 -1.5745850801467893 -1.5329530239105222 1.0411559939384463 -1.2482907772064207 -0.31033867597579951 0.91814178228378307 1.0000000180025095e-35 -0.38140203058719629 -1.3519505858421323 -0.94731625914573658 -0.98149657249450672 -0.76903823018074025 1.1148351430892947 1.1138595342636111 0.84451493620872509 -2.1975225210189815 -0.13985252380371091 0.94666647911071788 0.99983334541320812 0.79026478528976452 -0.063784822821617113 1.0000000180025095e-35 0.30106447637081152 -0.85537865757942189 -0.39634768664836878 -0.97370752692222584 0.91630497574806224 0.93519744277000438 0.99639445543289196 1.0491865873336794 1.0616943240165713 0.68372839689254772
decision_type=2 2 2 2 2 2 2 2 2 2 2 2 2 2 2 2 2 2 2 2 2 2 2 2 2 2 2 2 2 2 2 2 2 2 2 2 2 2 2
left_child=1 2 3 4 13 6 -5 8 10 14 -4 -10 -6 -1 -9 -7 26 20 23 -20 25 -11 -22 -19 33 -18 27 -3 -28 -26 -31 -30 35 36 -29 -32 37 38 -2
right_child=24 16 7 5 12 15 -8 9 11 21 -12 -13 -14 -15 -16 -17 17 18 19 -21 22 -23 -24 -25 29 -27 28 34 31 30 32 -33 -34 -35 -36 -37 -38 -39 -40
leaf_value=0.10449444902692828 -0.10429314814230323 0.27887048172830003 0.057085895821781363 0.20725841747231347 0.037069849843241895 0.14988353941122579 0.093114193152326941 0.099429813078050308 0.053446216611693548 0.23790877548347106 0.18223360452644646 -0.11774745936323974 0.099066878846720927 0.1457304493410202 -0.060984304774632569 0.21314408127475165 -0.079365602565024493 0.19367298229013408 0.0066180302001377818 0.12689741177462735 -0.023187229054544026 0.14590836679025362 0.18362640775107297 0.026936454593573578 0.16800272124766671 0.27037579786547133 0.21958522430111521 -0.13985581192673721 -0.16166391250595238 0.13571975278297094 -0.10490530342683527 -0.12446441893482284 -0.13702255447134609 -0.11122988409468589 -0.14661958053515287 -0.10883313355750612 -0.10579739430938279 -0.10428781092747777 -0.10429314806727547
leaf_weight=61801.691555142403 49.850241761654615 14.614329606294634 911.16411484777927 977.28128926455975 4055.5082873553038 1840.7580634206533 3924.0427335947752 1853.4121224880219 8592.2644796483219 577.61962804198265 1093.2717870771885 264.88131453841925 3288.0738162100315 4167.1423294693232 253.95395551621914 1833.874580770731 77.690285429358482 722.52524203062057 543.9250389225781 641.10092431306839 37.53352902084589 508.47630263864994 2077.1899080276489 58.458843275904655 16.743761286139492 8.9033762216567975 3.0524654388427725 4.8633186966180784 27.058529287576672 7.5766492076218146 1.92910970002413 22.705747365951542 1.006091285496945 2.1940176039934149 4.258772000670433 0.87221438065171231 0.92075233906507392 0.7884933277964582 153.81345112994313
leaf_count=155503 1263 14 3661 1880 14091 4510 11811 5628 30977 963 1722 2891 8620 8069 1191 2978 334 1309 2163 1373 154 1412 1497 202 24 8 1 24 123 29 45 152 13 38 20 16 18 20 3897
internal_value=0 0.104157 0.102516 0.10717 0.102865 0.143974 0.115874 0.0753957 0.0625397 0.119121 0.125345 0.0483265 0.0648289 0.107099 0.0800987 0.181455 0.141262 0.144759 0.115189 0.0716894 0.171169 0.194837 0.179956 0.181192 -0.0774657 -0.0434059 -0.0491064 0.116737 -0.123638 0.121095 0.052103 -0.144691 -0.114292 -0.104373 -0.143014 -0.106128 -0.1043 -0.104293 -0.104293
internal_weight=0 100187 95943.4 81888.4 73312.4 8575.96 4901.32 14055 10861.6 3193.46 2004.44 8857.15 7343.58 65968.8 2107.37 3674.63 4243.88 4167.33 1966.01 1185.03 2201.32 1086.1 2114.72 780.984 235.695 86.5937 76.5532 23.7364 52.8167 28.1278 11.3841 49.7643 3.80742 207.567 9.12209 2.80132 205.373 204.452 203.664
internal_count=268644 263281 255907 207462 186283 21179 13691 48445 39251 9194 5383 33868 22711 163572 6819 7488 7374 7040 5047 3536 1993 2375 1651 1511 5363 342 334 58 276 127 103 275 74 5236 44 61 5198 5180 5160
is_linear=0
shrinkage=0.1


Tree=7
num_leaves=45
num_cat=0
split_feature=114 39 103 51 3 74 71 125 113 56 40 30 70 34 127 105 40 106 122 31 108 47 27 42 136 75 30 60 70 103 67 99 80 33 1 73 29 32 30 118 45 6 49 19
split_gain=598.299 573.182 943.729 874.112 752.511 695.906 658.441 1045.82 1000.69 988.658 602.678 490.828 465.271 322.005 290.987 585.596 500.629 322.888 272.523 267.324 240.224 188.901 147.892 160.427 134.808 121.77 111.651 95.6865 75.8038 291.176 63.7106 58.8367 35.9739 10.3185 15.2296 2.18133 2.11515 0.045724 0.00504086 0.00144175 2.19013e-05 4.00641e-05 3.33955e-11 5.68434e-14
threshold=-0.8242276906967162 1.0379819869995119 -0.78638690710067738 1.1334136724472048 0.55692356824874889 -0.93958795070648182 -0.24299696832895276 -1.5745850801467893 -0.96231070160865773 1.0194234251976015 1.0411559939384463 1.0362124443054201 -0.20790015161037442 0.83249786496162426 -2.0200728178024288 -0.80002155900001515 1.0731771588325503 -0.94731625914573658 -1.3956666588783262 0.9943005144596101 -1.0533615350723264 1.2245880961418154 1.1263031959533694 1.115956783294678 1.0000000180025095e-35 -1.0568661093711851 1.0445834994316103 0.79026478528976452 -0.18498145788908002 -0.76637235283851612 0.25987698137760168 -0.80253061652183522 -1.2688876986503599 0.91258990764617931 0.50613242387771618 -0.90176442265510548 1.0954177975654604 0.94666647911071788 1.0544909834861758 -0.85537865757942189 1.06694632768631 0.62635722756385814 0.84218153357505809 1.5232173204421999
decision_type=2 2 2 2 2 2 2 2 2 2 2 2 2 2 2 2 2 2 2 2 2 2 2 2 2 2 2 2 2 2 2 2 2 2 2 2 2 2 2 2 2 2 2 2
left_child=1 2 3 4 5 -1 7 8 -4 13 -9 -6 19 -8 15 17 32 27 -18 -5 -11 -19 23 25 -14 -16 39 -3 29 -24 -25 -30 -17 34 -28 -35 -37 38 -36 -2 42 -42 43 -41
right_child=26 14 6 12 11 -7 9 10 -10 20 -12 -13 24 -15 22 16 18 21 -20 -21 -22 -23 28 30 -26 -27 33 -29 31 -31 -32 -33 -34 35 37 36 -38 -39 -40 40 41 -43 -44 -45
leaf_value=0.097980970575188647 -0.10655666526529686 0.076130653436672968 0.044171350387124157 0.12204288748671144 0.031394350454415389 0.069559790807961389 -0.11671805068678461 0.068107772734380442 -0.075530496643568909 0.10006324496497521 0.15916477281136987 0.10057429149270086 0.062661047481604268 0.13865025379994331 0.14501886742726314 -0.054580463234912384 0.0035957473843707941 0.10476860100202892 0.13648647884183857 0.17045722710951147 -0.055842558532501578 0.15430788151533145 0.19515841027397873 0.0059171082164611311 -0.069195338379765256 -0.086476986775669742 0.17829239066957919 -0.1394261018726875 0.040318373312301779 -0.11216495856730767 0.18975875498736461 0.21853215888053909 -0.13545422466872251 0.17371893793568147 -0.11306275920035341 0.17140013540497714 0.066827563101722276 -0.13057434752727354 -0.10434476206419954 -0.10386796337552864 -0.10384167575733311 -0.10477554625841945 -0.10386727930450589 -0.10386796337552864
leaf_weight=13192.358248442411 2.0212009437382212 32.859294936060905 6620.9169033616781 3089.2829841375351 1051.9361994713545 24831.055147886276 50.442420806735754 2074.4672217220068 780.74257850646973 131.13310666754842 1118.9372812062502 40931.323763132095 274.10096630454063 2338.9053365588188 36.879945516586304 169.31492877006531 250.68502769619226 1255.5046592354774 401.42768539488316 1807.9294892251492 401.20985131710768 1989.3670017793775 179.24653638899326 21.748390719294548 108.12376661598682 59.191261649131775 3.0313313007354763 55.167814634740353 19.20211698114872 37.233276724815369 141.47341440618038 525.60483455657959 81.464745223522186 12.350856773555281 1.3276017531752589 3.1460983604192716 5.0213495530188084 1.4951717890799043 1.3253618776798246 174.35025122389197 1.1755830533802498 0.75406095758080471 0.71693038195371528 9.751854479312895
leaf_count=33113 37 84 24404 8047 3612 69044 538 6514 3687 412 2291 89649 874 3987 67 772 911 2915 819 3139 3932 1701 218 61 496 244 1 315 52 165 212 581 425 6 21 2 43 13 34 4863 33 18 20 272
internal_value=0 0.090033 0.0883212 0.092212 0.0896114 0.0794206 0.0637717 0.0521816 0.0315449 0.105802 0.100013 0.0988409 0.131623 0.133259 0.12221 0.110661 0.0392237 0.130014 0.0854007 0.139916 -0.017438 0.13514 0.170144 0.104916 0.0253615 0.00238996 -0.0763902 -0.0589618 0.19236 0.142301 0.165263 0.212251 -0.080852 0.1111 0.00791637 0.147204 0.107109 -0.116589 -0.108707 -0.1039 -0.103871 -0.104207 -0.103868 -0.103868
internal_weight=0 104059 98802.9 85286.1 80006.7 38023.4 13516.8 10595.1 7401.66 2921.69 3193.4 41983.3 5279.44 2389.35 5256.37 4235.79 902.892 3332.9 652.113 4897.21 532.343 3244.87 1020.58 259.293 382.225 96.0712 216.468 88.0271 761.287 216.48 163.222 544.807 250.78 27.6978 7.17947 20.5183 8.16745 4.14814 2.65296 188.77 186.749 1.92964 184.819 184.102
internal_count=268644 263281 253739 207974 195418 102157 45765 36896 28091 8869 8805 93261 12556 4525 9542 7942 2927 5015 1730 11186 4344 4616 1600 584 1370 311 5363 399 1016 383 273 633 1197 120 69 51 45 68 55 5243 5206 51 5155 5135
is_linear=0
shrinkage=0.1


Tree=8
num_leaves=63
num_cat=0
split_feature=39 103 51 57 36 125 70 39 73 30 54 70 109 125 112 71 71 111 75 48 127 105 28 40 127 92 130 82 108 108 109 125 52 53 61 52 36 128 127 124 43 108 99 99 43 104 71 50 74 94 54 9 22 47 73 41 60 39 56 74 35 35
split_gain=541.422 962.665 606.796 1057.24 814.433 730.339 724.947 567.916 1067.28 773.798 567.435 1364.01 1510.04 674.277 707.786 570.244 707.139 466.082 443.088 498.725 431.625 804.174 395.925 386.974 422.487 541.642 381.737 376.744 351.343 328.621 361.726 370.126 341.783 253.591 236.13 216.327 185.128 209.098 181.471 181.468 404.082 156.435 145.013 138.289 134.893 129.259 121.796 95.5506 83.5654 75.777 63.9179 150.719 56.044 45.5357 45.3157 40.3557 39.2796 37.1678 25.4755 0.692805 0.08998 0.0713683
threshold=1.0297078490257265 -0.78725269436836232 1.1219635605812075 0.90750575065612804 0.9249786138534547 -1.5487100481986997 -0.21462979167699811 0.97272640466690075 -0.78760334849357594 1.0624033808708193 1.0759813189506533 -0.14489205181598661 -1.1247320175170896 -1.556679308414459 -0.93293097615241993 -0.17610869556665418 -0.38744992017745966 -1.2782589793205259 -1.0189152359962461 1.1605164408683779 -1.9909752011299131 -0.81927734613418568 1.1003527045249941 1.076943099498749 -2.0523958206176753 -1.0112892389297483 1.0000000180025095e-35 -0.176873043179512 -1.0288832187652586 -1.0922426581382749 -1.1273101568222044 -1.7536983489990232 1.1439988017082217 1.0823547244071963 0.73460286855697643 1.1791751980781557 0.96834430098533641 1.0000000180025095e-35 -1.842601954936981 -1.648704409599304 1.1682410240173342 -0.8880929946899413 -0.81720751523971547 -0.78225079178810109 1.11011278629303 -0.75469854474067677 -0.29947800934314722 1.1822198033332827 -0.87143552303314198 -0.98286136984825123 1.0546879768371584 0.59298750758171093 0.93094402551651012 1.1657530665397646 -0.40279063582420344 1.1018652319908144 0.79271715879440319 1.0305813550949099 1.0289838314056399 -0.39634768664836878 0.86121353507041942 0.95353302359581005
decision_type=2 2 2 2 2 2 2 2 2 2 2 2 2 2 2 2 2 2 2 2 2 2 2 2 2 2 2 2 2 2 2 2 2 2 2 2 2 2 2 2 2 2 2 2 2 2 2 2 2 2 2 2 2 2 2 2 2 2 2 2 2 2
left_child=1 2 3 7 26 -6 18 9 -9 -1 11 13 47 14 -3 16 41 -18 33 -20 21 29 -15 24 35 -26 -5 58 -14 54 32 -32 -31 -4 45 -23 37 43 42 40 -25 -12 -8 -36 -40 50 -41 -13 53 -39 51 -22 -50 -38 55 -2 61 -52 -17 -56 -29 -47
right_child=20 10 6 4 5 -7 38 8 -10 -11 15 12 28 22 -16 27 17 -19 19 -21 34 23 -24 39 25 -27 -28 60 -30 30 31 -33 -34 -35 36 -37 48 49 44 46 -42 -43 -44 -45 -46 56 -48 -49 52 -51 57 -53 -54 -55 59 -57 -58 -59 -60 -61 -62 -63
leaf_value=0.060080127226793449 0.14946716594339704 0.030960880119210311 0.20386235598221092 0.026228124173344282 0.033369328567736715 0.10315522448055869 -0.1002341049230086 0.14247942338799813 0.074806294477080287 0.085220084653925721 0.096736548752466858 -0.091131161154855422 0.18601514204561065 -0.10714629394885111 -0.10243318793213754 0.22747517137740411 0.19984059759617612 -0.056779193671106787 0.05142486100711996 0.11928742292667081 0.063814359266992235 -0.052038374021675854 0.087456992531079386 -0.10603599373704148 -0.12425215606994483 0.11750470475797399 -0.052564680992010254 -0.1121316418244839 -0.12858853639093554 0.0054259785739333797 0.069748567227469402 0.19252194985815879 0.15927135375555271 0.12664794848104283 0.1325118801691301 0.10731006741842153 -0.0068977894935645656 0.10160030365869271 -0.073970943247579302 0.15352569317053361 0.10354019056787829 -0.04197638007978563 0.01325658462855186 -0.1333687388999156 0.24689202977539476 -0.13816198898851845 -0.15095808847339945 0.15926145669942987 0.19825039310140155 -0.081993305654191925 0.2628179931109737 0.2213467961084418 -0.15482376353472779 0.16521166196652762 -0.1498119656965515 -0.14185288389123996 0.11499169847470359 0.19229107620046701 0.12780954991656562 -0.12716357308384735 -0.13306180675059059 -0.15347752896830613
leaf_weight=17391.832826405764 12.459594845771791 4127.9948719292879 483.21947601437569 3083.8267287909985 2902.2203427404165 3103.0884476229548 159.91469596326351 4113.8578405976295 5375.8914678245783 41358.149673864245 580.96328418701887 258.62025774270296 1475.6288839317858 108.68333078920841 440.18263241648674 167.01132819056511 74.240775041282177 1516.2309655025601 1902.4867356717587 2513.870613053441 123.4209299236536 742.58096038550138 2747.189783833921 119.45132555067539 112.75191870331764 520.40999059379101 768.01441024616361 41.264754202216864 36.372955299913883 155.28024779260159 1582.0265827327967 290.66563928127289 2061.8179643526673 3551.1434960179031 232.63507163524628 96.236344117671251 15.941259652376173 28.433968007564545 18.224427729845047 407.37539406120777 400.3186429515481 94.530963063240051 380.41304410994053 21.358101487159729 46.618762016296387 11.417016461491587 13.575004518032072 16.194517843425274 6.5228264331817654 107.38706329464912 85.060607701539993 119.57418331503868 14.466138139367102 430.80693170428276 23.9637251496315 7.6900084018707267 9.5958321243524534 614.87343534827232 30.299661442637444 30.950359582901001 2.1615964993834487 4.1479874402284613
leaf_count=50667 24 14445 579 9726 8256 6930 698 7445 13820 87964 1982 1189 1333 2212 2179 87 114 9524 5508 5535 302 3435 7333 518 594 1229 3168 454 215 529 3965 380 1691 7346 511 404 48 59 79 629 892 439 1326 118 44 59 64 33 5 499 97 139 65 543 112 38 25 725 77 206 13 19
internal_value=0 0.0762455 0.0798636 0.0770222 0.0464087 0.0694294 0.104367 0.0814443 0.104143 0.0777779 0.0493347 0.0608147 0.139255 0.0419357 0.0181072 0.00715165 -0.00839454 -0.0448006 0.111939 0.0900535 0.102685 0.0907453 0.0800512 0.0448053 0.0127892 0.0744532 0.0105177 0.153482 0.178447 0.117358 0.121164 0.0888046 0.148496 0.135896 0.145704 -0.0337565 0.107492 0.0565969 -0.00136194 0.094902 0.0553763 0.0773246 -0.020332 0.110154 0.156712 0.179552 0.143707 -0.0763758 0.149909 -0.0435582 0.185521 0.141334 -0.0450975 0.15907 -0.0899817 0.0382861 -0.0441392 0.200862 0.21217 -0.137047 -0.113173 -0.142243
internal_weight=0 98870.3 87152.8 78096.9 9857.15 6005.31 9055.89 68239.7 9489.75 58750 11717.6 9210.87 1786.82 7424.05 4568.18 2506.7 2265.97 1590.47 8450.72 4416.36 8403.2 6577.55 2855.87 2412.7 1471.98 633.162 3851.84 240.737 1512 4164.85 4089.79 1872.69 2217.1 4034.36 1825.64 838.817 857.551 389.814 605.171 940.72 519.77 675.494 540.328 253.993 64.8432 968.09 420.95 274.815 467.737 135.821 942.929 242.995 20.989 446.748 75.0637 20.1496 25.1608 699.934 197.311 54.9141 43.4264 15.565
internal_count=268644 250720 209091 187976 28080 15186 21115 159896 21265 138631 41629 28939 2770 26169 16624 12690 12059 9638 18968 11043 17924 14710 9545 7765 5662 1823 12894 631 1548 6945 6565 4345 2220 7925 3214 3839 1848 1187 2147 2103 1410 2421 2024 629 123 1366 693 1222 661 558 1263 441 70 591 380 62 103 822 164 318 467 78
is_linear=0
shrinkage=0.1


Tree=9
num_leaves=63
num_cat=0
split_feature=130 105 40 125 96 116 31 134 5 28 69 41 30 108 129 31 131 50 73 0 76 98 125 123 79 23 32 116 118 31 45 122 52 33 123 75 124 121 34 68 74 69 83 113 134 35 118 74 102 2 104 105 35 99 29 4 5 33 33 105 73 61
split_gain=525.057 732.745 869.894 604.839 715 659.372 547.425 1323.6 721.222 624.644 569.874 551.486 659.656 729.507 543.146 533.125 718.838 454.277 709.429 692.733 562.803 426.835 418.968 394.606 366.325 363.708 457.429 345.382 285.448 265.199 255.066 609.703 249.991 221.184 217.659 217.373 247.74 193.094 166.13 147.021 136.999 130.652 128.882 193.064 126.678 105.969 105.41 130.837 80.63 83.3418 73.4241 91.7298 68.3666 63.8301 41.4915 35.415 29.9182 14.8809 11.9675 11.42 0.169331 0.119978
threshold=1.0000000180025095e-35 -0.81309309601783741 1.0290021300315859 -1.5230466723442075 -0.94022822380065907 -1.0406168699264524 0.99652597308158886 1.0000000180025095e-35 0.50459179282188427 1.1356164216995241 -0.11059932410717009 1.1119706630706789 1.0685206651687624 -1.0273495912551878 1.0000000180025095e-35 1.0135056376457217 1.0000000180025095e-35 1.1427581906318667 -0.79974240064620961 0.39119037985801702 -1.0075314640998838 -0.99486231803894032 -1.6074253916740415 -1.2493216991424558 -1.1198133230209348 1.3010329008102419 0.96547812223434459 -1.0431309938430784 -0.96634534001350392 0.9931047558784486 1.0956718921661379 -1.1007389426231382 1.0917626619338991 0.93648821115493786 -1.3434836268424986 -1.0963841676712034 -1.5806452631950376 -1.8583528995513914 0.90644443035125744 0.12568392604589465 -0.98771932721137989 -0.10342618450522421 -1.2507582306861875 -0.99334821105003346 1.0000000180025095e-35 0.94218382239341747 -0.93064144253730763 -1.0374900102615354 -0.81611475348472584 0.47710716724395758 -0.79322725534439076 -0.80105391144752491 0.92223525047302257 -0.84349223971366871 1.1730639338493349 0.70787864923477184 0.520677149295807 0.89374253153800975 0.83550992608070385 -0.81221616268157948 -0.93556964397430409 0.72573983669281017
decision_type=2 2 2 2 2 2 2 2 2 2 2 2 2 2 2 2 2 2 2 2 2 2 2 2 2 2 2 2 2 2 2 2 2 2 2 2 2 2 2 2 2 2 2 2 2 2 2 2 2 2 2 2 2 2 2 2 2 2 2 2 2 2
left_child=6 2 3 5 23 24 7 11 9 33 -11 12 13 -1 -14 17 28 18 19 -8 -20 54 27 -5 -2 26 30 32 44 -23 59 -32 -4 -9 -7 61 -37 58 -6 -39 48 52 43 -28 -17 -29 47 -18 49 -27 -42 -52 -24 -43 -10 -30 -44 -50 -13 -3 -48 -19
right_child=1 25 22 4 38 34 15 8 21 10 -12 37 14 -15 -16 16 46 35 20 -21 -22 29 41 -25 -26 40 42 45 55 -31 31 -33 -34 -35 -36 36 -38 39 -40 -41 50 53 56 -45 -46 -47 60 -49 57 -51 51 -53 -54 -55 -56 -57 -58 -59 -60 -61 -62 -63
leaf_value=0.077112899849107394 0.080078850022415882 -0.036814583575579915 0.22814308864083377 -0.016808558963949307 0.11468805991938238 -0.10608952148536806 0.15274007705207229 -0.055147610813070361 0.052341984733585312 0.0060986223608157893 0.1711555050550948 -0.020488772387485307 0.0846785041041824 0.045109060523617933 -0.060222656241429764 0.097574877882732045 0.093906091989626295 -0.15650486329842109 0.056304181212168139 0.085164875431590278 0.10507306729703952 -0.10186505169521878 0.12007767081160665 0.063570039549927737 -0.076111798800410899 0.35980782759495911 0.23280169202714857 -0.12455012325840686 -0.14926270883948572 -0.020051966339509449 -0.05292248829899459 0.12216231132099337 0.089764246095762223 0.1503852133648021 -0.015067792756309845 0.078627822964446814 0.14474939827758287 -0.021917930318232057 0.20614539710020929 0.12483263414713547 -0.14041614372114863 0.090232173503934629 -0.14232411885102475 0.057831398382228331 -0.15663692195562623 0.1559283203438443 -0.13559330024366173 -0.056314573427822062 0.19315526848200104 -0.13802363495592471 0.27673224232533239 -0.13805010494258396 -0.15404161790566975 0.22221049631331541 0.20078582743883891 0.032744989249450913 0.13335659780502016 0.29746454168606146 -0.14545181209417526 -0.13961574763935111 -0.14654570396320268 -0.14184944769153607
leaf_weight=11407.57962616533 935.05888882279396 11.350570142269133 149.00792120397091 789.37500682473183 572.93883796036243 468.07469376921654 1624.5728675872087 465.63329469040036 25.593920290470123 345.74126489460468 529.56890304386616 10.781938195228575 15624.077524408698 18960.420929735526 263.04095293581486 908.15708081424236 65.672379314899445 21.110605672001842 15648.307316526771 22914.085484854877 2787.8809463828802 685.29755245149136 25.674537971615791 2699.549865834415 178.88829472661018 4.9371891021728507 77.020527303218842 89.170445799827576 58.047997578978539 939.24464972317219 1137.5246376395226 241.03913719393313 1054.0571917891502 58.992400854825974 598.80613492429256 824.96391971409321 1809.6130232959986 70.507013864815235 303.99955786764622 2149.9710008017719 18.450751513242722 39.905482739210129 31.402632683515549 347.98859895765781 20.03495155274868 15.867395505309103 16.562549099326134 494.92123574018478 18.146452009677887 10.545337222516535 14.77765864133835 8.3412676975131017 14.092377096414564 448.5745942145586 71.241170093417168 13.104146480560301 4.5008314698934546 55.525499254465103 26.499400436878204 225.30202014185488 95.569422841072083 7.5960277318954459
leaf_count=29997 2458 42 156 2722 1292 2055 2412 2071 47 1182 963 103 30382 61534 945 1695 153 92 38539 45595 5263 2936 43 7469 740 2 77 377 264 3339 4700 568 2643 129 2113 1784 2674 206 340 2339 92 84 154 917 87 25 88 1712 28 69 17 43 63 333 27 35 11 33 157 1748 443 37
internal_value=0 0.047755 0.0612514 0.0441906 0.0656731 0.00118415 0.0711831 0.0640632 0.000942706 0.0542455 0.105959 0.0681243 0.0657687 0.0571311 0.0822794 0.0789537 0.0234945 0.0809856 0.0785019 0.0896387 0.0636789 -0.0424066 0.122074 0.0453842 0.0549963 -0.0035128 -0.0136997 0.0917204 0.0772905 -0.054564 -0.0387739 -0.0223093 0.106903 -0.0320361 -0.0550019 0.121063 0.124045 0.116383 0.146393 0.120173 0.158273 0.197239 0.0741703 0.0895397 0.0920877 -0.08218 -0.0564202 -0.0387165 0.228176 0.0207288 0.00835124 0.12708 0.0229368 0.211429 0.161551 -0.115742 -0.107765 0.271772 -0.109312 -0.134685 -0.144928 -0.152627
internal_weight=0 10589.9 8383.04 6546.69 4365.86 2180.83 98944.4 51634.2 3121.31 1399.94 875.31 48512.9 46255.1 30368 15887.1 47310.2 1672.07 45638.1 42974.8 24538.7 18436.2 1721.38 1836.35 3488.92 1113.95 2206.85 2076.13 1308.1 999.344 1624.54 1615.22 1378.56 1203.07 524.626 1066.88 2663.28 2634.58 2257.76 876.938 2220.48 130.724 528.247 460.913 425.009 928.192 105.038 672.726 560.594 89.1545 15.4825 41.5697 23.1189 39.7669 488.48 96.8351 71.1521 35.9035 73.672 37.2813 236.653 112.132 28.7066
internal_count=268644 31414 22913 19189 11823 7366 237230 136357 10694 4345 2145 125663 122858 91531 31327 100873 4477 96396 91809 48007 43802 6349 3724 10191 3198 8501 8217 3201 2081 6275 7058 5268 2799 2200 4168 4587 4458 2805 1632 2545 284 523 1159 994 1782 402 2396 1865 132 71 152 60 106 417 74 299 165 61 260 1790 531 129
is_linear=0
shrinkage=0.1


Tree=10
num_leaves=60
num_cat=0
split_feature=39 104 44 132 30 74 133 107 125 114 34 94 126 0 130 47 29 71 33 31 0 111 73 40 109 121 92 131 124 102 124 94 125 42 7 103 52 107 35 106 20 97 68 105 47 117 60 7 125 103 83 36 34 74 73 105 104 40 126
split_gain=438.496 641.85 612.53 725.443 875.522 626.009 821.774 681.22 566.745 1370.24 1305.35 603.103 1211.78 589.159 477.066 461.66 458.757 343.211 302.013 278.863 380.375 236.26 507.367 341.432 235.452 226.633 203.719 329.458 213.083 195.537 179.538 208.732 171.237 170.067 165.457 155.375 152.498 130.011 121.66 118.878 99.2446 98.2707 95.9354 92.1975 93.9874 91.6706 81.4251 71.4645 69.0115 50.8096 44.3554 35.8914 23.9872 1.05145 1.02968 0.411848 0.396288 0.0887976 0.0437307
threshold=1.0356733202934267 -0.82646819949150074 1.0907154083251955 1.0000000180025095e-35 1.0539994835853579 -0.92185163497924794 1.0000000180025095e-35 -0.947414070367813 -1.5745850801467893 -0.98313194513320912 0.91031634807586681 -0.98574876785278309 -1.657136023044586 0.40693542361259466 1.0000000180025095e-35 1.1488847732543948 1.2502279877662661 -0.4387564063072204 0.87692904472351085 0.95564439892768871 0.70590594410896312 -1.2516118288040159 -0.70523205399513234 1.0699939727783205 -0.88140603899955738 -1.8583528995513914 -1.0141122937202451 1.0000000180025095e-35 -1.5339283943176267 -0.75331753492355336 -1.4794155955314634 -0.96876686811447132 -1.556679308414459 1.0291827321052553 0.54901033639907848 -0.73835346102714527 1.0423386693000796 -1.0164732336997984 0.95183005928993236 -0.90773776173591603 1.1413694024086001 -0.81062957644462574 0.14130332320928576 -0.80699983239173878 1.217753052711487 -1.1104859709739683 0.80822536349296581 0.40077432990074163 -1.6163206696510313 -0.80572086572647084 -0.23929039388895032 0.94134604930877697 0.85249659419059765 -0.39634768664836878 -0.3695076704025268 -0.80699983239173878 -0.7210627794265746 1.0749433636665346 -1.7318847775459287
decision_type=2 2 2 2 2 2 2 2 2 2 2 2 2 2 2 2 2 2 2 2 2 2 2 2 2 2 2 2 2 2 2 2 2 2 2 2 2 2 2 2 2 2 2 2 2 2 2 2 2 2 2 2 2 2 2 2 2 2 2
left_child=1 2 3 4 14 26 18 -8 9 13 17 12 -12 15 -1 -3 -6 24 -7 20 -5 25 35 29 -10 52 27 -4 -28 40 49 -32 -13 -15 -19 41 -21 54 58 -39 -24 45 -40 44 46 -23 -27 -43 -31 -11 56 -46 -2 55 -25 -54 -45 -55 -37
right_child=21 8 5 19 16 6 7 -9 10 30 11 32 -14 33 -16 -17 -18 34 -20 36 -22 22 23 37 -26 43 28 -29 -30 48 31 -33 -34 -35 -36 38 -38 39 42 -41 -42 47 -44 50 51 -47 -48 -49 -50 -51 -52 -53 53 57 -56 -57 -58 -59 -60
leaf_value=0.008829745534310502 0.097053056283796846 0.013237347087159955 0.12889195667533912 0.020934706241686692 0.062447133738733257 -0.033916131791025331 0.12654966122849234 -0.047482502134550165 0.056395967207505532 0.10065909789990404 -0.042284895842405829 0.089241009416673678 0.080609482141480254 0.19253304436483343 0.10019325471555918 0.050107187902044673 -0.088655682750600331 0.16009228419821475 0.054563782190650112 0.12837113232972044 0.12757112527186684 0.20410319203631935 -0.09830075284048076 -0.15765682886154683 0.0039868769682961137 0.094109416558625952 -0.027526387527682362 0.031251665684768365 0.18983923789589627 -0.11254303972944391 -0.093239590838526731 0.014264103761625747 0.141045939912466 0.091947523916425633 -0.091874255569686647 -0.13386638271453674 0.049754331987050524 0.10239433369456091 -0.14419743827660467 0.0514101246641325 0.055687567767919846 0.17533599209663298 0.11570709508721783 -0.15152785879262587 0.13425673864404211 0.12360469787145785 -0.12362437813568011 0.030707945596798066 0.2262514202438978 -0.1318928781920462 0.27877638809909827 0.030555446930058489 -0.16864858141825256 -0.13977303313657852 -0.12136736866594067 -0.13225098839102264 -0.12017873439286034 -0.12255776949168283 -0.14495456690114339
leaf_weight=4801.3131179735065 4.6939645260572425 4834.4037680476904 1919.2381981164217 809.39307478070259 51255.145373571664 420.31681099534035 2829.4627553224564 244.3437185138464 1369.4491194337606 9.6329384595155698 903.78361402451992 1028.9349908083677 7148.2080279104412 284.73939314484596 648.74558026902378 11414.890100598335 201.71733681857586 28.034067690372467 4694.5569953471422 2410.1406583487988 570.12283755838871 157.92199790477753 51.681809410452843 14.946616664528849 2291.7516949605197 48.952233254909515 48.649899557232857 421.46285092830658 617.89547377824783 201.68080720305443 379.02443589270115 345.01312094926834 1679.5524980127811 410.32077430188656 370.37122855521739 35.580231986939907 274.87654753029346 648.53958737850189 17.083256006240845 1551.1638082787395 220.08332315087318 42.686105400323868 84.207209438085556 5.6026731878519103 1536.2481266707182 1357.6766874939203 26.458695635199547 171.15609015524387 6.1971627771854392 380.66852506622672 3.0788631178438655 34.116282023489475 13.897748485207559 3.8066693544387844 16.395536430180073 4.0045755095779887 14.387082278728485 14.073257520794867 3.9519132971763602
leaf_count=16711 19 15074 3148 2263 110260 1488 5378 859 3326 21 3131 2217 16034 369 1754 35049 970 52 11996 3265 675 121 228 68 9682 102 163 1087 668 1010 1681 1282 2644 892 2123 195 735 873 84 3772 587 46 157 26 1059 2102 107 487 3 2043 14 83 62 20 125 30 106 99 19
internal_value=0 0.0594049 0.0646811 0.0607332 0.0578181 0.0861805 0.0718507 0.112715 0.0478241 0.0359304 0.062317 0.0805461 0.0668154 0.0429944 0.0197052 0.0391379 0.0618548 0.0139986 0.0472929 0.101548 0.0650051 0.0865866 0.0747482 0.0471046 0.0235902 0.118313 0.1252 0.111311 0.173974 -0.0294388 -0.0714833 -0.0420127 0.121366 0.133154 -0.0741445 0.114814 0.120323 0.0635603 0.0138058 0.0664418 0.0264035 0.123039 0.0718726 0.123984 0.126767 0.131992 0.0177153 0.0595779 -0.102443 -0.126153 -0.0745458 0.132004 -0.115493 -0.143376 -0.138673 -0.160507 -0.128965 -0.126223 -0.134975
internal_weight=0 105046 72167.4 60971.5 56906.9 11195.9 8188.68 3073.81 32878.8 18058.7 14820.1 10760.5 8051.99 16944.4 5450.06 16249.3 51456.9 4059.61 5114.87 4064.53 1379.52 6290.27 4580.95 2710.69 3661.2 1709.32 3007.25 2340.7 666.545 479.643 1114.34 724.038 2708.49 695.06 398.405 1870.26 2685.02 2231.05 140.823 2199.7 271.765 1729.44 101.29 1668.84 1645.78 1515.6 75.4109 213.842 207.878 390.301 23.0686 1570.36 40.4762 35.7823 31.3422 17.9023 19.9898 17.8799 39.5321
internal_count=268644 257040 161420 136633 129695 24787 19721 6237 95620 56411 39209 24026 19165 51384 18465 50123 111230 15183 13484 6938 2938 11604 9877 6666 13008 1727 5066 4235 831 1828 5027 2963 4861 1261 2175 3211 4000 4838 455 4645 815 2756 241 1497 1351 2223 209 533 1013 2064 146 1142 230 211 193 92 132 119 214
is_linear=0
shrinkage=0.1


Tree=11
num_leaves=63
num_cat=0
split_feature=130 31 107 81 110 113 31 134 55 31 136 29 41 58 31 131 73 119 45 52 39 32 81 96 76 4 76 86 77 29 118 125 35 33 115 106 32 122 96 104 72 53 103 1 82 76 77 30 104 68 102 7 118 75 27 102 70 4 36 42 81 73
split_gain=412.183 600.183 581.102 750.281 695.943 691.982 417.626 847.869 560.47 505.616 474.463 845.667 436.221 504.72 420.22 563.371 392.524 514.765 610.922 503.224 433.221 392.149 372.184 357.647 414.721 336.817 326.964 294.324 272.319 254.15 227.473 217.517 522.484 304.397 258.922 180.688 177.245 249.397 223.371 222.151 171.795 153.982 148.251 139.077 121.768 118.285 117.128 114.278 103.425 105.079 102.909 94.3026 92.1409 108.842 91.8258 91.1902 42.3411 30.7293 22.9187 0.194326 0.131916 0.127736
threshold=1.0000000180025095e-35 0.9869196116924287 -0.84536215662956227 -1.292528450489044 -0.90941962599754322 -0.98786213994026173 0.99707651138305675 1.0000000180025095e-35 1.0173105001449587 0.99396455287933361 1.0000000180025095e-35 1.1375973820686343 1.1119706630706789 0.93334665894508373 1.0135056376457217 1.0000000180025095e-35 -0.80881258845329274 -1.0799778103828428 1.0839303135871889 1.1157749295234682 0.85371819138526928 0.96648168563842785 -1.3163354396820066 -1.0372139811515806 -1.1461042165756223 0.60588291287422191 -1.0075314640998838 -1.2593439221382139 -1.251756966114044 1.0861093401908877 -0.96634534001350392 -1.4014825820922849 0.91570153832435619 0.94364938139915477 -0.92012369632720936 -0.87352839112281788 0.92986616492271434 -1.1912273168563841 -1.00398713350296 -0.76559069752693165 -0.62869083881378163 1.0505238771438601 -0.64910888671874989 0.38447467982769018 -1.3525869250297544 -1.0204604268074033 -1.1428995132446287 1.0799675583839419 -0.84366020560264576 0.10058440640568735 -0.88778835535049427 0.73977923393249523 -0.93064144253730763 -1.1527984142303465 1.1434773802757265 -0.90707620978355397 -0.31017708778381342 0.70787864923477184 0.97279289364814769 1.1397100090980532 -1.2788721919059751 -0.93556964397430409
decision_type=2 2 2 2 2 2 2 2 2 2 2 2 2 2 2 2 2 2 2 2 2 2 2 2 2 2 2 2 2 2 2 2 2 2 2 2 2 2 2 2 2 2 2 2 2 2 2 2 2 2 2 2 2 2 2 2 2 2 2 2 2 2
left_child=6 36 3 4 22 21 7 10 23 29 12 28 13 -1 16 30 17 18 -8 26 -19 -5 -3 47 -25 -7 -18 -6 -12 -10 46 33 34 43 -33 -13 37 50 51 48 -11 -34 -14 -4 -35 -21 -16 -9 56 -50 60 -39 53 -17 -52 -40 -38 -32 59 -41 -2 -54
right_child=1 2 31 5 27 25 14 8 9 40 11 35 42 -15 15 52 19 20 -20 45 -22 -23 -24 24 -26 -27 -28 -29 -30 -31 57 32 41 44 -36 -37 39 38 55 58 -42 -43 -44 -45 -46 -47 -48 -49 49 -51 54 -53 61 -55 -56 -57 -58 -59 -60 -61 -62 -63
leaf_value=0.055770665273356904 -0.16142750921096286 0.19642686393332592 0.0019575452565670161 0.016215795309078539 0.041586454069182183 -0.079398647274673426 0.075663468710508441 -0.046241839499242043 -0.041047578252282939 -0.15348217176494119 -0.10492172406217151 0.038918572298586099 0.10456426697674469 -0.011733973759010252 0.10625721140765002 0.20659859982993983 0.047346593026681844 -0.0057969110385384659 0.17396359609885506 0.11768089246553196 0.071958565606404457 0.10993605710498125 0.088773141467180239 -0.11968573624499033 -0.013988389756468404 0.025602881809892886 0.083532644323766003 -0.1073251236944651 -0.010124886680817922 0.058477348280720966 -0.14570212156728155 0.14887321064357348 -0.15531237185119165 0.12913996035200381 -0.047492740920043595 0.099492405520115929 0.071046433180903937 0.061765249075298845 0.13371056045746252 -0.13556189121720708 0.16291143096438498 0.15834101647295007 -0.055523038185996493 -0.12004561348189087 -0.023545517600323869 0.039123347987072142 0.036128872027651547 0.18380418466704221 0.14448148067743596 0.045021809239821457 0.10141477293826624 -0.094872623583078811 -0.13310498968134321 -0.048533546651274129 -0.011366326546562911 0.067064034576872267 -0.14878197545015795 0.022512246642554842 0.082738660053425242 -0.15425468653177865 -0.14759879979974785 -0.14279786793158736
leaf_weight=43928.920937288553 8.6630476862192136 480.79115384817123 114.10300877690315 1606.0034858733416 1282.1252694129944 987.09998482465744 1529.8670036941767 27.66459983587265 457.64203847758472 17.992596879601479 386.49681251496077 1209.2081015817821 2093.7414244636893 1136.2495112121105 509.81607039272785 17.248334124684334 19441.943041875958 746.07615949213505 1077.5381674617529 1523.1070798486471 18107.210905086249 618.36319337785244 967.14983920753002 494.77280388772488 1486.5230394303799 442.41590750217438 2864.9533856660128 148.05730755627155 1403.272727387026 584.01762893795967 56.47060589492321 73.245509549975395 16.848483353853226 89.289369016885757 806.685003509745 830.77757688984275 16.6571294516325 70.019596960395575 498.52870889566839 30.074210524559021 371.53453695774078 220.40009865164757 59.490863051265478 515.85491354763508 125.85199156403542 219.26200120151043 446.96318492293358 98.40554666519165 749.4814124815166 123.76522827148438 91.72204365581274 85.207670008763671 15.937888063490389 547.08680562674999 339.05853152275085 349.04335874319077 18.485285565257072 13.44565165042877 5.3342932760715476 6.8231196105480185 33.859925553202629 92.523870825767517
leaf_count=107043 37 344 450 4817 3383 4079 2752 80 1965 80 2552 2821 2202 6896 792 21 44773 1867 958 2189 34455 1094 2023 1998 5392 1205 5193 624 4887 1538 264 124 74 156 3055 1566 41 183 859 162 517 338 507 2317 451 484 990 38 1508 360 211 1173 88 1844 1188 869 88 35 14 30 157 443
internal_value=0 0.0356564 0.0231262 0.037462 0.0756486 0.00738276 0.0560993 0.0501427 0.002806 0.0510991 0.053424 0.0195722 0.0561696 0.0540686 0.0629867 0.0141645 0.0648099 0.0746412 0.116287 0.0560369 0.0688816 0.0422696 0.12452 -0.0299916 -0.0403833 -0.0469021 0.0519941 0.0261706 -0.0305961 0.0147521 0.0607724 -0.0245944 0.00436296 -0.0628745 -0.0311472 0.0635871 0.0795159 0.0578277 0.0860668 0.113193 0.148297 0.136067 0.100141 -0.0979474 0.039823 0.107795 0.0734965 0.133323 0.123616 0.130385 -0.00200298 -0.0242167 -0.0569595 -0.0407357 0.0126471 0.106264 -0.0445857 -0.113353 -0.111008 -0.139019 -0.150416 -0.141374
internal_weight=0 10921 8494.28 6532.01 2878.12 3653.88 101796 54586.7 3538.55 1431.19 51048.2 3829.76 47218.4 45065.2 47209.5 1699.49 45510 21460.7 2607.41 24049.3 18853.3 2224.37 1447.94 2107.37 1981.3 1429.52 22306.9 1430.18 1789.77 1041.66 1026.7 1962.28 1117.18 845.099 879.931 2039.99 2426.72 1476.1 1002.8 950.621 389.527 237.249 2153.23 629.958 215.141 1742.37 956.779 126.07 908.389 873.247 473.304 155.227 672.797 564.335 430.781 847.572 35.1424 69.9163 42.2316 36.8973 42.523 108.462
internal_count=268644 31414 24534 17569 6374 11195 237230 140082 11608 4100 128474 11826 116648 113939 97148 4477 92671 40032 3710 52639 36322 5911 2367 7508 7390 5284 49966 4007 7439 3503 2081 6965 3591 3374 3179 4387 6880 4677 3084 2203 597 412 2709 2767 607 2673 1782 118 1997 1868 1593 1356 2396 1865 1399 1728 129 299 206 192 194 531
is_linear=0
shrinkage=0.1


Tree=12
num_leaves=58
num_cat=0
split_feature=2 96 30 33 71 103 108 3 117 71 100 4 113 29 118 73 114 0 103 116 30 125 0 32 111 73 5 99 73 83 113 31 117 124 129 54 30 44 109 100 116 100 41 75 63 39 112 2 30 48 130 105 28 114 132 50 3
split_gain=424.085 641.478 599.208 574.139 526.641 652.711 456.984 409.624 381.526 379.698 548.68 463.881 375.52 361.806 293.462 288.076 317.464 305.219 238.678 220.535 197.686 331.789 212.314 192.059 180.734 176.151 170.096 146.604 146.427 137.295 136.573 134.269 121.794 143.685 120.399 148.789 124.389 106.599 104.899 100.249 82.8756 76.2718 73.53 72.4764 72.0956 59.5692 59.3488 69.1023 55.4806 43.2777 33.8944 30.5928 29.1131 0.757051 0.0824122 0.037591 0.0271961
threshold=0.6270866096019746 -1.0372139811515806 1.0322413444519045 0.83260434865951549 -0.24299696832895276 -0.68428942561149586 -0.94297245144844044 0.57622727751731884 -1.5028634667396543 -0.6401664912700652 -0.96269047260284413 0.72516286373138439 -0.91614890098571766 1.2355101704597475 -1.6227858662605283 -0.865545094013214 -1.023452579975128 0.51973643898963939 -0.9692510962486266 -1.4959142804145811 1.0900800824165346 -1.3201503753662107 0.60581049323081981 0.8946310579776765 -1.2554259300231931 -0.93556964397430409 0.67704531550407421 -0.94802051782608021 -0.88978686928749073 -1.4257879257202146 -1.0072491765022276 1.0076912045478823 -0.91924667358398426 -1.1819530129432676 1.0000000180025095e-35 0.96133369207382213 1.0748255252838137 1.0183206200599673 -1.0597326755523679 -0.92045038938522328 -0.98503822088241566 -0.90803495049476612 0.98696264624595653 -1.1146119236946104 0.41523858904838568 1.0013402104377749 -0.93928852677345265 0.80275723338127147 1.0596060156822207 1.0731097459793093 1.0000000180025095e-35 -0.94643709063529957 1.3927519321441653 -0.8242276906967162 1.0000000180025095e-35 0.89356410503387462 0.77109870314598095
decision_type=2 2 2 2 2 2 2 2 2 2 2 2 2 2 2 2 2 2 2 2 2 2 2 2 2 2 2 2 2 2 2 2 2 2 2 2 2 2 2 2 2 2 2 2 2 2 2 2 2 2 2 2 2 2 2 2 2
left_child=1 26 18 6 5 7 19 -5 14 10 25 12 -12 -13 -6 16 -8 -17 40 24 34 41 -23 -21 -3 31 27 43 42 48 -27 -4 33 -31 36 -36 -11 -34 -10 -30 54 -22 -29 50 51 -7 47 -42 49 -28 -1 -20 -53 -48 55 -2 -56
right_child=2 3 9 4 8 45 15 -9 38 20 11 13 -14 -15 -16 17 -18 -19 44 23 21 22 -24 -25 -26 30 29 28 39 32 -32 -33 37 -35 35 -37 -38 -39 -40 -41 46 -43 -44 -45 -46 -47 53 -49 -50 -51 -52 52 -54 -55 56 -57 -58
leaf_value=-0.14727569690397646 -0.1378963242867183 -0.12328641742701099 0.11822981242235087 0.043921115561422475 -0.021918068478819261 0.021930828514480961 0.073621764369678433 0.060258705080442759 -0.078214687797426838 0.074633745235102758 0.008286995435015064 0.076257162454104313 -0.16890827989808568 -0.015907311170408309 0.09823645149681004 0.028708982215970975 -0.0064499275424486722 0.13508261175134423 0.042704869844380378 -0.059134682397731168 0.11510049706411118 -0.023889583485686941 0.083656422011677667 0.065539090777802775 0.094435400873907505 0.13141914120876222 -0.14936624723275446 -0.014798253903758704 0.19648762942537612 -0.042571421249268715 0.037038090919455029 -0.061974538783758727 -0.064021678765738041 0.13001710777189521 -0.17975487832906203 0.18027443566116175 0.11019935643730261 0.0193146531549158 0.11090239586429639 -0.13942716689701867 0.037853905269344457 -0.10568878440581178 0.1805676329638374 0.10874692720586701 0.2293230292754761 -0.1301718289258858 -0.14978108228070142 0.18100138425088141 0.23563131035402432 0.2098991026608481 -0.039062289355668793 -0.12109245815378976 0.16174950710218783 -0.10372573588665433 -0.15131403921839859 -0.14976335091693432 -0.16185129230650935
leaf_weight=219.38826366886497 5.0509350001811981 46.58930591493845 1466.9721985571086 69492.872452618554 215.50775402784348 29.066414706408978 682.42820823192596 19696.132242660969 175.96632051095366 1437.12715908885 1873.4194717258215 2362.8909867107868 127.75529025495052 519.6061042547226 3579.3769199438393 591.32659039460123 1804.2887853179127 495.98703283071518 12.519312605261801 1202.0876906365156 612.75442625582218 537.7977792173624 278.68854260444641 137.71783259510994 209.92005807161331 195.45478130877018 8.17436660453677 33.644155848771334 10.209076225757597 81.247844055294991 711.18874335289001 42.546337023377419 371.85659216344357 118.72882333397865 33.333467319607735 17.507702335715294 3114.5674295723438 261.38417189568281 35.196274876594543 68.464139832183719 113.29330486059189 16.056143164634705 45.075455278158188 13.041589990258215 6.4000708833336821 225.55182258039713 5.196745619177821 48.015100851655006 33.752465784549713 5.6848380565643302 33.343593940138817 265.31895769946277 3.6897694170474997 11.395943662151693 4.6622629463672638 5.6610810607671738 5.1604053676128387
leaf_count=957 26 401 1635 170305 815 95 1535 39760 902 2436 4612 3753 510 1705 5109 2665 5281 708 33 6518 753 1447 427 282 580 242 49 107 10 260 1502 132 1233 169 136 16 3832 684 48 304 291 54 54 20 13 1358 24 38 17 2 119 4276 4 331 21 26 22
internal_value=0 0.0459453 0.0646267 0.0468666 0.0486613 0.0470726 0.0144285 0.047529 0.0841333 0.0685994 0.0532476 0.0339638 -0.00302518 0.0596434 0.091413 0.0342973 0.0155241 0.0772322 -0.044401 -0.0300562 0.0871293 0.054866 0.0128187 -0.0463195 0.054891 0.092225 -0.0237334 -0.0758409 0.000644817 0.00129992 0.0573848 0.113151 -0.00813761 0.0598967 0.0972607 -0.0557749 0.0989701 -0.0296228 -0.0466929 -0.095837 0.0399825 0.109463 0.0970698 -0.121136 -0.102557 -0.112808 0.0619387 0.0804632 0.166459 -0.00200098 -0.132999 -0.110102 -0.117213 -0.11815 -0.150234 -0.144168 -0.15685
internal_weight=0 99924 13834 98620 93449.7 89443.6 5170.35 89189 4006.05 13347.7 7299.83 4883.67 2001.17 2882.5 3794.88 3574.03 2486.72 1087.31 486.364 1596.31 6047.83 1445.3 816.486 1339.81 256.509 2416.16 1304 423.166 157.393 880.829 906.644 1509.52 833.217 199.977 4602.54 50.8412 4551.69 633.241 211.163 78.6732 198.436 628.811 78.7196 265.773 287.928 254.618 177.901 161.308 47.6117 13.8592 252.732 281.528 269.009 16.5927 20.5347 10.712 9.82267
internal_count=268644 240347 28297 236362 218392 211518 17970 210065 6874 23192 14091 10580 5122 5458 5924 10189 6816 3373 5105 7781 9101 2681 1874 6800 981 3511 3985 1571 475 2414 1744 1767 2346 429 6420 152 6268 1917 950 314 779 807 161 1096 4326 1453 684 329 68 51 1076 4313 4280 355 95 52 43
is_linear=0
shrinkage=0.1


Tree=13
num_leaves=57
num_cat=0
split_feature=1 96 34 53 71 103 86 71 2 20 73 72 106 62 27 29 97 40 128 108 88 30 68 30 77 5 129 131 104 41 69 108 96 43 32 52 64 3 69 32 53 63 1 15 75 38 98 113 2 114 31 1 31 30 61 38
split_gain=370.129 584.191 609.905 462.241 536.436 524.399 442.583 396.939 674.209 456.887 413.046 332.428 330.442 322.609 309.419 284.137 268.586 256.015 234.58 223.695 189.438 184.457 204.953 200.991 166.932 195.786 152.467 132.025 143.724 130.825 129.783 121.836 113.215 84.1649 76.6409 74.6624 87.034 69.1162 67.1523 53.001 48.913 46.9046 44.6618 37.5736 32.9751 29.2152 18.5164 38.4125 4.60044 0.467617 0.2806 0.272084 0.244714 0.151649 0.118295 0.00519201
threshold=0.57580700516700756 -1.027839660644531 0.84353440999984752 1.0220023989677431 -0.24299696832895276 -0.68428942561149586 -1.346602141857147 -0.61920070648193348 0.6657446324825288 1.5511341094970705 -0.93247514963150013 -0.62556076049804676 -0.94157773256301869 0.33719787001609808 1.3948172926902773 1.1990464329719546 -1.035548150539398 1.040430009365082 1.0000000180025095e-35 -1.0387238860130308 -0.64623355865478505 1.0362124443054201 -0.05826242268085479 1.088190019130707 -1.3625071644783018 0.6895388960838319 1.0000000180025095e-35 1.0000000180025095e-35 -0.83286330103874195 0.98696264624595653 0.087353147566318526 -0.9012487232685088 -1.0551037192344663 1.009289085865021 0.94634130597114574 1.0214288830757143 0.30635623633861547 0.67299163341522228 -0.3411972969770431 0.93674200773239147 1.0095972418785097 0.48390144109725958 0.58097746968269359 1.0013020634651186 -1.0583760142326353 0.93962183594703685 -0.99486231803894032 -0.84916460514068592 0.67854586243629467 -0.8242276906967162 0.99652597308158886 0.59710079431533825 1.0100032091140749 1.0578241944313052 0.59054920077323925 0.91630497574806224
decision_type=2 2 2 2 2 2 2 2 2 2 2 2 2 2 2 2 2 2 2 2 2 2 2 2 2 2 2 2 2 2 2 2 2 2 2 2 2 2 2 2 2 2 2 2 2 2 2 2 2 2 2 2 2 2 2 2
left_child=1 24 13 11 5 -5 35 8 10 26 31 18 -6 38 -11 -12 37 19 -4 -15 -13 22 -18 -23 34 27 -10 28 -26 -29 -19 -8 52 -34 49 46 -37 42 44 -39 54 43 -9 -36 -3 -43 47 -2 -49 53 -48 -52 -27 -1 -38 -51
right_child=6 2 3 4 12 -7 7 16 9 14 15 20 -14 17 -16 -17 21 30 -20 -21 -22 23 -24 -25 25 32 -28 29 -30 -31 -32 -33 33 -35 41 36 40 39 -40 -41 -42 45 -44 -45 -46 -47 50 48 -50 55 51 -53 -54 -55 -56 -57
leaf_value=-0.14395929268278138 0.1165478099811585 -0.14873424753279893 0.054669135502818669 0.03941576087859066 -0.11536770489221074 -0.11652076196237891 0.13761139396621155 0.049206908144554036 0.10800661995140931 -0.13165759319275536 -0.037029575211635246 0.089925257373252979 0.080779345649941131 0.065501377874754657 0.05158967095745394 0.021889302150989585 -0.098075327061488485 -0.088854723016957959 -0.025287216330421233 0.021118857055557733 -0.064133253639627838 0.089777380532324771 0.19971527762999097 0.048421722243523709 0.014366587790048341 -0.1703399089180567 -0.12883402921881298 -0.093882377074035808 -0.15546068916064959 0.0043576188300070151 0.041587627367012617 0.054131561679263189 0.052501484261226229 0.21824633717792047 0.21357176883005793 0.18253374743531109 -0.17342875889022849 -0.17979139540585265 0.12459325293353357 0.080362006684261342 0.11437740361060117 -0.14618298840286936 -0.16262666933309317 0.088138074040725503 -0.067693616028479467 0.073497225173503253 -0.13588623910324191 -0.17534217829384782 -0.10323452318329021 -0.10449641483994548 -0.16802514069164987 -0.18778010566206549 -0.14403962659122502 -0.16842261992239832 -0.15849314815177193 -0.11315526114834801
leaf_weight=5.4532810002565366 8.0548166632652265 61.022674314677715 11190.043027281761 63622.768475547433 87.800886780023575 216.39194206148386 256.7890328168869 11.78518186509609 2079.5797140970826 94.417516302317381 1249.4784145951271 3608.467432975769 3942.1188103035092 1282.5678079798818 3828.5127929896116 2372.9603739529848 109.83248254656792 296.48208703845739 379.37207500636578 9911.6896639801562 81.622580379247665 5466.1350027471781 29.271148979663849 1497.0411811619997 450.22573952749372 14.041695460677149 27.540874794125557 570.72912159562111 56.034841015934944 177.77880099415779 102.69472816213965 547.75535756349564 116.63918687775731 41.551564082503319 41.783433895558119 20.593193665146828 11.157410115003591 9.9506834298372251 16.477741375565529 36.765166908502579 8.7667383253574354 9.764777924865486 64.014299750328064 55.737708367407322 283.32901730574667 15.92939756810665 2.2300147432833901 9.589211553335188 114.44004859775305 1.3229214139282697 32.148526102304459 8.9025350213050825 4.7294360101222983 4.7335797101259232 10.106516718864439 1.4531617015600202
leaf_count=26 10 300 21778 154557 468 1339 259 29 2155 426 3672 6592 6709 2879 7497 5457 436 3016 1039 25417 292 8174 23 2815 1207 59 104 2154 247 491 595 1081 259 27 25 17 46 41 23 60 14 63 282 110 2058 46 34 40 3883 33 135 36 23 20 44 22
internal_value=0 0.0406212 0.0416196 0.0446567 0.0411209 0.0388872 0.0562731 0.0580504 0.0455965 0.0673528 0.0159618 0.060383 0.0765058 0.0204996 0.0471793 0.00156657 0.076076 0.0233978 0.0520473 0.0262039 0.0865176 0.0786084 -0.0354122 0.0808862 -0.019922 -0.0299851 0.104911 -0.0438724 -0.00443054 -0.0705493 -0.0552963 0.0807761 0.0684844 0.0960373 0.0858781 -0.0827848 0.0241949 -0.0707262 -0.072618 0.0249482 -0.0843842 0.110211 -0.129691 0.141881 -0.0820549 -0.00998973 -0.113667 -0.0950666 -0.108809 -0.145412 -0.170433 -0.172309 -0.163713 -0.155327 -0.16633 -0.109029
internal_weight=0 96650.8 95082.8 83128.6 67869.1 63839.2 17907.8 17681.8 10457 6030.05 4426.98 15259.5 4029.92 11954.3 3922.93 3622.44 7224.8 11593.4 11569.4 11194.3 3690.09 7102.28 139.104 6963.18 1567.91 1431.73 2107.12 1254.77 506.261 748.508 399.177 804.544 176.962 158.191 136.178 225.989 50.6239 122.515 360.829 46.7159 30.0307 123.215 75.7995 97.5211 344.352 25.6942 175.365 132.084 124.029 12.9629 43.2811 41.0511 18.7711 10.1869 21.2639 2.77608
internal_count=268644 231874 227062 192774 163073 155896 36770 32511 20651 10182 10469 29701 7177 34288 7923 9129 11860 31907 22817 28296 6884 11448 459 10989 4812 4467 2259 4099 1454 2645 3611 1340 368 286 345 4259 121 412 2381 101 104 244 311 135 2358 109 4138 3933 3923 101 205 171 82 46 90 55
is_linear=0
shrinkage=0.1


Tree=14
num_leaves=63
num_cat=0
split_feature=39 59 71 71 70 108 51 2 44 103 73 115 10 130 108 126 53 93 54 109 125 92 70 129 45 3 105 99 123 72 79 106 33 111 37 126 43 70 75 92 51 12 70 4 40 49 39 30 52 57 5 103 73 124 60 113 72 53 94 60 118 19
split_gain=363.844 605.596 573.238 525.71 404.157 677.169 391.315 340.798 730.582 842.264 474.336 382.94 463.558 359.387 327.031 624.247 424.891 373.945 315.197 304.424 299.801 359.518 298.349 267.67 285.76 279.049 195.336 191.136 190.403 173.356 209.233 138.994 121.508 115.971 112.078 109.691 165.871 106.258 98.3363 170.84 90.3575 86.166 80.3857 76.3053 66.8135 65.5213 56.9821 56.0897 54.7774 73.3744 49.9401 47.2345 39.5841 68.9097 38.5281 34.4018 95.5069 14.6631 5.77832 1.27711 0.329894 0.146244
threshold=1.0297078490257265 0.84253677725791942 -0.2136447802186012 -0.37235014140605921 -0.15355089306831357 -1.0641171932220457 1.1691846251487734 0.52049192786216747 1.0907154083251955 -0.80980482697486866 -0.80881258845329274 -0.92012369632720936 0.71588853001594555 1.0000000180025095e-35 -1.0641171932220457 -1.8404012918472288 1.1138595342636111 -0.9555908441543578 1.1598820686340334 -1.1247320175170896 -1.7235646247863767 -0.97456583380699147 -0.12355718761682509 1.0000000180025095e-35 1.1521772146224978 0.3930088877677918 -0.76849135756492604 -0.63761600852012623 -2.1975225210189815 -0.2718000710010528 -0.26525245606899256 -0.89596596360206593 0.81775027513504039 -1.2782589793205259 0.93220850825309765 -1.7512079477310178 1.1404071450233462 -0.18251819163560865 -1.0246928334236143 -1.0085144042968748 1.1341716647148135 0.68786361813545238 -0.13479688018560407 0.18501289933919909 1.0731771588325503 1.1752625703811648 1.0288349390029909 1.0317365527153017 1.1379889249801638 0.94903287291526806 1.0000000180025095e-35 -0.74384033679962147 -0.72463002800941456 -1.5471817255020139 0.73867344856262218 -1.3900167942047117 -0.3392727375030517 1.0645093321800234 -0.91803789138793934 0.86054295301437389 -1.6227858662605283 0.92380052804946911
decision_type=2 2 2 2 2 2 2 2 2 2 2 2 2 2 2 2 2 2 2 2 2 2 2 2 2 2 2 2 2 2 2 2 2 2 2 2 2 2 2 2 2 2 2 2 2 2 2 2 2 2 2 2 2 2 2 2 2 2 2 2 2 2
left_child=1 4 3 23 7 55 19 8 10 -10 -1 12 -9 -13 16 17 42 52 22 46 21 -19 -5 24 -3 -25 38 59 50 33 -31 45 -21 -8 -20 36 -28 -37 47 -40 -33 -22 43 51 -30 -7 -4 -17 60 -50 -29 -2 53 -16 -45 56 -6 -57 -54 -18 -44 -61
right_child=14 2 6 18 5 31 29 11 9 -11 -12 13 -14 -15 15 26 27 20 34 32 41 -23 -24 25 -26 -27 35 28 44 30 -32 40 -34 -35 -36 37 -38 -39 39 -41 -42 -43 48 54 -46 -47 -48 -49 49 -51 -52 -53 58 -55 -56 57 -58 -59 -60 61 -62 -63
leaf_value=0.040703535030780738 0.17315149983210582 -0.039873292614520328 -0.15164367921163702 -0.065827314472363008 0.25559545287833479 0.19853798224409158 0.14980551981205054 0.10726868591189054 0.062873980901037935 0.028009206348367385 0.010398002698199574 0.0335328444020907 0.046710627309380005 -0.026154195551459144 -0.14758936881984047 0.10021039406718764 -0.17536655640310125 -0.11967855868169403 0.29568856415158606 -0.11902368540611644 0.11543483021168927 0.027819876622451098 0.0039302271816889873 0.17846196567877073 0.036548098288128467 0.040493384837817774 -0.12725016197630717 0.031875345012924959 0.15502349184734554 0.17457640203895833 -0.11304564636036629 -0.18987277041076839 0.12152426574561492 -0.1083758326571696 -0.13778718315229088 -0.15239014550578864 0.079675463240026376 0.10234979155833138 -0.011490039604749251 0.11026311662068332 0.10473885536559678 -0.016195591446407861 -0.14291158781830549 0.11763220669668191 0.10857903076139352 0.049237580793889318 0.13787381290241382 0.14175370415211494 0.13091918382303835 -0.11704236083133826 -0.16804367378003041 -0.021623469958915856 -0.14498560025976576 0.1292814012070935 -0.11749081285234537 -0.011926314482520952 -0.14332825041096844 -0.14830549707126472 -0.090828475851317703 -0.11512052081936495 -0.15786102850904613 -0.1298644022249196
leaf_weight=7550.7514584455639 36.046837732195854 834.22882936149836 53.442747250199318 1744.4468495287001 9.2521629631519335 414.19859763793647 19.240941062569618 1308.1172829866409 12656.048945486546 15312.508776292205 16343.603296943009 7259.2820763140917 37512.276231065392 1171.608038501814 19.510344073176384 1088.0646601617336 5.4518882036209098 173.76321518421173 37.50162985548377 21.519836258143187 470.13936197757721 3373.528605915606 945.3893367908895 191.3456653803587 1183.3784314393997 626.81931167840958 94.13502049446106 22.826475273817778 405.87983429431915 71.156662665307522 39.239654397591949 15.569880867376922 867.88695826381445 181.64164024591446 7.0928533710539332 18.424230217933655 65.827783346176147 147.18735407292843 194.30321060121059 283.24959503114223 31.415090322494507 55.613228514790535 21.669229991734028 8.6912822276353818 1307.6414676532149 31.639471381902695 7.7888945937156668 463.4186647683382 20.338621661067009 28.877813823521137 27.60730005055666 19.020374730229378 126.61383663862944 16.669861227273941 35.175136536359787 8.8014422655105573 17.081160306930542 75.608622834086418 23.331493243575096 13.828250959515573 46.304200798273087 13.101423032581804
leaf_count=17259 40 2902 250 7802 10 342 27 1918 25632 39707 43717 18453 74731 4746 93 1663 23 795 78 203 741 8762 3412 205 3539 1610 495 73 442 67 442 154 720 2184 39 86 116 260 515 380 34 158 109 14 977 70 10 514 28 118 137 64 626 28 147 28 82 347 104 133 204 79
internal_value=0 0.036936 0.00813399 -0.00565301 0.0389094 0.120491 0.0689909 0.0384126 0.0328156 0.0437859 0.0199747 0.0445559 0.0487512 0.0252384 0.0582887 0.0475482 0.0935862 0.0247054 -0.0369383 0.100856 0.0310395 0.0205947 -0.0413098 0.0245142 0.00494981 0.0727603 0.0888679 0.109524 0.113944 -0.0283243 0.072343 0.170702 0.115704 -0.0836467 0.226743 0.0169641 -0.0420963 0.0740101 0.100405 0.0607251 0.00711045 0.101511 -0.0388839 0.0274921 0.11958 0.187943 -0.114816 0.112619 -0.0949197 -0.0145726 -0.0775597 0.105876 -0.113906 -0.0200224 -0.0709057 -0.102955 -0.00316717 -0.134085 -0.136559 -0.131229 -0.153095 -0.122293
internal_weight=0 106550 6832.12 5570.2 99717.8 603.566 1261.92 99114.2 51862.9 27968.6 23894.4 47251.3 38820.4 8430.89 8626.24 6613.78 2012.46 4259.17 2734.43 950.638 4073.04 3547.29 2689.84 2835.77 2017.61 818.165 2354.61 1796.34 1763.96 311.279 110.396 492.823 889.407 200.883 44.5945 325.574 159.963 165.612 2029.04 477.553 46.985 525.753 216.123 98.9336 1713.52 445.838 61.2316 1551.48 117.19 49.2164 50.4338 55.0672 186.126 36.1802 43.8664 110.743 26.3333 84.4101 149.945 32.3816 67.9734 26.9297
internal_count=268644 250720 23490 19587 227230 1067 3903 226163 126315 65339 60976 99848 76649 23199 17924 15336 2588 11307 11331 1183 10456 9557 11214 8256 6441 1815 4029 1864 1629 2720 509 600 923 2211 117 957 611 346 3072 895 188 899 724 265 1419 412 260 2177 459 146 210 104 851 121 161 467 92 375 730 235 313 212
is_linear=0
shrinkage=0.1


Tree=15
num_leaves=59
num_cat=0
split_feature=41 1 62 31 136 31 32 108 58 100 33 115 125 71 4 70 29 30 109 125 47 29 129 74 71 71 42 71 40 68 121 107 24 75 0 46 108 45 38 111 110 31 32 49 34 62 125 126 34 45 33 96 75 51 56 74 88 29
split_gain=340.84 338.038 455.123 408.749 634.378 663.113 659.6 423.691 674.432 434.242 393.511 383.532 376.189 247.01 157.869 394.504 182.809 154.207 151.783 249.153 169.753 148.013 146.893 134.905 96.9607 87.6239 137.356 94.458 104.208 87.5002 85.87 83.6427 63.4542 56.3766 50.5269 49.3404 214.528 47.6137 43.1881 32.408 32.4073 57.0216 31.7623 28.1722 29.8159 22.458 15.6162 28.1604 15.4983 14.6912 13.4615 14.0898 8.37389 8.32659 6.56079 0.73663 0.496542 0.271411
threshold=1.1119706630706789 0.59710079431533825 0.3189730197191239 0.99931102991104137 1.0000000180025095e-35 1.0041189789772036 0.96023488044738781 -1.0273495912551878 0.93334665894508373 -0.73831829428672779 0.78537687659263622 -0.91106870770454396 -1.1267701387405393 -0.65592321753501881 0.72516286373138439 -0.47797541320323939 1.1990464329719546 1.0922691822052004 -1.1160949468612669 -2.235636711120605 1.2245880961418154 1.1236845850944521 1.0000000180025095e-35 -0.99532720446586598 -0.22503519058227536 -0.29947800934314722 1.1532042026519778 -0.33775274455547327 1.0824405550956728 -0.24221610277891156 -1.8583528995513914 -0.97694995999336232 1.6197412014007571 -1.0050325393676756 0.58528682589530956 1.2436508536338808 -1.0533615350723264 1.2123082280158999 1.0225669741630556 -1.2697950005531309 -1.1685293912887571 0.95163798332214367 0.95511275529861461 1.2042959332466128 0.95371881127357494 0.47950331866741186 -1.1127946376800535 -1.1483583450317381 0.85692623257637035 1.2054994106292727 0.83550992608070385 -0.32397845387458796 -0.42263518273830408 1.1712478399276736 1.0047406554222109 -0.39634768664836878 -0.22016613930463788 1.2300581932067873
decision_type=2 2 2 2 2 2 2 2 2 2 2 2 2 2 2 2 2 2 2 2 2 2 2 2 2 2 2 2 2 2 2 2 2 2 2 2 2 2 2 2 2 2 2 2 2 2 2 2 2 2 2 2 2 2 2 2 2 2
left_child=1 2 29 7 5 -5 -6 8 -4 -9 11 12 13 -3 15 16 -12 -17 20 31 24 45 -23 -14 37 27 49 28 -21 32 50 40 34 -34 -1 36 -32 39 -29 -2 -20 -42 -28 -33 -45 -16 57 -48 -37 -27 51 -22 53 -26 -39 -54 -52 -13
right_child=18 10 3 4 6 -7 -8 9 -10 -11 14 46 23 -15 21 17 -18 -19 19 25 30 22 -24 -25 52 26 42 38 -30 -31 35 43 33 -35 -36 48 -38 54 -40 -41 41 -43 -44 44 -46 -47 47 -49 -50 -51 56 -53 55 -55 -56 -57 -58 -59
leaf_value=-0.11557824689430202 0.049801745868748901 -0.0014375895268265739 0.046399767924660856 0.045910413400381433 0.035754857517385392 0.018320575849183524 0.088835027363989461 0.023733555803691398 -0.074979906024636084 -0.024490187373398462 -0.015240734069926662 -0.18236219702830997 0.085255700151053521 0.057649239332857677 -0.15990922314107855 0.083483346153998661 0.042137300731251139 0.017876558255833092 0.10355182415067055 0.14423013567664422 0.18381707199175107 0.086069732341133326 -0.12804973096009684 -0.00022024785979008507 -0.16678638922756905 -0.18693504906952421 -0.041854396968105341 -0.042970290820941004 -0.042362992839201599 0.10632541213912616 0.107115674740157 0.10425206077820214 0.017805958131908755 -0.14809917554898919 0.32587735156375652 0.22660379061275721 -0.13693244539910149 0.11797869624775169 0.11328576573090275 -0.21403188751845081 -0.25875188448993347 0.063010283567962677 0.10082294606456854 -0.16764787853814872 0.12276032944385301 0.079217439597678296 0.021437587449172443 -0.11219076611670034 0.14242428670186691 -0.069045158317347116 -0.16210494999252428 -0.11658403212445917 -0.1671204399849576 -0.3223777634726594 0.042307568809012708 -0.11613357449675277 -0.12623715141797509 -0.15600379087690744
leaf_weight=269.69657377712429 7.904764115810397 2608.9853608310223 12716.017327681184 18831.481542039663 4655.5198551565409 16210.307686109096 4709.0969823300838 39608.590367883444 474.86397059261799 1959.6674742177129 863.38832646608353 23.979565545916561 1341.2424654960632 970.76319848001003 29.047985268756747 2806.8423434942961 1555.9644198864698 410.68613171577454 24.294836029410362 42.301760420203209 3.0530943870544434 2770.6652748435736 32.414493098855019 214.12412871420383 6.0335426181554821 30.778554260730743 20.535724550485611 18.526738941669464 102.3392763286829 25.416842924430966 1017.7909500896931 4.4195248633623114 85.360984176397324 26.948627963662148 2.6178441047668448 25.114693269133568 37.340505037456751 23.98260809481144 390.93102733790874 11.32743117213249 8.9929966703057307 14.211287036538122 64.953540652990341 79.963031943887472 3.6988678574562064 4.5415309816598883 17.615603372454643 150.55315836705267 169.34556100517511 16.100171133875847 7.5448162481188783 3.1955956295132664 5.3355147242546082 8.0000558122992498 21.938957557082176 6.0426947996020299 7.9019974395632717 4.666781708598136
leaf_count=2143 13 6383 28815 37266 9564 37963 6657 101922 3192 9126 2084 98 2079 1749 145 3847 2998 877 21 53 1 3261 127 555 26 126 53 56 282 36 775 7 259 129 1 42 212 21 420 51 42 18 66 470 4 7 39 4111 92 44 38 46 28 40 30 56 57 21
internal_value=0 0.0337951 0.031762 0.0321968 0.0393262 0.0331474 0.0624468 0.0264152 0.0420302 0.0214601 0.0484595 0.027176 0.0324266 0.0145857 0.061852 0.0521692 0.0216609 0.0751093 0.0736794 0.0397473 0.0941617 0.0810932 0.0835937 0.0734884 -0.0381152 0.0642139 -0.00888381 0.0816761 0.0122081 -0.0733747 0.103585 -0.0841311 -0.0852497 -0.0220029 -0.111334 0.10701 0.0984789 0.0265044 0.106216 -0.105592 0.0228273 -0.0616911 0.0665498 -0.14181 -0.154808 -0.127578 -0.109819 -0.0981933 0.153296 -0.146447 -0.0936564 0.0301912 -0.203794 -0.255484 0.0818269 -0.140043 -0.143756 -0.178068
internal_weight=0 113381 99575.6 99165.5 44406.4 35041.8 9364.62 54759.1 13190.9 41568.3 13805.5 5331.93 5135.12 3579.75 8473.55 5636.88 2419.35 3217.53 2183.9 822.047 1361.85 2836.67 2803.08 1555.37 90.5656 686.467 132.368 554.099 144.641 410.041 1271.29 135.581 384.624 112.31 272.314 1249.59 1055.13 65.1538 409.458 19.2322 47.4991 23.2043 85.4893 88.0814 83.6619 33.5895 196.815 168.169 194.46 46.8787 21.6955 6.24869 25.4118 14.0336 45.9216 11.3782 15.4468 28.6463
internal_count=268644 265454 237073 234505 91450 75229 16221 143055 32007 111048 28381 15035 10766 8132 13346 9806 5082 4724 3190 1662 1528 3540 3388 2634 265 1100 289 811 335 2568 1263 562 2532 388 2144 1121 987 115 476 64 81 60 119 481 474 152 4269 4150 134 170 142 47 150 66 51 84 95 119
is_linear=0
shrinkage=0.1


Tree=16
num_leaves=62
num_cat=0
split_feature=39 2 20 124 116 40 75 96 127 123 75 32 132 29 31 30 101 30 114 0 95 47 127 93 70 109 125 117 77 44 118 31 105 62 72 108 110 124 92 105 98 122 30 124 93 34 61 52 104 93 75 73 50 5 67 67 33 32 37 61 15
split_gain=326.386 356.503 479.344 341.005 966.093 1021.83 781.293 574.742 438.642 329.787 600.309 429.394 367.405 412.179 350.468 287.841 578.822 311.654 208.745 188.288 173.045 162.13 384.203 169.907 181.901 163.21 227.496 150.529 303.418 135.711 129.985 125.218 124.163 178.982 101.047 88.9281 84.6772 90.0443 81.0742 79.7967 76.0557 66.838 57.4686 56.1126 58.5371 49.6324 45.2406 42.5644 46.3976 33.9839 32.0114 29.1333 26.2801 26.0021 24.2236 22.8842 17.6325 11.4125 1.53922 1.45226 0.0415355
threshold=1.0379819869995119 0.53649258613586437 1.4066448807716372 -1.3423879742622373 -0.98880216479301442 1.0222827792167666 -1.0663123726844785 -0.96803599596023548 -1.65918493270874 -1.2759194970130918 -1.0784968733787534 0.88430225849151622 1.0000000180025095e-35 1.1495941877365115 1.0045986771583559 1.093946695327759 -0.94953593611717213 1.0673645138740542 -0.93991145491600026 0.444207713007927 -0.9633183181285857 1.2245880961418154 -2.1197311878204341 -0.91016891598701466 -0.10725882276892661 -1.1160949468612669 -2.235636711120605 -1.0146380662918089 -1.2263525128364561 1.1801383495330813 -1.057120621204376 0.96808582544326793 -0.93611100316047657 0.41777679324150091 -0.49380658566951746 -1.0488071441650388 -0.95935687422752369 -1.5055658817291258 -0.90213662385940541 -0.88190072774887074 -0.89359524846076954 -2.0135651826858516 1.0848791599273684 -1.6169013977050779 -0.92152270674705494 0.85835933685302745 0.58067438006401073 1.1750213503837588 -0.81280606985092152 -0.92400047183036793 -0.99285662174224842 -0.72313612699508656 1.1931285858154299 0.6236635446548463 0.21736570447683337 0.33589275181293493 0.94180500507354747 0.88175258040428173 1.0057281255722048 0.8337746560573579 0.61209249496459972
decision_type=2 2 2 2 2 2 2 2 2 2 2 2 2 2 2 2 2 2 2 2 2 2 2 2 2 2 2 2 2 2 2 2 2 2 2 2 2 2 2 2 2 2 2 2 2 2 2 2 2 2 2 2 2 2 2 2 2 2 2 2 2
left_child=1 2 3 4 6 -6 -1 8 -5 10 27 30 15 31 -13 17 -17 -11 -9 32 53 22 23 43 29 39 35 28 -3 -25 -12 -14 33 -4 36 57 54 -38 -34 59 -22 45 -15 51 -45 -41 -29 48 -28 58 -49 -2 -43 -21 -24 -26 -37 -27 -36 -23 -61
right_child=21 9 19 7 5 -7 -8 18 -10 12 11 14 13 42 -16 16 -18 -19 -20 20 40 25 34 24 55 26 47 46 -30 -31 -32 -33 38 -35 49 56 37 -39 -40 41 -42 52 -44 44 -46 -47 -48 50 -50 -51 -52 -53 -54 -55 -56 -57 -58 -59 -60 60 -62
leaf_value=0.064759578646125235 0.12560770063695476 -0.18472616823726509 -0.12236119920026178 -0.057666795609736234 -0.054684864521500488 0.027880232659866423 0.024092813140796056 0.084707462886978765 0.030592552785262489 0.018794426458628017 -0.050267987070066092 0.066049255858090183 -0.1373703362848426 0.083644419116506191 0.0068891964924469576 0.052923856923849912 -0.032232213332827796 0.041250885483890422 0.04502364744616516 -0.041103519563798652 0.089231742544580148 -0.18924959424482801 0.090648350232236233 -0.0064274085059787232 -0.15599492817206662 0.12082335441979863 0.080334347381716451 0.055241117651047389 0.13222735360417204 0.060052843375072065 0.074415249190505683 0.084760990641470579 -0.048840945489255938 0.033438130918240765 -0.13874263204998077 -0.15365977996089186 0.050583293180192848 0.098506394505293429 -0.11993361365838565 0.11459148015012195 0.0060134780321807815 0.0076125902171180621 0.12774538529485344 -0.14597383106314077 0.13817407449772842 -0.1516253407432383 0.16814464790282774 0.1612377349708366 -0.14606941222336403 0.067027999884500145 0.068141987660239239 -0.14167376246368907 0.10700742501275416 -0.15591049003409585 0.16479792854015185 -0.036558414299185528 0.052519003621635064 0.00022368764176466583 -0.19571205933111815 -0.11572137566076462 -0.13156262915193892
leaf_weight=5253.974680185318 4.2366449385881415 40.323501840233803 101.02451664209366 647.07412704825401 3056.0152135174721 2941.9410191252828 46858.247945653275 2868.0058946013451 4339.2723042927682 9192.8250668421388 546.30774439871311 5106.2770998477936 105.12211014330387 969.59483723342419 1245.6369872242212 1352.5382388159633 1947.563293159008 18856.91517573595 2464.6332840714604 31.701964795589447 202.36469350755215 5.3519000411033613 68.605017632246017 648.58136805891991 63.840550094842911 13.802514895796778 17.818313002586365 37.790221855044365 120.33985616266727 583.15383484959602 98.723140954971313 33.453209444880486 354.42343133687973 272.97608417272568 20.300871580839161 81.293696321547031 1070.1860702186823 618.76117524504662 293.03849623538554 11.490828387439253 240.15596887469292 27.195444539189339 425.00407899916172 12.254126369953157 17.754248023033142 17.931828863918781 583.21806429326534 41.879528909921646 18.397606268525124 9.6637057960033399 312.8793873116374 108.93791572749615 1217.235281907022 52.227902337908745 123.13173112273216 21.426177442073822 4.3708950132131568 18.184621162712574 6.1883102506399146 4.9818939194083214 2.4786581695079803
leaf_count=9562 7 164 382 1979 9502 7532 119003 4968 10220 25661 1694 8525 442 1163 2806 2429 5414 35854 6568 105 357 22 81 1871 274 9 20 63 124 986 192 46 1148 610 105 390 2333 750 1153 34 602 46 249 61 18 86 348 24 64 17 517 507 932 237 110 146 7 37 26 47 15
internal_value=0 0.0298755 0.0255484 0.0267932 0.0238185 -0.0141875 0.0281929 0.0435453 0.0191392 0.0373222 0.0558387 0.0465535 0.0329421 0.0807399 0.0544477 0.0306045 0.00266879 0.0338912 0.0663664 -0.0294807 0.0191007 0.0555762 0.0426673 0.00402151 0.015269 0.0798584 0.0319028 0.138953 0.0526779 0.0250471 -0.031185 -0.083746 -0.0545191 -0.00864617 0.0721064 -0.0900138 0.0752898 0.0681404 -0.0810172 0.0988156 0.0440692 0.101313 0.0970842 -0.0994329 0.0221403 -0.0476561 0.161274 0.0685898 -0.0346783 -0.0934914 0.079132 -0.131668 0.104835 -0.112546 0.138267 -0.125982 -0.14314 0.0522627 -0.152052 -0.1495 -0.120984
internal_weight=0 110639 69977.1 68429.2 58110.2 5997.96 52112.2 10319 4986.35 40661.6 7778.62 6996.94 32883 1533.17 6351.91 31349.8 3300.1 28049.7 5332.64 1547.91 526.451 5172.31 3377.02 1460.18 1317 1795.29 508.627 781.672 160.663 1231.74 645.031 138.575 1021.46 374.001 1916.84 117.652 1880.68 1688.95 647.462 1286.67 442.521 1273.85 1394.6 143.183 30.0084 29.4227 621.008 390.975 36.2159 36.1529 354.759 113.175 1244.43 83.9299 191.737 85.2667 85.6646 31.9871 26.4892 12.8125 7.46055
internal_count=268644 259102 173928 169334 145599 17034 128565 23735 12199 85174 13916 13217 71258 1900 11331 69358 7843 61515 11536 4594 1301 9542 7292 3870 3277 2250 1068 699 288 2857 1886 488 3293 992 3422 443 3274 3083 2301 1182 959 1098 1412 593 79 120 411 625 84 148 541 514 978 342 191 420 397 46 131 84 62
is_linear=0
shrinkage=0.1


Tree=17
num_leaves=61
num_cat=0
split_feature=39 110 116 59 70 75 108 107 105 109 126 112 54 67 41 126 0 43 123 106 105 121 127 43 123 111 31 39 123 57 118 109 52 74 36 62 131 70 74 51 111 109 40 54 44 34 109 124 66 79 50 36 37 40 33 119 30 117 59 132
split_gain=289.712 499.486 496.79 596.682 555.434 382.765 375.425 335.559 321.021 290.678 526.421 350.195 267.719 243.823 236.544 210.389 250.945 218.437 202.931 186.743 172.919 168.075 164.02 164.165 156.776 138.556 137.996 131.84 168.224 122.568 114.763 106.777 315.635 102.291 91.0562 86.2252 119.904 76.944 64.9983 59.9337 186.338 58.0848 51.1187 50.3966 45.2755 44.8232 41.944 29.8996 24.9185 45.9129 22.8264 22.3447 18.2912 13.0561 7.80903 1.06097 0.290189 0.218115 0.181532 0.0449125
threshold=1.0280438065528872 -1.1879431605339048 -1.4959142804145811 0.84253677725791942 -0.16489088535308835 -0.58768022060394276 -1.0473405122756956 -1.0104570388793943 -0.80409952998161305 -1.1355609297752378 -1.8404012918472288 -0.9799804389476775 1.0728817582130434 0.13652297109365466 1.1052695512771609 -1.9252110719680784 0.25250586867332464 1.128928601741791 -2.1975225210189815 -0.79235431551933277 -0.81710901856422413 -1.8441894650459287 -1.9090817570686338 1.1420923471450808 -1.4307013154029844 -1.2697950005531309 0.91363537311553966 1.0159797668457033 -2.1844652891159053 0.93582117557525646 -1.5161612033843992 -1.1247320175170896 1.1198176741600039 -0.85523056983947743 0.96506243944168102 0.69233438372612011 1.0000000180025095e-35 -0.13985252380371091 -0.88397511839866627 1.1691846251487734 -1.2343214154243467 -1.1480264663696287 1.0731771588325503 1.0612251162528994 1.1148376464843752 0.85899353027343761 -1.1389514803886411 -2.4299159049987789 0.23402970284223559 -0.64965909719467152 1.1863275170326235 0.91851562261581432 0.95127680897712719 1.0591057538986208 0.85980197787284862 -1.6780634522438047 1.0437248349189761 -1.5768505334854124 0.93185910582542431 1.0000000180025095e-35
decision_type=2 2 2 2 2 2 2 2 2 2 2 2 2 2 2 2 2 2 2 2 2 2 2 2 2 2 2 2 2 2 2 2 2 2 2 2 2 2 2 2 2 2 2 2 2 2 2 2 2 2 2 2 2 2 2 2 2 2 2 2
left_child=1 5 21 4 7 13 43 -4 -8 12 11 15 37 48 24 16 -11 -17 45 35 -6 39 23 -21 -13 27 51 54 -29 -23 42 44 -33 -16 -24 36 -12 41 -37 53 -41 -2 -20 -5 -27 47 -28 -14 56 -50 57 -15 -31 -3 -7 -47 -1 -39 -32 -43
right_child=9 2 3 6 20 25 8 -9 -10 10 19 14 18 26 33 17 -18 -19 30 22 -22 29 34 -25 -26 31 46 28 -30 52 58 32 -34 -35 -36 38 -38 50 -40 40 -42 59 -44 -45 -46 55 -48 -49 49 -51 -52 -53 -54 -55 -56 -57 -58 -59 -60 -61
leaf_value=-0.16183422467034972 0.13430064501622169 0.11835754986778202 0.060748538191326931 0.030197581320958733 0.14323133505919769 -0.14796555894029623 0.021570311321931102 0.026664957320964064 -0.032757637254651001 0.025090602167934295 0.091307323272326851 -0.12517913876231865 -0.090268661800615851 -0.15258524667026965 0.12135550561868527 -0.033999738010918774 -0.064505640279244464 0.09757101184197535 0.13167999817120876 -0.10676761840501901 -0.16545463924155165 0.14464315980551751 0.0020975690802350453 0.078128111084925192 -0.0049898047635389799 0.1245176707410139 0.16139084184413799 -0.085933648067535298 0.12701658343680883 -0.17084094944669051 -0.14718887474367989 0.17874082022042292 -0.14814441033772893 -0.09352232500256169 0.10897543572718958 0.034032921546212992 -0.18901589147594697 -0.14115204536811998 -0.17399953930779016 -0.13605906317889893 0.14723317483410264 -0.16207919848449615 0.091368648549674261 -0.1156030050045813 -0.10257796487407851 -0.14083219499761723 0.063764676031813447 0.086321908365637745 0.17147797940299575 -0.16113207009255803 0.087210746991610882 0.076708300233237575 0.051405967392450125 0.15062225111520788 -0.058868645290994059 -0.17910772898925198 -0.18703301045067772 -0.1529068851755932 -0.11797644283801448 -0.14850265940558105
leaf_weight=34.824505090713501 23.952381208539009 528.75418775528669 2977.9265723228455 25.500885486602783 495.0897726174444 42.449382327497005 2786.7975275889039 96235.843810902908 1783.8549458347261 3000.1092081330717 2040.0379748791456 326.86942720413208 17.90892993286252 21.40266236662865 93.152357876300812 156.04395565390587 348.96974810957909 659.44530706107616 446.15372244268656 148.93730813264847 18.837656327523291 21.091834276914597 136.57189926505089 70.870740339159966 162.47607059031725 8.897083252668379 155.89940495789051 57.461062572896481 104.67183662950993 38.892182290554047 2.3694960474967983 55.037636309862137 63.758366204798222 29.067093089222908 191.47142951190472 65.971064746379852 15.373639836907385 26.426975257694721 19.446036905050278 36.700753789395094 63.203028857707977 4.5926174819469434 1066.6637015342712 337.07541637867689 661.49174027517438 24.800961889326572 61.317970246076584 20.636309772729874 7.182906627655032 9.8294183462858182 4.3958213031291953 5.3030835837125769 4.0928572863340369 164.41531931608915 12.804511949419974 10.228985346853731 5.2603847682476035 39.20011243224144 20.807446353137493 5.1904080361127853
leaf_count=149 33 401 5678 53 615 204 7783 218151 8704 7778 3064 1571 98 96 103 463 1259 1004 531 725 209 13 385 110 542 17 198 270 187 207 12 20 423 108 224 132 64 136 83 278 83 20 944 1528 2996 148 142 36 7 42 7 12 8 78 45 49 22 178 194 24
internal_value=0 0.0264055 0.0271667 0.0265458 0.0282251 -0.0350203 -0.00740279 0.027688 0.000366954 0.0449197 0.0363938 0.0164693 0.0820662 0.0639157 -0.0541918 0.0268458 0.0157548 0.0723949 0.0921026 0.0717875 0.131917 0.102987 0.0196905 -0.0471533 -0.085273 -0.0646076 0.107459 0.00608312 0.0515455 -0.0527989 0.0998738 -0.0840799 0.0033 0.0702517 0.0644797 0.0851194 0.0892106 -0.0736246 -0.0133277 0.115574 0.0431627 0.0504415 0.103257 -0.105348 -0.0995641 -0.0701339 0.133832 0.00427421 -0.122104 -0.0206982 -0.133397 -0.107053 -0.14968 0.126011 -0.127318 -0.152009 -0.165141 -0.148173 -0.120963 -0.154876
internal_weight=0 106826 105518 104661 99727.7 1307.59 4933.23 99213.8 4570.65 9178.14 7464.81 4776.13 1713.33 301.02 611.565 4164.57 3349.08 815.489 1609.57 2688.68 513.927 857.15 547.851 219.808 489.345 1006.57 243.923 217.387 162.133 64.0769 1535.99 789.185 118.796 122.219 328.043 2140.83 2055.41 103.758 85.4171 793.073 99.9038 33.7354 1512.82 362.576 670.389 73.5752 217.217 38.5452 57.0972 17.0123 70.0229 26.7057 42.985 693.17 55.2539 35.0299 40.0849 65.6271 23.1769 9.78303
internal_count=268644 248619 243789 242721 224653 4830 18068 223829 16487 20025 17615 12828 2410 668 2324 10504 9037 1467 2012 4787 824 1068 1444 835 2113 4162 448 706 457 228 1681 3456 443 211 609 3343 3128 398 215 840 361 77 1475 1581 3013 331 340 134 220 49 321 108 215 479 249 197 171 314 206 44
is_linear=0
shrinkage=0.1


Tree=18
num_leaves=57
num_cat=0
split_feature=73 29 1 71 45 29 0 96 71 6 75 99 27 114 30 29 128 31 80 82 70 113 106 23 2 11 106 101 5 89 77 26 103 72 112 2 31 125 102 74 103 123 87 103 35 104 41 30 44 127 33 23 111 38 18 67
split_gain=275.802 314.057 302.327 520.029 361.214 502.417 344.691 416.717 295.354 291.523 259.345 249.032 246.164 242.288 231.259 181.834 155.747 150.325 107.432 95.6794 153.545 118.581 94.913 156.506 153.5 137.833 110.757 108.742 96.6611 126.177 93.3716 82.9997 72.108 67.1153 84.6567 81.6644 66.2016 60.5639 60.0106 116.54 52.2391 47.8392 33.1038 31.0454 25.7173 23.1438 22.0074 20.6376 11.4749 9.20392 2.36933 0.550277 0.307109 0.0717797 0.0333275 0.00147143
threshold=-0.93556964397430409 1.2355101704597475 0.63122358918190014 -0.6225806176662444 0.98797366023063671 1.1990464329719546 0.540849268436432 -1.027839660644531 -0.66026669740676869 0.82354536652565014 -1.1408297419548032 -1.0374210476875303 1.4764015674591067 -0.93740361928939808 1.0424621701240542 1.2502279877662661 1.0000000180025095e-35 1.0010380744934084 -1.188458979129791 -1.1801274418830869 -0.57982638478279103 -0.92194971442222584 -0.90485239028930653 1.4032517075538637 0.70230656862258922 1.0319775342941286 -0.95474708080291737 -0.94953593611717213 0.70931828022003185 -1.2860755920410154 -1.2577251791954038 1.4630636572837832 -0.9692510962486266 -0.86156454682350148 -1.1615774631500242 0.72281208634376537 1.0091047286987307 -1.1644288897514341 -0.93142202496528614 -0.97551336884498585 -0.91973024606704701 -1.0315837264060972 -1.2468903660774229 -0.9692510962486266 0.87743777036666881 -0.9129134714603423 0.66057509183883678 1.0864582657814028 0.7532157599925996 -1.3103048801422117 0.78537687659263622 1.5857828259468081 -0.90221557021141041 0.97389900684356701 1.635048031806946 -0.37784084677696222
decision_type=2 2 2 2 2 2 2 2 2 2 2 2 2 2 2 2 2 2 2 2 2 2 2 2 2 2 2 2 2 2 2 2 2 2 2 2 2 2 2 2 2 2 2 2 2 2 2 2 2 2 2 2 2 2 2 2
left_child=11 2 3 4 5 -2 7 -5 12 19 -8 33 13 -4 31 38 -6 -16 -14 20 21 -3 26 28 25 -25 49 36 30 -30 -24 -10 -17 34 53 42 -28 -29 39 -11 -26 -22 -36 -21 48 -45 -40 -34 55 -13 -37 -51 -50 54 -1 -35
right_child=1 9 8 6 16 -7 10 -9 14 15 -12 22 18 -15 17 32 -18 -19 -20 43 41 -23 23 24 40 -27 27 37 29 -31 -32 -33 47 44 35 50 -38 -39 46 -41 -42 -43 -44 45 -46 -47 -48 -49 52 51 -52 -53 -54 -55 -56 -57
leaf_value=-0.17115935288320439 -0.077024676768898723 0.12580535483920899 0.033810015768024143 -0.029013110588372876 0.082184116078951985 0.0051273074343059005 -0.012435244031381881 0.024164321729835344 -0.080357269907586112 -0.05735377869436771 0.053850949588170785 -0.020584515843699053 0.15330069161415472 -0.037349623706422884 0.078482429975229293 0.11648984394290557 -0.090974440043431373 -0.019916181743223765 0.052830628989695566 0.024696241521842455 -0.14677463102345939 -0.16747901496068018 -0.058851311370621197 0.013827558913185529 0.056709830714790722 -0.1212820756506498 0.099140535512082004 0.028200479731460601 -0.099020640154174222 0.13411993524829782 0.09411207806863231 0.097574111943955433 -0.044384759644693073 -0.10809608164651777 -0.18626586150547006 -0.13133778773514523 -0.040114585727799495 -0.19245466558518262 0.079254613023186524 0.12498078753423024 0.16125419025384893 0.11103716938824365 0.12089786607692087 -0.15271668524513038 0.14033340625579935 -0.088417865673149756 0.18874378054225729 -0.14668349144611145 -0.17544110684310854 -0.19816986588842644 -0.21542211466319983 -0.15992554834042871 -0.19997440724182694 -0.18029915134813998 -0.16134376575025811 -0.10287735982741375
leaf_weight=9.6598734110593814 1203.8222361281514 66.486951649188995 1205.9642305672169 1496.8049724306911 470.60384152829647 1950.8096183389425 656.67244842648506 95148.527198396623 137.8212539833039 62.819205805659294 5834.7222499400377 5.2045823931694057 155.26363831758499 793.18752221576869 2912.2595813423395 16.389766365289688 58.388139382004738 164.0014273673296 338.37582740187645 12.956244632601736 80.698080241680145 17.392256945371628 72.981250807642937 554.39992295205593 132.57758455164731 87.410811215639114 1119.8732320070267 35.232092276215553 24.939924016594887 335.3824495729059 88.054113879799843 32.37460070848465 29.850091606378555 0.54487904161214729 3.733206706121563 7.7432248257100564 35.212068788707256 19.22740612924099 27.714616164565086 79.309240117669106 74.742008535191417 7.9022366851568213 58.326920131221414 190.05698189139366 3.7965479791164389 79.351931944489479 54.377769187092781 58.113111734390259 18.359672859311107 5.6175540834665325 5.9081138223409653 11.391462638974188 7.0663135051727286 6.3836037814617148 5.3888988941907874 63.8685401994735
leaf_count=40 5071 91 2232 4494 846 4589 1648 221902 1246 187 9642 13 107 2009 3643 24 200 374 575 39 360 81 259 1190 216 321 1194 69 618 275 123 60 100 15 17 145 115 85 47 80 38 10 73 930 4 304 32 278 76 23 24 50 29 26 23 2382
internal_value=0 0.0242825 0.0247217 0.0235204 -0.0133991 -0.0262223 0.024839 0.0233407 0.0470804 -0.0388134 0.0471454 0.0560913 0.0211919 0.00557657 0.0669588 0.0329585 0.0630715 0.0732366 0.0844313 -0.0906605 -0.0319772 0.0649932 0.0641764 0.0460707 0.0195913 -0.00457357 0.0843212 0.0883849 0.0891975 0.117983 0.024789 -0.0465112 -0.0760868 -0.0541889 0.0040426 0.0537107 0.0948954 -0.0497038 0.0837085 0.0443909 0.0943997 -0.12378 0.102421 -0.126507 -0.114602 -0.133778 0.15178 -0.111969 -0.125375 -0.13695 -0.167728 -0.172556 -0.182259 -0.171414 -0.167644 -0.102922
internal_weight=0 113343 112560 106820 3683.62 3154.63 103137 96645.3 5739.25 783.418 6491.39 2793.03 2492.79 1999.15 3246.46 328.574 528.992 3076.26 493.639 454.845 172.48 83.8792 2602.25 1370.49 849.13 641.811 1231.76 1209.54 521.358 360.322 161.035 170.196 104.353 190.78 97.1438 75.7115 1155.09 54.4595 224.221 142.128 207.32 88.6003 62.0601 282.365 93.636 269.409 82.0924 87.9632 89.8394 22.2136 13.6513 17.009 25.426 21.4324 15.0488 64.4134
internal_count=268644 261201 258638 248392 10706 9660 237686 226396 10246 2563 11290 7443 4923 4241 5323 748 1046 4017 682 1815 542 172 4589 3040 1765 1511 1549 1463 1275 893 382 1306 402 2854 348 259 1309 154 346 267 254 370 90 1273 2506 1234 79 378 2502 86 169 73 105 89 63 2397
is_linear=0
shrinkage=0.1


Tree=19
num_leaves=61
num_cat=0
split_feature=41 126 94 37 58 124 118 45 44 33 114 124 41 0 94 14 37 75 70 42 60 126 31 72 108 48 119 117 0 105 125 43 26 59 58 72 73 115 53 122 129 130 71 95 88 39 125 112 52 48 98 33 53 47 103 36 38 87 117 36
split_gain=267.456 270.398 969.537 622.11 581.82 524.596 720.292 582.246 451.192 405.448 356.141 855.075 512.739 288.259 271.951 269.322 274.561 275.379 164.286 153.551 349.741 219.083 138.721 127.33 124.102 147.36 119.686 98.4016 82.6449 72.7331 63.4022 103.267 133.761 83.4325 61.3356 57.9395 53.2654 52.6214 55.255 51.7149 48.6422 47.7965 39.2863 46.9008 31.1404 24.5441 21.4951 20.0388 26.7293 19.095 16.0049 13.6236 3.10566 2.32844 2.10579 1.93562 0.33607 0.0358179 0.00733467 0.00379378
threshold=1.1119706630706789 -1.6425352096557615 -0.99151605367660511 0.95733419060707103 0.88645148277282726 -1.4303409457206724 -1.048308730125427 1.1310960054397585 1.0763552784919741 0.83832499384880077 -0.93906825780868519 -1.3162516951560972 1.0282623767852785 0.46128734946250921 -0.98574876785278309 0.94543308019638073 0.97723016142845165 -1.0481872558593748 -0.18985090404748914 1.0866993665695193 0.77796813845634472 -1.5659903883934019 1.0064285397529604 -0.59223687648773182 -1.0548880100250242 1.2203481793403628 -1.0096280574798582 -1.5566674470901487 0.47140309214591986 -0.87270191311836232 -1.8635021448135374 1.1845735311508181 1.1464264988899233 0.91812577843666088 0.91458371281623851 -0.32625693082809443 -0.81216248869895924 -1.4535550475120542 1.1152815222740176 -2.0135651826858516 1.0000000180025095e-35 1.0000000180025095e-35 -0.29947800934314722 -0.80086562037467945 -1.3655713796615598 1.0406730771064761 -1.5487100481986997 -1.3356004357337949 1.1531828045845034 1.2342508435249331 -0.78341737389564503 0.88595440983772289 1.1138595342636111 1.2224336862564089 -0.64910888671874989 0.97035506367683422 1.0006075501441958 -0.20196843892335889 -1.5768505334854124 0.90921938419342052
decision_type=2 2 2 2 2 2 2 2 2 2 2 2 2 2 2 2 2 2 2 2 2 2 2 2 2 2 2 2 2 2 2 2 2 2 2 2 2 2 2 2 2 2 2 2 2 2 2 2 2 2 2 2 2 2 2 2 2 2 2 2
left_child=1 2 15 4 10 6 9 -8 13 -4 12 -12 -3 -7 -10 16 17 -1 -18 20 23 -22 28 -5 25 35 36 54 -17 51 31 32 -29 -33 40 37 -6 53 -39 45 -21 -36 50 -44 -28 -31 -24 48 -37 -41 -32 -27 -49 -2 56 -53 -26 58 -56 -59
right_child=24 3 5 19 26 8 7 -9 14 -11 11 -13 -14 -15 -16 22 18 -19 -20 34 21 -23 46 -25 27 29 44 30 -30 39 42 33 -34 -35 41 47 -38 38 -40 49 -42 -43 43 -45 -46 -47 -48 52 -50 -51 -52 55 -54 -55 57 -57 -58 59 -60 -61
