tree
version=v4
num_class=1
num_tree_per_iteration=1
label_index=0
max_feature_idx=136
objective=binary sigmoid:1
feature_names=Column_0 Column_1 Column_2 Column_3 Column_4 Column_5 Column_6 Column_7 Column_8 Column_9 Column_10 Column_11 Column_12 Column_13 Column_14 Column_15 Column_16 Column_17 Column_18 Column_19 Column_20 Column_21 Column_22 Column_23 Column_24 Column_25 Column_26 Column_27 Column_28 Column_29 Column_30 Column_31 Column_32 Column_33 Column_34 Column_35 Column_36 Column_37 Column_38 Column_39 Column_40 Column_41 Column_42 Column_43 Column_44 Column_45 Column_46 Column_47 Column_48 Column_49 Column_50 Column_51 Column_52 Column_53 Column_54 Column_55 Column_56 Column_57 Column_58 Column_59 Column_60 Column_61 Column_62 Column_63 Column_64 Column_65 Column_66 Column_67 Column_68 Column_69 Column_70 Column_71 Column_72 Column_73 Column_74 Column_75 Column_76 Column_77 Column_78 Column_79 Column_80 Column_81 Column_82 Column_83 Column_84 Column_85 Column_86 Column_87 Column_88 Column_89 Column_90 Column_91 Column_92 Column_93 Column_94 Column_95 Column_96 Column_97 Column_98 Column_99 Column_100 Column_101 Column_102 Column_103 Column_104 Column_105 Column_106 Column_107 Column_108 Column_109 Column_110 Column_111 Column_112 Column_113 Column_114 Column_115 Column_116 Column_117 Column_118 Column_119 Column_120 Column_121 Column_122 Column_123 Column_124 Column_125 Column_126 Column_127 Column_128 Column_129 Column_130 Column_131 Column_132 Column_133 Column_134 Column_135 Column_136
feature_infos=[-1.8014661073684692:2.1873281002044678] [-1.7160434722900391:2.0962586402893066] [-1.6382262706756592:2.0136351585388184] [-1.5680137872695923:1.9394575357437134] [-1.5054070949554443:1.8737261295318604] [-1.4504051208496094:1.8164401054382324] [-1.4123568534851074:1.7937201261520386] [-1.3844102621078491:1.9274762868881226] [-1.3517893552780151:2.0758624076843262] [-1.3099035024642944:2.0974209308624268] [-1.2559221982955933:2.0118343830108643] [-1.1870334148406982:2.073509693145752] [-1.1039742231369019:2.1457490921020508] [-1.0067610740661621:2.2142360210418701] [-0.90047705173492432:2.2825961112976074] [-0.78966546058654785:2.4052433967590332] [-0.67814630270004272:2.5269482135772705] [-0.65620064735412598:2.5277442932128906] [-0.66012513637542725:2.5653238296508789] [-0.66667592525482178:2.5221147537231445] [-0.66607785224914551:2.4413206577301025] [-0.67377018928527832:2.3840618133544922] [-0.67701548337936401:2.2409591674804688] [-0.7797551155090332:2.1030042171478271] [-1.0841877460479736:2.0889520645141602] [-1.4308524131774902:1.9925726652145386] [-1.6366665363311768:1.8694267272949219] [-1.8254417181015015:1.7314887046813965] [-1.9454965591430664:1.5598906278610229] [-2.2033448219299316:1.3473584651947021] [-2.6534385681152344:1.1443074941635132] [-2.9375624656677246:1.0691677331924438] [-2.8855924606323242:1.0182701349258423] [-2.1581358909606934:1.0153312683105469] [-1.421078085899353:1.0222163200378418] [-0.8696785569190979:1.0987448692321777] [-0.66409575939178467:1.3781088590621948] [-0.67050886154174805:1.4172744750976562] [-0.67336314916610718:1.4686216115951538] [-0.67729061841964722:1.427788257598877] [-0.67391806840896606:1.3506048917770386] [-0.67623704671859741:1.3033223152160645] [-0.67480045557022095:1.4334096908569336] [-0.67804229259490967:1.6771683692932129] [-0.67593681812286377:1.8418123722076416] [-0.67998087406158447:1.9795904159545898] [-0.67735743522644043:1.8671952486038208] [-0.68056988716125488:1.8940913677215576] [-0.67851173877716064:2.0411467552185059] [-0.68057990074157715:2.1347439289093018] [-0.67672491073608398:2.3221406936645508] [-0.68208664655685425:2.3866791725158691] [-0.6882440447807312:2.3278176784515381] [-0.69760811328887939:2.41339111328125] [-0.68820065259933472:2.0181429386138916] [-0.66555494070053101:1.7058380842208862] [-0.62731093168258667:1.5109990835189819] [-0.64525216817855835:1.3641012907028198] [-0.85317844152450562:1.3483799695968628] [-0.73171019554138184:1.3266682624816895] [-0.58399802446365356:1.3006186485290527] [-0.60407185554504395:1.6912268400192261] [-0.63139909505844116:1.8743280172348022] [-0.66095739603042603:1.7138135433197021] [-0.81091159582138062:1.3433690071105957] [-1.0305129289627075:1.0751444101333618] [-1.2528316974639893:0.99085426330566406] [-1.6713657379150391:0.88485002517700195] [-1.8910553455352783:0.75389385223388672] [-2.0949718952178955:0.60495084524154663] [-1.9126988649368286:0.45876148343086243] [-1.7446892261505127:0.33052113652229309] [-1.674402117729187:0.23037496209144592] [-1.5674382448196411:0.15855956077575684] [-1.4517455101013184:0.23297213017940521] [-1.6804615259170532:0.84510332345962524] [-1.8599822521209717:1.4404212236404419] [-2.0371255874633789:1.2026444673538208] [-2.1728529930114746:1.1271375417709351] [-2.2573421001434326:0.66064220666885376] [-2.3058340549468994:0.36351838707923889] [-2.3315773010253906:0.28676301240921021] [-2.3403120040893555:0.33890664577484131] [-2.3343968391418457:0.39074629545211792] [-2.3124566078186035:0.43792322278022766] [-2.2730567455291748:0.47703936696052551] [-2.2140905857086182:0.50853937864303589] [-2.1362462043762207:0.53271615505218506] [-2.0426793098449707:0.59374678134918213] [-1.9374580383300781:0.56802195310592651] [-1.8240519762039185:0.64909452199935913] [-1.7565661668777466:1.0685811042785645] [-1.6520191431045532:1.4172115325927734] [-1.5958865880966187:1.6287872791290283] [-1.5394163131713867:1.6652539968490601] [-1.4922878742218018:1.6182962656021118] [-1.4526540040969849:1.5607637166976929] [-1.4226374626159668:1.5595740079879761] [-1.4027614593505859:1.5645072460174561] [-1.522296667098999:1.5648646354675293] [-2.0638625621795654:1.5687597990036011] [-2.4396805763244629:1.5660412311553955] [-2.5584738254547119:1.569068431854248] [-2.4521515369415283:1.5662518739700317] [-2.0341367721557617:1.5674868822097778] [-1.4475361108779907:1.5623446702957153] [-1.1201972961425781:1.563502311706543] [-1.1029105186462402:1.561995267868042] [-1.1535060405731201:1.5723429918289185] [-1.1994030475616455:1.5757462978363037] [-1.3164699077606201:1.5835809707641602] [-1.5627152919769287:1.5861003398895264] [-2.1400496959686279:1.5904537439346313] [-2.4733853340148926:1.5896482467651367] [-2.4289262294769287:1.5896980762481689] [-1.9469403028488159:1.5816894769668579] [-1.6131480932235718:1.5827864408493042] [-1.627167820930481:1.7016431093215942] [-1.6790087223052979:2.5795986652374268] [-1.7356787919998169:2.8008601665496826] [-1.8080312013626099:2.5472877025604248] [-1.9280952215194702:1.7180403470993042] [-2.1567583084106445:1.5756756067276001] [-2.3918964862823486:1.5728672742843628] [-2.6616356372833252:1.8138364553451538] [-2.9761693477630615:2.1341862678527832] [-3.3559722900390625:2.7791450023651123] [-3.8503069877624512:3.7871904373168945] [0:1] [0:1] [0:1] [0:1] [0:1] [0:1] [0:1] [0:1] [0:1]
tree_sizes=5531 5468 6001 5807 6121 6587 6722 6672 6749 6366 6567 6452 6922 6886 6782 6901 6692 6884 6701 6795 6667 6606 6372 6906 6913 6880 6922 6954 6916 6315 6806 5686 6641 5247 6686 6739 5550 6920 6148 6709 6794 4877 6566 6950 5245 5519 5476 6653 6916 5986 5446 5443 5409 6928 6897 6635 6102 5880 5195 5892 6643 6730 6647 6953 5662 5300 6783 6924 6735 6764 6033 5185 5563 6835 6801 6926 6028 5891 5079 6227 6155 6953 6918 5496 6419 6539 6705 6340 4529 6760 6707 5144 6102 6850 6539 6696 5681 6578 6924 5789 6925 6031 6900 6084 6974 6907 5164 6352 6882 6327 6719 6932 6824 6960 6550 6558 6133 5493 6899 5916 6331 6355 3356 6177 6744 6927 6721 6693 5901 6987 6630 6013 6240 5998 4647 6262 6594 5714 6209 6892 5996 5171 6364 5897 6933 6725 6271 6163 6921 6345 6251 6596 6450 5652 4126 6826 6222 6887 6152 6913 5647 5723 5913 5792 6817 6214 5835 4833 6558 6582 6088 6118 6045 6250 5783 5793 6952 6479 6642 6484 6250 5726 6799 6904 6242 6317 6560 6632 5487 6557 6779 6547 5476 6442 6560 4202 6918 6791 6774 6678

Tree=0
num_leaves=51
num_cat=0
split_feature=53 115 53 132 106 131 130 46 52 103 29 128 135 136 71 134 69 57 104 81 110 92 55 53 69 70 6 106 109 107 29 91 28 71 43 124 35 133 115 32 35 102 51 43 6 41 37 0 0 9
split_gain=90423.2 34119 25659.9 46173.3 18175.2 17263.3 18356 13810.4 12927.4 12674.7 12610.3 10119.4 7994.87 7622.36 6648.25 7016.75 5948.78 5269.99 3870.86 3746.45 3550.89 3000.83 2247.97 2211.51 1997.55 1924.65 1905.74 1855.22 1812.88 1691.16 1674.94 1248.96 1183.53 1072.37 688.992 481.899 419.716 323.132 308.683 291.463 281.542 277.627 269.546 244.655 232.304 221.051 153.624 5.68434e-14 1.42109e-14 7.10543e-15
threshold=1.0195568203926089 -0.82912001013755787 1.1086271405220034 1.0000000180025095e-35 -0.90854337811470021 1.0000000180025095e-35 1.0000000180025095e-35 1.1807271242141726 1.0921100378036501 -0.87826567888259877 1.2301604151725771 1.0000000180025095e-35 1.0000000180025095e-35 1.0000000180025095e-35 -0.17746762931346891 1.0000000180025095e-35 -0.018090649507939812 0.92395320534706127 -0.84429070353507985 -0.20820534974336621 -1.1937509179115293 -1.1686352491378782 1.0735571384429934 1.1164613366127016 -0.096392009407281862 -0.18018696457147595 0.83635395765304577 -0.89297929406166066 -1.1247471570968626 -0.89254838228225697 1.0683016777038576 -1.1822767853736875 1.1305806636810305 -0.44901092350482935 1.1371139883995058 -1.1665874123573301 0.86802673339843761 1.0000000180025095e-35 -1.2783024311065672 0.91816744208335888 0.84985563158988964 -0.76714169979095448 1.0418927073478701 1.0615207552909853 0.79627215862274181 0.97956430912017833 0.89327535033226024 0.61983424425125133 0.52214065194129955 -0.15845521539449689
decision_type=2 2 2 2 2 2 2 2 2 2 2 2 2 2 2 2 2 2 2 2 2 2 2 2 2 2 2 2 2 2 2 2 2 2 2 2 2 2 2 2 2 2 2 2 2 2 2 2 2 2
left_child=1 5 3 8 7 6 10 20 9 30 11 -1 14 -11 15 23 17 -10 29 22 -5 35 -16 -4 -17 39 -12 40 -27 44 -2 -31 -23 43 -9 -8 42 -18 -35 -6 46 -42 -20 -29 -7 -38 -14 48 -3 -21
right_child=2 47 12 4 25 18 21 34 16 13 26 -13 27 -15 19 24 37 -19 36 49 -22 32 -24 -25 -26 28 -28 33 -30 31 -32 -33 -34 38 -36 -37 45 -39 -40 -41 41 -43 -44 -45 -46 -47 -48 -49 -50 -51
leaf_value=-1.6414650632465999 -1.7296097172172298 -2.7726161369818576 -2.4034276424686465 -2.5132060213144429 -2.7726161369818576 -2.6446854013064107 -2.7726161369818576 -2.3123638511655376 -2.3976942166083863 -2.0714441072974288 -2.4378526880293476 -2.4461546266900567 -2.2937216444655673 -1.8440758248456568 -1.2025609498502938 -2.4391465672108952 -2.6959199287145346 -2.1529789735733171 -1.6917501896728031 -2.7726161369818572 -1.6483225140296198 -1.2472706534015046 -2.2375725577833361 -2.668785611582067 -1.7684791197566923 -2.3513144622826272 -1.9049991927620074 -1.6121867915670189 -1.1885530541082618 -2.4490201580079707 -2.5967874796046959 -2.0744249587962704 -2.5146157696915288 -1.7799750814360373 -2.6847613037436902 -1.5367879943139469 -1.3139209339297091 -1.8646724932232113 -1.2515712117134765 -1.8675683739639051 -2.7726161369818576 -2.1635116715738301 -2.7726161369818576 -2.7726161369818576 -2.1135227672991377 -1.7337565172751326 -1.3960095025580168 -2.7726161369818576 -2.7726161369818576 -2.7726161369818576
leaf_weight=10930.992880374193 23.433853585273027 76.30570774897933 428.37715217471123 49.881255310028791 8.0865809805691224 146.1000038087368 3.4048762023448935 74.971648424863815 1250.1396783068776 6838.3768005743623 231.91962414234877 158.54490409046412 3.0022159628570062 1879.7482788786292 72.342572055757046 64.672078967094421 299.93549301847816 2972.3054984360933 5.320714168250559 2.1280476264655617 982.11703717336059 7.5405589379370204 29.558698028326035 1176.9977872669697 141.75030086934566 13.650500591844319 94.455793969333172 2.4779530018568021 756.96421713754535 146.61979088559747 449.73304765671492 226.51663446426392 323.21346241980791 13.035630691796539 147.28503524139524 43.045267939567566 41.396774906665087 4.750552635639905 72.783084370195866 6.35433730110526 11.552258543670172 21.243814393877987 4.0736911706626415 6.8097524046897888 8.7255903705954534 17.991536695510149 5.2220607325434685 237.85492327809334 1.7632394619286049 27.968625947833061
leaf_count=64736 158 1255 5574 700 133 2229 56 912 16200 67857 3092 2126 36 14676 133 863 4719 31749 34 35 5879 17 339 18221 1007 171 791 14 1293 1970 6661 2254 4540 94 2302 213 119 38 167 51 190 229 67 112 90 122 19 3912 29 460
internal_value=-2.66566 -1.7464 -2.09548 -2.05191 -1.60793 -1.72023 -1.69368 -1.84412 -2.11791 -2.04978 -1.671 -1.65297 -2.42561 -2.02242 -2.47749 -2.52741 -2.25622 -2.22543 -2.24498 -1.79232 -1.69013 -2.38002 -1.50279 -2.59798 -1.9786 -1.23058 -2.28364 -1.68475 -1.20915 -2.3369 -2.55384 -2.22162 -2.48572 -1.4423 -2.55914 -1.62738 -1.53936 -2.68296 -1.33183 -2.37437 -2.24687 -2.37807 -2.16045 -2.46301 -2.61475 -1.44111 -1.72371 -2.77262 -2.77262 -2.77262
internal_weight=0 12705.8 17837.7 15757.7 2039.31 12389.9 11793.1 1254.25 13718.4 9191.29 11415.9 11089.5 2079.92 8718.13 1943.8 1811.8 4527.13 4222.45 596.745 131.998 1032 377.204 101.901 1605.37 206.422 785.056 326.375 136.127 770.615 527.962 473.167 373.136 330.754 95.1064 222.257 46.4501 68.7827 304.686 85.8187 14.4409 41.0203 32.7961 9.39441 9.28771 154.826 59.3883 8.22428 315.924 78.0689 30.0967
internal_count=268644 87652 180992 153499 11441 82456 75571 9793 142058 89352 70745 66862 27493 82533 26632 25665 52706 47949 6885 967 6579 4826 472 23795 1870 1648 3883 861 1464 6543 6819 4224 4557 387 3214 269 342 4757 261 184 474 419 101 126 2319 241 55 5196 1284 495
is_linear=0
shrinkage=1


Tree=1
num_leaves=50
num_cat=0
split_feature=53 113 102 52 31 38 72 109 26 135 0 30 26 68 101 134 29 82 26 53 136 126 123 32 0 6 31 128 101 26 0 4 104 109 133 132 69 57 105 57 132 104 58 53 51 12 0 72 72
split_gain=9949.17 6571.04 5919.99 5734.8 4672.88 3082 2991.22 2825.62 2690.83 2797.07 2564.01 2600.85 2600.63 2518.93 2338.19 2122.29 1841.99 1312.17 1033.83 1049.9 1006.06 917.173 900.88 807.722 776.43 1848.05 775.303 751.114 684.037 666.219 969.774 619.574 1180.19 1008.39 606.587 602.266 387.699 324.213 277.999 176.99 158.092 230.252 54.8393 0.0150275 0.000370651 1.33225e-06 5.68434e-14 1.42109e-14 8.88178e-16
threshold=1.0419045686721804 -0.81749302148818959 -0.83824414014816273 1.1436928510665896 1.007531523704529 0.99236068129539501 -0.5628053843975066 -1.0949413180351255 1.2310017347335818 1.0000000180025095e-35 0.36949519813060766 1.0915368199348452 1.3265924453735354 0.11069668456912042 -0.79454553127288807 1.0000000180025095e-35 1.137716591358185 -1.0973764657974241 1.0223796367645266 1.0543674826622011 1.0000000180025095e-35 -0.98649680614471424 -1.3988065123558042 0.91676607728004467 0.42240823805332189 0.61282944679260265 1.0155245661735537 1.0000000180025095e-35 -0.75952720642089833 1.2998873591423037 0.42600969970226293 0.59614205360412609 -0.87885102629661549 -0.89866444468498219 1.0000000180025095e-35 1.0000000180025095e-35 0.086410850286483779 0.84899938106536876 -0.86393913626670826 0.89156281948089611 1.0000000180025095e-35 -0.90094482898712147 0.84027287364006054 1.0195568203926089 1.233257055282593 1.1590616703033449 0.53618168830871593 -0.68219110369682301 -0.78401046991348255
decision_type=2 2 2 2 2 2 2 2 2 2 2 2 2 2 2 2 2 2 2 2 2 2 2 2 2 2 2 2 2 2 2 2 2 2 2 2 2 2 2 2 2 2 2 2 2 2 2 2 2
left_child=1 4 18 5 6 8 10 27 15 -10 12 -12 -1 14 -7 -4 31 38 21 29 -19 40 37 35 25 -21 -24 36 -15 30 -20 32 -6 -33 -25 -8 -5 -18 -9 -31 41 -2 -26 46 -23 -46 47 48 -3
right_child=2 43 3 7 16 13 23 17 9 -11 11 -13 -14 28 -16 -17 22 20 19 24 -22 44 26 34 42 -27 -28 -29 -30 39 -32 33 -34 -35 -36 -37 -38 -39 -40 -41 -42 -43 -44 -45 45 -47 -48 -49 -50
leaf_value=0.34572663227122508 0.24932640680537907 -0.10624983219635074 0.3721896692027718 -0.084556023068984854 0.64326992528348026 0.019030118962159268 0.27946821916240711 0.99088050993467336 0.25344639372812761 0.53068178493458029 0.39084834777828165 0.28559293325718355 0.078342068388693717 -0.03692147463246731 0.33750204861934358 0.16539613211648768 0.35858199057505918 0.25370378883378536 0.3446468129824441 0.042997207125258785 0.88405448371742024 -0.10880039805656508 0.15092267242005258 0.41799954590492139 -0.1096151736023989 0.42062102376665095 -0.10182763474015065 0.87101863539187363 0.14506371133363069 -0.00094505969670170939 0.14613639219299521 0.50220983246418105 0.12666654115814485 0.2795923099882211 0.60433070678947409 0.48034379981296776 0.19485764444427353 0.021170372623197691 -0.047439929744716156 0.41282180674484109 1.4313098798011352 1.180848629290679 -0.024627450290243005 -0.11261287532557661 -0.10692795179280579 -0.1070413829968711 -0.10624983219635076 -0.10624983219635076 -0.10624983219635076
leaf_weight=1016.5099824257195 4.0204855129122734 3.3770809285342693 9762.6354800909758 562.79253895580769 53.153945498168468 275.88591174408793 199.27132625132799 2.6189895719289771 4911.1783750019968 393.0441570058465 24903.729231085628 2591.9446339011192 566.45622967928648 332.6654246635735 1402.4495385140181 522.86331827193499 246.74275809526443 832.29115467891097 408.13190523535013 745.07428704947233 26.114091143012047 1.2477162964642028 924.48043736815453 222.82967382669449 182.37657146155834 156.88542870804667 139.70340501517057 8.7906814217567426 544.77597808837891 182.19467028975487 619.85849840193987 364.95026040077209 263.16750774532557 459.87143257260323 809.07297320663929 594.67856641113758 54.465056672692299 32.193688683211803 167.10712498053908 10.95990079641342 8.4089546948671341 7.804180614650253 130.07481475919485 3.7601734176278105 6.6647150926291943 1.2258871495723722 217.18505709245801 65.49322522059083 1.1072396486997593
leaf_count=4238 45 61 42729 8878 155 2739 894 16 33484 1768 81536 10974 3766 4033 9467 4148 741 6334 2255 7469 189 18 6737 692 2404 1092 1641 25 5959 1916 4481 1071 1933 2679 1244 1090 314 311 2540 65 12 16 1191 38 110 20 3923 1183 20
internal_value=0 0.366867 0.280712 0.298906 0.37099 0.315156 0.381597 0.120659 0.331843 0.27399 0.373801 0.380926 0.250044 0.213369 0.285151 0.361677 0.239042 0.222646 0.134569 0.127457 0.27288 0.724303 0.159672 0.505753 0.061619 0.10868 0.117742 -0.0468298 0.0760674 0.192932 0.224949 0.33246 0.213475 0.378092 0.564094 0.429927 -0.0599014 0.319639 -0.0314179 0.0225327 1.09984 0.864123 -0.0742344 -0.106332 -0.107199 -0.106946 -0.10625 -0.10625 -0.10625
internal_weight=0 33679.7 22264.6 19799.7 33388.8 18145.5 30904.5 1654.18 15589.7 5304.22 29078.6 27495.7 1582.97 2555.78 1678.34 10285.5 2484.26 1028.13 2464.93 2435.56 858.405 29.3719 1343.12 1825.85 1214.41 901.96 1064.18 626.048 877.441 1221.14 1027.99 1141.14 316.321 824.822 1031.9 793.95 617.258 278.936 169.726 193.155 20.2336 11.8247 312.451 290.923 9.13832 7.8906 287.163 69.9775 4.48432
internal_count=268644 124927 143717 122623 119702 104327 104434 18296 82129 35252 100514 92510 8004 22198 12206 46877 15268 9079 21094 20873 6523 221 9430 3920 12156 8561 8378 9217 9992 8717 6736 5838 2088 3750 1936 1984 9192 1052 2556 1981 73 61 3595 5225 148 130 5187 1264 81
is_linear=0
shrinkage=0.1


Tree=2
num_leaves=55
num_cat=0
split_feature=53 113 103 110 71 130 76 38 32 0 34 73 30 71 32 130 28 0 132 135 32 31 12 136 104 31 25 78 90 57 43 116 112 109 27 107 75 117 95 45 108 21 70 58 115 79 128 106 131 31 110 0 0 1
split_gain=5210.21 3928.32 3546.15 3388.27 2568.22 2477.41 4024.18 2316.65 1956.39 1910.72 1632.89 1607.47 1682.92 1073.35 949.595 886.194 816.436 861.328 698.663 680.617 628.412 602.38 560.183 592.711 498.628 364.194 328.167 324.526 320.433 304.259 280.093 223.945 271.899 259.417 192.559 162.419 126.125 110.541 60.1606 44.9926 36.7992 22.1035 75.2244 17.9471 0.217188 0.0222693 0.0208848 0.014823 0.0232184 0.00636518 2.46386e-05 5.68434e-14 2.84217e-14 7.10543e-15
threshold=0.99767893552780162 -0.84850597381591786 -0.88271483778953541 -1.1937509179115293 -0.54713472723960865 1.0000000180025095e-35 -1.1753164529800413 0.98698770999908458 0.96504369378089916 0.54969981312751781 0.83577877283096325 -0.88506498932838429 1.0939505100250246 -0.21994245797395703 0.95656758546829235 1.0000000180025095e-35 1.2347786426544192 0.42361497879028326 1.0000000180025095e-35 1.0000000180025095e-35 0.89558830857276928 1.011195242404938 0.98345556855201732 1.0000000180025095e-35 -0.93305233120918263 1.0055369734764101 1.3925468325614931 -0.53490087389945973 -1.1657844781875608 0.82233649492263805 0.96192461252212536 -1.4861627817153928 -1.280536353588104 -1.1388621330261228 1.251585900783539 -1.0123807191848753 -0.55742779374122609 -1.0561916828155515 -0.91499605774879444 1.1869956254959109 -1.0533740520477293 1.4032302498817446 -0.37866798043251032 0.78157743811607372 -0.82912001013755787 -0.86841195821762074 1.0000000180025095e-35 -0.83810728788375843 1.0000000180025095e-35 1.007531523704529 -0.78748115897178639 1.0708290934562685 0.51190426945686351 1.0616427659988406
decision_type=2 2 2 2 2 2 2 2 2 2 2 2 2 2 2 2 2 2 2 2 2 2 2 2 2 2 2 2 2 2 2 2 2 2 2 2 2 2 2 2 2 2 2 2 2 2 2 2 2 2 2 2 2 2
left_child=1 4 18 27 9 7 14 10 -8 16 -5 12 -11 -9 -7 20 28 -18 19 22 30 -22 23 -2 -24 -13 34 31 -1 38 -6 33 -33 -4 -21 40 -29 -28 -20 -38 -31 49 -43 -37 46 -40 47 48 -3 -17 -46 52 -52 -53
right_child=2 44 3 5 15 6 8 13 -10 11 -12 25 -14 -15 -16 41 17 -19 29 26 21 -23 24 -25 -26 -27 37 36 -30 35 -32 32 -34 -35 -36 43 39 -39 45 -41 -42 42 -44 -45 50 -47 -48 -49 -50 -51 51 53 -54 -55
leaf_value=0.21500585683485893 -0.0020501642622287753 -0.12588237710250447 -0.11177351345604568 0.13540428575808292 0.27218179547366517 0.18359864248541091 0.010553537761800571 0.14968196493086924 0.22759082012491719 0.26740833824889648 0.24620967030305929 0.33037549199385197 0.13907073099234993 0.32839538360428 0.32137118819814003 -0.11204566593486981 -0.071353297367671709 0.18956695401307588 0.36538171021572258 0.63493223402941712 0.33115407785852158 0.12494177741147999 -0.067123918314729608 0.15141035652439347 0.4168734219967502 0.14027887082395316 0.13860111865023109 0.38162156860280716 0.35636745899145761 -0.12483823083608069 0.12949583196808606 -0.036906627608414878 0.37777261990335248 0.68725012888198667 0.27840452033662511 0.34889664730701858 -0.032499225665621419 -0.12794921368721612 -0.12829611733985155 -0.10864538877702233 0.26025754505838078 -0.11136200384326878 0.59302210029247548 0.4342519237039591 -0.10599319908661012 -0.12083973004660853 -0.11272968864870235 -0.12800653249911956 -0.11241303519320965 -0.10962842091916868 -0.10561984558905363 -0.10561984558905363 -0.10561984558905363 -0.10561984558905363
leaf_weight=265.7363548502326 1198.6693938039243 2.5786821246147147 6.0017904788255718 1388.1662916168571 391.33807398378849 953.93656191974878 1752.4742211848497 4054.9202107526362 544.3253637701273 6352.7411384135485 31710.334936272353 3855.0421266406775 1217.6210700795054 366.43854673206806 1051.9756211191416 28.801697596907616 130.76454193890095 3896.0145975351334 2.9133992493152645 17.183471333235502 8315.2375441193581 144.11312476545572 30.327481862157583 318.56956735998392 71.396990638226271 103.48772010952234 59.61227985471487 5.8254942372441283 404.34062927961349 7.5113727152347565 212.1597875803709 75.631078794598579 19.991353251039982 12.580436304211615 127.93458104878664 39.149443596601486 108.01803812384605 21.053062163293362 11.14329190552235 275.52905584126711 3.7055788114666921 5.9090467840433121 2.0394116714596739 66.439396157860756 1.7796969823539246 6.2530818171799156 3.001445807516574 3.0472508072853079 2.540778711438179 17.520092435181141 62.921022046357393 1.2594279833137978 145.38836639374495 49.671839661896229
leaf_count=880 11074 16 65 7730 826 5131 14136 29741 3006 15382 120239 6565 5545 923 4139 302 746 12454 4 21 12593 618 323 1551 100 441 231 37 707 48 744 765 38 34 341 53 1079 125 65 4175 9 65 8 44 34 47 30 18 26 224 1249 25 2886 986
internal_value=0 0.271669 0.215012 0.221134 0.275727 0.224239 0.152368 0.232481 0.0619898 0.251865 0.241562 0.273768 0.246766 0.164494 0.255852 0.318195 0.198101 0.181094 0.0842733 0.0680861 0.320608 0.327641 0.0454026 0.0301714 0.272578 0.325406 0.230737 -0.0367101 0.300307 0.302055 0.222021 0.111519 0.0497885 0.429177 0.320621 0.364171 -0.0801863 0.0690334 -0.0551832 -0.0872004 0.00238018 -0.0846953 0.0693685 0.402605 -0.106207 -0.125616 -0.119863 -0.122484 -0.119198 -0.111131 -0.105622 -0.10562 -0.10562 -0.10562
internal_weight=0 25615.1 44308 42326.1 25342.9 41822.6 4302.71 37519.9 2296.8 16225.7 33098.5 11528.9 7570.36 4421.36 2005.91 9117.12 4696.86 4026.78 1981.86 1844.75 9062.85 8459.35 1618.96 1517.24 101.724 3958.53 225.783 503.577 670.077 137.116 603.498 114.205 95.6224 18.5822 145.118 116.806 389.373 80.6653 20.3098 383.547 11.217 54.2702 7.94846 105.589 272.189 17.3964 11.1682 8.16671 5.11946 46.3218 261.02 259.241 208.309 50.9313
internal_count=268644 63370 205274 191238 58100 185045 26412 158633 17142 42720 127969 27933 20927 30664 9270 15380 14787 13200 14036 13766 14781 13211 13048 12625 423 7006 718 6193 1587 270 1570 902 803 99 362 154 5291 356 116 5254 57 599 73 97 5270 112 90 60 42 526 5180 5146 4135 1011
is_linear=0
shrinkage=0.1


Tree=3
num_leaves=53
num_cat=0
split_feature=52 102 40 113 31 29 70 53 50 32 130 129 74 98 74 101 109 87 38 27 120 73 27 83 113 111 40 61 5 31 70 101 31 135 99 106 132 124 4 73 42 73 53 103 131 71 52 51 62 59 110 0
split_gain=3457.1 2624.25 2305.22 2286.1 1476.97 1392.87 1330.63 1849.13 1732.16 1672.29 1205.33 1245.48 1099.23 931.889 765.14 753.221 716.197 692.525 648.72 954.918 807.809 757.439 690.532 547.241 546.512 528.231 366.123 504.93 297.925 284.587 274.621 254.597 249.622 234.571 228.302 220.463 213.275 197.076 195.834 350.371 180.438 179.277 135.34 87.627 0.189807 0.0911803 0.0346703 0.0225414 0.0194446 0.000176822 4.87262e-10 5.68434e-14
threshold=1.0566158294677737 -0.84824031591415394 1.0650367736816408 -0.81749302148818959 1.008860766887665 1.2354449033737185 -0.11835500225424765 1.083563029766083 1.1883636116981509 0.96230626106262218 1.0000000180025095e-35 1.0000000180025095e-35 -1.0121455788612364 -0.8350730538368224 -0.97640460729598988 -0.89888373017311085 -1.1273041963577268 -0.99679809808731068 0.93890351057052623 1.2145030498504641 -1.0277498364448545 -0.74759718775749195 1.249565660953522 -1.3792229294776914 -1.2133576869964597 -1.2452252507209776 1.0881735086441042 0.77960205078125011 0.64965394139289867 1.0096972584724428 -0.16165586560964582 -1.003299295902252 1.0155245661735537 1.0000000180025095e-35 -0.92579385638236988 -0.84397912025451649 1.0000000180025095e-35 -1.2508395314216612 0.60975119471549999 -0.8511754274368285 1.0472339391708376 -0.93314772844314564 1.0538692474365237 -0.84545263648033131 1.0000000180025095e-35 -0.17746762931346891 1.1436928510665896 1.0537195801734927 0.75784662365913402 0.64123696088790905 -0.78748115897178639 1.0708290934562685
decision_type=2 2 2 2 2 2 2 2 2 2 2 2 2 2 2 2 2 2 2 2 2 2 2 2 2 2 2 2 2 2 2 2 2 2 2 2 2 2 2 2 2 2 2 2 2 2 2 2 2 2 2 2
left_child=3 18 6 4 5 10 7 9 16 -3 11 -1 -12 -9 41 32 -8 -16 19 23 22 38 -21 34 -10 45 30 -28 33 36 -27 -25 37 -17 -2 -30 -23 -6 43 -40 -31 -7 -22 -20 -34 46 -4 49 -47 50 -5 -52
right_child=1 2 25 47 15 14 8 13 24 -11 12 -13 -14 -15 17 28 -18 -19 21 20 42 29 -24 31 -26 26 27 -29 35 40 -32 -33 44 -35 -36 -37 -38 -39 39 -41 -42 -43 -44 -45 -46 48 -48 -49 -50 -51 51 -53
leaf_value=0.215030937777139 -0.085403640393277913 0.16362540531326852 -0.10964052784496535 -0.10505465530946995 0.1214167985750359 0.051350108442906155 -0.11073139451062108 0.051484784538715515 0.003226677286259659 0.22514768527352641 0.20710987045371582 0.083944182141305168 0.0045776938942043285 0.14119949257126391 0.33971873446476375 0.099474517094441217 0.27064614162865874 -0.1193036502857733 -0.080377457217337592 0.20549499429489801 0.0051141790902401547 0.041425487319229473 0.05173229160572327 -0.1104191826158165 0.44874473175416701 0.092710704751978457 -0.074660560445557217 0.35451981930923954 0.23576294176251858 0.48824325326754225 -0.021613831373659256 0.38655256453510622 -0.11807789093534993 0.23378191699927539 0.22806966359579867 -0.12214591887536728 0.3123095179832942 -0.00067157458734700207 -0.088051100685889505 0.32121392598939263 0.076265120919232668 -0.10330332890130922 -0.11133941997475137 0.0067254258864484469 -0.10945493006566386 -0.12216506025485847 -0.10646026406601715 -0.11424550642507261 -0.11288725755260008 -0.10642916414539361 -0.10505654403262871 -0.10505654403262871
leaf_weight=39950.681285664439 47.583529070019722 15178.640621118248 43.072522565722466 1.3739873841404904 250.47545099258423 116.55054661631584 50.1562544927001 1479.7887871041894 356.77461798489094 6232.3432918637991 532.71243046224117 738.19666312634945 539.24729905277491 5321.1821397729218 121.31062387675047 674.68992469832301 2696.8948044776917 45.081946425139904 522.55294534564018 546.87754175066948 465.72921452671289 125.29209906980395 626.83643252030015 10.886672068387268 29.836614839732647 457.06668731570244 39.722919501364231 88.455704674124718 481.69646064564586 37.670925579965115 388.88387059047818 194.051637776196 51.086047567427158 161.08716709166765 45.400482382625341 17.848068632185459 37.84431067109108 280.0358372181654 45.359043154865503 38.820482708513737 14.810989290475844 210.03099905699492 127.01453462988138 148.26866545528173 51.021663405001163 4.3630986250936967 167.91208523511887 2.7031531557440749 4.6841495111584663 0.94222325459122558 189.17028240859509 46.319001093506813
leaf_count=82017 490 60354 582 30 1144 671 596 9440 3706 22801 2054 2836 4002 28836 324 3347 1919 347 4692 2079 2981 896 4441 150 28 3648 465 478 1528 58 4220 432 459 345 199 131 25 2068 351 101 103 1741 1570 969 707 36 3014 25 51 17 4129 1011
internal_value=0 0.160481 0.168776 0.202306 0.203978 0.207923 0.173971 0.167104 0.235791 0.181533 0.209895 0.212653 0.105226 0.121679 0.0408156 0.119296 0.263683 0.215352 0.071549 0.10325 0.0753193 0.00412419 0.123376 0.268861 0.0376094 0.0324102 0.0640195 0.221516 0.161878 0.169427 0.0401557 0.360153 0.0294129 0.125361 0.0676532 0.222975 0.104265 0.0569712 -0.0430841 0.100687 0.371978 -0.0481106 -0.0198398 -0.0611255 -0.113769 -0.107531 -0.10711 -0.105165 -0.117362 -0.105062 -0.105057 -0.105057
internal_weight=0 35574.8 32539.8 44462.3 44221.8 42253.8 31345.6 28212 3133.66 21411 41760.8 40688.9 1071.96 6800.97 492.974 1967.94 2747.05 166.393 3035 2064.38 1766.46 970.619 1173.71 297.922 386.611 1194.16 974.129 128.179 1335.32 215.618 845.951 204.938 632.619 835.777 92.984 499.545 163.136 530.511 755.001 84.1795 52.4819 326.582 592.744 670.822 102.108 220.032 210.985 240.509 9.04725 237.805 236.863 235.489
internal_count=268644 159711 140174 108933 103721 93992 127680 121431 6249 83155 90909 84853 6056 38276 3083 9729 2515 671 19537 12342 11071 7195 6520 1271 3734 12494 8811 943 5351 1082 7868 582 4378 3692 689 1659 921 3212 6113 452 161 2412 4551 5661 1166 3683 3596 5212 87 5187 5170 5140
is_linear=0
shrinkage=0.1


Tree=4
num_leaves=56
num_cat=0
split_feature=53 69 135 53 73 113 69 28 110 133 0 110 109 129 29 100 115 76 29 31 114 11 99 83 5 79 52 128 52 105 11 31 38 105 28 23 44 71 53 126 31 4 50 69 33 100 27 115 31 128 86 131 110 60 0
split_gain=2762.76 1971.66 1794.16 2338.34 2189.71 1781.89 1654.53 1385.63 1380.06 1358.21 1019.01 985.771 963.43 910.462 887.433 886.617 559.332 500.803 457.645 377.852 374.337 349.841 334.669 313.548 296.21 280.329 267.477 256.311 251.61 236.291 234.46 211.953 177.796 175.201 166.37 151.019 389.072 145.246 138.885 131.957 102.036 93.1811 73.5736 49.728 38.2943 22.2259 17.8119 0.271836 0.0370711 0.01764 0.0182402 0.0118108 7.71097e-05 2.6435e-10 5.68434e-14
threshold=0.99767893552780162 -0.21674072742462155 1.0000000180025095e-35 1.1164613366127016 -0.6423877179622649 -0.84850597381591786 -0.028215917758643624 1.2347786426544192 -1.1937509179115293 1.0000000180025095e-35 0.41057363152503973 -1.0769343972206114 -1.1018130779266355 1.0000000180025095e-35 1.2354449033737185 -0.91380310058593739 -1.4439519643783567 -1.2178386449813841 1.1260032653808596 1.011195242404938 -0.91120618581771839 0.80579775571823131 -0.97748410701751698 -1.1820620298385618 0.6661697030067445 -1.2532703280448911 1.0079185366630556 1.0000000180025095e-35 1.024650573730469 -0.91287630796432484 0.77367448806762706 0.99555230140686046 0.90689250826835643 -0.8799050748348235 1.2492009997367861 1.4084617495536806 1.0456537008285525 -0.35390175879001612 1.0033764243125918 -1.8321692943572996 0.99173438549041759 0.46605283021926885 1.0446465611457827 -0.25664710998535151 0.89424347877502453 -0.95694470405578602 1.2486077547073366 -0.82912001013755787 1.0081520676612856 1.0000000180025095e-35 -1.3595636487007139 1.0000000180025095e-35 -0.78748115897178639 0.57107856869697582 0.65070268511772167
decision_type=2 2 2 2 2 2 2 2 2 2 2 2 2 2 2 2 2 2 2 2 2 2 2 2 2 2 2 2 2 2 2 2 2 2 2 2 2 2 2 2 2 2 2 2 2 2 2 2 2 2 2 2 2 2 2
left_child=5 9 3 4 6 7 -3 17 -6 15 30 29 27 14 -12 22 -14 20 21 26 46 -17 45 -20 -24 38 -19 -5 39 41 34 -22 -27 -15 -9 36 -30 -31 -13 40 -11 -4 -21 -32 -37 -2 -1 49 -41 50 -7 -52 -49 54 -54
right_child=1 2 11 12 8 47 -8 10 -10 28 13 25 16 33 -16 18 -18 19 23 42 31 -23 24 -25 -26 32 -28 -29 35 37 43 -33 -34 -35 -36 44 -38 -39 -40 48 -42 -43 -44 -45 -46 -47 -48 52 -50 -51 51 -53 53 -55 -56
leaf_value=0.0012399284059743311 -0.11334067898383809 0.13626914440286228 -0.086180385693411632 -0.095346774952055346 -0.017541186170693116 -0.12922810811110916 -0.00097083844428090614 0.14002369029573317 0.19781103663768607 0.018763317624216645 0.16911315562029816 0.2192997186899126 0.24676258481256716 -0.064689696494776947 0.033148412128931409 0.13621935602025953 0.052846284343991426 0.22521264426508769 0.083645499068090101 -0.039384989290473307 -0.097459325726786783 0.34607191478951349 -0.0011369856307178797 0.15646137605655838 0.097844595338210133 0.32910026873482368 0.19198147963202702 0.2569232776051561 0.12768033063865056 0.11103006950781491 -0.12636623205636049 0.16680045635888416 0.25475614265158364 0.15418429283992932 -0.13083224715318553 -0.10356563173597427 -0.11357031816410817 0.24913966181570169 -0.1356735143512349 -0.13656683225412583 0.30755743041460365 0.131852140323268 0.12632691477492841 0.0032084795482884045 0.1876319579282697 0.050756045850128495 -0.1450595022896855 -0.1052676473253361 -0.12474327918316258 -0.1141005223720038 -0.12402221837471313 -0.11463683612680478 -0.10455228108285855 -0.10455057840718446 -0.10455228108285855
leaf_weight=9.7627734243869764 148.00944788753986 37198.444484554231 72.965528950095177 517.68033400550485 309.11953876912594 2.8772037327289572 899.68980763852596 101.90878193080425 7969.8636509180069 18.649341195821762 20308.861329037696 19.716024249792099 167.84295218810439 206.13028413802385 491.66760714352131 153.61907468363643 1307.2173793762922 5920.3711723163724 1289.3677676133811 67.175225898623466 34.03134697675705 164.51631509885192 573.0818141438067 1092.3638850413263 639.95132161676884 439.07622869312763 4099.1416138857603 21.512913055717945 121.40221887454391 324.50219598412514 134.12661366164684 280.68123571202159 1203.1607950776815 44.46018548309803 29.168449506163597 427.2614779509604 148.76405022293329 99.495547667145729 24.995875276625156 10.739616468548773 35.565729305148125 26.801120229065418 44.568628046661615 38.012370012700558 4.5642926171421996 8.7413609810173494 56.387789122760296 1.5174261853098858 3.521252989768981 3.245333917438983 2.6984905302524558 2.6650466769933701 52.7640848942101 0.91587481647729774 160.62436893209815
leaf_count=34 1774 133369 471 7951 2941 17 8135 230 13449 71 38419 25 340 987 3030 537 10935 6561 5389 432 168 219 4344 3289 3087 466 5859 28 439 1273 701 842 2226 107 167 2676 1086 335 136 55 35 79 175 121 17 74 267 34 23 30 18 25 1267 22 3857
internal_value=0 0.136769 0.142601 0.138576 0.143157 0.173635 0.133028 0.175625 0.18977 0.0757936 0.160995 0.230699 0.0330976 0.163617 0.165899 0.0988427 0.0749115 0.205346 0.132089 0.209578 0.0927724 0.24474 0.0333136 0.117042 0.051082 0.267907 0.211617 -0.0812918 -0.0459529 0.110858 -0.0210201 0.138225 0.274633 -0.0258567 0.0797505 -0.0638009 -0.00516165 0.143439 0.0208544 0.137019 0.208216 -0.0276085 0.0267086 -0.0977531 -0.100488 -0.10419 -0.123468 -0.105355 -0.133647 -0.120345 -0.122805 -0.119359 -0.104557 -0.104552 -0.104552
internal_weight=0 55442.2 50602.1 48391.4 46377.1 32093.8 38098.1 31866.5 8278.98 4840.12 21354.3 2210.71 2014.25 21051.1 20800.5 4069.65 1475.06 10512.1 2699.87 10131.3 380.863 318.135 1369.78 2381.73 1213.03 1686.95 10019.5 539.193 770.468 523.764 303.216 314.713 1642.24 250.59 131.077 701.992 270.166 423.998 44.7119 68.4759 54.2151 99.7666 111.744 172.139 431.826 156.751 66.1506 227.308 14.2609 11.4861 8.24074 5.36354 215.822 214.304 213.388
internal_count=268644 205274 182159 177148 157894 63370 141504 58100 16390 23115 43762 5011 19254 42543 41449 18713 11275 14338 9434 13027 1311 756 9279 8678 7431 2853 12420 7979 4402 2158 1219 1010 2692 1094 397 4218 1525 1608 161 184 106 550 607 822 2693 1848 301 5270 78 90 60 43 5180 5146 5124
is_linear=0
shrinkage=0.1


Tree=5
num_leaves=60
num_cat=0
split_feature=52 102 97 111 122 52 43 131 128 32 130 78 94 103 30 57 69 91 29 57 52 22 33 58 20 26 112 72 104 132 107 107 102 32 71 44 108 34 32 40 37 28 103 108 24 29 109 53 135 53 31 99 115 10 72 129 50 109 109
split_gain=2409.98 1852.34 1198.18 1186.81 1516.49 1460.24 1130.77 1081.31 1161.1 1036.97 1004.5 1057.48 868.163 948.542 793.539 666.099 461.264 453.823 482.135 432.244 418.285 386.615 345.854 298.231 263.052 507.142 257.23 237.134 225.38 214.608 199.609 191.774 182.183 141.976 140.625 91.8874 132.385 176.434 67.9703 113.884 57.3651 51.8356 136.875 13.0577 2.06568 1.93067 0.420949 1.01358 0.0993306 0.0786064 0.069429 0.0656603 0.0608458 0.0253278 0.0191279 0.017417 0.00554054 0.000109367 3.50269e-10
threshold=1.0658683180809023 -0.83824414014816273 -1.05510538816452 -1.2553321719169614 -1.9950395226478574 1.1491578817367556 1.1356961727142336 1.0000000180025095e-35 1.0000000180025095e-35 0.96398410201072704 1.0000000180025095e-35 -1.2761744856834409 -1.0011069178581236 -0.84679055213928212 1.0931246876716616 0.99687385559082042 0.086410850286483779 -1.1277062892913816 1.0912182331085207 0.89031717181205761 1.0777955055236819 1.2839911580085757 0.81559735536575328 0.8183237910270692 1.249028265476227 1.2595174312591555 -0.95242178440093983 -0.70055779814720143 -0.85501974821090687 1.0000000180025095e-35 -0.80622717738151539 -0.87335023283958424 -0.8249000310897826 0.95351105928421032 -0.40948042273521418 1.1696716547012331 -1.0765843391418455 0.86333981156349193 0.96265980601310741 0.9970194697380067 0.92730051279068004 1.1962777376174929 -0.83729544281959523 -1.0798018574714658 1.1331472396850588 1.1546929478645327 -1.1247471570968626 1.1086271405220034 1.0000000180025095e-35 1.1164613366127016 1.0083752274513247 -1.0366273522377012 -0.82912001013755787 0.96417173743247997 -0.80438137054443348 1.0000000180025095e-35 1.0334318876266482 -0.81636834144592274 -0.7985125184059142
decision_type=2 2 2 2 2 2 2 2 2 2 2 2 2 2 2 2 2 2 2 2 2 2 2 2 2 2 2 2 2 2 2 2 2 2 2 2 2 2 2 2 2 2 2 2 2 2 2 2 2 2 2 2 2 2 2 2 2 2 2
left_child=2 17 45 35 5 22 9 8 10 -6 14 -12 13 27 -4 -8 -7 24 21 31 23 29 -5 -20 38 26 -26 -9 -23 -19 -21 -10 -15 -27 -22 36 43 -38 40 -40 -2 44 -43 -3 -14 52 49 -48 50 -37 54 53 56 -50 -47 -52 -1 -54 -59
right_child=1 3 7 4 6 16 15 12 19 -11 11 -13 41 32 -16 -17 -18 18 20 30 34 28 -24 -25 25 33 -28 -29 -30 -31 -32 -33 -34 -35 -36 46 37 -39 39 -41 -42 42 -44 -45 -46 48 47 -49 51 -51 55 -53 57 -55 -56 -57 -58 58 -60
leaf_value=-0.11906393537955634 -0.042186680857813928 -0.11342178651052026 0.15206503584277825 -0.09713270942971014 0.10278672810607872 -0.083321417503431347 0.010950205887614429 0.079020264847737998 0.070693417171950157 0.14851334315569639 0.1379386610983202 -0.0068009054911171308 -0.10410035858667954 0.19283428327698046 0.10287052199894163 0.14932553903061427 0.14485576422748833 -0.11158914508156495 -0.038364872906808865 0.19397983198600016 -0.0094095308471247082 0.22924164162062924 0.20735595578590857 0.11151292950065894 -0.11388458200215411 -0.072729607166711771 0.17063162260443121 -0.0071226475394952308 0.51994078882029748 0.22345013082701543 -0.022007947961756806 -0.02251548071079619 -0.13228390358464023 0.095912260354117609 0.18856337293094649 -0.10941065040411693 -0.032871267813025289 0.34026919376615117 0.10109203731332739 -0.12299857460079128 -0.11369210890366666 -0.072857449294572454 0.24756996366495648 -0.0016134798294293454 -0.12958731510279031 -0.12705623535318811 -0.17290894526924999 -0.11103767450457858 -0.13375068388165767 -0.10545060568308665 -0.11455214540503499 -0.14299271263117194 -0.10525294156571169 -0.12368496910464469 -0.13554411986402065 -0.12359309098043797 -0.11243329929043944 -0.10409824218688896 -0.10410034795900727
leaf_weight=2.0555261299014083 208.77704292908311 55.027376815676689 46798.082294672728 37.787414062768221 20375.928194060922 251.27476662024856 1729.0589358210564 1591.9704669192433 361.52239146828651 6554.7758991532028 1211.9382569715381 865.08584171161056 45.026148147881031 863.40190330147743 3526.0059871152043 435.49070118740201 136.84177654236555 46.358026500791311 154.99219944700599 233.51773813739419 892.86693526059389 104.89984439313412 2913.5468870736659 925.69524529576302 36.657475057989359 315.25202231481671 238.6560394950211 399.81808963045478 35.762859523296356 32.537219293415546 52.386859104037285 566.83148474246264 17.586645700037479 59.313467789441347 37.382041811943054 83.21573169529438 31.078132167458534 21.395577993243933 57.366531997919083 37.505560897290707 242.52235353365541 118.95980785414577 15.013565257191656 12.892483755946158 108.25701286643744 8.9470222406089288 3.3322367966175106 12.890288870781658 7.2686508446931857 126.0555708669126 5.4590868726372701 6.4296861439943305 0.82786126062273879 3.810225784778595 3.7753695994615581 3.495009258389473 3.257035668939352 0.79420040920376678 146.61840810626745
leaf_count=16 1256 553 82465 279 74502 3231 12930 7917 1813 22140 4121 5749 1190 1863 9471 2072 620 557 1091 561 5948 326 1755 3466 470 2949 831 1978 39 18 234 2828 97 320 188 1141 253 81 258 273 2024 847 27 117 635 57 14 188 39 2743 54 31 19 25 20 23 35 21 3875
internal_value=0 0.106375 0.13937 0.113688 0.115653 0.179478 0.108327 0.140215 0.143565 0.113916 0.145805 0.0776543 0.0833697 0.0999441 0.148618 0.0387903 -0.00287092 0.0364161 0.0630656 0.0468925 0.0477032 0.20377 0.203457 0.0900175 -0.0132821 0.0297106 0.132749 0.0617285 0.303151 0.0265845 0.154404 0.0137822 0.186344 -0.0460247 -0.00145399 -0.070567 -2.84623e-05 0.119273 -0.0644382 0.0125028 -0.0806128 -0.0823869 -0.0369491 -0.0921984 -0.122101 -0.10954 -0.108228 -0.123747 -0.129352 -0.107025 -0.124827 -0.134954 -0.104484 -0.130289 -0.129575 -0.118081 -0.114999 -0.104107 -0.1041
internal_weight=0 36207.1 56968.1 32780.6 32434.7 3339.45 29095.3 56775.4 53615.4 26930.7 52401.1 2077.02 3160.03 2872.78 50324.1 2164.55 388.117 3426.54 2230.49 1214.26 2010.94 219.558 2951.33 1080.69 1196.05 649.879 275.314 1991.79 140.663 78.8952 285.905 928.354 880.989 374.565 930.249 345.887 120.394 52.4737 546.171 94.8721 451.299 287.257 133.973 67.9199 153.283 192.738 225.494 16.2225 39.1851 209.271 21.6765 17.5086 153.553 11.0789 12.7224 8.9541 5.31256 148.24 147.413
internal_count=268644 142633 126011 122619 117529 5885 111644 121796 107242 96642 101806 9870 14554 11855 91936 15002 3851 20014 11633 5436 10693 940 2034 4557 8381 4570 1301 9895 365 575 795 4641 1960 3269 6136 5090 1004 334 3811 531 3280 2699 874 670 1825 4215 4086 202 249 3884 154 95 3966 64 77 77 51 3915 3896
is_linear=0
shrinkage=0.1


Tree=6
num_leaves=62
num_cat=0
split_feature=53 26 135 37 71 32 51 72 109 46 100 97 25 136 76 97 68 79 31 74 29 32 29 12 120 48 28 52 71 0 132 22 3 32 107 30 13 33 31 102 45 94 74 126 83 62 93 27 72 73 72 71 52 13 49 84 80 112 53 131 111
split_gain=2040.08 1520.57 1430.54 1218.92 1410.57 1272.56 1203.05 1123.85 1004.91 998.889 1151.32 910.516 837.643 1120.41 827.752 825.742 805.923 822.815 633.577 625.983 592.232 493 481.29 433.958 429.868 397.283 322.327 308.165 302.224 305.084 288.942 249.258 232.002 244.616 221.277 206.104 182.07 175.468 170.054 159.534 157.372 138.042 106.308 94.1084 90.3314 79.8707 68.848 62.8913 57.9839 52.8951 52.0963 49.7738 100.768 58.5037 24.5246 10.2525 2.2569 1.33477 0.246783 0.0899866 0.0061712
threshold=1.002241909503937 1.3186652064323428 1.0000000180025095e-35 0.94984006881713878 -0.40101768076419825 0.96483895182609569 1.1569561362266543 -0.66099986433982838 -1.112079858779907 1.0873855352401736 -0.88617563247680653 -0.88028383255004872 1.2405238747596743 1.0000000180025095e-35 -1.1728854179382322 -1.05510538816452 0.12552266567945483 -1.1954365968704221 1.008860766887665 -0.86774343252181996 1.2354449033737185 0.89766785502433788 1.0891364216804507 1.267598092556 -1.0846281647682188 1.0892266631126406 1.2171404957771303 0.97856035828590404 -0.49408464133739466 0.40593871474266058 1.0000000180025095e-35 1.4705738425254824 0.54574668407440197 0.86858499050140392 -0.98139479756355275 1.0871204137802126 0.96938115358352672 0.85969370603561412 0.93761706352233898 -0.88907474279403675 1.0558776855468752 -0.9019656479358672 -0.83111709356307972 -1.782248258590698 -1.0943786501884458 0.68131622672081005 -0.79624253511428822 1.2738133072853091 -0.51317092776298512 -0.82832854986190785 -0.66688135266304005 -0.46634814143180842 1.0507833957672121 0.88603314757347118 1.0791549086570742 -1.0712624192237852 -1.029684782028198 -0.84134557843208302 1.0195568203926089 1.0000000180025095e-35 -0.83362171053886402
decision_type=2 2 2 2 2 2 2 2 2 2 2 2 2 2 2 2 2 2 2 2 2 2 2 2 2 2 2 2 2 2 2 2 2 2 2 2 2 2 2 2 2 2 2 2 2 2 2 2 2 2 2 2 2 2 2 2 2 2 2 2 2
left_child=7 3 25 4 9 12 22 11 -8 14 -11 15 13 -5 -2 57 17 -7 20 -14 -17 30 -6 32 34 26 40 44 29 -29 31 48 41 -34 50 -20 -36 -28 54 -30 -3 -13 -40 -33 47 -18 -46 -23 -9 58 -4 53 -53 -27 -32 -25 -57 59 -26 -1 -59
right_child=1 2 24 5 6 16 8 21 -10 10 -12 23 19 -15 -16 18 45 -19 35 -21 -22 27 -24 55 49 51 37 28 39 -31 38 43 33 -35 36 -37 -38 -39 42 -41 -42 -43 -44 -45 46 -47 -48 -49 -50 -51 -52 52 -54 -55 -56 56 -58 60 -60 -61 -62
leaf_value=-0.12775418584380205 0.098009087871061218 0.1108147145303873 0.11218193647379632 0.05259112338974662 0.15338258682124387 0.13359750224951344 -0.097456614181549661 -0.13188286941443589 0.1062204527277093 -0.05039229817433083 0.091065669801507917 0.1008061253988793 -0.051999516105833844 0.1760343830699892 0.14852494927565521 0.12661945760530799 -0.1019828377427168 -0.0014419219769309607 0.098470621077264744 0.07233221118584493 0.020850488493801306 0.16122218739652686 0.23085484912443455 0.15579541273636888 -0.14960176615950938 -0.12278488350751882 -0.070681746661874767 0.040646099922667489 -0.011190821438185507 0.1417008530175006 -0.11628764294770635 0.035121092318316088 -0.10425963345871254 0.062597115311865612 0.15268010249984651 -0.022876562107301303 -0.15010801038908558 0.0070518608512193173 0.079631892017253986 0.17068250050546019 -0.011149975993416147 -0.10145732554422388 0.18012668374993379 0.22376092989092058 0.21463977067039708 0.0063426444919821266 0.15261817139356815 -0.015756065353870287 0.10915472539581039 0.083405172368320415 -0.13722663882418662 0.28942566515793633 -0.1280405990102117 -0.035588225003642442 0.11877194057676616 0.24203553285623541 0.2098468900315662 -0.11137278686095696 -0.1317357771004663 -0.11624325651809363 -0.10369840515277758
leaf_weight=30.15853126347065 6716.3441294021904 388.34237266331911 11.035188123583792 5959.1378132365644 6105.5953137725592 4925.387564830482 304.2325947843492 110.56042066588998 1188.7721093893051 592.38701203837991 20018.779495377094 39.268807098269463 1172.2651420533657 838.75408986955881 6273.6629772260785 26100.791292347014 153.64817406982183 496.71610318869352 219.42251316085458 618.65633590891957 540.3489901162684 65.005252458155155 923.12917355448008 26.668857596814632 53.13696363568306 317.77335633710027 388.74166846647859 381.05492347478867 48.758458212018013 1383.1256544142962 31.22231662273407 91.764796674251556 104.58331785351038 549.50002810359001 1098.9111080989242 386.53533717244864 20.224649235606194 1147.7613194137812 169.8401196449995 4448.803988955915 145.40497525036335 239.76466925442219 276.84872674942017 37.153521709144115 1497.5627148002386 122.19888132810593 203.27467837929726 29.053787887096405 10.970449790358542 11.864807963371275 34.741531625390053 9.9637324661016482 13.776775762438772 101.53007560223341 5.1741589158773413 45.540467865765095 41.753737453371286 1.0574253052473057 9.0479318052530271 8.7651928253471834 115.23304691165686
leaf_count=191 19307 1279 27 30297 8880 14824 3449 947 5386 4397 67110 86 6514 2552 13017 43695 1725 2501 876 2580 2981 73 1386 37 243 2342 2437 952 154 1817 120 257 427 1187 2000 2009 93 5554 323 4389 651 2090 292 24 850 1269 201 86 35 25 202 9 86 853 9 16 29 12 52 80 3352
internal_value=0 0.0972423 0.0356008 0.101343 0.109903 0.0761017 0.146241 0.127024 0.0647168 0.100688 0.087 0.117367 0.0517928 0.0678221 0.122406 0.120864 0.112744 0.121227 0.122174 -0.00905034 0.124474 0.158276 0.163558 0.0258482 0.123543 -0.00775141 0.0106411 0.165422 0.154951 0.119873 0.0797906 -0.0073754 0.00335001 0.0359179 0.138394 0.0210643 0.147208 -0.0126151 0.124981 0.168711 0.0775887 -0.0729925 0.141917 0.089486 0.201952 -0.0539952 0.207227 0.106556 -0.110125 -0.110085 -0.0771028 -0.0936956 0.0471672 -0.101671 -0.0828713 0.210061 0.226639 -0.109133 -0.147002 -0.125162 -0.103768
internal_weight=0 60161.9 3752.26 56409.7 42122.9 14286.8 8521.73 37239.6 1493 33601.2 20611.2 28449.4 8588.81 6797.89 12990 27402.3 5697.95 5422.1 27247.1 1790.92 26641.1 8790.17 7028.72 1047.08 1238.96 2513.29 2070.25 8056.64 6261.74 1764.18 733.535 250.449 933.117 654.083 1164.91 605.958 1119.14 1536.5 483.085 4497.56 533.747 279.033 446.689 128.918 1794.9 275.847 1700.84 94.059 121.531 74.0497 45.7767 443.044 23.7405 419.303 36.3965 113.963 87.2942 155.214 62.1849 38.9237 116.29
internal_count=268644 201047 15853 185194 122932 62262 19101 67597 8835 103831 71507 57068 41943 32849 32324 53196 20319 17325 49561 9094 46676 10529 10266 3872 2642 13211 9921 8522 7312 2769 2007 1263 3790 1614 2322 2885 2093 7991 744 4543 1930 2176 615 281 1210 2994 1051 159 982 320 229 3290 95 3195 129 82 45 3635 295 271 3364
is_linear=0
shrinkage=0.1


Tree=7
num_leaves=61
num_cat=0
split_feature=52 26 135 37 71 51 71 1 32 46 101 112 76 76 72 5 110 136 103 29 79 130 68 30 102 78 73 72 0 28 120 136 111 30 129 135 31 0 0 71 17 123 103 127 61 45 26 30 104 56 50 37 70 93 70 29 31 4 29 128
split_gain=1774.61 1193.74 1116.55 1056.61 1250.46 1122.95 1037.2 1157.32 977.115 935.608 880.785 754.583 715.895 658.791 658.027 719.611 644.054 625.841 1153.26 588.563 581.682 530.665 470.208 457.712 570.289 461.624 446.229 381.573 386.52 363.598 350.114 343.614 320.191 319.798 282.159 280.071 279.167 270.673 256.8 255.171 238.76 212.048 210.165 198.617 225.44 159.262 143.767 136.969 116.869 115.668 124.721 99.1737 92.0957 89.326 82.2799 28.6212 26.1158 12.2493 5.1925 0.483173
threshold=1.0211039185523989 1.323388993740082 1.0000000180025095e-35 0.95386406779289257 -0.39843754470348353 1.1671279072761538 -0.56420037150382985 0.59733176231384288 0.96621799468994152 1.0873855352401736 -0.85780370235443104 -1.1740342378616331 -1.1728854179382322 -1.2178386449813841 -0.77053153514862049 0.72835516929626476 -1.1972818374633787 1.0000000180025095e-35 -0.80571782588958729 1.2198233604431155 -1.231060743331909 1.0000000180025095e-35 0.12552266567945483 1.0888572931289675 -0.91179606318473805 -0.98999175429344166 -0.77287057042121876 -0.71612349152564991 0.52440878748893749 1.1955122351646426 -1.0846281647682188 1.0000000180025095e-35 -0.96425861120223988 1.0734066963195803 1.0000000180025095e-35 1.0000000180025095e-35 1.0055369734764101 0.57796913385391246 0.32562048733234411 -0.49408464133739466 1.3332713246345522 -1.5974451899528501 -0.8646792173385619 -1.5531238317489622 0.57765474915504467 1.0752519369125368 1.338801443576813 1.0679416656494143 -0.86130744218826283 0.87089872360229503 1.043338477611542 0.81482288241386425 -0.33340644836425776 -1.1035377979278562 -0.35607880353927607 1.1521698236465456 1.0021904110908511 0.61088037490844738 1.130901634693146 1.0000000180025095e-35
decision_type=2 2 2 2 2 2 2 2 2 2 2 2 2 2 2 2 2 2 2 2 2 2 2 2 2 2 2 2 2 2 2 2 2 2 2 2 2 2 2 2 2 2 2 2 2 2 2 2 2 2 2 2 2 2 2 2 2 2 2 2
left_child=6 3 31 4 9 16 7 23 17 12 -11 -7 -2 49 15 37 -6 26 -19 -17 22 34 -10 24 29 -26 -5 35 -29 -1 42 38 -22 40 39 -25 -35 -9 52 -15 -16 -40 47 44 -33 -44 -45 -4 -36 55 53 -23 -3 -51 56 58 -32 -53 -8 -52
right_child=1 2 30 8 5 11 13 14 20 10 -12 -13 -14 21 33 19 -18 18 -20 -21 32 51 -24 27 25 -27 -28 28 -30 -31 54 43 -34 36 48 -37 -38 -39 41 -41 -42 -43 45 46 -46 -47 -48 -49 -50 50 59 57 -54 -55 -56 -57 -58 -59 -60 -61
leaf_value=0.18043706024216724 0.083373416608849213 -0.11597222408034578 -0.060263998145370014 0.072592706795224823 -0.043252971128065081 -0.023092046304199705 -0.10367220506804493 0.067826984908732915 0.12608353238734721 0.0049542974584721386 0.07942145854362076 0.17340739015436546 0.12655877474547192 0.12865311241072194 -0.066769994324464191 0.12352589506023944 0.14218907380798756 -0.094987252948798159 0.16497276195317689 0.059862895034457519 0.0048380772730549802 0.61587331546378887 -0.0483190234365862 -0.075910683104076615 0.10283897954973248 -0.069804560086317538 0.013462303643879112 0.0056905676312284503 0.18444135535404738 -0.0040544001051273596 -0.14528618152375913 0.18209858184826044 0.22689977226329089 0.15862835017387272 -0.12809648196225995 0.024272999016960419 0.0076757571923031336 -0.055597053677920283 0.093126076664893462 0.15722273682068541 0.10573186826008443 -0.02375311352670649 0.17059708707546628 0.064440180183003404 0.011796066889128555 -0.0076247857337312964 -0.11196151219057862 0.090660525305053752 0.1347177966264492 0.093178122362287313 -0.15402243661497211 -0.016667385952910337 0.074735323173183432 -0.15495972257909593 0.13146242515223514 0.13820571858146355 0.067493097315096132 -0.11677282525922977 -0.15960279261974017 -0.12390007950544268
leaf_weight=119.65503521822393 7418.4213137999177 353.79217028617859 66.67333447933197 1722.3476785421371 191.47920973598957 760.31310975924134 75.741046788170934 328.99469465017319 3275.6224040873349 1712.472418460995 21909.879504166543 263.03664722293615 7954.8138839639723 10814.745166260749 88.876802058890462 5348.244488351047 8553.0176027193666 214.47170822322369 835.28215780109167 1993.4382876828313 748.49392875283957 1.9554290771484364 162.24829910695553 415.62328760325909 4022.0056666173041 161.07999316602945 4927.5194802358747 240.0614848062396 243.84574404358864 996.19547421857715 71.166559398174286 187.4977459795773 71.100363411009312 4129.4736174419522 57.030240282416344 849.16290541738272 126.25896549597383 386.333322359249 174.40641526505351 4397.4081667028368 825.36224406026304 1411.3314534239471 591.79162196815014 98.208492554724216 132.77294350042939 54.78217625617981 87.244985073804855 612.84545332193375 24.057459205389023 135.84255714341998 26.272404760122299 14.172049425542353 27.274480156600475 16.242064520716667 14.507119253277777 4.6437329202890387 6.2770256102085105 88.904987178742886 21.257481530308723 6.6787586584687224
leaf_count=156 20546 2492 287 6484 1631 7724 2407 769 9014 9651 69214 439 15424 14075 384 9316 12239 1131 2158 6061 3735 1 1868 2123 7150 1665 28259 718 244 2918 345 255 142 4484 249 2163 523 1325 483 3817 1261 8264 795 245 478 215 422 1209 35 317 124 106 97 73 22 6 14 755 92 45
internal_value=0 0.0845605 0.030862 0.0880012 0.0945333 0.126529 0.112276 0.0973384 0.0613618 0.0865187 0.0740231 0.0274152 0.105719 0.131585 0.114778 0.0969113 0.138128 0.0401049 0.111861 0.10624 0.099805 0.134382 0.117853 0.0646074 0.0792472 0.0961909 0.0287774 0.0202453 0.0957649 0.015729 0.101601 -0.00970814 0.0241021 0.142622 0.13592 -0.00864851 0.15415 0.00116831 -0.0286116 0.136912 0.0889623 -0.0108982 0.114685 0.063809 0.111497 0.155497 -0.0185465 0.075852 -0.0501236 -0.0186151 0.0284629 -0.0896256 -0.102323 0.0666779 -0.087098 -0.104319 -0.12804 -0.103009 -0.11593 -0.147917
internal_weight=0 64611.1 3890.57 60720.5 48763.4 9767.85 35959.6 20274.6 11957.1 38995.6 23622.4 1023.35 15373.2 15685 13227 8057.01 8744.5 7699.62 1049.75 7341.68 4257.46 15398.3 3437.87 7047.63 5298.94 4183.09 6649.87 1748.69 483.907 1115.85 1418.04 2472.53 819.594 5169.97 15293.2 1264.79 4255.73 715.328 1966.8 15212.2 914.239 1585.74 1326.09 505.724 320.271 646.574 185.453 679.519 81.0877 286.678 185.036 105.032 381.067 152.085 91.9507 101.642 77.4436 103.077 96.9985 32.9512
internal_count=268644 205282 15623 189659 136868 22033 63362 41260 52791 114835 78865 8163 35970 22102 24123 17471 13870 38032 3289 15377 14759 19038 10882 17137 11889 8815 34743 5248 962 3074 2887 12736 3877 6652 18176 4286 5007 2094 11336 17892 1645 8747 2506 1400 733 1010 667 1496 284 3064 559 862 2589 390 381 2505 359 861 2499 169
is_linear=0
shrinkage=0.1


Tree=8
num_leaves=62
num_cat=0
split_feature=130 80 128 110 122 52 52 133 71 57 68 32 32 123 111 78 127 30 109 5 32 69 104 98 58 72 99 118 70 33 54 34 108 29 48 100 0 53 26 37 31 31 59 124 28 118 83 42 111 117 77 43 107 21 110 6 31 31 53 110 2
split_gain=1602.31 1828.91 1503.21 898.637 860.612 1433.56 1203.72 1200.92 1197.37 669.265 693.658 687.577 544.903 576.108 540.304 489.342 464.858 506.706 455.23 437.191 432.27 422.572 402.889 381.69 381.301 364.901 359.692 328.373 277.532 265.892 251.666 228.328 219.604 217.502 216.483 198.88 190.219 183.45 162.204 156.443 153.627 136.937 137.31 126.369 161.633 135.361 125.561 112.455 110.548 102.061 94.6873 59.2809 178.98 54.888 45.2298 32.3085 5.70004 35.25 1.1932 0.554187 0.00199608
threshold=1.0000000180025095e-35 -1.2534681558609007 1.0000000180025095e-35 -1.1907557249069212 -1.9759755730628965 1.083313047885895 1.1491578817367556 1.0000000180025095e-35 -0.41500508785247797 0.91070374846458446 0.060765530914068229 0.96758204698562633 0.9562172293663026 -1.153779864311218 -0.95704081654548634 -1.2398988604545591 -1.5443809628486631 1.025846064090729 -0.92640542984008778 0.59782519936561596 0.95881253480911266 -0.041291262954473489 -0.80731409788131703 -0.78073382377624501 0.90031287074089061 -0.27370096743106836 -0.93008098006248463 -0.93393784761428822 -0.2487547770142555 0.81559735536575328 1.073586702346802 0.94087579846382152 -1.0798018574714658 1.0396487116813662 1.0231814980506899 -0.74811658263206471 0.44851396977901464 1.0993712544441225 1.1594665050506594 0.93563267588615429 0.99067094922065746 1.012170732021332 0.78838232159614574 -1.6026049256324766 1.1168345212936404 -1.1437050700187681 -1.3724541068077085 1.0452331900596621 -1.2452252507209776 -1.0968033671379087 -1.1691005229949949 1.1490005850791933 -0.99838685989379872 1.2687095403671267 -0.88864922523498524 0.51430687308311474 0.96623048186302196 0.96529725193977367 1.1164613366127016 -1.1937509179115293 0.25236773490905767
decision_type=2 2 2 2 2 2 2 2 2 2 2 2 2 2 2 2 2 2 2 2 2 2 2 2 2 2 2 2 2 2 2 2 2 2 2 2 2 2 2 2 2 2 2 2 2 2 2 2 2 2 2 2 2 2 2 2 2 2 2 2 2
left_child=2 12 3 21 6 8 29 -7 -6 19 18 33 16 14 37 -16 17 30 23 41 36 32 -20 -11 -13 -8 34 -28 -22 -5 -2 43 48 -12 -18 50 -21 -14 60 -34 -19 53 -43 56 49 -46 47 -15 -1 -45 -33 52 -23 -4 -48 -52 57 -3 -58 -53 -37
right_child=1 31 9 4 5 7 25 -9 -10 10 11 24 13 46 15 -17 26 40 22 20 28 51 -24 -25 -26 -27 27 -29 -30 -31 -32 35 39 -35 -36 38 -38 -39 -40 -41 -42 42 -44 44 45 -47 54 -49 -50 -51 55 59 -54 -55 -56 -57 58 -59 -60 -61 -62
leaf_value=-0.10621333537506208 0.28225797367438149 -0.1146694453630802 -0.10402182258053694 -0.1026593473306302 0.091918879651195287 0.072053344417020715 -0.075491970930004967 -0.013566103122591875 0.14866641619381543 0.2890385157590129 0.18791579793241364 0.076902250337184397 0.26344224608015115 0.22056200785526692 0.073442810018913493 -0.09330046414557773 -0.098224934737051434 0.030882138896411927 -0.022863263865202061 0.048366350733115217 0.11124436397019465 -0.11954895174864928 0.13002655542741118 -0.12704565542314147 0.25387404717046452 0.12367156635611393 0.28202431130421274 0.092661030277181741 -0.064137924642095293 0.16295261969171082 -0.063397092899875843 0.23302379052554878 0.0060214987409671081 -0.010878850149872568 0.056300277617509886 -0.11526623674576431 -0.040916852411205344 -0.12492730456947732 0.60877417906231057 0.22536543539571233 -0.04772152736769112 -0.13291870080423621 0.35247749716621907 0.40348281351089627 0.11597978207030082 -0.068289348249653922 0.25410131579802692 0.012267919878167345 0.069242120569494123 0.048745509102811641 -0.1198775233898438 -0.10704871251936883 0.076015005013065684 -0.043718930485617653 -0.13645860519012282 0.065129681395985267 -0.12569352521943752 0.15910754461905516 -0.11188419075619552 -0.11857182504549367 -0.11087354098251655
leaf_weight=68.59186439588666 83.210955400019884 46.427463475614786 381.86448706686497 38.144699439406395 63724.718925651163 15548.488378658891 310.39010985940695 1831.1459736041725 3948.6044863946736 222.91774428635836 57.080557942390442 689.59752582758665 175.78592305630445 396.53507610410452 2455.9311462491751 189.5878339111805 115.11480171605945 335.0289201028645 220.81687553226948 339.87888142094016 604.21409603208303 110.07928194105625 785.37328068912029 24.46677753329277 147.85030229389668 130.74255958199501 124.84138499945402 343.65626842901111 106.06731688976288 3151.6288792490959 28.203262459486723 15.59111353009939 46.983483046293259 1537.1510101817548 426.80345259234309 1.8183500766754175 800.98344220034778 13.066708229482172 11.920773051679133 105.60187995433807 964.35998092219234 9.6176101118326205 14.790019959211348 10.808850005269049 41.685023844242096 912.87151014059782 3.7031349316239384 27.732057362794876 75.368073787540197 32.488241653889418 27.266200564801693 216.0824012067169 81.406198177486658 249.59631133824587 14.879235155880449 14.437355078756807 271.03776178508997 5.2329785898327819 81.350705295801163 51.727874930948019 2.3996192887425423
leaf_count=522 180 439 1996 277 129320 53930 3900 9162 5087 442 232 2366 259 515 7963 1048 1483 1637 1075 1362 1579 1010 1888 156 575 481 254 1086 419 1938 285 30 221 7683 1685 17 4793 95 28 177 5050 57 13 10 179 5709 10 93 176 123 224 4215 389 1379 84 51 1720 34 882 623 28
internal_value=0 0.0374606 0.0864619 0.0897607 0.0906861 0.0886508 0.138364 0.0630323 0.09523 0.0388134 0.065929 0.0347788 0.0631522 0.0897316 0.0731587 0.0614934 0.0271758 -0.00990597 0.126354 -0.0010459 0.0238109 -0.0188153 0.0964736 0.247887 0.108146 -0.016464 0.0789515 0.143121 0.0850543 0.159776 0.194759 -0.061772 0.0742389 -0.00376112 0.0234759 0.110116 -0.0143181 0.236571 0.420194 0.157826 -0.0274547 -0.0712026 0.161211 -0.0707757 -0.0516708 -0.0602424 0.195803 0.206947 -0.0143563 0.137303 0.0227734 -0.078896 -0.0364089 -0.080186 -0.058627 -0.0558299 -0.117958 -0.086937 -0.122506 -0.109274 -0.112767
internal_weight=0 7173.78 95632 89439.7 88683.9 85053 3630.91 17379.6 67673.3 6192.27 3685.25 2431.68 5698.44 3277.22 2834.37 2645.52 2421.22 1410.8 1253.57 2507.01 1851.14 755.841 1006.19 247.385 837.448 441.133 1010.42 468.498 710.281 3189.77 111.414 1475.34 296.545 1594.23 541.918 73.4334 1140.86 188.853 16.1387 152.585 1299.39 655.868 24.4076 1401.9 997.854 954.557 442.85 424.267 143.96 43.2971 57.2947 459.296 191.485 631.461 18.5824 41.7036 404.049 51.6604 352.388 267.81 4.21797
internal_count=268644 31201 237443 211428 204095 197499 6596 63092 134407 26015 14417 10856 21727 10067 9365 9011 11660 7152 3561 11598 8153 7333 2963 598 2941 4381 4508 1340 1998 2215 465 9474 1096 7915 3168 378 6155 354 73 398 6687 3445 70 9096 6021 5888 702 608 698 133 305 6237 1399 3375 94 275 3075 473 2602 4838 45
is_linear=0
shrinkage=0.1


Tree=9
num_leaves=58
num_cat=0
split_feature=53 71 53 73 71 103 0 5 110 99 81 123 74 30 118 107 69 47 39 108 105 54 133 32 127 30 5 53 70 117 110 73 132 29 133 101 0 121 30 78 31 50 96 110 32 0 79 44 53 109 31 52 69 34 112 72 130
split_gain=1512.42 1085.99 950.115 1247.52 866.36 817.603 800.772 783.628 685.683 807.204 644.623 574.398 663.913 730.378 552.591 522.026 463.125 601.542 436.915 435.483 375.044 367.259 316.294 373.293 372.839 373.753 358.216 289.402 363.889 261.524 239.146 233.309 229.309 220.199 218.479 213.826 212.361 158.436 150.263 146.977 131.957 123.268 117.513 108.903 101.22 64.2429 30.7234 8.6903 2.44876 0.209124 0.141096 0.0711987 0.0571287 0.0270994 0.0158622 0.000292645 0.000215435
threshold=0.99269586801528942 -0.20811654627323148 1.0968200564384463 -0.64843386411666859 -0.56420037150382985 -0.89080321788787831 0.54969981312751781 0.59402787685394298 -1.1779406070709226 -0.79890784621238697 -0.20820534974336621 -1.1464681029319761 -1.0288882255554197 1.0915368199348452 -0.89588311314582814 -0.91037529706954945 -0.020751188509166237 1.1720742583274844 0.78752386569976818 -1.0601318478584287 -0.89234691858291615 1.1067215204238894 1.0000000180025095e-35 0.90828171372413646 -1.5351682901382444 1.0901235938072207 0.69005191326141369 0.93866312503814708 -0.33570301532745356 -0.9661092460155486 -1.1937509179115293 -0.86984115839004505 1.0000000180025095e-35 1.1241965889930727 1.0000000180025095e-35 -0.90439844131469715 0.32385227084159857 -1.8907254934310911 1.0741623640060427 -0.53490087389945973 0.98749598860740673 1.1728303432464602 -0.97077280282974232 -1.1563231348991392 0.8924262821674348 0.54691508412361156 -0.62769573926925648 0.7756636142730714 1.1086271405220034 -1.1247471570968626 0.97262564301490795 1.1436928510665896 0.086410850286483779 0.81965070962905895 -1.3063347339630125 -0.49950088560581202 1.0000000180025095e-35
decision_type=2 2 2 2 2 2 2 2 2 2 2 2 2 2 2 2 2 2 2 2 2 2 2 2 2 2 2 2 2 2 2 2 2 2 2 2 2 2 2 2 2 2 2 2 2 2 2 2 2 2 2 2 2 2 2 2 2
left_child=4 2 3 5 6 32 22 -7 20 36 21 29 14 -14 -13 -11 17 -5 47 -18 46 30 24 45 25 -1 -26 34 33 31 49 -8 -2 -29 40 -25 -10 -23 -30 -39 -20 -22 -31 -32 -36 -24 -4 55 -12 -3 -49 54 -53 -52 -50 56 -6
right_child=1 10 8 16 18 7 11 -9 9 15 48 12 13 -15 -16 -17 19 -19 27 -21 41 37 23 35 26 -27 -28 28 38 42 43 -33 -34 -35 44 -37 -38 39 -40 -41 -42 -43 -44 -45 -46 -47 -48 50 51 -51 53 52 -54 -55 -56 -57 -58
leaf_value=0.095712984836432397 -0.014094948165082707 -0.10820321484132858 0.038579242977460591 0.10596606570448502 -0.1031263686227144 0.052312871444917079 0.072927519726910028 0.076694947301860258 -0.0063850000721058821 0.025555020368150022 -0.18693400503074795 0.12093457211041703 0.071885010606734148 -0.011609169914078272 -0.010869925431138461 0.095263432502666834 -0.054411583826355393 0.0057813355877827559 0.11100130819859509 0.1706554676654658 -0.017876539454848264 0.35000344237772851 -0.11960380819163666 0.10006135430524515 -0.037532737205724864 -0.00036022349810528056 0.057930384647417482 0.0073261843236984356 0.14013906180494493 0.1638419392455184 0.15897463919141253 0.12171955510965081 0.12189775920745623 0.097935633310492765 0.0071232037987930489 -0.091800953234744548 -0.09653481037556054 0.11938661204208703 -0.081534197255301227 -0.094530990008238794 -0.091163066510481644 -0.1166078502644439 -0.021415012440796917 0.28061517047592277 0.17141537369255821 0.081148417754008106 0.20201402490786766 -0.17324700077347346 -0.11511948054220987 -0.15111122135384891 -0.18830732436436659 -0.10863589804211937 -0.114063625663764 -0.19870696478080641 -0.12288546074178966 -0.10505693351109283 -0.10271035662847733
leaf_weight=1917.0011676475406 1698.8202725313604 31.287110719829798 15.024904381483791 4700.2758625298738 51.253852853551507 28047.366889096797 1563.6469646468759 24869.860124181956 963.53465208411217 2273.8726333044469 4.7012438662350169 3392.9123037084937 5597.8321675173938 1288.9345241114497 350.99024079740047 2036.3793027959764 91.705450247973204 686.91282009333372 799.29362039268017 1374.6371699720621 173.10075166076422 12.07494151778519 275.093386515975 224.7040648907423 742.69661606475711 513.3694854490459 834.99467871338129 276.78349772840738 2587.66470169276 1081.1371675208211 1778.1219356022775 2625.6452442780137 133.75286428630352 8653.9466621652246 38.520599901676178 78.33835181593895 358.53463451936841 47.037026852369308 30.944919183850288 101.26783780753613 33.645831026136875 469.29392439126968 35.360220655798912 76.778744220733643 1415.7555684000254 16.921100132167339 49.058105241507292 5.0895136147737494 3.9888845011591911 1.1786547414958466 4.8428382873535138 32.27686520665884 48.576174691319466 5.191964790225029 7.7209401875734311 0.71653368696570297 16.441268783062696
leaf_count=3111 9061 575 69 7714 1752 89410 2879 59078 5386 10472 26 4672 9807 4297 2508 9302 755 2304 906 718 812 27 1100 384 3443 1570 1862 608 1969 797 1250 3172 188 11961 90 281 3262 145 113 1109 127 6705 97 110 783 31 78 22 39 9 20 486 463 21 52 16 640
internal_value=0 0.0649511 0.0627393 0.0665326 0.0905379 0.0614978 0.0774847 0.0637719 0.025874 0.0375224 0.135008 0.0880965 0.0746841 0.0562582 0.108578 0.0584888 0.106754 0.0931917 0.109798 0.15658 -0.0669911 0.146955 0.0407456 -0.0272855 0.0508458 0.0754194 0.0129912 0.111175 0.104739 0.114969 0.1593 0.103508 -0.00416933 0.0951274 0.143673 0.0504638 -0.0308329 0.00167673 0.137519 -0.0266839 0.102835 -0.0900035 0.157975 0.16401 0.167064 -0.107971 0.163695 -0.118212 -0.116528 -0.109761 -0.186809 -0.112952 -0.111897 -0.193688 -0.12024 -0.103047 -0.103025
internal_weight=0 70087.1 67942.1 61603.3 34459.7 54749.8 20539.6 52917.2 6338.8 5632.32 2145.01 15936.5 10630.7 6886.77 3743.9 4310.25 6853.53 5387.19 13920.1 1466.34 706.478 2047.75 4603.12 595.057 4008.06 2430.37 1577.69 13836.6 11549.3 5305.79 1887.37 4189.29 1832.57 8930.73 2287.22 303.042 1322.07 160.38 2618.61 148.305 832.939 642.395 1116.5 1854.9 1454.28 292.014 64.083 83.536 97.2641 32.4658 15.1243 92.5629 80.853 10.0348 11.7098 68.4117 67.6951
internal_count=268644 209605 205314 169228 59039 157737 40011 148488 36086 28422 4291 28229 21284 14104 7180 19774 11491 10018 19028 1473 7664 3225 11782 1796 9986 4681 5305 16557 14651 6945 1944 6051 9249 12569 1906 665 8648 1281 2082 1254 1033 7517 894 1360 873 1131 147 2471 1066 584 63 1040 949 41 91 2408 2392
is_linear=0
shrinkage=0.1


Tree=10
num_leaves=60
num_cat=0
split_feature=53 70 43 135 27 117 52 30 54 75 112 56 102 29 75 75 107 114 120 44 71 0 29 81 95 32 109 95 33 108 33 81 68 54 50 103 95 1 16 135 4 95 14 110 71 42 31 81 136 113 110 125 53 128 32 122 110 52 69
split_gain=1344.42 1045.21 880.129 824.245 1516.07 814.403 771.538 734.038 1016.59 689.881 671.824 536.988 531.923 497.905 468.787 425.941 426.535 401.777 361.112 343.662 321.91 767.432 311.723 329.089 227.079 409.832 212.998 193.56 188.04 182.926 181.302 172.346 179.155 166.449 161.705 232.423 151.034 141.793 134.865 121.087 95.6753 95.5773 89.352 75.0388 62.6032 109.795 47.1317 42.4897 39.7438 28.6501 6.36931 2.7179 1.44297 0.365572 0.23964 0.11581 0.0822568 0.059346 0.0122195
threshold=1.002241909503937 -0.096890639513730989 1.1437878012657168 1.0000000180025095e-35 1.2660923004150393 -1.4411842226982114 1.1491578817367556 1.0888572931289675 0.90859201550483715 -1.0326597094535825 -0.84821242094039906 1.0393951535224917 -0.92480388283729542 1.0862526893615725 -1.110795199871063 -1.0705170631408689 -0.98139479756355275 -0.93392983078956593 -0.96610599756240834 1.0466085672378542 -0.49408464133739466 0.41893543303012853 1.1958153843879702 -1.2083203196525572 -0.73557278513908375 0.93188348412513744 -1.0949413180351255 -0.87787815928459156 0.81330865621566784 -1.05664986371994 0.87071096897125255 -0.20820534974336621 0.2154064550995827 0.94716787338256847 1.1762822866439822 -0.71047765016555775 -1.0923423767089842 0.66478228569030773 0.70526593923568737 1.0000000180025095e-35 0.67875707149505626 -0.62180104851722706 0.58813524246215831 -1.1803941726684568 -0.5952884554862975 0.89113104343414318 1.0135108232498171 -1.1618475317955015 1.0000000180025095e-35 -0.86113780736923207 -1.1658434271812437 -1.1252883076667783 1.1086271405220034 1.0000000180025095e-35 0.92720496654510509 -0.93600729107856739 -1.1937509179115293 1.1436928510665896 0.086410850286483779
decision_type=2 2 2 2 2 2 2 2 2 2 2 2 2 2 2 2 2 2 2 2 2 2 2 2 2 2 2 2 2 2 2 2 2 2 2 2 2 2 2 2 2 2 2 2 2 2 2 2 2 2 2 2 2 2 2 2 2 2 2
left_child=7 2 3 4 5 -2 28 10 9 14 12 34 13 47 36 54 -17 -15 -16 -6 21 -14 23 40 46 -26 38 37 52 56 -22 32 -28 -25 35 -4 -9 -11 50 -29 -10 -40 -36 -31 48 -46 -13 -1 -24 -12 -8 53 -3 -51 -5 -53 -30 -54 -33
right_child=1 6 11 15 19 -7 26 8 22 27 49 24 20 17 18 16 -18 -19 -20 -21 30 -23 44 33 25 -27 31 39 29 43 -32 58 -34 -35 42 -37 -38 -39 41 -41 -42 -43 -44 -45 45 -47 -48 -49 -50 51 -52 55 57 -55 -56 -57 -58 -59 -60
leaf_value=0.10996507865396841 0.10590686175235697 -0.17401850687741427 -0.055648652872513672 -0.14291188166137214 0.0028546591795795251 0.054194695260595387 -0.1101284941502547 -0.14098914430430026 -0.093223596618838375 0.11175819014234462 0.17880509689944515 -0.086124089318120031 -0.0035568425244074061 0.019268585376873232 0.046339512411724681 0.0113527746437898 0.1203753060391477 0.090347453767957164 -0.040284410148722416 -0.082165229140013285 0.068792607947153306 0.091027617722389376 -0.13389436521168421 0.063835260054610293 0.052587901019665234 0.30448977204156968 -0.047710096332582386 -0.098311298506285227 -0.10742061126719998 0.11235488390518289 0.12132668221676453 -0.10938902037143164 0.14473485773140099 -0.045276724276711255 -0.10988741331433075 0.085421772488863665 0.11060179662483559 0.17453373779496673 -0.12080278998794805 0.21438599532575733 -0.014399696896836893 0.22051475426831246 -0.042992792955997339 0.16111317117546631 0.16179328612771682 -0.14921972890651969 0.28654396387350944 0.18446872302357589 0.17291017223256233 -0.15038554898475776 -0.047168127724963566 -0.1212429833512948 -0.12069494820279847 -0.12239968460802289 -0.15640115828016235 -0.10339017859110944 -0.12233094004663742 -0.10960090564123591 -0.11294423415976021
leaf_weight=107.06607903167605 3234.8489182814956 5.407037332654002 316.76827554032207 49.220800995826721 2863.1496529281139 52019.757993452251 159.1454322449863 24.433766551315784 292.21068135276437 1226.5870241597295 3.5438578128814688 75.402164362370968 894.04198359325528 2455.4362288564444 1995.3484976291656 406.25710487365723 3075.7083613723516 1176.1873578950763 634.20571711659431 570.10170580074191 761.24338059127331 21177.727272026241 240.51922941580415 731.98723910003901 243.6856705211103 87.877849355340004 64.973827213048935 59.759517401456833 22.625367801636461 389.19506821781397 4794.0645214170218 13.509746469557284 189.34903170913458 172.8171038068831 395.01949568651617 184.99852948635817 1017.6273477226496 509.1729501709342 12.321966554969547 15.620719581842421 325.53515754640102 24.550409000366926 403.7731190174818 1670.0502018481493 21.716093026101589 23.780795842409134 3.5536035671830168 268.54018776118755 4.2977171540260306 14.804208323359491 17.872289251536131 3.719452839344739 10.518076423555614 6.816930226981639 17.981011584401131 157.36652567796409 4.4233122244477263 8.9034695066511613 33.993632823228836
leaf_count=158 5387 24 2472 245 12293 152563 2773 133 1369 1675 1 562 2364 5543 4344 1446 4912 1987 2437 3681 1134 29988 1197 1469 1094 137 596 223 408 435 4316 173 568 649 5904 496 1371 520 107 18 1115 17 3212 677 24 116 15 104 5 76 192 29 78 50 81 5182 35 124 340
internal_value=0 0.0566401 0.0541006 0.0560458 0.0532158 0.0572222 0.118462 0.079999 0.05139 0.0728546 0.0865583 -0.0166531 0.0876733 0.0536254 0.0479411 0.102842 0.107655 0.0422892 0.0254472 -0.0112631 0.0926118 0.0871964 -0.013527 0.00458012 0.0830586 0.119352 0.00881113 0.12336 0.145248 0.148504 0.114128 0.0629113 0.0955695 0.0429949 -0.0481269 -0.0036368 0.104703 0.130173 -0.0675312 -0.0335124 -0.0516856 0.106454 -0.0760736 0.151898 -0.10849 -0.000770291 -0.0693512 0.163232 -0.128508 -0.102808 -0.103772 -0.108271 -0.128329 -0.141562 -0.146521 -0.103802 -0.109859 -0.115609 -0.111933
internal_weight=0 66574.9 63948.1 62237 58687.9 55254.6 2626.84 39116.2 7295.62 5482.76 31820.6 1711.08 31634.3 4007.23 3671.62 3549.17 3481.97 3631.62 2629.55 3433.25 27627.1 22071.8 1812.86 1522.55 410.519 331.564 515.716 1811.14 2111.12 2086.29 5555.31 301.826 254.323 904.804 1300.56 501.767 1042.06 1735.76 213.89 75.3802 617.746 36.8724 798.793 2059.25 290.314 45.4969 78.9558 375.606 244.817 186.251 177.018 182.707 24.8286 21.6211 67.2018 161.086 27.0487 19.4215 47.5034
internal_count=268644 201047 194500 180608 173924 157950 6547 67597 16665 10721 50932 13892 45594 7792 8285 6684 6358 7530 6781 15974 37802 32352 5944 4602 1808 1231 4766 2436 1781 1555 5450 1677 1164 2118 12084 2968 1504 2195 3089 241 2484 124 9116 1112 1342 140 577 262 1202 5338 2965 5337 226 126 326 5211 443 202 513
is_linear=0
shrinkage=0.1


Tree=11
num_leaves=59
num_cat=0
split_feature=53 70 53 73 71 103 52 0 134 83 108 31 135 72 4 29 28 102 69 52 108 31 130 30 133 127 72 129 32 132 31 29 107 107 110 71 33 108 0 0 46 34 34 2 97 37 111 17 54 80 53 74 44 71 110 52 77 130
split_gain=1194.04 936.224 785.22 964.3 690.841 676.672 667.879 610.908 605.508 926.479 1195.99 599.981 538.344 514.624 681.316 445.998 407.753 397.421 381.451 447.673 327.289 322.684 254.93 240.904 355.757 390.54 257.36 212.877 218.532 206.508 204.543 195.964 194.002 185.954 184.848 215.385 159.563 154.48 147.336 147.04 103.947 101.554 151.383 98.9393 88.5549 86.5124 70.2476 48.974 45.8874 7.66122 0.962823 0.193624 0.183934 0.149021 0.0595277 0.0420973 0.0111886 0.000123182
threshold=0.98877662420272838 -0.096890639513730989 1.0900892019271853 -0.64843386411666859 -0.56420037150382985 -0.89080321788787831 1.1491578817367556 0.56429606676101696 1.0000000180025095e-35 -1.1398761272430418 -0.94309276342391957 0.9993295967578889 1.0000000180025095e-35 -0.76290434598922718 0.69918635487556469 1.2198233604431155 1.1253991127014162 -0.92480388283729542 -0.025911143049597737 1.0915750265121462 -1.0641469359397886 0.9169793725013734 1.0000000180025095e-35 1.0888572931289675 1.0000000180025095e-35 -1.4915627837181089 -0.69377243518829335 1.0000000180025095e-35 0.89766785502433788 1.0000000180025095e-35 1.0052508711814883 1.1133124828338625 -0.90128472447395314 -0.94930431246757496 -1.1454604268074033 -0.17746762931346891 0.81330865621566784 -1.05664986371994 0.70575374364852916 0.5336090922355653 1.1463776230812075 0.92732593417167675 0.85447984933853161 -0.24462240189313886 -0.88208082318305958 0.99375247955322277 -1.2452252507209776 1.3332713246345522 0.95529180765151989 -1.2594759464263914 1.1086271405220034 -1.0152049660682676 0.96848863363266002 -0.17746762931346891 -1.1937509179115293 1.1436928510665896 -1.1840831041336057 1.0000000180025095e-35
decision_type=2 2 2 2 2 2 2 2 2 2 2 2 2 2 2 2 2 2 2 2 2 2 2 2 2 2 2 2 2 2 2 2 2 2 2 2 2 2 2 2 2 2 2 2 2 2 2 2 2 2 2 2 2 2 2 2 2 2
left_child=4 2 3 5 7 31 36 23 12 40 -11 -7 16 14 17 -16 -4 -9 19 -5 -20 49 27 24 25 -1 32 28 -23 30 -15 -2 -25 -14 35 45 50 54 -31 -26 -10 42 -36 -37 -28 -8 -39 51 -29 56 -3 -24 -51 -43 -38 -52 57 -6
right_child=1 6 8 18 21 11 34 13 9 10 -12 -13 33 29 15 -17 -18 -19 20 -21 -22 22 47 26 39 -27 44 48 -30 38 -32 -33 -34 -35 41 43 37 46 -40 -41 -42 53 -44 -45 -46 -47 -48 -49 -50 52 55 -53 -54 -55 -56 -57 -58 -59
leaf_value=0.078839327167363457 0.080938652892144761 -0.16279566759001018 0.016418317073323543 0.1012854028131341 -0.1025531719066291 0.038732250640811615 -0.1016459335637101 -0.10858958551723662 0.042225402439653704 -0.041303483612364904 0.19136727257767719 0.060017723020322093 0.0074013490822208566 0.1139846139537249 0.085448500260291715 0.03282179773389475 -0.039089005659356871 0.023813424806865817 -0.12349771478904573 0.039029989143854235 0.15890972314692087 0.05800591628237152 -0.14432969392937506 0.0023351022889695379 -0.11603923684270223 0.017364139310000991 0.17920554285778809 -0.16331057632591517 0.1010534484248346 0.020486512744473034 -0.020819534311917007 -0.017173453791383252 -0.13182174218987067 0.12807515860166302 0.060061423553711558 -0.1123871588257446 -0.10668476824502476 0.094228252936912046 0.132044622943985 0.048993571555648971 -0.13579010732962141 -0.12120333426431096 0.3102554260342798 0.097022209447906543 -0.0382617742709613 0.25136702999178823 0.15016294994797785 0.27399042530889506 0.059816946470414828 -0.19332464346512612 -0.11838086188002016 -0.11803062204891185 -0.17066639213951018 -0.14209626677743431 -0.11990675319386755 -0.10862179439550697 -0.11840884334564057 -0.10220654864066647
leaf_weight=2684.522129226476 228.2498124577105 5.2116983458399799 4910.6814329307526 3327.184125892818 42.45908860117197 22740.483653835952 213.89484588801861 296.43827144056559 40.183921758085489 313.05480714142323 750.68268037587404 31705.962171394378 173.42787944152951 3901.0320217274129 6111.8889732770622 2186.429840542376 1811.6515741162002 963.67329002171755 42.854971263557673 1769.2915186434984 967.53439050912857 1325.9459758251905 2.9341069906949988 1356.9280659742653 178.53482860326767 1680.1656986214221 104.08401076495647 38.289295610040426 10661.642592191696 471.49185557663441 115.9028864055872 1883.3675182536244 117.09167126938701 484.26622013002634 66.319630041718483 27.124598519876599 20.606271645054225 258.30812357738614 158.08030250668526 77.389758452773094 178.54747475683689 9.4295725375413877 38.063979037106037 134.12929996848106 22.832838714122772 7.1750736720859996 1716.854741178453 3.3322405815124503 12.139050424098967 8.4483263194560987 9.6935857497155684 61.018365904688835 6.2207053303718558 5.3512419909238806 4.079122055321931 8.1250940226018411 0.44387649744748969 13.516259951516984
leaf_count=4105 941 24 28062 4512 1760 65698 3594 1202 140 1362 1419 77606 718 4065 10053 6100 9973 1963 417 4300 526 2113 17 3868 708 4879 60 171 11421 869 413 8959 581 590 337 299 408 345 127 141 949 69 77 354 73 9 767 1 27 34 78 501 26 27 35 124 7 640
internal_value=0 0.0512667 0.0491486 0.0530496 0.0742432 0.0489734 0.111116 0.0630043 0.0209285 0.0843511 0.122893 0.0511275 0.00990722 0.0744495 0.0611787 0.0715825 0.00145924 -0.00733407 0.0908009 0.0796728 0.146932 0.093097 0.0943445 0.036873 0.0484557 0.0551747 0.00344307 0.0954295 0.096292 0.101749 0.110095 -0.00656828 -0.00832191 0.0962546 0.00780999 -0.026085 0.136727 0.139741 0.0484978 -0.0661345 -0.103086 0.116558 0.151296 0.0617974 0.140082 -0.0901885 0.142848 -0.0997628 -0.1096 -0.119334 -0.124989 -0.119237 -0.183716 -0.128767 -0.10887 -0.113931 -0.102595 -0.102469
internal_weight=0 73851.8 71327.4 62664.9 32602.9 56558.1 2524.37 20426.5 8662.5 1282.47 1063.74 54446.4 7380.03 14204.9 9558.43 8298.32 6722.33 1260.11 6106.87 5096.48 1010.39 12176.4 12105.3 6221.55 4620.61 4364.69 1600.94 12038 11987.6 4646.51 4016.93 2111.62 1474.02 657.694 501.488 382.324 2022.88 1999.85 629.572 255.925 218.731 119.164 104.384 161.254 126.917 221.07 1975.16 67.2847 50.4283 71.0883 23.0304 63.9525 14.669 14.7808 24.6854 17.8187 56.4192 55.9753
internal_count=268644 212719 206172 162959 55925 153204 6547 39207 43213 3870 2781 143304 39343 24792 19318 16153 38035 3165 9755 8812 943 16718 14251 14415 9833 8984 4582 13732 13534 5474 4478 9900 4449 1308 4766 4256 1781 1555 996 849 1089 510 414 653 133 3603 1112 519 198 2467 226 518 60 96 443 202 2407 2400
is_linear=0
shrinkage=0.1


Tree=12
num_leaves=63
num_cat=0
split_feature=51 26 37 135 26 79 134 95 122 97 30 32 104 136 95 29 68 99 71 133 129 104 4 130 1 0 73 73 102 72 5 50 94 42 68 129 82 125 31 72 122 74 113 74 31 46 40 110 0 118 77 71 26 103 58 122 122 33 124 68 68 62
split_gain=1132.62 1158.49 1028.24 910.06 1014.57 788.983 1609.21 870.923 656.617 684.438 664.17 638.491 610.619 823.157 597.361 552.898 552.801 537.571 498.69 481.914 477.346 469.098 454.969 447.096 447.008 378.753 592.736 367.207 361.791 350.71 610.925 444.905 338.379 328.152 384.979 309.211 262.499 262.457 250.419 249.152 242.658 240.548 213.556 201.691 181.252 170.209 163.934 121.304 120.407 87.3803 93.7489 81.5537 76.8424 74.2848 73.7352 61.5347 59.3184 41.3283 39.9968 39.2406 52.2397 26.5932
threshold=1.0720595121383669 1.237203896045685 0.94859617948532116 1.0000000180025095e-35 1.2950704693794253 -1.208656847476959 1.0000000180025095e-35 -0.9614771008491515 -1.1291414499282835 -0.97612223029136647 1.0939505100250246 0.96483895182609569 -0.81347760558128346 1.0000000180025095e-35 -1.018020451068878 1.1214984655380251 0.0088273226283490675 -0.99819585680961598 -0.35390175879001612 1.0000000180025095e-35 1.0000000180025095e-35 -0.81674042344093312 0.71440166234970104 1.0000000180025095e-35 0.59733176231384288 0.5611119568347932 -0.88506498932838429 -0.73182973265647877 -0.76447373628616322 -0.58694899082183827 0.60368880629539501 1.1744619607925417 -1.0602375864982603 1.071077883243561 -0.032387334853410714 1.0000000180025095e-35 -1.3624899983406065 -1.4158679842948911 1.0064495205879214 -0.66785430908203114 -1.0641382932662962 -0.9836759865283965 -1.1521274447441099 -0.81438973546028126 1.0135108232498171 1.1107169389724734 0.99942761659622203 -0.93438914418220509 0.46491931378841406 -0.97221013903617848 -1.2491918206214903 -0.39978310465812678 1.3816431760787966 -0.86874255537986744 0.83956563472747814 -1.136985123157501 -1.6172574162483213 0.89839255809783947 -1.1360732316970823 -0.12759535759687421 -0.13265336304903028 0.57356122136116039
decision_type=2 2 2 2 2 2 2 2 2 2 2 2 2 2 2 2 2 2 2 2 2 2 2 2 2 2 2 2 2 2 2 2 2 2 2 2 2 2 2 2 2 2 2 2 2 2 2 2 2 2 2 2 2 2 2 2 2 2 2 2 2 2
left_child=8 2 16 4 5 7 -7 -3 14 10 17 12 19 -14 44 21 35 58 28 -4 23 36 47 27 -19 32 -27 -16 -13 30 -18 -31 -17 34 45 39 -11 -25 -20 -2 -24 52 57 -44 49 -5 -36 -12 -43 50 -1 56 -22 -37 -23 -51 -35 -6 -10 60 -46 -53
right_child=1 3 11 33 42 6 -8 -9 9 15 22 18 13 -15 20 25 29 24 38 -21 41 54 40 37 -26 26 -28 -29 -30 31 -32 -33 -34 51 46 53 -38 -39 -40 -41 -42 48 43 -45 59 -47 -48 -49 -50 55 -52 61 -54 -55 -56 -57 -58 -59 -60 -61 -62 -63
leaf_value=-0.10106301420326047 0.036711331133178926 0.02830635368931135 -0.039755679349870093 0.084462880244956684 -0.11555254950849925 0.012466170777633324 0.12064930384739765 -0.035041480915955318 0.086853940891357839 0.034106295762242077 0.005018754565019168 0.057443718063799137 0.021171629353368221 0.11771731797808933 0.066097423894440205 0.04082752130805048 0.019156415423588306 0.049797854635256843 -0.059133026742475663 0.096255937929869584 0.15302016455104134 -0.12277124417956414 0.11301565192008992 -0.055205106983530761 0.086231606996030621 -0.00077555712609396206 0.099741837603562145 0.093430008670307207 0.1264346420209321 0.089060986171323187 0.088679928680416478 0.027895286658635082 -0.033377308107355334 -0.0048888894487327536 0.18330889293228275 0.05834362686490327 0.14157786705148975 0.085663594102336732 0.2428853332225327 0.12886202729463336 0.012036364700256796 -0.021993374743055877 -0.041349621065551762 0.17507402428209251 -0.12649300489828053 -0.02262741382298232 0.07694121411513638 -0.097729674304640246 -0.13741397404011318 0.19668599375783366 0.12354293888365844 0.22530038452470103 -0.073084515731573929 0.23926066138572893 0.04301377824919006 0.13618869047041113 -0.14830679212279713 -0.015313045540165705 -0.1127973078218258 -0.13079188488812626 0.26929280155557028 0.021974982336284095
leaf_weight=19.292623266577721 389.27606206014752 5840.1891584731638 2158.6778948176652 542.63085985183716 525.02816186659038 3825.5053442306817 2146.453585550189 3453.7291829399765 10.645531497895716 332.74163871631026 158.19597633555532 5410.4203447178006 6680.9786113873124 1017.627074688673 25102.722023110837 835.92098172008991 3399.1882758960128 6038.5254905726761 436.21282036229968 296.25807725638151 78.362023994326591 112.00732841156423 318.34683565050364 445.61702464148402 7613.0688277911395 1497.3282855637372 964.56350772827864 6112.0906342864037 884.3478120714426 6554.5017201900482 2012.1035361140966 1452.7656468525529 2320.2342213951051 50.252211570739746 568.09211852401495 25.035290285944939 716.97891993448138 188.08388093113899 29.297558762133121 1191.3458298146725 942.59513349831104 232.90678675472736 1134.3498204872012 44.759302578866482 6.4975776225328445 204.29416088759899 194.50185618549585 419.84530910477042 147.69967447593808 375.54364933818579 505.46604822576046 11.072231128811838 18.598139360547066 242.84556735306978 35.277314931154251 304.42004226148129 67.679852597415447 44.627166498452425 174.72123987972736 28.782494828104973 6.8513239882886392 15.35112553834915
leaf_count=69 1402 18335 9996 1152 3174 12933 4883 12777 34 807 488 13870 29988 2066 41604 1829 10333 13851 3647 890 126 1543 537 2732 10938 3674 1026 7321 2183 10301 4095 8411 6957 174 496 125 801 880 53 1909 2883 790 6701 94 55 679 395 1835 680 163 637 7 78 234 85 280 329 182 3869 210 6 42
internal_value=0 0.0414253 0.0529216 0.0216079 0.0147242 0.0229891 0.0513496 0.00476555 0.0620351 0.0488129 0.0603151 0.0359389 0.0200853 0.0339334 0.0708929 0.0223556 0.0717361 0.067819 0.0597502 -0.023342 0.0682731 0.0840623 0.00385332 0.0697612 0.0701158 0.00920809 0.0386069 0.0714493 0.0671362 0.0646735 0.0450076 0.0779636 -0.0137238 0.0924254 0.1062 0.123004 0.107511 -0.013395 -0.0401251 0.106167 0.0375304 -0.0309625 -0.0574237 -0.0331341 0.138812 0.0551722 0.15618 -0.0696099 -0.066784 0.145942 0.115285 -0.0516166 0.109651 0.222353 -0.0830628 0.169601 -0.0871948 -0.1077 -0.101331 -0.0650679 0.0766441 0.107175
internal_weight=0 50849.4 32180.9 18668.5 17014.6 15265.9 5971.96 9293.92 56063.9 22491 15675.9 16913.8 10153.5 7698.61 33572.9 6815.05 15267.1 13837 6760.28 2454.94 32326.1 1197.01 1838.98 31848.5 13651.6 5618.05 2461.89 31214.8 6294.77 13418.6 5411.29 8007.27 3156.16 1653.87 1509.52 1848.5 1049.72 633.701 465.51 1580.62 1260.94 477.567 1748.76 1179.11 1246.85 746.925 762.594 578.041 380.606 1204.72 524.759 144.355 96.9602 267.881 147.285 679.964 117.932 569.655 185.367 42.1314 13.3489 26.4234
internal_count=268644 161856 99503 62353 59079 48928 17816 31112 106788 51157 34435 62693 42940 32054 55631 16722 36810 28692 19753 10886 54211 3236 5743 52537 24789 13486 4700 48925 16053 33140 14428 18712 8786 3274 2722 3670 1608 3612 3700 3311 3420 1674 10151 6795 1420 1831 891 2323 1470 1149 706 552 204 359 1628 443 503 3356 3903 271 61 49
is_linear=0
shrinkage=0.1


Tree=13
num_leaves=63
num_cat=0
split_feature=52 70 70 51 44 71 69 26 52 71 5 58 76 107 27 27 102 82 79 121 31 32 98 29 126 130 22 16 122 109 109 110 50 54 81 44 54 63 30 16 109 60 33 95 136 93 107 51 71 109 110 60 70 75 52 81 135 108 52 113 60 36
split_gain=988.726 924.815 647.446 646.534 609.763 693.947 594.36 589.355 580.682 508.635 565.514 485.439 410.162 367.244 361.199 307.787 304.379 272.479 251.721 251.396 251.032 229.566 216.858 215.374 239.291 187.668 174.861 227.078 173.22 161.205 156.306 141.952 240.215 133.89 126.285 128.606 125.879 113.776 111.172 108.925 107.651 129.437 101.925 72.7844 68.3557 62.9033 81.8432 72.4095 47.6529 43.6467 29.2074 11.863 10.4662 8.13546 6.77816 4.16872 1.42599 0.443409 0.155015 0.0513254 0.0448933 0.0150446
threshold=1.0211039185523989 -0.096890639513730989 -0.39455749094486231 0.99613666534423839 1.1676697134971621 -0.27341918647289271 -0.012788422871381043 1.323388993740082 1.1491578817367556 -0.59806913137435902 0.70970767736434948 0.94507229328155529 -1.2178386449813841 -0.99838685989379872 1.513373136520386 1.3043431639671328 -0.91179606318473805 -0.55707344412803639 -1.2510890960693357 -1.4418603777885435 1.011195242404938 0.89128255844116222 -0.88255611062049855 1.192427456378937 -1.3446868062019346 1.0000000180025095e-35 1.3843381404876711 1.1514610052108767 -1.5602671504020689 -0.90088325738906849 -1.0949413180351255 -1.185363173484802 1.1668500304222109 0.95955881476402294 -0.20820534974336621 1.1958955526351931 0.90859201550483715 0.33620823919773107 0.88252201676368724 0.70526593923568737 -1.1180784702301023 0.81400206685066234 0.81781959533691417 -0.62180104851722706 1.0000000180025095e-35 -1.1035377979278562 -0.8362118899822234 1.0334786772727969 -0.4901266992092132 -1.08789986371994 -1.1598014235496519 0.79520720243453991 -0.057245355099439614 -0.42380371689796442 1.1531212329864504 -1.4443938136100767 1.0000000180025095e-35 -1.0709123015403745 1.0108779072761538 -0.91029667854309071 0.64063221216201793 0.82768419384956371
decision_type=2 2 2 2 2 2 2 2 2 2 2 2 2 2 2 2 2 2 2 2 2 2 2 2 2 2 2 2 2 2 2 2 2 2 2 2 2 2 2 2 2 2 2 2 2 2 2 2 2 2 2 2 2 2 2 2 2 2 2 2 2 2
left_child=2 4 3 9 5 6 7 -2 31 10 16 40 45 57 -12 26 -1 19 29 -13 21 37 -20 24 -17 -23 27 -5 -8 -11 39 32 53 -28 35 -32 -22 -14 -15 54 51 -42 49 -41 -25 46 47 -4 -38 -33 -44 -6 -34 -3 -10 -48 -19 -7 60 -60 -47 -36
right_child=1 8 12 15 11 13 28 -9 30 18 14 17 20 38 -16 23 -18 56 22 -21 36 25 -24 44 -26 -27 33 -29 -30 -31 34 42 52 -35 61 -37 48 -39 -40 43 41 -43 50 -45 -46 58 55 -49 -50 -51 -52 -53 -54 -55 -56 -57 -58 -59 59 -61 -62 -63
leaf_value=-0.06144964097242666 0.041236080235511285 0.14799910339671826 0.041925099018355241 0.11083030142787274 -0.068367737032614062 -0.11415701032697989 0.080006224487547808 0.0021260616063685186 -0.043818701372127532 -0.058839869113846789 0.060394893743904422 0.13298480175718932 0.10207042903796058 -0.081002347862320703 -0.062749355493133457 0.021111424638443021 0.026258135354581841 -0.1092754246816897 0.10756402580023389 -0.047252544659012435 0.1517954326242561 0.088742026300267965 0.053235267850217184 -0.11106877453801833 -0.057078041087740776 -0.092324296214245538 0.082791207386282525 -0.086591924956928135 -0.089152632027834244 0.056646578131162355 0.12582476673145448 -0.13359529123596389 -0.14634637652038218 -0.0065048429701266303 -0.12110369582447972 -0.022627391958783934 -0.038391168982427303 -0.030654972827170026 0.13190822799511287 -0.11923373039310264 -0.0031620672118687007 -0.089039959653635814 0.13466901085917612 0.18514475903667008 0.18404049342161513 -0.16923000795428045 -0.10266101656480542 -0.15576870989684144 -0.16927343449723908 0.10593463252879327 0.18945852031294655 -0.11854685753879056 -0.02075638858722513 0.074613599769435809 -0.10996782402500525 -0.16261299033850607 -0.15766438590664458 -0.13388132265862124 -0.16317166554427431 -0.14974378037593025 -0.17877401885846944 -0.11015566680719267
leaf_weight=583.09047502279282 60995.916757315397 72.591058492660522 137.54240364953876 89.075299844145775 56.809206420555711 49.253868069499731 69.598820097744465 4112.8146503530443 17.458385104313493 144.15682005882263 11891.331107832491 317.08463934808969 87.219796288758516 25.071947194635868 243.05534010380507 3507.7598660103977 1231.0347721800208 72.45654859021306 3510.8476740941405 102.37210880964994 30.894458323717117 10409.557072550058 929.15289558470249 176.90562318265438 440.56879927963018 57.558433823287487 1275.7765587083995 168.4219804443419 464.84002173319459 748.23558551073074 172.42418863996863 19.823211580514908 48.902698440477252 193.36232105642557 1.2947131544351567 88.211315162479877 117.4398191049695 248.89636072516441 1123.1636897698045 11.4517969712615 397.41722404956818 314.31384216621518 1598.2123374827206 25.021189711987972 8.2133088260889036 15.978337287902834 53.311215149238706 21.411335542798042 36.452682748436928 12.344687353819607 103.60411112010479 276.05643279105425 7.677339816465973 19.076229143887758 137.42080434970558 14.823266163468359 6.6489397957921019 14.828587990254162 7.7981816083192825 4.4829184487462026 7.1268461793661109 41.115266792476177
leaf_count=1914 164074 30 297 246 561 514 165 15616 315 405 20642 701 89 91 1029 7599 3577 1189 3543 672 21 10962 1420 888 1511 473 1819 744 4503 1517 551 177 566 564 9 613 461 605 803 107 2254 3029 814 17 8 68 2533 104 166 32 45 4432 47 70 2650 72 32 99 33 23 29 504
internal_value=0 0.0399843 0.0602671 0.0513444 0.0378535 0.039288 0.0379035 0.0387656 0.101308 0.0601852 0.0501428 -0.0242934 0.0802063 0.114257 0.0579283 0.0222562 -0.00193262 0.0568917 0.0864541 0.0889963 0.0831573 0.0851341 0.0961947 0.00744412 0.0123868 0.0877463 0.0577154 -0.0182982 -0.0671234 0.0379909 0.00486167 0.126641 0.0327201 0.0710384 0.0495416 0.0755816 -0.0324129 0.00378634 0.127259 -0.0658982 -0.0630413 -0.0410874 0.134671 0.0895759 -0.0979754 -0.0433338 -0.0240091 0.0152954 -0.0693934 -0.0416738 0.138005 -0.109983 -0.129305 0.132727 -0.102511 -0.115704 -0.113343 -0.118721 -0.167348 -0.15827 -0.172174 -0.11049
internal_weight=0 70775.3 36391.5 25141 68398.6 66855.5 65643.2 65108.7 2376.63 19280.9 13948.5 1543.16 11250.5 1212.32 12134.4 5860.08 1814.13 498.562 5332.39 419.457 10988 10803.2 4440 4133.45 3948.33 10467.1 1726.64 257.497 534.439 892.392 494.398 1882.23 148.247 1469.14 303.045 260.636 184.787 336.116 1148.24 191.352 1044.6 711.731 1733.98 36.473 185.119 262.475 227.088 158.954 153.893 32.1679 1701.82 332.866 56.58 91.6673 154.879 68.1345 79.1055 64.0825 35.3863 12.2811 23.1052 42.41
internal_count=268644 205282 63362 47426 198735 185865 184358 179690 6547 34047 27162 12870 15936 1507 21671 13379 5491 2594 6885 1373 12777 12129 4963 10006 9110 11435 3373 990 4668 1922 4766 1781 713 2383 1677 1164 648 694 894 3089 10276 5283 1068 124 896 3159 3006 401 627 209 859 4993 613 100 2965 2605 1221 613 153 56 97 513
is_linear=0
shrinkage=0.1


Tree=14
num_leaves=62
num_cat=0
split_feature=130 80 128 31 48 105 80 69 52 106 57 71 32 62 86 110 81 110 108 6 57 59 31 72 109 31 104 27 112 84 108 31 32 34 54 32 97 114 6 105 53 79 108 112 41 81 91 20 122 77 108 77 109 72 69 60 32 69 48 3 52
split_gain=927.801 1187.53 929.469 732.832 530.442 931.555 785.751 665.382 793.179 655.502 520.952 494.425 417.472 415.516 379.814 469.748 389.673 378.967 376.583 364.104 357.099 323.215 305.927 321.379 298.853 287.227 241.799 233.193 224.109 222.83 217.272 216.795 191.568 167.244 158.297 259.856 165.776 126.712 141.68 124.235 111.022 103.558 305.538 163.941 100.658 91.2284 85.2464 86.998 74.7644 67.9585 61.6028 55.7932 44.8246 37.9536 60.7244 26.5712 20.558 66.3005 5.74154 0.215818 0.132699
threshold=1.0000000180025095e-35 -1.2534681558609007 1.0000000180025095e-35 1.0077291131019595 1.0955542922019961 -0.82441517710685719 -1.185973525047302 -0.21354492008686063 1.0047611594200136 -0.82627677917480458 0.9123319983482362 -0.40228730440139765 0.96758204698562633 0.5110422968864442 -1.3494059443473814 -0.93565618991851796 -1.2865893840789793 -0.86080768704414357 -0.90631014108657826 0.62158897519111644 0.88908571004867565 0.8325176239013673 1.0143936276435854 -0.59958001971244801 -0.8378346562385558 0.99641036987304699 -0.79338589310646046 1.1613634228706362 -0.96925380825996388 -1.4025943279266355 -0.7975405454635619 0.98653659224510204 0.97504800558090221 0.94087579846382152 1.0324109196662905 0.97504800558090221 -1.0106740593910215 -0.95278286933898915 0.60599172115325939 -0.81152990460395802 1.0993712544441225 -1.1631872057914732 -0.94480937719345082 -1.0120708942413328 1.0626348257064822 -1.401500344276428 -0.96320039033889759 1.1610345244407656 -1.0160611271858213 -1.199390113353729 -0.835902839899063 -0.95472306013107289 -0.84328067302703846 -0.541223645210266 -0.045203473418951028 0.74222502112388622 0.9667324721813203 -0.13377188146114347 1.2033101320266726 0.43027757108211523 1.1325312256813052
decision_type=2 2 2 2 2 2 2 2 2 2 2 2 2 2 2 2 2 2 2 2 2 2 2 2 2 2 2 2 2 2 2 2 2 2 2 2 2 2 2 2 2 2 2 2 2 2 2 2 2 2 2 2 2 2 2 2 2 2 2 2 2
left_child=2 14 3 4 7 6 -6 8 -1 -7 19 18 27 -9 24 40 17 -17 31 37 32 -14 34 51 45 -22 -20 -13 -18 30 -26 -12 -21 41 36 -36 -5 38 -4 53 49 42 -3 -44 -25 52 47 -41 -31 -16 -47 -24 -2 59 -55 -39 58 -58 -43 -35 -42
right_child=1 33 10 22 5 9 -8 13 -10 -11 11 12 21 -15 15 16 28 -19 26 20 25 -23 23 44 29 -27 -28 -29 -30 48 -32 -33 -34 39 35 -37 -38 55 -40 46 60 56 43 -45 -46 50 -48 -49 -50 -51 -52 -53 -54 54 -56 -57 57 -59 -60 -61 -62
leaf_value=0.056527311507824633 0.19107120740153186 0.69914584009475844 -0.080747130164115249 -0.058265510854956952 0.0092232510702257974 0.083405895463838031 0.044683923531657628 0.09386059974236094 0.020189452230316231 0.030166585716248306 -0.078961702135239481 -0.019559105818334296 -0.031697037787454023 0.060982996833296998 -0.016469061794746078 0.030167682248514283 0.065649910864441857 -0.077324825656324259 0.0035653639106318653 -0.038430955812537623 -0.13015034811062473 0.099360847837639515 -0.092162852287262564 0.12917640712894704 0.079469110964790785 0.074809618649086404 0.08277355570251288 -0.14288847453071737 -0.082259851060324685 -0.081938269417104692 -0.11407774464250148 0.21431141872291126 0.27043578677330776 -0.12740935089263336 -0.07556018002010198 0.1543383245594859 0.030427454462247712 -0.14830738540137983 0.016156809418787079 -0.1200247660755252 -0.13354845314395278 -0.1240537203096132 0.06375173685174676 -0.075704688071910581 -0.13187830673022796 0.078678990263026591 0.40195226822583613 0.25849986019439058 0.1032411555891168 0.16543105060699784 -0.15534196189422045 0.10822456926327538 0.12478235162555334 0.19060227808089178 -0.11824907984817444 -0.08576862869770191 0.20758351610900996 -0.13226673489170107 -0.093485111410289326 -0.14816031667813639 -0.11458988564350914
leaf_weight=25992.302119364962 191.36630825325847 5.2986503392457953 454.6420064046979 222.1030259244144 10539.037734240294 6942.0547440946102 15349.802576189861 5890.1210792381316 7812.407771743834 3467.9413100592792 28.308656230568886 1072.775705460459 287.18634712696075 11065.896499203518 22.304364942014217 3469.9727582838386 122.09628846496344 362.21412489935756 627.87721909210086 1130.8950844854116 75.767215460538864 545.81890320032835 512.49245482310653 105.88979324698448 727.37351018190384 700.646584674716 997.98336733132601 178.87798461318016 636.27923272177577 162.70158814638853 63.026163696311414 229.9843242764473 20.443761840462685 8.0443227291107195 327.17551898211241 57.86030088365078 4118.6787548996508 195.84305905923247 225.8173375800252 10.946342423558237 9.0249196812510473 393.90403257124126 93.26897855848074 876.31056059151888 17.164313606917858 73.303985700011253 13.601853314787148 13.635187864303587 25.176395678892732 259.48856058344245 13.28734055161476 14.281604930758474 218.45768678188324 13.092849843204023 12.390367265790699 104.02403303608298 8.2119273096323031 19.073039889335632 72.799429442733526 13.296054810285566 6.2478393949568263
leaf_count=42903 167 10 2246 1191 31960 17960 44424 6975 19684 12176 160 5451 951 18602 87 11746 423 1448 2174 5845 350 1742 3081 195 1549 1490 2244 891 3384 644 1135 323 12 52 1437 142 10570 942 790 99 52 2802 384 5029 109 135 20 4 47 426 61 19 356 29 112 404 14 108 749 62 67
internal_value=0 0.00921287 0.0447861 0.0474248 0.0496373 0.0404067 0.0302483 0.0562381 0.0481295 0.06567 0.00931786 0.0328779 -0.000677359 0.0724039 0.0283539 0.0149331 0.00704669 0.0200076 0.070004 -0.0228358 0.00239726 0.0541774 0.0115923 -0.0527405 0.072835 0.0548084 0.0521848 -0.0371845 -0.0584468 0.0407672 0.0640358 0.182169 -0.0329466 -0.0691598 0.0204385 -0.0410128 0.0258893 -0.072455 -0.0485886 0.0672141 0.136801 -0.0770521 -0.0581511 -0.0622896 0.092763 0.136031 0.201086 0.08994 -0.0571235 0.151033 0.0427687 -0.0867301 0.155736 -0.0419552 0.0404336 -0.126613 -0.114353 -0.0299824 -0.119285 -0.140338 -0.125793
internal_weight=0 7916.19 99312.1 92435.2 87059.6 36298.8 25888.8 50760.7 33804.7 10410 6876.89 3968.81 2084.66 16956 6362.32 4887.63 4590.56 3832.19 1884.15 2908.08 1927.75 833.005 5375.65 649.828 1474.69 776.414 1625.86 1251.65 758.376 978.278 790.4 258.293 1151.34 1553.87 4725.82 385.036 4340.78 980.326 680.459 85.007 297.066 1468.87 974.878 969.58 123.054 496.415 38.1834 24.5815 187.878 281.793 86.5913 526.774 409.824 46.8236 25.4832 299.867 493.988 27.285 466.703 21.3404 15.2728
internal_count=268644 31201 237443 211428 194684 106520 76384 88164 62587 30136 26015 13936 9035 25577 21727 17633 17001 13194 4901 12079 7697 2693 16744 3404 4094 1840 4418 6342 3807 3375 2684 483 5857 9474 13340 1579 11761 4382 3036 378 632 9096 5423 5413 304 719 123 103 691 513 196 3100 523 255 141 1346 3673 122 3551 114 119
is_linear=0
shrinkage=0.1


Tree=15
num_leaves=63
num_cat=0
split_feature=51 122 50 26 135 122 2 29 30 53 134 105 29 95 0 5 53 30 32 29 70 96 99 110 28 101 101 5 69 99 136 131 124 130 68 6 52 59 114 51 33 108 40 31 33 45 129 73 109 44 24 46 113 56 75 110 95 83 0 109 48 82
split_gain=803.005 872.592 638.829 615.514 811.554 552.313 501.51 581.227 546.96 489.86 750.915 2035.97 1243.06 472.825 434.945 534.107 409.233 634.809 455.956 398.117 384.899 478.595 370.8 351.394 340.206 332.604 314.966 261.846 241.309 216.332 213.117 210.345 193.097 185.921 184.644 183.149 171.423 170.592 168.402 153.718 150.436 150.137 149.825 146.361 144.341 142.793 125.651 119.929 98.22 97.8522 90.878 70.66 60.4639 60.4191 59.8166 56.1284 42.8904 33.7624 29.3202 26.6148 0.687169 0.0572439
threshold=1.0720595121383669 -1.9950395226478574 1.1883636116981509 1.2882593274116518 1.0000000180025095e-35 -1.109982907772064 0.62718731164932262 1.1284245848655703 1.0969659686088564 1.0805919766426089 1.0000000180025095e-35 -0.84422883391380299 1.1133124828338625 -1.0273557901382444 0.34370359778404241 0.53139916062355053 0.93866312503814708 1.086541533470154 0.89128255844116222 1.2354449033737185 -0.46698257327079767 -0.9097381830215453 -0.99819585680961598 -1.1878089308738706 1.2864417433738711 -0.9550185203552245 -0.85322394967079151 0.64586755633354198 0.086410850286483779 -0.8221057355403899 1.0000000180025095e-35 1.0000000180025095e-35 -1.7424856424331663 1.0000000180025095e-35 -0.037161255255341523 0.55374938249588024 1.0047611594200136 0.77618116140365612 -0.94554832577705372 1.1459766626358034 0.79936626553535473 -0.92106634378433216 0.9861903488636018 0.99432891607284557 0.81781959533691417 1.0967804193496706 1.0000000180025095e-35 -0.93314772844314564 -1.1326175928115843 1.1958955526351931 1.3484045267105105 1.0866855978965761 -1.3028668165206907 0.93141472339630138 -0.49121722579002375 -1.1803941726684568 -1.029397666454315 -0.35481138527393336 -0.23906067758798596 -1.08789986371994 1.0746841430664065 -0.18006196618080136
decision_type=2 2 2 2 2 2 2 2 2 2 2 2 2 2 2 2 2 2 2 2 2 2 2 2 2 2 2 2 2 2 2 2 2 2 2 2 2 2 2 2 2 2 2 2 2 2 2 2 2 2 2 2 2 2 2 2 2 2 2 2 2 2
left_child=5 2 23 9 29 13 7 26 19 10 12 -12 -3 31 15 -11 20 18 -18 22 21 -15 -8 39 27 43 37 -9 52 32 -22 33 -5 46 45 -16 -19 -7 -27 48 61 -26 -36 -10 59 -6 -1 -21 -2 -42 -31 56 58 -28 -41 -46 -33 -54 -4 -25 -35 -30
right_child=1 3 28 4 34 6 8 24 25 14 11 -13 -14 16 35 -17 17 36 -20 47 30 -23 -24 44 41 38 53 -29 40 50 -32 51 -34 60 42 -37 -38 -39 -40 54 49 -43 -44 -45 55 -47 -48 -49 -50 -51 -52 -53 57 -55 -56 -57 -58 -59 -60 -61 -62 -63
leaf_value=0.13006142193525344 -0.1146661538653848 0.051995554124025511 -0.10864160376386012 0.2030017543401407 0.064483187671112621 0.052269990189283723 -0.07399336129910751 -0.098823180274028019 0.080553499225335071 0.015156690235897462 0.058880219594189369 -0.073410620144772912 -0.0012501515602279451 0.06092409208626301 -0.098282141828676617 0.12832772911539966 -0.0041424850420587779 0.008799601444900133 0.053422565013755231 0.033882874363412245 0.09762210567523566 -0.066781566075485674 0.060323881011679105 -0.14220131537260641 0.069888403470442451 -0.0052675202515975773 -0.13268168449822246 0.008538363000432047 -0.12283973160005 -0.0076629628151055097 -0.1145417282293648 -0.13563664818747986 -0.029188120094623422 -0.12083552562957739 0.17642195351292564 -0.01779694390201407 -0.058823781832837367 0.12758105904807923 -0.10895179595867573 0.29926304171121226 0.1544727362773258 -0.1046186151134305 -0.048258729774782516 -0.059846739412780937 0.087771015729492585 -0.051601247821350296 -0.052490278790375558 -0.10045679350367498 0.11912094119000434 -0.12151228943514787 -0.10057629786619329 0.23574082023687115 0.20039479616765848 0.0014799108234794646 -0.12889153348423329 0.12844190976936698 0.067233923058342512 -0.11377728755106223 -0.017310649107553065 0.057450417963385063 -0.15219909052363559 -0.11010520844067383
leaf_weight=1270.856841225177 23.55434338748455 22572.517387721688 221.7848353870213 36.656157948076725 487.01583185791969 1886.2635993622243 210.14121120516211 238.05357969924808 320.3170560747385 10987.093527048826 2545.1278195232153 2142.8192424327135 5441.5103707797825 2537.4162758886814 363.4040838368237 433.47381166368723 1456.6598242148757 1593.10403836146 24835.53235732764 97.01629463583231 3675.8180407807231 331.83695422112942 9367.533549213782 24.669880025088787 55.783006548881531 265.27436207234859 96.908424634486437 4968.3795356303453 3.9801897257566443 123.67009918391705 47.962916627526283 49.497601930052042 1564.412151845172 14.927128821611406 200.64077918231487 1273.5940430499613 490.21701673045754 357.83390335738659 382.53882278501987 3.3823304250836363 110.78819452226162 424.33933760225773 34.831593498587608 96.652366194874048 427.08822677284479 135.43045330792665 38.857331395149231 210.94400250911713 75.804150685667992 14.532073266804217 707.51625865325332 7.3033128827810279 11.265743896365167 51.356351092457771 92.506609918549657 1651.2712564207613 13.200586155056952 4.9119613245129576 41.770645888522267 9.1546458303928357 13.13086601346731 31.202109176665545
leaf_count=1063 267 51712 4183 80 1020 3927 3934 966 695 46204 6182 8217 17755 3813 1919 1121 3680 3749 42116 319 3442 1041 14186 190 136 736 1494 13076 30 447 144 345 8436 119 135 5809 2187 459 1624 12 115 1612 115 408 459 490 142 1125 69 125 3747 5 19 138 1049 862 46 48 627 33 61 379
internal_value=0 0.0289844 0.0838232 0.0259124 -0.0158641 0.0463037 0.0324995 0.0135993 0.0464435 0.0289162 0.0354541 -0.00158876 0.041653 0.0535251 0.0125423 0.0194522 0.0512375 0.046023 0.0502333 0.0537784 0.0736803 0.0461546 0.0573769 0.104885 -0.00379819 -0.0216545 0.0549523 0.00362947 -0.0265674 -0.0453604 0.0948894 0.110347 -0.0238722 0.119189 0.0677599 -0.0356642 -0.00711256 0.0642788 -0.0664939 -0.0234684 0.0711733 -0.0843435 0.143187 0.0480091 0.116749 0.0392258 0.124645 -0.058136 0.0636984 0.12247 -0.086752 -0.0586341 -0.0826481 -0.0862104 -0.113789 0.120084 -0.0929239 0.105004 -0.0941667 -0.0881653 -0.135513 -0.111546
internal_weight=0 51797.4 2747.67 49049.7 3290.17 55405.7 19029.3 8078.92 10950.4 45759.5 32702 4687.95 28014 36376.3 13057.6 11420.6 34968.5 28375.5 26292.2 9885.64 6593.03 2869.25 9577.67 2307.43 5686.56 1064.78 2392.36 5206.43 440.236 2432.25 3723.78 1407.77 1601.07 1337.77 857.919 1637 2083.32 2244.1 647.813 195.247 160.503 480.122 235.472 416.969 2112.18 622.446 1309.71 307.96 99.3585 125.32 831.186 70.0015 279.733 148.265 95.8889 2078.36 62.6982 16.1777 263.555 33.8245 28.058 35.1823
internal_count=268644 161856 8467 153389 14470 106788 44835 21808 23027 138919 83866 14399 69467 61953 55053 47325 60172 51732 45796 19564 8440 4854 18120 2941 15790 3463 6018 14042 5526 12710 3586 1781 8516 1385 1760 7728 5936 4386 2360 1397 649 1748 250 1103 1544 1510 1205 1444 336 240 4194 396 4877 1632 1061 1321 391 67 4810 223 180 409
is_linear=0
shrinkage=0.1


Tree=16
num_leaves=61
num_cat=0
split_feature=130 80 128 31 71 54 70 134 57 71 32 5 109 89 32 29 53 52 122 98 104 77 31 72 110 104 31 5 117 53 127 103 127 113 72 52 34 32 124 113 60 105 54 120 41 26 55 107 18 102 112 97 72 6 31 48 5 31 53 1
split_gain=723.315 955.164 757.64 555.368 475.872 839.235 549.04 478.496 425.2 420.093 383.344 353.889 343.111 298.267 389.626 365.267 261.448 256.842 246.092 243.511 242.762 239.949 238.285 262.445 229.959 211.948 191.119 188.132 313.643 185.111 157.654 151.886 144.533 141.189 140.697 222.672 139.285 118.005 100.816 122.113 189.038 91.3009 90.6332 86.8254 80.9056 54.1116 52.9081 48.7887 47.8361 47.6378 45.1865 44.3013 32.5892 47.288 19.4154 5.68361 84.9967 3.12114 0.823739 0.150716
threshold=1.0000000180025095e-35 -1.2534681558609007 1.0000000180025095e-35 1.0077291131019595 -0.20811654627323148 1.0598855614662173 -0.15394297987222669 1.0000000180025095e-35 0.91070374846458446 -0.4218395054340362 0.96758204698562633 -0.035902854055166238 -0.92509812116622914 -1.2771210074424741 0.96303322911262523 1.0615762472152712 1.1086271405220034 1.0732744336128237 -1.1481050848960874 -0.9514600634574889 -0.796880543231964 -1.2350670695304868 1.0143936276435854 -0.59958001971244801 -0.81334224343299855 -0.82930380105972279 0.99771377444267284 0.56369781494140636 -1.0588418841361997 1.1398399472236636 -2.180959820747375 -0.79321396350860585 -1.5443809628486631 -0.86956006288528431 -0.55242559313774098 1.0884388089179995 0.94087579846382152 0.95197838544845592 -1.6026049256324766 -1.0101460218429563 0.78090447187423717 -0.81152990460395802 0.99380338191986095 -1.7583023309707639 1.0626348257064822 1.0064009428024294 0.93876779079437267 -0.86689350008964527 1.0685558319091799 -0.87425675988197316 -0.92660561203956593 -0.82081708312034596 -0.541223645210266 0.51430687308311474 0.99910470843315136 1.2033101320266726 0.41180954873561865 0.96796736121177684 1.1086271405220034 0.33651883900165563
decision_type=2 2 2 2 2 2 2 2 2 2 2 2 2 2 2 2 2 2 2 2 2 2 2 2 2 2 2 2 2 2 2 2 2 2 2 2 2 2 2 2 2 2 2 2 2 2 2 2 2 2 2 2 2 2 2 2 2 2 2 2
left_child=2 13 3 4 5 6 -1 -7 17 12 25 43 30 24 15 16 -15 19 -14 46 -12 -17 34 49 32 -11 -21 28 -16 -13 -10 -29 33 -2 35 -5 38 -34 55 40 -40 52 -41 -6 -25 -19 -4 -43 -49 -24 -47 -36 59 -54 57 58 -57 -26 -3 -38
right_child=1 36 8 22 11 7 -8 -9 9 10 20 29 18 14 27 21 -18 45 -20 26 -22 -23 23 44 54 -27 -28 31 -30 -31 -32 -33 37 -35 51 -37 41 -39 39 42 -42 47 -44 -45 -46 50 -48 48 -50 -51 -52 -53 53 -55 -56 56 -58 -59 -60 -61
leaf_value=0.041869476700417234 0.1588844303322158 -0.1259985500352182 -0.051636247467397735 0.018497865047045824 0.058197758429579832 -0.0069079661438386786 0.11677784319885615 0.058993676602802428 -0.12963814413047361 0.1518923508370614 -0.10525442959234517 0.11886579999604813 -0.0049245277244909852 0.21651809976337094 0.10709480008578443 0.0092977219913408533 -0.11125661328670355 0.13113759801047523 0.091742858029480234 -0.065153021352328311 0.066009655981179541 -0.043014536747876003 -0.058285381346255209 0.11045666820885239 -0.10201330494227034 -0.03088233880162123 0.021100256094272039 0.063810292399039861 -0.025101605664482548 -0.060495504428003291 0.19437698099803058 0.16358754797047906 0.036739601132526924 -0.01790631476781292 0.1887596124719233 -0.076937371377458472 -0.12353892999952028 0.14289689189716784 -0.037988287992635705 -0.03401044960513179 0.19173232482657343 0.25255686657223125 -0.11519027737617503 -0.086358469790763628 -0.12918335829025909 -0.064086044866597552 -0.13699107799111662 -0.11826853250986094 0.2262250990464125 -0.12171018970447639 -0.11874758696438395 0.0056566430206148356 -0.048094101987901823 0.25795182597027327 0.040180639815311656 -0.11206410776058125 0.50435510758447133 -0.15492412771494846 -0.11411095181183691 -0.14192449212111871
leaf_weight=77183.768601872027 59.849087618291378 242.0230673328042 149.94266440719366 4410.5124318823218 63.636830115690827 5480.8654879946262 991.02450018003583 1378.9518634900451 16.001828327775002 65.808828819543123 90.524841465055943 1374.0868942458183 498.11569269374013 119.3896767180413 273.76863369718194 2453.2316079307348 30.565234523266554 12.066689515486358 558.77719154581428 312.27145631518215 965.56022473424673 1364.5268033742905 311.49374464526772 108.9308617413044 16.487153628841043 1766.2062621638179 1448.6090899966657 606.65661098435521 521.05328740924597 60.055343449115753 243.91890431940556 203.82299856841564 137.91546816006303 184.22042386233807 60.756129741668701 258.83025559410453 6.6415522173047092 434.96208640933037 386.06918962858617 212.1650826074183 39.48578429967165 24.829151622951031 390.94000585004687 119.71605231426656 16.181095898151398 448.80765697360039 140.82923066243529 9.3387605994939822 7.0917954444885245 191.05740315467119 228.09144575148821 16.886316664516926 18.880511101335291 6.8914626538753501 6.9686130285263053 67.473923668265343 2.3136181719601145 34.431318923830986 76.784426636993885 13.565865799784659
leaf_count=156645 63 1545 1525 12000 363 28908 1152 3750 102 137 396 1706 1632 147 540 7941 391 27 1129 1427 2642 6881 2113 195 947 8082 4141 1289 1838 617 297 195 332 529 91 1183 47 465 2157 1419 128 30 2317 1543 109 2535 802 91 2 987 1141 66 138 3 16 755 6 153 769 67
internal_value=0 0.00521278 0.0365599 0.0389636 0.0408983 0.0398763 0.0428191 0.0063395 0.00471218 0.0246873 0.00334456 0.0946302 0.0714973 0.0219537 0.0134323 -0.00338623 0.149708 -0.0259356 0.0461833 -0.00819546 0.0513293 -0.0093995 0.00777126 -0.0501341 0.0762384 -0.0243168 0.00580425 0.0550014 0.0204322 0.111355 0.174429 0.0889027 0.089886 0.0254451 0.0154277 0.0132077 -0.0665342 0.11734 -0.0740832 -0.0576903 -0.0166733 0.0561037 -0.0866322 -0.0361869 0.0794633 -0.0787633 -0.0929761 0.164098 0.0304226 -0.0823979 -0.0825051 0.148937 -0.0408051 0.033743 -0.116367 -0.117477 -0.0916284 -0.137792 -0.123135 -0.135882
internal_weight=0 7952.34 98972.3 92026.8 86652.1 85034.6 78174.8 6859.82 6945.53 4204.91 2888.1 1617.5 1316.81 6447.85 5573.01 3967.71 149.955 2740.62 1056.89 2051.65 1056.09 3817.76 5374.65 627.663 874.834 1832.02 1760.88 1605.3 794.822 1434.14 259.921 810.48 816.947 244.07 4746.99 4669.34 1504.49 572.878 1417.26 1028.66 425.555 87.2391 603.105 183.353 125.112 688.966 290.772 41.2597 16.4306 502.551 676.899 77.6424 45.9794 25.772 57.8871 388.595 69.7875 50.9185 318.807 20.2074
internal_count=268644 31201 237443 211428 194684 190455 157797 32658 26015 14417 11257 4229 3160 21727 19222 15360 538 11598 2761 7895 3038 14822 16744 3404 2505 8219 5568 3862 2378 2323 399 1484 1389 592 13340 13183 9474 797 9096 6021 2285 378 3736 1906 304 3703 2327 123 93 3100 3676 157 255 141 1116 3075 761 1100 2314 114
is_linear=0
shrinkage=0.1


Tree=17
num_leaves=63
num_cat=0
split_feature=52 71 74 97 33 133 71 99 37 5 123 124 105 50 31 7 99 96 70 114 76 31 0 71 45 135 122 122 118 1 110 69 81 114 34 81 34 54 121 116 49 45 97 127 28 0 125 9 127 32 79 70 109 125 87 54 105 110 71 111 109 92
split_gain=664.704 795.249 582.366 712.043 666.08 573.92 952.788 604.71 772.99 994.617 756.92 551.213 535.39 499.14 447.58 427.884 423.329 402.081 345.708 340.004 675.373 334.718 300.352 289.672 273.697 272.219 376.295 500.492 249.595 246.903 207.101 189.207 187.845 266.493 181.973 181.447 154.119 145.622 144.649 185.889 136.284 131.564 119.701 237.272 104.808 103.695 102.969 96.0359 87.0366 80.9984 74.6024 72.2152 52.0517 43.6929 34.977 32.9046 28.8341 22.382 16.8033 15.305 7.43911 1.03129
threshold=1.0669241547584536 -0.23126561194658277 -0.82481232285499562 -0.85801640152931202 0.86050257086753856 1.0000000180025095e-35 -0.40948042273521418 -0.87980720400810231 0.92772763967514049 0.5911059081554414 -1.3843578696250913 -1.5980637669563291 -0.85322701930999745 1.1820225715637209 1.0155245661735537 0.63471058011055004 -0.89761880040168751 -0.87749010324478138 -0.070392712950706468 -1.1931136250495908 -0.89526215195655812 1.004472613334656 0.32903909683227545 -0.3564405739307403 1.0884205698966982 1.0000000180025095e-35 -1.3294234275817869 -1.4402127861976621 -1.4904698133468626 0.51191484928131115 -1.1878089308738706 -0.11465609818696974 -0.96284753084182728 -1.1710889935493467 0.91660019755363475 -0.20820534974336621 0.83220088481903087 1.1067215204238894 -1.2716487646102903 -1.1687248349189756 1.1812099218368532 1.1076373457908633 -0.81265723705291737 -2.3385119438171382 1.1695343255996706 0.3761782199144364 -1.9801145792007444 0.63833972811698925 -3.4167352914810176 0.91748175024986278 -0.81778880953788746 -0.057245355099439614 -1.1273041963577268 -1.7525625228881834 -0.99679809808731068 0.91722345352172863 -0.83056956529617298 -1.1803941726684568 -0.44065248966217035 -1.2154164314270017 -1.1247471570968626 -0.94572076201438893
decision_type=2 2 2 2 2 2 2 2 2 2 2 2 2 2 2 2 2 2 2 2 2 2 2 2 2 2 2 2 2 2 2 2 2 2 2 2 2 2 2 2 2 2 2 2 2 2 2 2 2 2 2 2 2 2 2 2 2 2 2 2 2 2
left_child=2 5 3 11 22 7 21 15 10 -10 -9 45 23 30 17 24 -17 -13 28 20 29 46 36 -8 -2 26 27 -5 59 -6 40 -22 33 -21 -14 37 58 -20 39 -27 52 -23 55 -44 -28 47 -7 -1 51 -34 -38 -32 -3 -47 -16 -24 -30 -50 -4 -15 -42 -40
right_child=1 13 4 25 19 6 12 8 9 -11 -12 14 34 18 54 16 -18 -19 35 32 31 41 42 -25 -26 38 44 -29 56 -31 48 -33 49 -35 -36 -37 50 -39 61 -41 60 -43 43 -45 -46 53 -48 -49 57 -51 -52 -53 -54 -55 -56 -57 -58 -59 -60 -61 -62 -63
