tree
version=v4
num_class=1
num_tree_per_iteration=1
label_index=0
max_feature_idx=136
objective=binary sigmoid:1
feature_names=Column_0 Column_1 Column_2 Column_3 Column_4 Column_5 Column_6 Column_7 Column_8 Column_9 Column_10 Column_11 Column_12 Column_13 Column_14 Column_15 Column_16 Column_17 Column_18 Column_19 Column_20 Column_21 Column_22 Column_23 Column_24 Column_25 Column_26 Column_27 Column_28 Column_29 Column_30 Column_31 Column_32 Column_33 Column_34 Column_35 Column_36 Column_37 Column_38 Column_39 Column_40 Column_41 Column_42 Column_43 Column_44 Column_45 Column_46 Column_47 Column_48 Column_49 Column_50 Column_51 Column_52 Column_53 Column_54 Column_55 Column_56 Column_57 Column_58 Column_59 Column_60 Column_61 Column_62 Column_63 Column_64 Column_65 Column_66 Column_67 Column_68 Column_69 Column_70 Column_71 Column_72 Column_73 Column_74 Column_75 Column_76 Column_77 Column_78 Column_79 Column_80 Column_81 Column_82 Column_83 Column_84 Column_85 Column_86 Column_87 Column_88 Column_89 Column_90 Column_91 Column_92 Column_93 Column_94 Column_95 Column_96 Column_97 Column_98 Column_99 Column_100 Column_101 Column_102 Column_103 Column_104 Column_105 Column_106 Column_107 Column_108 Column_109 Column_110 Column_111 Column_112 Column_113 Column_114 Column_115 Column_116 Column_117 Column_118 Column_119 Column_120 Column_121 Column_122 Column_123 Column_124 Column_125 Column_126 Column_127 Column_128 Column_129 Column_130 Column_131 Column_132 Column_133 Column_134 Column_135 Column_136
feature_infos=[-1.8014661073684692:1.5536434650421143] [-1.7160434722900391:1.5276378393173218] [-1.6382262706756592:1.5042563676834106] [-1.5680137872695923:1.4834985733032227] [-1.5054070949554443:1.465364933013916] [-1.4504051208496094:1.4498553276062012] [-1.4123568534851074:1.6617363691329956] [-1.3844102621078491:1.7939627170562744] [-1.3517893552780151:2.0758624076843262] [-1.3099035024642944:2.0974209308624268] [-1.2559221982955933:1.9997674226760864] [-1.1870334148406982:2.073509693145752] [-1.1039742231369019:2.1457490921020508] [-1.0067610740661621:2.2142360210418701] [-0.90047705173492432:2.2825961112976074] [-0.78966546058654785:2.4052433967590332] [-0.67814630270004272:2.5269482135772705] [-0.65620064735412598:2.5277442932128906] [-0.66012513637542725:2.5653238296508789] [-0.66667592525482178:2.5221147537231445] [-0.66619455814361572:2.4413206577301025] [-0.67410272359848022:2.3840618133544922] [-0.67530190944671631:2.2409591674804688] [-0.7797551155090332:2.1787192821502686] [-1.0841877460479736:2.1696581840515137] [-1.4308524131774902:2.0883691310882568] [-1.6366665363311768:1.9448176622390747] [-1.8254417181015015:1.7312250137329102] [-1.9454965591430664:1.5516149997711182] [-2.2033448219299316:1.3473584651947021] [-2.6534385681152344:1.1459542512893677] [-2.9375624656677246:1.0691677331924438] [-2.8964071273803711:1.0182701349258423] [-2.6209216117858887:1.0153312683105469] [-1.9672813415527344:1.0222163200378418] [-1.2877312898635864:1.0987448692321777] [-0.66409575939178467:1.3781088590621948] [-0.67050886154174805:1.4172744750976562] [-0.67336314916610718:1.4686216115951538] [-0.67729061841964722:1.427788257598877] [-0.67367839813232422:1.3506048917770386] [-0.67713803052902222:1.3033223152160645] [-0.67526406049728394:1.4334096908569336] [-0.67822211980819702:1.6771683692932129] [-0.67549598217010498:1.8418123722076416] [-0.67939788103103638:1.9795904159545898] [-0.67687302827835083:1.8671952486038208] [-0.68031680583953857:1.7601110935211182] [-0.67738151550292969:1.8138210773468018] [-0.6802976131439209:2.0951991081237793] [-0.67868822813034058:2.3221406936645508] [-0.68411111831665039:2.3866791725158691] [-0.6882440447807312:2.3278176784515381] [-0.69760811328887939:2.41339111328125] [-0.68820065259933472:2.0181429386138916] [-0.66555494070053101:1.7058380842208862] [-0.63047897815704346:1.5109990835189819] [-0.79989981651306152:1.3641012907028198] [-0.9627259373664856:1.3483799695968628] [-0.83332031965255737:1.3266682624816895] [-0.62303602695465088:1.2987289428710938] [-0.62908732891082764:1.6912268400192261] [-0.65896600484848022:1.8743280172348022] [-0.67422842979431152:1.7138135433197021] [-0.93073725700378418:1.3433690071105957] [-1.1305865049362183:1.0751444101333618] [-1.2290370464324951:0.99085426330566406] [-1.5406250953674316:0.88485002517700195] [-1.6781172752380371:0.75389385223388672] [-1.8947262763977051:0.60495084524154663] [-1.7363165616989136:0.45876148343086243] [-1.6730015277862549:0.33052113652229309] [-1.5550380945205688:0.23037496209144592] [-1.4402464628219604:0.15855956077575684] [-1.4517455101013184:0.2961885929107666] [-1.6804615259170532:0.9557119607925415] [-1.8599822521209717:1.4404212236404419] [-2.0371255874633789:1.2026444673538208] [-2.1728529930114746:1.1271375417709351] [-2.2573421001434326:0.66064220666885376] [-2.3058340549468994:0.36351838707923889] [-2.3315773010253906:0.28676301240921021] [-2.3403120040893555:0.33890664577484131] [-2.3343968391418457:0.39074629545211792] [-2.3124566078186035:0.43792322278022766] [-2.2730567455291748:0.47703936696052551] [-2.2140905857086182:0.50853937864303589] [-2.1362462043762207:0.53271615505218506] [-2.0426793098449707:0.67684948444366455] [-1.9374580383300781:0.56802195310592651] [-1.8240519762039185:0.65060514211654663] [-1.8478662967681885:1.0689502954483032] [-1.6520191431045532:1.4166257381439209] [-1.5958865880966187:1.6290324926376343] [-1.5394163131713867:1.6649528741836548] [-1.4922878742218018:1.6163880825042725] [-1.4531639814376831:1.5605852603912354] [-1.4315723180770874:1.5597559213638306] [-1.414076566696167:1.5645072460174561] [-1.5388252735137939:1.5648646354675293] [-2.0638625621795654:1.5687597990036011] [-2.4585905075073242:1.5680602788925171] [-2.604130744934082:1.5700795650482178] [-2.5047333240509033:1.5662518739700317] [-2.1062953472137451:1.5664080381393433] [-1.4475361108779907:1.5610309839248657] [-1.2213733196258545:1.5632989406585693] [-1.1123948097229004:1.561995267868042] [-1.1654683351516724:1.5723429918289185] [-1.225186824798584:1.5757462978363037] [-1.3164699077606201:1.5835809707641602] [-1.5990560054779053:1.5860384702682495] [-2.1418814659118652:1.5904537439346313] [-2.4733853340148926:1.5886306762695312] [-2.5047738552093506:1.5870387554168701] [-2.0072333812713623:1.5865405797958374] [-1.5772113800048828:1.5868538618087769] [-1.6319060325622559:1.7016431093215942] [-1.6864286661148071:2.5795986652374268] [-1.7459897994995117:2.8008601665496826] [-1.8207311630249023:2.5472877025604248] [-1.9267433881759644:1.7488086223602295] [-2.1567583084106445:1.6308574676513672] [-2.3918964862823486:1.6220458745956421] [-2.6616356372833252:1.8138364553451538] [-2.9659750461578369:2.1341862678527832] [-3.3559722900390625:2.7791450023651123] [-3.8531808853149414:3.7871904373168945] [0:1] [0:1] [0:1] [0:1] [0:1] [0:1] [0:1] [0:1] [0:1]
tree_sizes=5747 5342 5560 5847 6525 6165 6662 6726 6486 6808 6811 6566 6880 6573 6907 6653 6562 6690 6390 6586 6867 6928 6816 6894 6914 6701 6751 6910 6901 6147 6917 5590 6811 5460 6012 5919 6067 6335 6518 6930 5715 5794 5701 6078 6576 4744 5999 5488 4919 6020 5823 6226 5413 5479 4098 5792 5103 6515 5621 6921 4406 6878 6713 6509 6231 6777 6666 5218 4746 5675 4397 6939 5810 6575 6025 6679 6009 5665 6568 6959 4775 6314 5721 5728 6105 3759 6600 5235 5414 6865 5492 6759 6586 5191 6891 6711 6938 6799 3874 6642 6810 6054 6030 6337 6446 5401 6785 6787 6038 6323 5454 5925 5802 6936 6923 5398 6928 6781 5600 6056 6937 5801 5739 6818 6707 3880 6931 6666 5734 5689 5501 5685 6123 4399 6881 6840 6209 6059 5718 6790 6223 5691 6563 6950 6624 4201 6850 6550 6945 6461 5612 6935 6906 6905 6801 6939 5920 4302 6605 5733 5537 6756 6630 6969 6885 5747 4199 6372 6082 6560 6563 4420 5727 6846 6833 5610 5511 6401 4723 6354 6670 6350 6817 6705 6220 6667 6894 5815 6696 4206 5614 6987 6233 6819 6927 6078 6067 4605 4322 6331

Tree=0
num_leaves=53
num_cat=0
split_feature=53 115 53 103 130 131 29 132 136 69 128 47 135 134 71 109 104 53 110 53 78 105 123 136 72 5 106 110 70 107 71 3 28 31 29 111 42 8 43 104 55 34 45 108 127 0 16 8 34 11 21 15
split_gain=88905.6 34238.7 26678.3 45334.6 18628.5 17516.2 13078.3 11502.8 14263.1 10299.4 9792.48 9607.68 7333.08 6275.7 7239.13 6124.06 5463.45 4764.85 4347.36 4003.47 3272.45 2716.09 2251.46 2159.59 2133.02 2041.56 2033.67 1792.99 1317.51 1253.42 1040.02 781.679 762.473 643.548 447.17 421.284 414.869 411.075 369.389 351.157 328.316 263.712 261.502 113.422 107.278 5.68434e-14 5.68434e-14 1.42109e-14 7.10543e-15 3.55271e-15 1.77636e-15 8.88178e-16
threshold=1.0213091969490053 -0.82499992847442616 1.1088080406188967 -0.69869661331176747 1.0000000180025095e-35 1.0000000180025095e-35 1.2307488322257998 1.0000000180025095e-35 1.0000000180025095e-35 -0.032800249755382531 1.0000000180025095e-35 1.1864669919013979 1.0000000180025095e-35 1.0000000180025095e-35 -0.19056625664234159 -1.1246888637542722 -0.84434750676155079 1.1249150633811953 -1.1973174214363096 1.0525727868080141 -1.3115018010139463 -0.83966800570487965 -1.563997685909271 1.0000000180025095e-35 -0.37042059004306788 0.80585941672325145 -0.90175920724868763 -1.0037103295326231 -0.34943975508213038 -0.89258006215095509 -0.45303733646869654 0.047140659764409072 1.1304140090942385 0.9971827268600465 0.98623606562614452 -1.1313714385032652 1.0826415419578554 0.71375983953475963 1.0609779953956606 -0.76091560721397389 0.94847670197486889 0.83604645729064953 1.1340883374214175 -1.0640954375267027 -1.4363176226615904 1.0685775279998782 1.5141348838806155 1.1484062671661379 0.85749876499176036 1.1534376144409182 1.4606898427009585 1.1792142391204836
decision_type=2 2 2 2 2 2 2 2 2 2 2 2 2 2 2 2 2 2 2 2 2 2 2 2 2 2 2 2 2 2 2 2 2 2 2 2 2 2 2 2 2 2 2 2 2 2 2 2 2 2 2 2
left_child=1 4 3 7 5 6 10 8 9 -2 -1 18 13 14 23 31 29 -16 -9 -10 28 -13 27 -4 39 -8 34 -15 33 -7 38 48 -22 -6 -14 -32 -24 -18 -28 -17 -34 -26 -36 -33 -30 46 -3 49 -5 51 -48 -47
right_child=2 45 12 15 20 16 25 11 19 -11 -12 21 26 22 17 24 37 -19 -20 -21 32 -23 36 -25 41 -27 30 -29 44 -31 35 43 40 -35 42 -37 -38 -39 -40 -41 -42 -43 -44 -45 -46 47 50 -49 -50 -51 -52 -53
leaf_value=-1.6455470451456955 -2.1420170354863144 -2.7726161369818576 -2.6474049538277225 -2.7726161369818576 -2.7726161369818576 -2.5582268828109243 -2.4653135645667192 -2.7353995384148502 -1.7803002382036504 -2.5746165314319689 -2.3852904617293729 -2.6284867063787525 -1.4311520270890252 -2.1176716417165466 -1.4350374719952081 -1.1279161059881748 -1.9036007258895133 -2.4140567649346396 -1.6557333670975309 -2.0348578372586239 -1.3461849436204401 -1.6273186830094057 -2.0291534649893834 -2.1382321872935282 -1.6069866150858878 -1.901228606313587 -1.5309417852869704 -1.4267068153192353 -2.7726161369818576 -2.2305829997157036 -1.9992818736928206 -2.262743581350013 -2.6240405094682089 -1.6152846855452938 -1.4858983739177869 -1.2868061300508118 -2.6675407941777798 -1.3902612890717596 -2.7726161369818576 -2.6484071628418335 -2.2874691974492647 -1.1614562255354395 -2.6118032570584431 -1.5088213047319632 -1.9393280876961945 -2.7726161369818572 -2.7726161369818576 -2.7726161369818576 -2.7726161369818576 -2.7726161369818576 -2.7726161369818576 -2.7726161369818576
leaf_weight=11080.288216065615 10462.76527601108 244.36066887900233 1446.8023252487183 12.889888480305673 5.1681156642734996 167.6558715030551 229.25122056156397 38.631813365966082 1319.9278719238937 580.90810270607471 181.88696053251624 159.60595239326358 4.2870910353958598 72.442130763083696 89.215544767677784 1.7483366727828968 19.853429593145847 112.27387835085392 1077.4562361799181 1161.4858626946807 5.0396566502749911 32.638998549431562 13.536944366991518 88.388180274516344 13.567940149456261 89.097227726131678 3.4737240597605687 77.981005612760782 14.774730663746597 384.61297974362969 9.2957519032061082 2.8198118805885315 261.27506427839398 68.326111633330584 2.2347475588321712 77.412034284323454 41.048965007066727 72.804843451827765 7.7217728160321712 11.575207829475401 32.598766066133976 638.04185172170401 26.821446590125561 6.8258453980088216 1.7253873869776715 2.1888489872217205 1.4592326581478108 35.264789238572121 15.200340189039705 23.408523891121149 11.005046296864746 2.3712530694901943
leaf_count=66041 110692 4019 22110 212 85 2423 3115 622 9522 8484 2336 2411 17 750 357 2 166 1472 6524 11130 16 189 129 932 76 743 17 306 243 4386 86 33 3936 388 10 203 635 261 127 177 389 929 401 32 15 36 24 580 250 385 181 39
internal_value=-2.66566 -1.7512 -2.09649 -2.05153 -1.72528 -1.70361 -1.67536 -2.08871 -2.11609 -2.16477 -1.65749 -1.80557 -2.43346 -2.48236 -2.54412 -1.26667 -2.21083 -1.98057 -1.6931 -1.89945 -2.40663 -2.45851 -1.9591 -2.61809 -1.19634 -2.30744 -1.71003 -1.75947 -1.87796 -2.33005 -1.4803 -2.50591 -2.56579 -1.69667 -2.38454 -1.36319 -2.50922 -1.50025 -2.38735 -2.44889 -2.58671 -1.17073 -2.52521 -1.72922 -2.68548 -2.77262 -2.77262 -2.77262 -2.77262 -2.77262 -2.77262 -2.77262
internal_weight=0 12934.4 17609 15536.1 12614.4 12225.5 11580.5 14833.4 13525.1 11043.7 11262.2 1308.33 2072.94 1941.69 1736.68 702.669 644.927 201.489 1116.09 2481.41 388.908 192.245 205.009 1535.19 664.933 318.348 131.247 150.423 89.9943 552.269 97.9033 37.7359 298.913 73.4942 33.3433 86.7078 54.5859 92.6583 11.1955 13.3235 293.874 651.61 29.0562 9.64566 16.5001 320.058 256.825 63.2334 28.0902 27.9686 12.4643 4.5601
internal_count=268644 89807 178837 151285 84543 79471 72235 149574 139828 119176 68377 9746 27552 26691 24871 1711 7236 1829 7146 20652 5072 2600 1820 23042 1184 3858 861 1056 731 6809 433 527 4341 473 428 289 764 427 144 179 4325 1005 411 65 258 5264 4224 1040 462 460 205 75
is_linear=0
shrinkage=1


Tree=1
num_leaves=49
num_cat=0
split_feature=53 116 31 52 118 52 69 28 110 25 133 109 101 69 57 0 82 33 30 69 4 115 112 0 77 70 107 128 2 72 109 33 31 107 32 12 70 54 70 25 108 52 70 24 107 52 51 0
split_gain=9949.65 6165.27 5237.22 4162.01 4618.57 3286.49 7295.2 4159.58 2901.58 2788.54 2782.27 2651.14 2506.54 2486.94 2693.22 2100.3 1696.66 1679.38 1135.03 1218.82 1187.56 996.567 1388.94 941.339 907.353 741.275 1640.52 565.757 538.591 519.338 512.459 477.711 355.599 235.951 217.751 217.616 386.758 195.767 181.186 266.382 143.316 127.952 115.925 86.2554 35.682 0.00758584 5.83119e-05 5.68434e-14
threshold=1.0734431743621828 -0.81659883260726918 1.0077347159385683 1.1437829136848452 -1.4750123023986814 1.0201781392097475 -0.21669699996709821 1.2441993951797488 -1.1938187479972837 1.2587778568267824 1.0000000180025095e-35 -1.1014991998672483 -0.9000180959701537 -0.015392753295600413 0.92413294315338146 0.44676791131496435 -1.0963563919067381 0.94881942868232738 1.0607866644859316 -0.12648203223943708 0.59679108858108532 -1.448076009750366 -1.2180169224739072 0.39091557264328008 -1.2691078186035154 -0.24309746176004407 -0.98387157917022694 1.0000000180025095e-35 0.27066098153591162 -0.68998590111732472 -1.0745323896408079 0.76402440667152416 1.0122125148773196 -0.97473901510238636 0.96935173869133007 1.0993178486824038 -0.55855846405029286 0.99103063344955455 -0.17407797276973722 1.125511705875397 -0.95968437194824208 1.1303945779800417 -0.069462936371564851 1.7278810143470766 -0.99848273396491993 0.96164155006408703 0.85498031973838817 0.76912808418273937
decision_type=2 2 2 2 2 2 2 2 2 2 2 2 2 2 2 2 2 2 2 2 2 2 2 2 2 2 2 2 2 2 2 2 2 2 2 2 2 2 2 2 2 2 2 2 2 2 2 2
left_child=1 2 5 4 8 7 10 24 38 -8 -7 27 29 14 23 -9 35 -16 19 -14 -20 30 -23 -6 -1 41 -27 31 33 37 -18 -5 -31 -15 -30 40 -37 -4 39 -2 -13 -10 -33 45 -40 46 47 -3
right_child=3 43 12 11 13 6 9 15 25 -11 -12 16 18 28 17 -17 21 -19 20 -21 -22 22 -24 -25 -26 26 -28 -29 34 32 -32 42 -34 -35 -36 36 -38 -39 44 -41 -42 -43 -44 -45 -46 -47 -48 -49
leaf_value=0.29044157237355278 0.61829737169025656 -0.10624983219635076 0.046807037657305081 0.78293722124827692 0.15116986118673878 0.2398265054086926 0.42157016900227806 0.11405118624300724 0.57540198386454433 0.33835118569943401 -0.011333552254797525 1.0227740155354119 0.60957764932054337 -0.10981567205608832 0.25976459208028663 0.3688188279140589 0.4741408631492714 0.45898166077980423 0.17529953039446486 0.2789811259802808 0.32561049955086852 0.026572098767706567 0.30162998831151266 -0.10275013142956393 0.46630371018447153 0.21899552999028429 0.42199450357790769 0.94574970394365643 -0.092321452257470835 0.34495439483824664 1.1275576460468864 -0.10439258218490516 0.031299671139905068 0.56840216800002397 0.1089990279414188 -0.10968960045507276 1.4399991104133003 -0.11183605699105517 -0.10775795603002805 0.022429572801299608 -0.040960338886625258 0.84955591110532469 0.036817829592174847 0.51075324381886689 0.0081906303861611126 -0.11372243153831579 -0.10699252268137026 -0.10624983219635076
leaf_weight=306.68366092070937 9.8128057494759542 72.302749060094357 436.24363946169615 6.3770127445459357 1208.1494938582182 2287.957911606878 5748.7488657347858 333.03142641484737 140.78230897709727 13440.631455786526 546.39041851088405 1.2723767608404148 199.20098762959242 6.7842539176344898 4296.5721908733249 11412.695538491011 58.155052311718464 469.37749420106411 1058.7984697781503 253.34815406054258 1043.795826241374 253.44758886098862 666.00709711760283 166.06849654763937 6763.5903425440192 479.9603084474802 2334.2175887264311 5.4546367675065985 283.67838872969151 96.163253024220467 15.124180987477301 487.38564171642065 57.914472706615925 21.032019667327404 66.278585709631443 3.8130394369363785 2.7879792600870124 94.664418116211891 97.154117755591869 31.865958780050278 277.28258379548788 19.365654699504375 66.009439140558243 2.2831797972321501 36.516924344003201 1.3658752925693978 1.0610342472791661 217.35114303976297
leaf_count=1420 40 1306 3688 6 9252 13058 27916 1782 139 65167 4133 7 743 91 31574 36195 183 3100 7405 1659 5504 3247 4173 1821 13798 2997 2368 22 4329 327 45 7782 392 81 864 50 5 1007 1535 341 4030 19 585 4 496 14 18 3926
internal_value=0 0.354628 0.357674 0.250292 0.276548 0.367383 0.341163 0.398074 0.375977 0.363282 0.191409 0.112577 0.2353 0.2285 0.243822 0.361595 0.19234 0.279385 0.28084 0.424502 0.249919 0.254096 0.22581 0.120485 0.458675 0.399282 0.387373 -0.0677562 -0.02053 0.0654277 0.609 -0.0776322 0.227058 0.402988 -0.0541932 -0.0226536 0.544831 0.0185199 -0.0193217 0.16272 -0.0361014 0.608554 -0.0875489 -0.101502 -0.0760825 -0.106287 -0.106253 -0.10625
internal_weight=0 44374.2 44079.9 11510.7 9667.62 40839.7 22023.7 18816 3149.68 19189.4 2834.35 1843.12 3240.13 6517.94 6140.17 11745.7 1277.89 4765.95 2555.14 452.549 2102.59 992.734 919.455 1374.22 7070.27 2974.33 2814.18 565.227 377.773 684.986 73.2792 559.772 154.078 27.8163 349.957 285.156 6.60102 530.908 175.35 41.6788 278.555 160.148 553.395 294.364 133.671 292.081 290.715 289.654
internal_count=268644 189462 184194 79182 59047 163469 110274 53195 7935 93083 17191 20135 20725 51112 45747 37977 11740 34674 15311 2402 12909 7648 7420 11073 15218 5523 5365 8395 5365 5414 228 8373 719 172 5193 4092 55 4695 2412 381 4037 158 8367 5268 2031 5264 5250 5232
is_linear=0
shrinkage=0.1


Tree=2
num_leaves=51
num_cat=0
split_feature=53 102 115 110 30 72 53 103 5 54 133 71 35 75 29 28 32 101 107 11 74 0 2 82 2 132 134 56 51 27 29 105 70 0 20 114 128 35 108 132 108 93 113 0 56 110 54 35 53 50
split_gain=5982 4688.66 3638.31 3028.13 2819.76 2370.65 2155.8 2852.49 2108.23 1883.08 1696.49 2674.08 2350.3 1493.84 1031.38 991.08 869.473 804.806 722.658 720.681 654.196 604.591 1111.4 532.797 518.59 501.779 484.794 342.314 322.653 276.177 245.905 304.44 165.033 141.789 274.765 137.101 125.77 117.869 139.308 83.9262 66.3406 47.2823 42.3547 41.6758 19.8129 0.0743449 0.0523838 0.000833149 2.01137e-06 1.57115e-10
threshold=1.0409356951713564 -0.84335890412330616 -0.82499992847442616 -1.1938187479972837 1.0932468771934511 -0.56096315383911122 0.97965341806411754 -0.89540883898735035 0.60157936811447155 0.90849640965461742 1.0000000180025095e-35 -0.40691410005092615 0.89447534084320079 -1.0382416248321531 1.2356600165367129 1.0672912597656252 0.91683271527290355 -0.89455339312553395 -0.79031503200530995 0.80566099286079418 -1.0322253108024595 0.43438787758350378 0.51844894886016857 -1.2853271961212156 0.6517024338245393 1.0000000180025095e-35 1.0000000180025095e-35 0.91077080368995678 1.142967224121094 0.90996903181076061 1.1976975202560427 -0.90522387623786915 -0.17407797276973722 0.37963862717151647 1.3740062117576601 -0.94883257150650013 1.0000000180025095e-35 0.87404486536979686 -1.0798915624618528 1.0000000180025095e-35 -0.87818959355354298 -1.0478045940399168 -0.86977812647819508 0.40788444876670843 0.98222690820693981 -1.1973174214363096 0.99329471588134777 0.86662426590919506 0.80467125773429882 0.82332894206047069
decision_type=2 2 2 2 2 2 2 2 2 2 2 2 2 2 2 2 2 2 2 2 2 2 2 2 2 2 2 2 2 2 2 2 2 2 2 2 2 2 2 2 2 2 2 2 2 2 2 2 2 2
left_child=2 15 4 32 5 6 14 -8 10 13 12 -12 -5 20 -1 18 25 33 28 26 -6 23 -23 -10 -15 -7 -19 -18 41 -30 31 -11 37 34 -17 39 44 45 -39 -20 -32 -2 -35 -21 -34 -3 47 48 49 -4
right_child=1 3 46 8 9 16 7 -9 21 30 11 -13 -14 24 -16 17 27 19 35 43 -22 22 -24 -25 -26 -27 -28 -29 29 -31 40 -33 36 42 -36 -37 -38 38 -40 -41 -42 -43 -44 -45 -46 -47 -48 -49 -50 -51
leaf_value=0.29257330984373559 0.56923695437905841 -0.10949700086472836 -0.10561984558905363 0.26341988298582758 0.25560670233378419 0.16808778209338709 0.099315744961770369 0.2513059283938745 0.41894652481218719 0.10282916981183271 -0.0093319057083840768 0.25808136031388568 0.19356224947121758 0.22062796749109215 0.051847180835427248 -0.072906725928693447 0.39212602120348716 0.063946207459487509 -0.10905929943380022 0.70756285431654886 0.10247339278978723 0.028159696693673908 0.31437797903286202 0.052405806449875705 0.375081730269407 0.33856480874503347 0.29664405090741641 0.50969133094574359 0.49892224013138037 0.02620843050292055 -0.1120197505444593 -0.072727808522792745 -0.046822503092293494 -0.10089625241213865 0.42629045991250064 0.50798193701330496 0.37752010512612283 -0.013447685906377724 0.29263548396950317 0.52275330515408025 0.3724859914851209 0.78043376189800839 0.21168040088372198 0.44811499463522503 -0.10727037098645367 -0.1212031902686783 -0.11654215174454562 -0.10850459397614298 -0.10576003683793929 -0.10561859461038825
leaf_weight=16469.135305210948 18.916302345693111 16.63865052908659 262.51516884192824 7189.9360042326152 383.69955610483885 234.7642669454217 1323.641475982964 18395.249729141593 628.33299171179533 305.43902300298214 856.87993517890573 663.49771383777261 14587.195875454694 376.59606203436852 179.92468273639679 35.89029037207365 996.10009096562862 1891.4431929513812 35.930544164031744 15.733343601226808 1022.162991091609 155.83154688775539 1048.4860554262996 42.328246142715216 514.1931032910943 652.62235379219055 93.979327268898487 329.62178768217564 32.273423340171576 20.0296321362257 144.88297645002604 145.99369020760059 68.750248834490776 341.76135956123471 15.915440078824757 4.5615372881293288 5.7446413934230796 28.449768349528313 31.150577891618013 2.2330944277346125 2.882284238934516 24.113108053803444 4.3906900137662879 10.208556875586508 256.61558169126511 8.050096124410631 4.4744170680642119 1.0053478702902783 1.0273315459489811 1.0073418468236912
leaf_count=32722 51 226 5211 22905 1008 851 7001 61392 1666 1517 6832 3941 81760 1097 1325 380 1197 12594 542 20 4530 952 3705 275 910 968 415 651 43 213 1104 1067 1000 3478 60 8 11 289 132 3 5 29 24 36 4343 64 37 14 20 20
internal_value=0 0.200407 0.260065 0.213287 0.262447 0.26959 0.263475 0.241104 0.217706 0.167276 0.209496 0.107368 0.216626 0.208466 0.289972 0.071026 0.370076 0.056095 0.331596 0.0818032 0.144268 0.319718 0.277343 0.395813 0.309784 0.293464 0.0749609 0.421357 0.484761 0.317895 0.00940273 0.0460539 -0.0545065 -0.0738396 0.0804536 -0.0101585 -0.0863083 0.0704196 0.146529 -0.0720896 -0.102569 0.687589 -0.0969314 0.605466 -0.0944977 -0.113314 -0.105812 -0.105631 -0.10562 -0.10562
internal_weight=0 28135.3 41746.9 25587.9 41476.9 38581.1 36368 19718.9 25172.5 2895.85 23297.5 1520.38 21777.1 2296.65 16649.1 2547.38 2213.11 2409.32 138.058 2011.36 1405.86 1874.98 1204.32 670.661 890.789 887.387 1985.42 1325.72 95.3325 52.3031 599.198 451.433 415.4 397.958 51.8057 42.7252 331.11 84.2891 59.6003 38.1636 147.765 43.0294 346.152 25.9419 325.366 24.6887 270.03 265.555 264.55 263.523
internal_count=268644 145997 122647 128101 117345 106107 102440 68393 122036 11238 115438 10773 104665 7545 34047 17896 3667 17007 889 13065 5538 6598 4657 1941 2007 1819 13009 1848 336 256 3693 2584 6065 3942 440 553 5354 711 421 545 1109 80 3502 56 5343 290 5302 5265 5251 5231
is_linear=0
shrinkage=0.1


Tree=3
num_leaves=53
num_cat=0
split_feature=52 102 52 125 31 119 68 32 109 74 130 129 110 29 2 100 27 20 0 26 101 130 89 29 124 109 58 44 70 4 127 37 52 31 109 106 71 58 20 108 73 68 102 128 64 136 101 104 22 62 50 54
split_gain=3770.36 3091.27 2609.62 2253.21 1884.64 1799.08 1920.48 2225.11 1593.83 1400.76 2132.53 1607.23 1400.29 1363.42 1076.1 917.779 826.831 1350.44 715.714 714.336 691.11 526.335 531.197 478.247 474.953 465.484 460.752 487.602 426.199 401.027 336.31 227.388 222.894 196.385 167.004 237.993 153.522 141.734 136.156 127.059 109.017 73.0939 55.2018 29.3057 15.5695 0.142498 0.0776848 0.0129931 0.00497592 0.000174985 9.90326e-10 3.46745e-12
threshold=1.0631836056709292 -0.83878853917121876 1.1437829136848452 -0.41174125671386713 1.0075265765190127 -1.5211570858955381 0.10906339809298517 0.96197989583015453 -1.1036867499351499 -0.98851224780082692 1.0000000180025095e-35 1.0000000180025095e-35 -1.1938187479972837 1.2356600165367129 0.62531742453575145 -0.91949790716171254 1.2515765428543093 1.2785642743110659 0.42813746631145483 1.2793315649032595 -0.76137560606002797 1.0000000180025095e-35 -0.12464921176433562 1.1389790177345278 -1.5293255448341367 -1.1201097965240476 0.83515870571136486 1.0704740881919863 -0.27968952059745783 0.59359347820281994 -1.6594830751419065 0.99373868107795726 1.0739648342132571 1.0156003236770632 -0.90873998403549183 -0.92911881208419789 -0.72901606559753407 0.80075138807296764 0.98177632689476024 -0.9452601671218871 -0.44426767528057093 0.048803173005580909 -0.84974396228790272 1.0000000180025095e-35 0.51937085390090953 1.0000000180025095e-35 -0.89455339312553395 -0.87426775693893422 1.6860946416854861 0.46863737702369695 0.84309113025665294 0.75042796134948742
decision_type=2 2 2 2 2 2 2 2 2 2 2 2 2 2 2 2 2 2 2 2 2 2 2 2 2 2 2 2 2 2 2 2 2 2 2 2 2 2 2 2 2 2 2 2 2 2 2 2 2 2 2 2
left_child=3 16 5 4 9 12 7 -7 31 13 11 -11 40 14 -1 33 17 26 19 -19 -8 22 -10 29 -25 -14 28 -28 -2 -17 -12 44 -20 37 35 42 -15 -6 -33 -37 -3 -23 -18 -35 -4 46 -36 -47 49 50 51 -5
right_child=1 2 8 48 15 6 20 -9 21 10 30 -13 25 36 -16 23 34 18 32 -21 -22 41 -24 24 -26 -27 27 -29 -30 -31 -32 38 -34 43 45 39 -38 -39 -40 -41 -42 -43 -44 -45 -46 47 -48 -49 -50 -51 -52 -53
leaf_value=0.16099251322710606 -0.10151047075998031 0.049382398887318851 0.0078400658091617153 -0.1050565440661778 0.073886172502163991 0.14779584383136649 -0.054300097983947332 0.21660458196847082 0.14407129338124849 0.22804981961542672 -0.050128553918552601 0.012389500279029063 0.18072161299115638 0.06200621517063374 0.21421520100863067 0.094084635349557078 -0.10845035168741644 0.3522138758652138 0.10790368630635426 0.1500536879096073 0.10647426022309187 0.091909142234048682 -0.11621091651395186 0.22180156938031709 0.071763351811455198 0.25913023139170044 0.13815575118631582 0.023226727998611092 0.32007316533600844 0.22059593809326131 0.13815569656007037 -0.11490548471347035 -0.1119895675202294 -0.11473409226824689 -0.1121571658236919 0.14820177056438211 -0.097023814536531208 -0.052853985232053036 0.35559539358976533 0.0090569331963201837 -0.093731715456873019 -0.11028137190531227 0.0041077186125564108 0.099609390854506069 -0.10556936623849732 -0.11919401651869047 -0.11676825596699461 -0.12522585009506601 -0.11202093261061917 -0.10640307762516206 -0.1050533273990205 -0.10505636207680856
leaf_weight=7364.9535589665174 287.34645531326532 111.60218442976475 12.408412270247934 234.11483286693692 435.62146556004882 13823.443655300885 483.92212330549955 7120.4085463583469 1373.4737551286817 27726.537468709052 316.23811572790146 349.93288744986057 951.52784744650126 94.243173956871033 7845.835301682353 317.98734831064939 164.13083992898464 314.26036190241575 119.81445568054914 393.83301682397723 597.48552376031876 21.261347696185112 83.156384170055389 278.31249141693115 872.11195822805166 3706.2528887689114 591.50691947713494 982.01820354908705 26.1631223782897 1181.6770352497697 135.52017876505852 9.3770885206758994 74.923013791441917 98.592151001095772 99.256791662424803 102.76640133559704 170.5692567974329 110.64749667048454 17.875149212777615 181.57932082936168 101.75868280604482 112.41339123249054 59.318248815834522 6.8199255466461173 495.65052642300725 5.0641722753644016 57.820509523153305 12.113499179482458 1.0319970399141301 0.96902946382760902 0.96156052872538467 1.0537110231816758
leaf_count=22824 2648 1052 169 5110 2667 61914 4690 26819 8085 55035 2306 1724 2719 541 15781 1539 1348 873 639 1932 5550 204 792 711 4418 3460 2735 6647 96 3500 849 106 884 984 1077 573 1595 874 41 1263 1746 1363 418 63 7605 39 479 76 18 19 21 23
internal_value=0 0.157544 0.168212 0.201741 0.203286 0.176642 0.164479 0.171189 0.0615455 0.208753 0.221894 0.225362 0.231637 0.184529 0.188445 0.130419 0.0683684 0.0924974 0.193082 0.239775 0.0345289 0.111785 0.129212 0.156563 0.108061 0.243112 0.0443736 0.0664299 -0.0663283 0.193771 0.00635367 -0.0877049 0.0233023 0.0241003 -0.0303294 -0.00134241 -0.0404272 0.0482148 0.193703 0.0593458 -0.0188733 -0.0781224 -0.07857 -0.100867 -0.1028 -0.1148 -0.113855 -0.123448 -0.105092 -0.105062 -0.105057 -0.105057
internal_weight=0 32493.9 29022 47543.7 47305.6 26896.4 22025.3 20943.9 2125.62 44003.8 28528.2 28076.5 4871.14 15475.6 15210.8 3301.77 3471.92 2789.87 902.831 708.093 1081.41 1590.3 1456.63 2650.09 1150.42 4657.78 1887.03 1573.53 313.51 1499.66 451.758 535.311 194.737 651.681 682.05 507.795 264.812 546.269 27.2522 284.346 213.361 133.675 223.449 105.412 508.059 174.255 157.077 17.1777 238.131 237.099 236.13 235.169
internal_count=268644 148042 126315 120602 115411 107950 98973 88733 18365 100655 59914 56759 8977 40741 38605 14756 21727 16454 4328 2805 10240 10444 8877 10168 5129 6179 12126 9382 2744 5039 3155 7921 1523 4588 5273 3602 2136 3541 147 1836 2798 1567 1766 1047 7774 1671 1556 115 5191 5173 5154 5133
is_linear=0
shrinkage=0.1


Tree=4
num_leaves=60
num_cat=0
split_feature=130 77 38 32 119 53 103 30 34 32 32 54 70 74 132 56 102 29 122 115 126 71 136 70 136 102 38 113 31 74 28 81 111 71 90 110 53 45 105 109 118 25 127 70 0 33 68 75 115 77 70 3 9 53 24 33 23 52 36
split_gain=2736.76 3080.02 2382.85 1414.5 1322.26 1420.6 2731.73 1757.49 1265.42 996.75 905.48 872.381 831.983 823.272 715.943 618.851 497.317 494.782 489.938 535.856 472.107 449.888 439.86 429.546 415.209 473.061 403.231 307.308 301.451 305.241 296.549 278.781 436.405 276.164 269.495 260.299 258.912 247.813 222.082 202.29 197.776 193.496 188.786 147.209 291.942 138.224 273.025 129.097 112.007 75.2049 48.1548 45.0345 35.5442 32.3527 30.6414 1.01081 0.092012 0.0490108 0.0091081
threshold=1.0000000180025095e-35 -1.2408918142318723 0.99247643351554882 0.96506777405738842 -0.56944364309310902 0.99800565838813793 -0.88262602686882008 1.0916224718093874 0.83245405554771434 0.95601093769073497 0.96623125672340404 0.90849640965461742 -0.39627814292907709 -0.87576830387115467 1.0000000180025095e-35 1.0390406250953677 -0.76301205158233631 1.0759091973304751 -1.0819259881973264 -0.89928984642028797 -1.8557337522506712 -0.40085048973560328 1.0000000180025095e-35 -0.17699646204710004 1.0000000180025095e-35 -0.78582128882408131 1.0226128697395327 -0.95680746436119068 1.0022786855697634 -1.0570341944694517 1.1073541045188906 -1.252885043621063 -0.95425158739089955 -0.20042179524898526 -1.2470817565917967 -0.9153091013431548 1.106537997722626 1.2100624442100527 -0.76606220006942738 -1.0480951666831968 -0.93430882692337025 1.2767200469970705 -2.0927604436874385 -0.19623168557882306 0.23257462680339816 0.94624391198158275 0.089057315140962615 -1.1500965952873228 -1.0396181941032407 -1.1177909374237058 -0.32430258393287653 0.62661305069923412 0.61496016383171093 1.0952025651931765 1.7278810143470766 0.86465144157409679 1.7207984328269961 0.96164155006408703 0.95635119080543529
decision_type=2 2 2 2 2 2 2 2 2 2 2 2 2 2 2 2 2 2 2 2 2 2 2 2 2 2 2 2 2 2 2 2 2 2 2 2 2 2 2 2 2 2 2 2 2 2 2 2 2 2 2 2 2 2 2 2 2 2 2
left_child=2 9 4 17 5 7 14 12 -8 28 15 -9 -1 22 -7 24 20 21 19 27 52 36 23 -12 33 -26 39 -11 29 55 -31 32 -19 -4 50 -22 -3 -28 -21 -17 -36 47 -23 53 -45 46 -15 -20 -47 -33 -30 -43 -5 -18 56 -2 57 -6 -24
right_child=1 3 10 16 54 6 8 11 -10 18 13 -13 -14 45 -16 26 43 31 41 38 35 42 58 -25 25 -27 37 -29 34 30 -32 49 -34 -35 40 -37 -38 -39 -40 -41 -42 51 -44 44 -46 48 -48 -49 -50 -51 -52 -53 -54 -55 -56 -57 -58 -59 -60
leaf_value=0.17166006781636514 -0.10586507462575495 0.33376042341370754 -0.0008431852810275016 -0.094907980306351239 -0.10456040620001768 0.02560076129089885 0.058824334346956768 0.13843666999062562 0.15712041219757467 -0.12284113047017529 0.21066596812231142 0.023533704012712611 0.20763169809682674 -0.038500095660692818 0.24963684421701196 -0.082080457480796093 0.27836344591077317 0.18717511945946794 0.29409085588295325 -0.058492972093844964 0.17989576797292373 -0.0979803197118497 -0.12543288988544546 -0.017074649378536162 -0.12280730509479548 0.22258345197884846 -0.11434813212475786 0.21868653940819877 0.2776244738359312 0.35343648526451321 0.069609598416472893 -0.053127031510897954 -0.019012763252433236 0.20885564000496154 0.19050353552769689 -0.024583225898040753 0.04231174707483551 0.38337876626066619 0.42281115229938077 0.17429984019786934 0.031925357920800188 -0.12449031926562198 0.094702821837606824 0.77729595155220355 -0.11264358526864922 0.02760794304206084 0.36982614522722768 0.42575604347110874 -0.11262540361270978 -0.11401354533205632 0.44551160179499255 0.28714189829942444 0.19010152506551165 0.42956745574661448 0.14991273984663803 -0.12776353441439858 -0.13287558642596253 -0.11012001588958023 -0.12868081017991703
leaf_weight=16751.81893851608 44.403587929904461 92.522922035306692 1793.3925091661513 100.82093767076731 174.48940505459905 2089.3291000090539 1351.5898251049221 3404.0948129817843 42230.843404706568 27.068970143795013 1055.8497147448361 819.91048157960176 10434.926721058786 33.525189071893692 153.09207526221871 51.206793058663607 17.741059571504593 112.01945744454861 245.70509865880013 107.49490214884281 429.48084842413664 96.100350830703974 33.231513008475304 89.867888025939465 50.601016193628311 183.31271366029978 11.130399022251366 987.06024699658155 69.287314891815186 38.774548918008804 727.29962348565459 608.18009134754539 1227.4248569719493 65.081241052597761 190.66586868464947 72.809170551598072 45.456130538135767 98.782331116497517 10.525519296526907 77.132869593799114 133.86657803505659 11.706765636801718 107.98826876282692 4.84322012215853 15.429829202592371 349.01005318760872 32.010785654187202 106.85399717092514 68.064208447933197 304.39827706664801 22.675945401191711 3.4384721294045439 4.5742455050349227 69.9273277297616 4.8242531307041636 40.127493418753147 1.197138026356696 17.441299345344305 11.664810717105864
leaf_count=30284 986 181 15487 652 4185 11752 6739 8553 132059 181 3679 3699 13234 190 250 662 40 498 507 608 1530 1037 206 932 345 649 125 3130 94 93 3547 4349 7730 285 691 422 484 227 16 348 654 82 694 9 167 2281 61 111 745 2459 21 6 17 82 13 249 8 251 68
internal_value=0 0.0856424 0.155211 0.0205471 0.159101 0.159762 0.148534 0.176143 0.154072 0.163507 0.0799861 0.116133 0.185467 0.136112 0.0408959 0.0396921 0.145015 -0.0137895 0.218673 0.186101 0.109881 0.0982691 0.18077 0.192802 0.022304 0.147867 0.192399 0.209571 0.0982071 0.0640764 0.0839754 -0.0308104 -0.001769 0.00650018 0.167912 0.150256 0.237745 0.332976 -0.0155684 0.0720056 0.125092 0.318961 0.00397303 0.342811 0.0999625 0.0259369 0.160945 0.333996 0.00472264 -0.0734362 0.319021 -0.0310361 -0.0825383 0.398969 -0.0990198 -0.11626 -0.105238 -0.105066 -0.126277
internal_weight=0 6076.67 81437.4 3309.72 77433.6 77235.6 45824.9 31410.8 43582.4 2766.95 4003.86 4224.01 27186.7 1673.22 2242.42 2330.64 715.627 2594.09 1499.85 1132.15 607.685 342.068 1190.61 1145.72 2092.39 233.914 238.252 1014.13 1267.1 850.605 766.074 2252.02 1339.44 1858.47 416.496 502.29 137.979 109.913 118.02 128.34 324.532 367.704 204.089 107.941 20.273 482.61 65.536 352.559 417.074 912.578 91.9633 15.1452 105.395 87.6684 197.952 84.5311 193.128 191.931 44.8963
internal_count=268644 31327 237317 20351 211027 206570 150800 55770 138798 10976 26290 12252 43518 8162 12002 18128 2919 17432 4641 3935 2621 2396 4885 4611 16766 994 1362 3311 6335 4875 3640 15036 8228 15772 1460 1952 665 352 624 1010 1345 706 1731 298 176 3277 251 618 3026 6808 115 88 669 122 4457 1235 4444 4436 274
is_linear=0
shrinkage=0.1


Tree=5
num_leaves=56
num_cat=0
split_feature=52 29 52 134 82 109 37 135 34 115 30 104 109 32 130 129 92 123 134 0 128 70 74 81 36 30 72 89 103 30 56 96 29 133 81 6 45 74 106 113 74 26 76 109 103 5 31 4 56 125 119 24 21 130 107
split_gain=2474.65 1922.55 1691.25 1873.88 3441.01 1824.53 1389.7 1250.07 1575.97 1247.6 1183.44 1134.14 1081.92 962.544 961.318 978.516 953.621 913.018 1864.71 1165.35 791.417 757.271 678.671 627.478 546.126 350.191 342.114 335.902 316.028 261.918 255.441 225.786 210.025 202.176 315.397 197.346 186.345 180.053 165.289 161.983 204.456 142.554 142.028 139.721 138.811 120.437 115.365 59.086 0.0797794 0.00488514 0.000430821 0.000304858 0.000177645 9.47867e-05 7.83919e-05
threshold=1.0567970275878908 1.1117675304412844 1.1437829136848452 1.0000000180025095e-35 -1.154160141944885 -0.97732329368591297 0.95583438873291027 1.0000000180025095e-35 0.87940436601638805 -0.82499992847442616 1.0959728360176089 -0.93876078724861134 -1.0949566364288328 0.96623125672340404 1.0000000180025095e-35 1.0000000180025095e-35 -1.1685988306999204 -1.3850724697113035 1.0000000180025095e-35 0.40540184080600744 1.0000000180025095e-35 -0.12377109378576277 -0.98429998755455006 -1.1319858431816099 0.91969922184944164 1.103459417819977 -0.27218322455883021 -0.12464921176433562 -0.83791255950927723 1.1108805537223818 0.82278183102607738 -0.90843504667282093 1.1489759683609011 1.0000000180025095e-35 -1.1730793118476865 0.83660563826560985 1.112868666648865 -0.93616798520088185 -0.95894891023635853 -1.1013505458831785 -0.9277023673057555 1.2985755205154421 -0.97497874498367298 -0.82128706574439991 -0.95911410450935353 -0.036684963852167123 1.0103826522827151 0.45868802070617681 0.91481706500053417 -0.41174125671386713 -0.56944364309310902 1.2950778603553774 1.7875208258628847 1.0000000180025095e-35 -0.7682451307773589
decision_type=2 2 2 2 2 2 2 2 2 2 2 2 2 2 2 2 2 2 2 2 2 2 2 2 2 2 2 2 2 2 2 2 2 2 2 2 2 2 2 2 2 2 2 2 2 2 2 2 2 2 2 2 2 2 2
left_child=9 2 3 6 24 -6 21 8 33 10 14 29 26 -8 15 20 43 18 -10 -19 -1 -2 -17 46 -5 30 38 -25 36 31 -13 -12 -18 34 -3 -27 37 -9 -4 42 -41 -35 -30 -16 -31 -28 -14 -38 49 51 53 54 -52 -51 -11
right_child=1 7 12 4 5 -7 13 28 17 48 11 25 23 -15 16 22 32 19 -20 -21 -22 -23 -24 27 -26 35 45 -29 39 44 -32 -33 -34 41 -36 -37 47 -39 -40 40 -42 -43 -44 -45 -46 -47 -48 -49 -50 50 52 -53 -54 -55 -56
leaf_value=0.15180097155806097 0.14030783079297113 -0.032599000191006554 0.13887458550565884 0.019259598103831998 -0.048852333530651756 0.25188898326048681 0.070872498603392023 -0.12460797900583864 0.043319861257849528 -0.10741117178987486 0.19660214302338896 0.068640400002953864 -0.059944253323448285 0.1389351046355824 0.22786134855349333 0.10883960183995217 0.050825673545637398 -0.033716245431231383 0.24261941664405909 0.082988597838448447 0.050378439109939582 0.1952461629565746 -0.063874290099920211 0.1194843177292273 -0.096805319623860436 -0.091021257551768375 -0.11812660742611687 -0.11540156798154964 -0.12622249267423746 0.10980422399147616 -0.049856761954152527 -0.04031590062584435 -0.042015311148548222 0.0072210764439733822 0.097417833710334398 0.20287320809394546 -0.091533530176330646 0.18455590230339819 -0.098219569504276488 -0.031091956375938617 0.34945721456287698 -0.1000272772334992 0.21546221115821973 -0.12422436313876005 -0.10442864690188772 0.17095210052210205 0.79433210036977853 0.18864453130178108 -0.11837427555488494 -0.10540794415863115 -0.10410642268774944 -0.10877942342464082 -0.10539802740155019 -0.10432889926854053 -0.10644343901701164
leaf_weight=45528.007944930345 16185.041610646993 790.21540530025959 30.877389073371887 733.48741014301777 262.90011358261108 866.95355695486069 4824.0862366445363 20.214285500347614 991.81180164217949 1.7255774512886999 752.35177169367671 1003.9533952772617 274.52136697247624 3649.8273027800024 310.23084266483784 682.14485001564026 711.1535362675786 1121.4165996983647 891.38095875829458 3609.7853018790483 782.59710916131735 2969.2996501997113 341.36630185693502 1403.7503437250853 906.36286151409149 304.61599982902408 17.739993080496788 63.643671538680792 13.931265167891977 81.996327266097069 222.17607531696558 42.497721865773201 370.66524151340127 165.93608810007572 244.2461651712656 24.700467482209206 42.645024538040161 276.56868345290422 616.07406293973327 15.21878072619438 195.22423456609249 489.65434591472149 95.970465734601021 11.695976704359053 47.920913219451904 76.828612398356199 1.5899614170193661 9.1401432901620847 4.056684397161006 3.1636695303022853 192.02415023371577 1.2355292402207849 1.0708010345697392 1.0961446315050123 1.6256710775196546
leaf_count=80929 48270 4777 143 3326 1462 2193 24354 131 4927 27 1141 3041 3490 13381 576 1912 3618 6124 2123 13905 3664 2323 1628 6366 5221 1855 164 631 86 275 1330 174 3047 924 1087 36 257 869 8814 81 272 3530 254 76 269 260 6 30 32 65 5071 17 23 28 29
internal_value=0 0.108366 0.119562 0.126046 0.0476292 0.181911 0.133907 0.0673392 0.0567462 0.141114 0.142102 0.0747191 0.0402429 0.100188 0.145531 0.14795 0.0639774 0.0787665 0.137655 0.0553265 0.150087 0.148824 0.0512352 0.0832739 -0.0448907 0.0225783 -0.0609343 0.109297 0.19885 0.162419 0.0471686 0.183935 0.0190154 -0.0294351 -0.0019008 -0.0689776 0.132956 0.163498 -0.0869037 0.270549 0.321937 -0.0728817 0.17215 0.21507 0.0307829 0.116724 -0.055025 -0.0420818 -0.104489 -0.104211 -0.104136 -0.107437 -0.104114 -0.10513 -0.106942
internal_weight=0 41856.3 32883 30398 2769.7 1129.85 27628.3 8973.36 8304.45 51424.1 51218.1 2480.21 2485.03 8473.91 48737.9 47334.1 1403.75 6614.39 1883.19 4731.2 46310.6 19154.3 1023.51 1743.51 1639.85 1555.45 741.52 1467.39 668.913 924.767 1226.13 794.849 1081.82 1690.05 1034.46 329.316 348.568 296.783 646.951 320.345 210.443 655.59 109.902 321.927 129.917 94.5686 276.111 51.7852 205.998 201.942 197.355 4.58678 193.095 4.25981 3.35125
internal_count=268644 159781 120404 100530 12202 3655 88328 39377 37397 108863 103571 8121 19874 37735 95450 88133 7317 27079 7050 20029 84593 50593 3540 10493 8547 6262 9381 6997 1980 1859 4371 1315 6665 10318 5864 1891 1287 1000 8957 693 353 4454 340 652 544 424 3496 287 5292 5260 5187 73 5094 93 56
is_linear=0
shrinkage=0.1


Tree=6
num_leaves=61
num_cat=0
split_feature=52 101 40 70 53 131 45 133 130 30 104 128 78 72 103 29 108 31 21 112 69 99 99 30 31 53 29 112 121 79 91 122 80 52 109 104 68 65 74 96 73 73 109 103 2 110 82 53 75 115 58 53 96 100 98 117 23 50 71 25
split_gain=2007.09 1609.87 1152.84 1088.5 1181.97 1075.47 900.363 901.066 840.988 816.342 824.555 801.089 721.88 665.354 657.498 504.379 482.969 479.633 459.646 458.194 442.624 419.317 396.069 368.529 337.595 335.325 353.366 318.161 318.625 299.31 252.913 383.317 239.295 228.691 224.744 224.709 212.951 202.917 200.797 190.907 174.525 167.784 212.927 158.148 144.438 143.292 128.385 127.332 91.6444 301.691 61.6191 50.069 40.0097 36.8639 27.8559 26.7632 1.47812 0.600894 0.216097 0.0324041
threshold=1.0631836056709292 -0.85692328214645375 1.06614226102829 -0.12377109378576277 1.1197195649147036 1.0000000180025095e-35 1.174926817417145 1.0000000180025095e-35 1.0000000180025095e-35 1.0969951152801516 -0.93876078724861134 1.0000000180025095e-35 -1.327256381511688 -0.56096315383911122 -0.84546226263046254 1.0550409555435183 -1.0583399534225462 0.99850139021873485 1.2463724613189699 -1.1664249300956724 0.086835313588380827 -0.92273312807083119 -0.92488548159599293 1.0465184450149538 1.0128591656684878 1.0619856715202334 1.0993284583091738 -1.2898932695388792 -1.4505133032798765 -0.96217063069343556 -1.1800939440727232 -1.0686273574829099 -1.3388988375663755 1.0620576143264773 -0.8580324351787566 -0.9046826660633086 0.1351021230220795 0.35234287381172186 -1.0525276064872739 -0.9094257354736327 -0.80707767605781544 -0.73633080720901478 -0.992652267217636 -0.88523864746093739 0.52723655104637157 -0.87143629789352406 -1.3624882102012632 1.0789268016815188 -1.1586616039276121 -0.90948268771171559 0.85081619024276745 1.1197195649147036 -1.0280521512031553 -0.88426879048347462 -0.94742444157600392 -0.94108137488365162 1.2230156660079958 1.1474720835685732 -0.19056625664234159 1.262495279312134
decision_type=2 2 2 2 2 2 2 2 2 2 2 2 2 2 2 2 2 2 2 2 2 2 2 2 2 2 2 2 2 2 2 2 2 2 2 2 2 2 2 2 2 2 2 2 2 2 2 2 2 2 2 2 2 2 2 2 2 2 2 2
left_child=5 15 3 6 16 8 7 -3 9 11 39 13 17 -1 24 22 -5 34 50 -8 -6 -13 52 35 30 26 44 57 29 -29 32 -32 -7 40 -10 -14 -30 -28 -12 -11 -20 53 -43 -25 -17 -19 47 -24 49 -26 56 -48 -2 -27 -50 -54 -16 -4 -59 -35
right_child=1 2 27 4 20 14 19 -9 12 10 38 21 23 -15 18 25 -18 45 33 -21 -22 -23 46 43 48 41 37 28 36 -31 31 -33 -34 59 -36 -37 -38 -39 -40 -41 -42 42 -44 -45 -46 -47 51 -49 54 -51 -52 -53 55 -55 -56 -57 -58 58 -60 -61
leaf_value=0.12775509039619679 0.2456229588801791 0.10175954898302229 -0.14622842330367319 -0.11168822334080514 -0.052271317055140633 0.03689600306995372 -0.048152357191972563 0.038579074252847845 0.26841523118502969 0.14721935645181863 0.16182953502593991 -0.050230513066278008 -0.072454461982335169 0.17788871104254755 -0.10369493602904739 0.29032418347262973 0.17864397877181201 0.30597393776559567 0.18090628533638853 0.083962240587012807 0.15963100346856307 0.083730459438004196 0.20709030445350698 -0.097494585592585933 0.50935568778011842 -0.11525501344806351 0.0033617015510907285 0.27138221415013869 0.025952565806099795 0.051326134297092589 0.042356018284962188 0.16129557081785798 -0.094239184306560406 -0.13743588009253813 -0.11899993824733712 0.27632506253074252 -0.098641685555691624 0.45963651681536216 -0.0003309572845123625 -0.095956652763412253 -0.05068527187426506 -0.063512070394053599 0.39581240708718068 0.0087069421269505981 0.037103870052345056 0.15234608560252771 0.28554437461731508 -0.11181952124435578 -0.11780762686507669 -0.11747048283560005 0.15349076287333682 0.17303134340619764 0.10967184404910763 -0.060842854006567117 -0.050625192806785263 -0.11049946795160426 -0.13649222997652796 -0.1064511726035994 -0.11722503939114465 -0.12963027324422335
leaf_weight=46425.252411853522 3.7519373893737784 29007.975849665701 4.077112838625907 58.364172577857971 354.41901867464185 546.47791063040495 657.65811702236533 2447.7860323376954 17.846893876791 851.66743771731853 81.963091164827347 321.56398507207632 24.350546147674322 2807.3275387808681 59.0355977229774 64.237881548702717 3132.360621213913 67.96626702696085 743.69891649484634 436.90794528275728 136.55391795188189 854.77089142426848 27.511573910713196 166.13877365365624 11.357055798172949 256.66496669873595 1481.2060313671827 74.981785543262959 340.32831806689501 351.8427388779819 936.25220927596092 381.31723468750715 186.69296748936176 7.4987058788538006 93.017724238336086 76.518865674734116 229.8066586740315 9.8114234954118711 1117.0155049934983 33.555522665381432 34.028530851006508 25.411073043942451 16.74138854816556 898.69004261493683 34.690899893641472 568.92521902918816 106.24730737134814 22.975692465901375 135.13098012655973 23.704886429011822 9.9191340059041959 63.006077039986849 6.0841124542057505 241.82247326150537 113.60090822726488 59.649705961346626 17.910352483391762 195.44159208983183 20.576899867504835 18.292378708720207
leaf_count=80791 12 95572 19 784 3715 2510 5431 12097 32 1495 126 2580 182 2960 1718 94 2069 69 1384 1933 623 3099 30 1572 10 2545 7983 188 2215 2422 4238 1307 1164 38 1313 177 2661 6 4469 163 156 180 49 5490 162 1271 97 329 1235 195 24 202 33 1701 637 917 92 3772 201 105
internal_value=0 0.0912462 0.0963542 0.0995699 0.151107 0.12043 0.0937406 0.096843 0.123756 0.126129 0.0648001 0.128665 0.0586362 0.130614 0.0643206 0.012195 0.173333 0.135326 0.137434 0.00458262 0.00666491 0.0471108 0.136108 0.0094424 0.0364353 -0.0046262 0.0185076 0.000622834 0.0246463 0.0899842 0.0505816 0.0767783 0.00350404 0.161058 -0.0566342 0.192127 -0.0242682 0.00636415 0.0107545 0.138001 0.170773 -0.0726594 0.118915 -0.00786304 0.201529 0.168741 0.201913 0.0619612 -0.0657885 0.0855673 -0.0810892 0.24366 -0.0719924 -0.088859 -0.087124 -0.0901211 -0.111329 -0.108195 -0.107477 -0.1319
internal_weight=0 39868.9 37449.1 36232 3681.7 57631.5 32550.3 31455.8 54406.6 52493.1 2084.2 50408.9 1913.45 49232.6 3224.92 2419.81 3190.72 747.756 890.384 1094.57 490.973 1176.33 289.226 1165.7 2334.53 2130.59 1589.95 1217.06 996.96 426.825 2050.74 1317.57 733.171 803.519 110.865 100.869 570.135 1491.02 1198.98 885.223 777.727 540.64 42.1525 1064.83 98.9288 636.891 219.741 50.4873 283.794 35.0619 86.8651 169.253 69.4858 498.487 248.732 65.7338 76.946 220.096 216.018 25.7911
internal_count=268644 148042 133702 122224 7191 120602 115033 107669 105789 95683 6253 89430 10106 83751 14813 14340 2853 2685 3517 7364 4338 5679 1620 7421 11296 12720 8245 11478 7486 2610 9219 5545 3674 1683 1345 359 4876 7989 4595 1658 1540 4475 229 7062 256 1340 658 359 2077 205 1834 299 962 4246 1872 950 1810 3992 3973 143
is_linear=0
shrinkage=0.1


Tree=7
num_leaves=62
num_cat=0
split_feature=53 103 135 34 123 4 52 95 71 0 29 107 76 118 92 132 6 100 130 127 123 20 25 135 28 29 30 32 53 28 70 30 43 107 25 52 83 33 118 100 57 60 3 37 0 5 34 73 30 27 33 73 4 53 4 106 73 68 103 52 103
split_gain=1728.41 1467.6 1036.75 1435.54 1189.14 1556.53 1323.77 1111.28 1013.66 1281.57 750.099 734.531 709.516 639.299 636.566 629.409 551.632 533.699 482.487 428.876 408.351 405.879 427.218 424.808 404.201 396.061 388.226 361.277 411.816 321.788 312.354 269.519 257.659 252.631 251.894 238.114 209.685 203.217 181.151 178.121 161.671 136.91 116.053 97.6684 91.9758 91.7009 86.1921 83.093 72.0231 65.9839 71.5732 65.2148 56.0494 45.9126 12.8719 11.9238 11.9119 11.8156 5.86594 0.1731 0.0204007
threshold=0.99800565838813793 -0.88262602686882008 1.0000000180025095e-35 0.83245405554771434 -1.7193827629089353 0.5197119712829591 1.1352419853210451 -0.89270088076591481 -0.56420928239822377 0.54966169595718395 1.2199913263320925 -0.98165360093116749 -1.2179038524627683 -1.034063398838043 -0.9014679193496703 1.0000000180025095e-35 0.80225551128387462 -0.98678582906723011 1.0000000180025095e-35 -1.5358259081840513 -1.0732460021972654 1.4368609786033633 1.4439200758934023 1.0000000180025095e-35 1.3930931091308596 1.1325576901435854 1.0741351842880251 0.90243583917617809 0.94991561770439159 1.2240346670150759 -0.32325354218482966 1.0889247655868532 0.92303785681724559 -1.012250483036041 1.3921951651573183 1.0408310294151308 -1.1646397709846494 0.8971306085586549 -1.5891245007514951 -0.98678582906723011 0.8260307013988496 0.64715018868446361 0.63020992279052745 0.82001590728759777 0.48175811767578131 0.69848135113716137 0.91667911410331737 -0.81127646565437306 1.071946442127228 1.2671924233436587 0.88707628846168529 -0.88677957653999318 0.65792754292488109 1.0013650655746462 0.61134687066078197 -0.84752720594406117 -0.9107365310192107 -0.014635887928307055 -0.89359524846076954 1.0631836056709292 -0.89633202552795399
decision_type=2 2 2 2 2 2 2 2 2 2 2 2 2 2 2 2 2 2 2 2 2 2 2 2 2 2 2 2 2 2 2 2 2 2 2 2 2 2 2 2 2 2 2 2 2 2 2 2 2 2 2 2 2 2 2 2 2 2 2 2 2
left_child=8 15 3 7 6 -6 -5 29 9 14 17 37 41 30 19 21 20 36 27 31 -12 23 39 35 -18 -21 -19 32 -29 -3 -13 -1 -14 59 -25 -2 -11 57 -9 -23 48 49 47 -20 -15 52 -39 -16 -35 55 -51 -47 -43 -24 -45 -10 -44 -4 -42 60 -17
right_child=1 2 11 4 5 -7 -8 38 12 10 16 13 18 44 42 33 24 26 43 25 -22 22 53 34 -26 -27 -28 28 -30 -31 -32 -33 -34 40 -36 -37 -38 46 -40 -41 58 45 56 54 -46 51 -48 -49 -50 50 -52 -53 -54 -55 -56 -57 -58 -59 -60 -61 -62
leaf_value=0.10399794822690947 0.0043154019708135389 0.2178189171863367 -0.13899049709167091 0.13132589113921259 0.050349660727527196 0.09116572040828215 0.037234855520523018 0.043488447588046097 -0.1584653526012697 -0.065362007634970687 0.042743830155817869 0.13780378723975886 0.15198380278416002 -0.13320345847680676 -0.00942753074934999 -0.15797517872564645 0.12150938136387919 0.088941145480603515 0.60635655222396523 0.16179180167943075 -0.099028178862730382 -0.11653834130113042 0.084692557802244425 0.16180882231730176 -0.036879874240628711 -0.0017636618258632204 0.13178905988366077 0.17882055360946303 0.13293996780769216 -0.042846064589367995 0.20476263877814535 0.035746710010844299 0.073658521095390311 -0.16263445571163446 -0.038980485552467782 -0.064999264917528846 0.13372836615569011 0.027842938909562909 -0.11007977553269016 0.24365939144892423 0.24984720406616981 0.12522164667114602 0.22017577418152931 -0.014296007516346907 0.036091131043174095 -0.052857783488586191 0.18095669026560993 -0.14423340095981996 0.20866810383781234 -0.16325055739341737 0.17734008319577174 0.18762536412471509 -0.15287715051634143 -0.12651493448990045 -0.11630339434328679 -0.09518168762638135 0.067666590371936036 -0.072657489705729425 0.20600228640720464 -0.14235153062727002 -0.16586629224974586
leaf_weight=1914.8209783770144 976.15552975609899 184.25249971449375 58.316002070903778 9324.6269492283463 12939.782066311687 33614.487796735018 1780.8205321505666 86.600974123924971 43.272478304803371 212.68583969026804 707.03077693283558 1498.2825102061033 588.21758153289557 72.185067862272263 59.068270400166512 8.1285863369703293 1182.5869141593575 2663.7248045392334 1.9924804493784893 166.82144755870104 285.08753939718008 15.107944708317516 12.65021453425288 198.83328907564282 186.53239341825247 1316.3615611046553 10257.267767906189 2377.437241896987 11045.328487273306 63.743476919829845 1302.1553060524166 829.11218756064773 1468.5563453435898 15.651500064879658 91.108298659324646 1006.7297884784639 70.415792353451252 196.24320505931973 679.66456982493401 150.39857476204634 140.13305920362473 10.347819395363329 7.1526300981640842 14.562290593981741 57.777427732944489 14.617138229310511 45.241144008934498 202.40203981287777 7.8414874225854865 9.5777515918016451 17.34123720228672 49.342191521078348 24.186790086328983 55.218519158661366 82.181075558066368 95.444298760965466 18.034173090010881 49.77261869981885 39.007993996143341 7.6433079019188872 5.4881765246391305
leaf_count=3304 4326 211 309 16045 55643 93292 13508 519 213 2132 2071 2944 616 321 192 35 2548 4668 4 289 1279 179 47 355 872 4226 14869 1808 13568 352 2017 2483 2562 69 324 7775 99 750 4820 226 65 22 3 133 138 62 132 1897 7 42 28 63 117 428 723 2497 38 285 33 38 23
internal_value=0 0.0846569 0.0878189 0.0847604 0.0868349 0.0798209 0.116238 -0.0331755 0.112013 0.097092 0.110697 0.142532 0.130925 0.158876 0.0501774 0.0129021 0.0587851 0.11998 0.133681 0.0599568 0.00200531 -0.00144916 0.124138 -0.0143445 0.09993 0.0166323 0.122956 0.135086 0.141066 0.150819 0.168938 0.083375 0.0960588 0.173546 0.0987148 -0.0308763 -0.0158423 0.00551802 -0.092724 0.210779 0.207953 -0.0316005 -0.0940317 -0.0866754 -0.0579402 0.061764 0.0565282 -0.11378 -0.0387011 -0.087119 0.0561582 0.132666 -0.0695487 -0.0871475 -0.100949 -0.114923 0.110977 -0.108445 0.2403 -0.154395 -0.161156
internal_weight=0 64684 61954 58674 57659.7 46554.3 11105.4 1014.26 35921.5 20079.1 15565.3 3279.97 15842.4 2930.4 4513.77 2730.1 2361.24 13204.1 15578.3 4227.12 992.118 2506.2 233.375 2272.83 1369.12 1483.18 12921 15479.5 13422.8 247.996 2800.44 2743.93 2056.77 223.894 289.942 1982.89 283.102 349.573 766.266 165.507 202.634 264.13 286.657 98.7358 129.962 98.4939 241.484 261.47 23.493 165.636 26.919 63.9593 34.5346 67.8687 96.7434 138.717 25.1868 108.089 179.141 21.2601 13.6168
internal_count=268644 205216 191286 184390 178488 148935 29553 5902 63428 40970 28538 6896 22458 5420 12432 13930 6770 21768 19414 10302 3350 13660 880 12780 3420 4515 19537 18554 15376 563 4961 5787 3178 270 679 12101 2231 1476 5339 405 174 3044 2130 860 459 264 882 2089 76 2780 70 125 139 475 856 2710 41 594 98 96 58
is_linear=0
shrinkage=0.1


Tree=8
num_leaves=59
num_cat=0
split_feature=52 26 37 135 26 32 36 79 31 74 129 30 134 32 48 70 69 29 6 59 100 108 0 26 75 6 106 72 107 31 104 31 75 100 110 89 46 76 126 70 46 115 117 68 43 101 127 72 33 73 127 103 2 124 123 24 25 126
split_gain=1576.14 1310.07 1271.82 1021.65 1297.32 924.591 803.11 858.798 790.318 795.075 857.096 762.542 1125.83 890.318 735.799 712.119 773.02 693.521 640.958 595.755 518.116 514.499 471.505 1225.16 470.875 464.899 455.241 425.455 425.273 391.053 370.201 368.218 300.769 281.184 263.389 262.243 251.212 240.57 237.414 204.185 207.943 190.923 217.835 178.745 159.065 157.131 228.706 163.883 146.094 91.3957 79.6334 78.5147 63.4271 40.0605 94.5533 25.9922 18.8877 2.74405
threshold=1.0567970275878908 1.2387501001358034 0.95348262786865245 1.0000000180025095e-35 1.2974052429199221 0.96506777405738842 0.92091771960258495 -1.2084826827049253 1.0075265765190127 -0.98938035964965809 1.0000000180025095e-35 1.0715931057929995 1.0000000180025095e-35 0.94986718893051159 1.2085132598876955 -0.11832661181688307 -0.11970883980393408 1.2356600165367129 0.56119802594184887 0.81487497687339794 -0.83866924047470082 -1.0303249955177305 0.46717298030853277 1.3640227317810061 -1.1252518892288206 0.65783977508544933 -0.85059720277786244 -0.52616319060325611 -0.99167734384536732 0.99290877580642711 -0.84490677714347828 1.0156003236770632 -0.87421163916587818 -0.94450169801712025 -1.1880323290824888 -0.12464921176433562 1.1258435845375063 -0.92904740571975697 -1.3815309405326841 -0.34299145638942713 1.090309798717499 -1.1581180095672605 -0.98568782210350026 -0.033586144447326653 1.0877348780632021 -0.84257775545120228 -1.8368743658065794 -0.75585344433784474 0.93122857809066784 -0.83821791410446156 -1.6128151416778562 -0.82575076818466175 0.64203059673309337 -1.5663328766822813 -1.4731530547142027 1.3658680319786074 1.3208215236663821 -3.1466723680496211
decision_type=2 2 2 2 2 2 2 2 2 2 2 2 2 2 2 2 2 2 2 2 2 2 2 2 2 2 2 2 2 2 2 2 2 2 2 2 2 2 2 2 2 2 2 2 2 2 2 2 2 2 2 2 2 2 2 2 2 2
left_child=8 2 14 4 6 19 7 -3 9 11 22 13 17 24 15 16 -2 -13 26 27 -20 57 23 -11 -1 -24 -7 -4 -21 -14 36 33 -8 50 -17 -23 43 53 -15 40 -32 55 -43 -5 -41 47 -47 -35 49 -12 -10 -38 -52 54 -33 -6 -55 -16
right_child=1 3 5 30 41 18 32 -9 31 10 48 12 29 38 21 34 -18 -19 20 28 -22 35 25 -25 -26 -27 -28 -29 -30 -31 39 37 -34 45 -36 -37 51 -39 -40 44 -42 42 -44 -45 -46 46 -48 -49 -50 -51 52 -53 -54 56 -56 -57 -58 -59
leaf_value=-0.020226302940548609 0.13364024144964787 0.034390987733771666 -0.093468602659012037 0.073141849068394035 -0.068675839411297665 -0.020386251059033203 -0.04919520924303062 0.0904367401708948 0.18742846546274519 0.10507827205767672 -0.026735622700887463 0.087004491742066925 0.012116431219510504 0.074175600977964648 -0.17719477005966805 0.011455841409227186 0.081067714898276536 -0.064615369567880415 -0.011368943003821012 -0.060116119023573292 0.13690539473805127 0.076662942423628366 0.1625643264042814 0.015080601304839781 0.050560280731624274 0.11283737320491488 0.075875532918664723 0.064754486055060484 0.049692843548627852 0.18511516608079234 0.19695597282715796 -0.15479428381142524 0.10549840733028713 0.269566525889189 0.15708344265253299 -0.11545205167278089 -0.064759228048325665 0.20796492684545742 0.15847929503983582 0.23978804624621153 -0.10587968132106221 0.0049354895045555514 -0.10722346605699062 0.19057555669002091 0.098846975345121824 0.0056581544024148327 0.1799338243832678 0.055912017786819639 0.19066039552977282 -0.14046800794566822 -0.10986570760980661 0.068414462443203067 0.0024843570209302471 -0.056727557844326697 0.18781546593219051 -0.11772252670985728 -0.11582728894667085 -0.10940164112831129
leaf_weight=1361.462917227298 3691.6262455061078 7203.6892993524671 583.79423574730754 356.23514419794083 155.05385991558433 638.17267933860421 1046.5365633256733 4406.4365328736603 13.325532529503105 12780.410769693553 153.27973012626171 10803.659896798432 142.74851854145527 597.09977878630161 6.1210081353783599 130.62015188857913 11539.559220299125 310.34672710299492 261.25342558324337 375.26742685213685 2406.1087008118629 645.10394608974457 2115.2284140139818 1715.6875306032598 3033.6989298760891 16911.458853179589 2134.4531748779118 239.73635852709413 5862.0234252773225 1543.1937496811152 46.495738431811333 15.666305951774119 142.84134772792459 36.376508817076683 2525.5209662951529 79.847514856606722 122.67107234895229 31.475783824920654 758.26697532087564 408.03819818049669 44.255891129374504 630.75274195149541 238.69505405798554 203.74330081790686 99.626858279109001 106.67650804668665 256.02863594144583 2748.5755121707916 21.590081185102463 131.08234513923526 125.00027476996183 69.268622294068336 84.027491178363562 79.214046247303486 16.5804807767272 356.42626566067338 170.40664701163769 243.04828774183989
leaf_count=8182 8048 26483 3116 1076 970 2783 5105 14085 31 22672 650 20251 328 1570 32 675 31086 2023 930 3938 5311 2961 2240 4722 7114 23526 8730 725 26979 904 77 72 459 116 1392 863 593 33 1180 363 221 3352 2222 299 233 342 294 8635 39 673 993 219 400 469 21 2730 1383 3725
internal_value=0 0.0693765 0.0811387 0.0456245 0.0377099 0.0564028 0.0476449 0.0556623 0.0942211 0.0973697 0.106493 0.0807321 0.0943216 0.0504836 0.0975329 0.102142 0.0938099 0.0827707 0.0873866 0.0325314 0.122383 0.0128963 0.108014 0.0944266 0.0286331 0.118366 0.053719 -0.0474086 0.0430862 0.170467 0.128739 0.0494475 -0.0306169 0.0590886 0.149922 0.055503 0.082029 -0.0542424 0.12134 0.187432 0.0492753 -0.0543754 -0.0258562 0.115869 0.212129 0.0667659 0.128677 0.0587027 -0.0601222 -0.0791628 -0.0495918 -0.0166985 -0.0647019 -0.0835227 0.021367 -0.102854 -0.0970727 -0.111067
internal_weight=0 46893 31362.3 15530.8 14180.4 12500.8 12799.5 11610.1 56062.6 52379.2 33828.7 18550.5 12799.9 5750.53 18861.4 17887.3 15231.2 11114 5439.99 7060.82 2667.36 974.121 33522.8 14496.1 4395.16 19026.7 2772.63 823.531 6237.29 1685.94 1350.33 3683.35 1189.38 3370.01 2656.14 724.951 751.918 313.343 1355.37 598.417 90.7516 1380.93 869.448 559.978 507.665 3147.66 362.705 2784.95 305.952 284.362 222.353 191.94 209.028 281.867 32.2468 511.48 249.621 249.169
internal_count=268644 159781 101294 58487 55406 52512 46132 40568 108863 96074 54522 41552 23506 18046 48782 41201 39134 22274 17754 34758 6241 7581 53160 27394 15296 25766 11513 3841 30917 1232 3081 12789 5564 10811 2067 3824 2187 1978 2750 894 298 9274 5574 1375 596 9387 636 8751 1362 1323 1424 812 1393 1945 93 3700 1852 3757
is_linear=0
shrinkage=0.1


Tree=9
num_leaves=62
num_cat=0
split_feature=53 27 135 52 102 30 71 42 71 5 113 128 54 29 121 45 77 33 32 133 4 29 42 29 52 68 50 28 53 21 122 115 106 29 136 0 123 69 30 53 133 89 25 22 101 54 3 30 79 76 94 70 55 30 107 30 53 88 119 20 24
split_gain=1423.97 1178.31 1064.54 876.314 1208.31 864.841 818.316 1211.21 811.322 759.728 738.904 727.841 581.365 694.075 564.339 533.36 716.872 715.427 520.314 616.462 502.242 428.759 580.836 427.213 395.625 529.365 373.408 385.769 356.657 339.823 296.703 255.755 239.407 272.531 231.041 220.98 211.73 193.342 171.982 171.661 153.616 294.289 162.209 149.716 144.03 137.411 108.004 111.154 89.9713 88.2915 113.922 71.6439 59.9013 35.3141 12.468 1.70272 0.784589 0.0341499 0.00281598 0.00159491 0.000568899
threshold=0.99302461743354808 1.2749467492103579 1.0000000180025095e-35 1.0830525159835818 -0.80275079607963551 1.0889247655868532 -0.20794465392827985 1.1217598319053652 -0.40802559256553644 -0.036684963852167123 -0.84851157665252674 1.0000000180025095e-35 0.90849640965461742 1.2034311890602114 -1.1354896426200864 1.0768923759460451 -1.2284938693046568 0.92999097704887401 0.89771822094917308 1.0000000180025095e-35 0.72584521770477306 1.1165019273757937 1.0698010921478274 1.0945008993148806 0.976015865802765 -0.12495313584804534 1.0586206912994387 1.2474549412727358 0.95764800906181347 1.6881179213523867 -1.3243955969810484 -1.1805189847946165 -0.91283410787582386 1.1976975202560427 1.0000000180025095e-35 0.53861019015312206 -1.2326552271842954 -0.22342874109745023 1.103459417819977 0.92483708262443554 1.0000000180025095e-35 -1.0814943909645078 1.3704661130905154 1.4998294711112978 -0.80333006381988514 0.94736066460609447 0.65227437019348156 1.0916224718093874 -1.1797004938125608 -1.1465377807617185 -1.0196383595466612 -0.45957596600055689 0.93893671035766613 1.0924276709556582 -0.86959239840507496 1.0540277361869814 1.0213091969490053 -1.314323306083679 -0.56944364309310902 1.7785688042640688 1.3272133469581606
decision_type=2 2 2 2 2 2 2 2 2 2 2 2 2 2 2 2 2 2 2 2 2 2 2 2 2 2 2 2 2 2 2 2 2 2 2 2 2 2 2 2 2 2 2 2 2 2 2 2 2 2 2 2 2 2 2 2 2 2 2 2 2
left_child=5 3 26 8 21 10 7 -6 15 -8 18 23 13 39 31 16 -2 -17 19 28 38 22 -5 -10 34 -26 27 36 -1 -22 -23 56 33 45 -20 -21 -3 -33 -15 51 41 -28 -42 -41 -13 -14 48 -48 -34 54 -51 -7 -29 -35 -16 58 -4 -57 60 -60 -12
right_child=1 2 14 4 6 12 9 -9 11 -11 55 44 32 20 49 17 -18 -19 24 35 29 30 -24 -25 25 -27 40 52 -30 -31 -32 37 46 53 -36 -37 -38 -39 -40 43 42 -43 -44 -45 -46 -47 47 -49 -50 50 -52 -53 -54 -55 -56 57 -58 -59 59 -61 -62
leaf_value=0.09419419075648934 0.067503679438675787 0.07299215220857011 -0.16323353846999034 0.049554038744699554 0.069445131290755871 0.12269208701382135 -0.040586599415325386 -0.026707580453224661 0.11630894270868596 0.15089584001966544 -0.10658647467398648 -0.14730053530794623 0.076577670468308476 0.0156772909899866 -0.16297526759499209 0.048101722300145429 0.10883822776090023 0.095773885758259181 0.14364336537110314 -0.084108514217689459 0.093766440683620444 0.017243479965184213 -0.016323630240798075 0.19833959562856163 0.072867604009126924 0.11749667711357895 -0.062551831165961844 -0.1083508835698631 0.035977582438506663 -0.053540214652220433 -0.083095355274802801 0.083550112500904938 -0.092054274881114853 0.016222652374718882 0.0035462418470307566 0.05723527947025802 0.00085799384652822689 0.1587862312383638 -0.076859422876139338 0.11278332331130381 -0.016650394917451738 0.065168427848610475 -0.11503690951040078 0.023143194398194178 0.019498904579997565 -0.044012917486914896 0.063502427033173936 -0.058904531571869402 0.047887948869543812 0.1221800706962464 -0.098798681069909439 0.17061533256570419 0.063386321375764443 -0.11995285935284301 -0.049979355381312734 -0.13848413664061102 -0.13444523341600156 -0.14969569953324069 -0.10334114165385398 -0.10580535727266138 -0.10469507087354615
leaf_weight=9927.1559750400484 8886.2126713506877 776.39090738072991 21.789333611726761 5308.6678431946784 17650.342955611646 876.01415660232306 234.04733243957162 1415.1167389787734 1881.8026408851147 1806.6819882504642 2.7882853373885146 64.355283662676811 707.79816382750869 1133.5241823494434 80.921367458999157 11300.025202438235 7949.1515199504793 4363.6451394036412 3708.073104813695 285.59891538321972 1622.381314791739 598.38372367247939 1789.5342627577484 958.13560120016336 4043.1313575953245 7756.7144593782723 526.51357030309737 246.26463423669338 1177.123882137239 173.33783643692732 580.69145979359746 963.57740065455437 337.35385403782129 23.192763455212116 121.57433427870274 180.52912314236164 855.04843099042773 529.13031576573849 244.09155458956957 541.89050917327404 253.10790083929896 274.4446275588125 495.86898506432772 283.95661028474569 264.67901505529881 109.0500230640173 160.44982060790062 137.98031333461404 53.184429436922073 38.130158796906471 60.102919444441795 484.47426624596119 22.135418239980936 106.45070191845298 11.105034746229647 5.2362882494926453 16.74015162140131 5.6463463902473432 156.31124438345432 2.6713921651244155 3.7011472322046757
leaf_count=14709 21791 1805 93 18827 56477 1044 1936 13205 2734 2169 49 298 1513 2823 353 33449 14715 10038 3137 922 3100 2740 7816 972 7165 8550 3225 1424 2667 926 3497 1879 1603 60 260 322 3165 595 1025 781 1091 1042 2823 632 810 451 333 706 139 50 214 347 120 649 33 28 93 27 5052 55 90
internal_value=0 0.0651865 0.0192434 0.0688388 0.0560512 0.0900274 0.0687503 0.0623083 0.0793732 0.128935 0.0980457 0.127672 0.058647 0.0745719 0.0834714 0.0746637 0.0870206 0.0613824 0.0993685 0.0832937 0.0447019 0.0236696 0.0329456 0.143984 0.111269 0.102205 -0.0128074 0.0169089 0.0880229 0.0795472 -0.0321731 0.103654 0.00645838 0.0391014 0.139196 -0.0293668 0.0351862 0.11022 -0.00071874 0.117926 -0.0492323 -0.0187891 -0.0817883 0.0819618 -0.0131251 0.0604787 -0.0383859 0.0069071 -0.0729966 -0.0789582 -0.0130236 0.139758 -0.0941874 -0.0955915 -0.14934 -0.105986 -0.150726 -0.144301 -0.103466 -0.103383 -0.105508
internal_weight=0 70222.7 5171.27 65051.5 29383.5 34371.4 21106.2 19065.5 35668 2040.73 27376.3 3168.97 6995.13 5359.67 1721.5 32499 16835.4 15663.7 27199.9 11570.4 3173.33 8277.28 7098.2 2839.94 15629.5 11799.8 3449.77 1899.84 11104.3 1795.72 1179.08 1531.24 1635.46 946.492 3829.65 466.128 1631.44 1492.71 1377.62 2186.34 1549.94 800.958 748.977 825.847 329.034 816.848 688.968 298.43 390.538 190.259 98.2331 1360.49 268.4 129.643 92.0264 176.355 38.5295 10.8826 165.472 158.983 6.48943
internal_count=268644 209479 18005 191474 106667 59165 73787 69682 84807 4105 43033 4814 16132 10678 3310 79993 36506 43487 37732 18620 7874 32880 26643 3706 19112 15715 14695 6514 17376 4026 6237 2660 5454 2673 3397 1244 4970 2474 3848 2804 8181 4267 3914 1413 1108 1964 2781 1039 1742 650 264 1391 1544 709 386 5301 186 55 5246 5107 139
is_linear=0
shrinkage=0.1


Tree=10
num_leaves=62
num_cat=0
split_feature=52 100 71 1 130 76 38 72 133 110 29 72 32 4 29 72 32 40 114 119 69 103 56 129 51 27 101 127 27 130 70 114 30 21 12 30 31 98 21 101 127 65 49 71 57 31 100 135 108 103 42 38 52 32 44 136 13 20 125 136 15
split_gain=1269.95 971.326 785.531 988.233 747.232 1497.74 755.877 745.437 1563.63 824.914 743.679 585.22 468.027 459.34 503.531 434.954 416.712 407.31 404.647 409.238 381.732 513.364 445.211 354.311 351.196 349.88 335.479 330.051 322.955 302.431 280.419 259.312 254.073 222.38 207.291 200.551 200.588 190.106 188.819 176.268 168.437 151.762 117.616 125.429 97.8941 79.9854 70.6914 63.6274 55.7079 50.8553 78.389 35.9844 34.9563 23.6145 13.2639 0.783187 0.26524 0.0473607 0.00165081 0.000396399 5.33207e-05
threshold=1.0189570188522341 -0.91394686698913563 -0.56829667091369618 0.59793037176132213 1.0000000180025095e-35 -1.1752967238426206 0.99247643351554882 -0.55186879634857167 1.0000000180025095e-35 -1.1909025907516477 1.0759091973304751 -0.76324251294136036 0.9636303484439851 0.69959381222724926 1.2199913263320925 -0.55355504155158985 0.9563899338245393 0.79773437976837169 -1.1374227404594419 -0.98597803711891163 -0.017971547320485112 -0.77866789698600758 1.0390406250953677 1.0000000180025095e-35 1.053973436355591 1.3629401922225954 -0.93674185872077931 -1.5447348356246946 1.2865463495254519 1.0000000180025095e-35 -0.33456400036811823 -0.95519977807998646 1.0969951152801516 1.4646842479705813 0.94143673777580272 1.0722993016242983 1.0064303278923037 -0.99192959070205677 1.4566559791564944 -1.0010876059532163 -1.772418677806854 0.18268758058547976 0.97095632553100597 -0.579526126384735 0.87100595235824596 0.99327117204666149 -0.92891877889633168 1.0000000180025095e-35 -0.96950793266296376 -0.93246474862098683 0.93783268332481395 0.88050687313079845 1.0615350008010866 0.95710101723670971 0.77431750297546398 1.0000000180025095e-35 0.99276801943779003 1.6095644235610964 -0.41174125671386713 1.0000000180025095e-35 1.3052169084548952
decision_type=2 2 2 2 2 2 2 2 2 2 2 2 2 2 2 2 2 2 2 2 2 2 2 2 2 2 2 2 2 2 2 2 2 2 2 2 2 2 2 2 2 2 2 2 2 2 2 2 2 2 2 2 2 2 2 2 2 2 2 2 2
left_child=2 24 3 18 6 16 7 8 -3 -9 15 13 -12 26 -15 -7 27 54 42 32 21 -8 -22 29 28 -21 -5 -6 37 30 -19 -18 -20 -31 40 38 -37 44 -13 57 48 -39 43 -1 -2 51 -42 -44 -26 55 -51 -25 -41 -47 58 -30 -56 -36 60 -60 -4
right_child=1 4 17 11 5 10 20 9 -10 -11 12 35 -14 14 -16 -17 31 23 19 25 22 -23 -24 45 34 -27 -28 -29 49 33 -32 -33 -34 -35 39 36 -38 41 -40 52 46 -43 47 -45 -46 53 -48 -49 -50 50 -52 -53 -54 -55 56 -57 -58 -59 59 -61 -62
leaf_value=-0.096711753702148046 -0.08101791339532434 0.066857339253291861 -0.10516153915092981 -0.093487262815565228 -0.005874858985746835 0.13711552668526131 -0.0020856009155451986 -0.034080262456162476 0.0039347270003791939 0.094493847210104731 -0.061896276457221622 -0.14227443511653448 0.024511036363716984 0.09192276682160494 0.03591438365241794 -0.033033154368172855 0.20021493807003798 0.095075516815023936 0.066294335150943962 0.024668923491173871 -0.048959033888123005 0.072984484185348739 0.11512090581510773 -0.053487402967244593 -0.031420974972845558 -0.077931055015400874 0.038031279139799014 0.096435043693511371 -0.1235271485306943 -0.085968067875118362 0.13128662949250669 0.093217820935950463 -0.018304562028554249 0.49568995325576054 -0.11103747201390719 0.12765792647327431 -0.04286320733245759 0.19700454041197196 0.079018562616452237 0.26765414165791718 -0.099289704011304769 0.059414193294662382 -0.15487335273010647 0.14324916883323219 0.18601735843385039 -0.16199401809685018 -0.044408260473315267 0.08189625601442288 0.20754646377858457 0.036984362858251428 -0.074177487411295637 0.19179400039482219 0.11647209617851083 0.019486101668425418 -0.21975568369984658 -0.14794222254038336 -0.19311668128983675 -0.1238677133898024 -0.10278611162662686 -0.10341892608319113 -0.10611435588856782
leaf_weight=51.587216287851334 126.11303151398897 39626.224660199136 1.373131372034549 248.16744621470571 793.36452763527632 447.07897345721722 1560.4996190369129 521.97658651694655 4386.4798691906035 11336.773859195411 2117.987330827862 40.791964644566178 890.38611837849021 6074.3510761968791 2181.6826734468341 226.2815733589232 262.20099318027496 12661.68957002461 3714.4763196855783 1574.4321900848299 1027.9346137158573 2188.4618339277804 197.07380235567689 12.070601776242258 14.390973016619681 421.31448373943567 887.77216485887766 523.29593815281987 54.573912002146244 119.63962537050247 2573.1794845461845 1663.7858090028167 392.51405975222588 6.9550408646464339 23.6317577585578 3356.2061198800802 70.431725595146418 88.503716014325619 703.9424996431917 31.59487035125494 412.77944217808545 850.86557227000594 154.97646015882492 37.703663751482964 15.405369058251379 65.972372256219387 544.02967221662402 12.246815852820871 30.284007214009762 97.901449959725142 180.20360935479403 11.8559473156929 29.643923655152321 8.0442792400717718 7.671439126133917 17.304693773388863 7.2890996783971786 3.27587866783142 55.1496049631387 12.06410902738571 1.0262969769537447
leaf_count=179 833 98719 30 1011 3177 1235 6653 4220 16357 23169 11776 196 3069 10038 6105 1659 417 15874 6636 5146 10512 7810 1085 38 84 1509 1737 1297 406 934 2001 3751 1557 6 334 3337 322 209 1002 41 3921 2265 667 31 13 291 2741 31 43 423 987 9 59 22 31 81 30 29 2101 379 19
internal_value=0 0.057447 0.0806578 0.0675122 0.059714 0.0285873 0.0632564 0.0665819 0.0605862 0.0888345 -0.0150594 0.0827625 -0.0363224 0.0689192 0.0771224 0.0799374 0.0781442 0.0975064 0.0349858 0.0401574 0.0259008 0.0417367 -0.0225626 0.0987037 -0.00350799 0.00300943 0.00929857 0.0347874 0.029066 0.0999126 0.101192 0.107784 0.058209 -0.0540121 -0.0462832 0.113931 0.124153 0.0560996 0.0668975 0.100735 -0.0592231 0.0723774 -0.0880529 0.00461333 -0.0519491 -0.0908905 -0.0680848 -0.137533 0.130569 -0.0544245 -0.0350451 0.068053 0.194471 -0.14227 -0.121351 -0.129405 -0.206777 -0.112599 -0.102992 -0.1029 -0.105569
internal_weight=0 70290.3 35466.6 19922.6 67769.8 6924.38 60845.4 55871.5 44012.7 11858.8 3681.73 13563.3 3008.37 9391.97 8256.03 673.361 3242.65 15544 6359.25 6102.74 4973.97 3748.96 1225.01 15459.4 2520.5 1995.75 1135.94 1316.66 1430.87 15361.5 15234.9 1925.99 4106.99 126.595 1089.63 4171.37 3426.64 1080.89 744.734 88.1464 1001.48 939.369 256.514 89.2909 141.518 97.9432 956.809 167.223 44.675 349.984 278.105 23.9265 61.2388 74.0167 84.5737 71.8786 14.9605 26.9076 69.6131 67.2137 2.39943
internal_count=268644 207375 61269 39504 194906 26381 168525 142465 115076 27389 17739 23748 14845 18891 16143 2894 8642 21765 15756 14848 26060 14463 11597 19175 12469 6655 2748 4474 5217 18815 17875 4168 8193 940 7252 4857 3659 3320 1198 463 6789 2474 908 210 846 360 6662 698 127 1897 1410 47 100 313 2590 487 61 363 2529 2480 49
is_linear=0
shrinkage=0.1


Tree=11
num_leaves=60
num_cat=0
split_feature=52 28 122 50 53 26 52 129 0 122 2 30 128 5 135 110 69 130 95 111 75 111 89 33 74 98 118 27 73 0 5 57 76 133 109 31 51 12 110 99 18 72 56 107 50 119 66 28 22 47 32 70 104 33 72 123 106 105 81
split_gain=1164.23 870.713 751.9 983.347 784.314 761.513 1039.48 728.243 652.644 612.024 717.305 683.363 581.65 547.733 547.396 537.057 515.127 491.946 511.535 489.71 407.126 375.034 335.478 313.96 277.981 261.096 246.289 239.262 261.187 220.92 219.927 172.164 184.517 171.453 321.025 206.302 150.317 150.224 134.813 128.616 127.869 241.638 112.263 107.778 82.7765 77.8992 76.2006 70.4476 66.7969 65.2176 59.7809 51.2703 39.9156 39.401 29.8693 24.1839 21.3028 19.6971 7.45251
threshold=1.0431423187255862 1.2050414681434634 -2.0030086040496822 1.1883148550987246 1.081251919269562 1.2185050845146181 1.0775241255760195 1.0000000180025095e-35 0.34618230164051061 -1.1082928180694578 0.6278783679008485 1.0940723419189455 1.0000000180025095e-35 0.53343233466148388 1.0000000180025095e-35 -0.89827623963356007 0.086835313588380827 1.0000000180025095e-35 -1.0272714495658872 -0.84900000691413868 -1.1167782545089719 -1.2516265511512754 -0.12464921176433562 0.81763422489166271 -1.0290792584419248 -0.99192959070205677 -0.97358912229537953 1.3305969238281252 -0.84922334551811207 0.5040586292743684 0.5384775996208192 0.84578856825828563 -1.1028320193290708 1.0000000180025095e-35 -0.90966138243675221 1.0100194811820986 1.1449611783027651 1.1592667102813723 -0.85170990228652943 -0.97093522548675526 1.3535742759704592 -0.73320040106773365 0.89682888984680187 -0.94954290986061085 1.0703312754631045 -1.5982164144515989 0.18979027122259143 1.2087926864624026 1.4260741472244265 1.0896534919738772 0.95657512545585643 -0.34299145638942713 -0.86800357699394215 0.93186739087104808 -0.60275325179100026 -1.3566978573799131 -0.9103519320487975 -0.87241283059120167 -1.206439673900604
decision_type=2 2 2 2 2 2 2 2 2 2 2 2 2 2 2 2 2 2 2 2 2 2 2 2 2 2 2 2 2 2 2 2 2 2 2 2 2 2 2 2 2 2 2 2 2 2 2 2 2 2 2 2 2 2 2 2 2 2 2
left_child=7 2 3 21 5 12 -7 9 13 17 15 19 -4 -6 33 26 45 18 29 -12 -20 36 -18 -23 -13 -17 -11 28 38 -1 -10 52 55 34 35 -3 -2 57 39 -9 42 -42 -19 -34 48 -5 49 -48 -30 -35 -40 -36 54 -46 -16 -33 -54 58 -29
right_child=1 14 4 16 8 6 -8 27 30 10 11 24 -14 -15 31 25 22 40 20 -21 -22 23 -24 -25 -26 -27 -28 37 44 -31 -32 32 43 46 51 -37 -38 -39 50 -41 41 -43 -44 -45 53 -47 47 -49 -50 -51 -52 -53 56 -55 -56 -57 -58 -59 -60
leaf_value=0.0058666822860616117 0.077767846760565432 0.04328595349196409 0.09118162846361777 -0.10462074847659047 0.030703621130658321 0.060249822691251925 0.019778737767472503 -0.15670509591600368 -0.11411203691331949 0.067468988151960216 0.083817475571920097 0.06252685543860885 0.039111944883206864 0.15252434261133907 -0.13667137095797088 -0.065760349883087155 0.21267317881716508 -0.10786877656667644 -0.055182117086781585 -0.10975022156392794 0.07938538250867172 -0.11319137672040412 -0.11320208388600224 0.14036035938751953 -0.023429488469776789 0.05713155619256588 -0.028175770551777019 -0.16485711812944931 -0.1534637452109382 0.15617864576482263 -0.017175941975097718 0.064881751107531138 0.034217132035730236 -0.056862734614337843 -0.091101384760113827 -0.10133128430453997 -0.13874338719519116 0.24653145939483656 -0.16586513046888929 0.079884812892297222 -0.090623506054382796 0.29702232778131854 0.017257599306493076 0.13519381245251327 -0.042669888838198916 0.12525459305551423 -0.12400846675006426 0.21996024926551194 0.028767314264641575 -0.1238264108279919 0.10528999344949518 0.018463796283649053 0.17590322518974402 0.21842653236699505 0.12434013337067971 -0.14469676090870792 -0.034917628702213516 0.0093324104295421633 -0.12389366755386746
leaf_weight=106.84285687282681 58.982981450855732 711.11636194959283 8270.8110176734626 334.29771168902516 11229.24141247943 19239.381925307214 9470.3530024550855 24.446792140603065 305.42273675836623 317.60298372805119 9142.8488066680729 615.35537772625685 2896.6722237244248 381.6284007653594 50.541319578886032 182.51657846570015 114.71281136199832 193.59561225026846 226.57723794877529 132.59467772953212 29100.604692731053 49.890216093510389 43.597025375813246 2311.332977168262 968.20529953017831 3275.5649110637605 1767.6633862927556 99.394187614321709 126.53996847197413 1152.6948281601071 1001.5411807466298 6.5291520506143561 147.02464521676302 338.67841833457351 425.42790929786861 114.52945730835199 70.266499236226082 10.650145292282103 39.049097456037998 382.29749369621277 33.881988078355789 30.605770237743855 113.88229085505009 376.09371770918369 12.478233426809313 15.421793170273302 9.5175313428044337 15.903916031122206 23.916292391717434 254.90741211548448 10.268815845251082 47.475243654102087 8.1115665882825869 10.766601637005804 4.8008085638284674 35.133910715579987 11.715701892971991 8.4886163622140867 80.289052151143551
leaf_count=271 235 2754 16825 4235 48564 47624 32254 118 1807 607 13533 1351 8329 1008 211 1085 185 1778 652 4057 42374 237 471 1274 3420 8170 5652 448 598 916 5290 16 430 1730 2745 780 816 12 231 785 276 95 690 584 43 57 67 38 74 1995 16 147 8 4 7 176 38 24 427
internal_value=0 0.0487325 0.0513479 0.100059 0.0485813 0.0555185 0.0468998 0.0697353 0.0271664 0.0713613 0.0557438 0.0706851 0.0776756 0.0347076 -0.00832284 0.0264748 -0.0267342 0.0796357 0.0810258 0.0810504 0.0783457 0.125924 0.12293 0.135003 0.00997226 0.0506454 -0.0136083 -0.0232049 0.00698854 0.143428 -0.0398288 0.0717607 0.0906832 -0.0350493 -0.0144042 0.0232254 -0.0399385 -0.118842 0.046733 0.0656649 -0.0346739 0.0933525 -0.061525 0.106814 -0.0973628 -0.0944838 -0.0783585 0.0911819 -0.124497 -0.0856194 -0.109406 -0.080102 -0.0704123 0.0782654 -0.114029 -0.111853 0.0513316 -0.139521 -0.146553
internal_weight=0 58351.1 55793.6 2998.5 52795.1 39877.2 28709.7 48189.6 12917.8 47361 16402.4 10859 11167.5 11610.9 2557.51 5543.35 508.029 30958.7 30586.7 9275.44 29327.2 2490.47 158.31 2361.22 1583.56 3458.08 2085.27 828.585 629.763 1259.54 1306.96 639.951 564.781 1917.56 1298.55 825.646 129.249 198.822 456.062 406.744 371.966 64.4878 307.478 523.118 173.701 349.72 619.007 25.4214 150.456 593.586 49.3179 472.903 75.1694 23.2448 55.3421 41.6631 19.8273 188.172 179.683
internal_count=268644 180937 169211 7510 161701 105032 79878 87707 56669 84927 37875 22361 25154 49572 11726 15514 4948 47052 44213 17590 43026 2562 656 1511 4771 9255 6259 2780 1869 1187 7097 1470 1206 10256 6426 3534 1051 911 1150 903 2839 371 2468 1014 719 4292 3830 105 672 3725 247 2892 264 47 218 192 46 899 875
is_linear=0
shrinkage=0.1


Tree=12
num_leaves=63
num_cat=0
split_feature=51 122 50 102 73 97 33 53 134 34 28 31 124 128 80 96 0 107 69 28 45 110 1 33 2 89 28 37 19 135 51 124 9 136 105 44 74 51 133 0 109 34 70 109 50 28 30 35 119 109 110 26 104 90 38 49 32 109 36 100 124 53
split_gain=1025.69 826.562 842.24 630.142 598.769 970.093 641.386 573.339 697.214 1977.58 783.542 546.718 492.863 486.143 467.216 465.99 463.559 518.155 431.772 396.427 427.466 334.187 312.537 269.282 265.334 256.374 245.32 339.767 230.905 226.68 222.581 220.247 320.188 203.01 194.877 192.953 167.991 159.688 157.271 146.129 126.474 119.498 119.406 117.544 112.248 101.496 78.2597 70.4164 67.6961 42.2893 41.0248 38.2316 172.824 60.7288 35.5683 34.2285 22.3272 9.42191 0.646215 0.645273 0.214349 0.107034
threshold=1.0703116655349734 -2.0030086040496822 1.1883148550987246 -0.84974396228790272 -0.74098473787307728 -0.855533868074417 0.86064040660858165 1.0887108445167544 1.0000000180025095e-35 0.90715506672859203 1.1705766916275027 1.0144585967063906 -1.3185967803001402 1.0000000180025095e-35 -1.2932267189025877 -0.96359428763389576 0.3400882631540299 -0.97597041726112355 0.086835313588380827 1.2014052867889407 1.0791182518005373 -1.1880323290824888 0.37605874240398413 0.81763422489166271 0.51081082224845897 -0.12464921176433562 1.1605245471000674 0.92905879020690929 1.2011969089508059 1.0000000180025095e-35 1.1449611783027651 -1.633191645145416 1.1082024574279787 1.0000000180025095e-35 -0.87723994255065907 1.1956887841224673 -0.95311874151229847 1.0284950733184817 1.0000000180025095e-35 0.34464067220687872 -1.1036867499351499 0.83245405554771434 -0.4401333332061767 -1.1326628923416135 1.056490480899811 1.2474549412727358 1.0494005680084231 0.84603744745254528 -1.5982164144515989 -1.0881054997444151 -1.1779581904411314 1.2962082028388979 -0.89858624339103688 -1.0418778061866758 0.98817032575607311 1.0839656591415407 0.84308886528015148 -1.1246888637542722 0.81364092230796825 -0.85717156529426564 -1.6384100914001463 1.1249150633811953
decision_type=2 2 2 2 2 2 2 2 2 2 2 2 2 2 2 2 2 2 2 2 2 2 2 2 2 2 2 2 2 2 2 2 2 2 2 2 2 2 2 2 2 2 2 2 2 2 2 2 2 2 2 2 2 2 2 2 2 2 2 2 2 2
left_child=4 2 21 14 5 11 22 8 10 -10 -5 12 15 -14 26 -1 17 -9 48 20 -16 30 41 49 29 35 27 -3 -18 45 43 42 -33 34 37 -20 -28 -8 -21 -31 58 55 -26 -2 -42 -7 -36 -43 56 -23 -25 52 -13 -53 -50 -6 -4 -32 -24 -35 -61 -27
right_child=1 3 18 7 6 24 33 16 9 -11 -12 51 13 -15 19 -17 28 -19 25 38 -22 23 40 50 31 61 36 -29 -30 39 57 32 -34 59 46 -37 -38 -39 -40 -41 44 47 -44 -45 -46 -47 -48 -49 54 -51 -52 53 -54 -55 -56 -57 -58 -59 -60 60 -62 -63
leaf_value=0.10932897867366782 -0.11894346998266803 0.081691385961637941 -0.11163933721511435 0.060607258151390231 -0.13695029033589354 -0.057320820882534013 0.12593322651287642 -0.026536849624649139 0.056990327507958065 -0.074956898697486909 0.016004115342298147 0.45625176411586904 0.055048010561242693 -0.034496908254913243 0.12422780481499192 0.066924119744299446 -0.10398355701781513 0.036776476184299245 0.23168159683014289 -0.00095470837268679545 0.019120340356927473 -0.16021479181686346 -0.1888731139760314 0.11375404305938115 -0.1224364701415275 -0.12672553209985779 -0.068020442388928945 -0.10537741606255875 0.14926050117483131 -0.17303454836382173 -0.11333932707199257 -0.079278163625748632 0.16053074367376369 -0.17014115454492434 -0.12690313929018388 -0.12944790983836882 0.077137345073562902 0.091916883191695567 -0.1019857094249067 0.063699644651306744 0.068911683409233579 0.039500818438621757 0.098040609987954414 0.15059976732199268 -0.091886281077197512 -0.14108626912107669 0.074922018460502907 -0.20886237791348208 -0.006485826390086504 0.055663212973027155 0.14366396144526725 -0.10985529135963219 -0.041733760471952125 -0.0016575162714842291 0.30075891811359429 -0.021208808714940793 -0.021733323076145668 -0.18576632726727196 -0.22822964674244606 -0.20492559018827114 -0.22969903447710005 -0.11004206493901614
leaf_weight=3134.7032435834408 20.890264857560396 325.52738801948726 277.22932194918394 26328.607736460865 157.11408325098455 476.91455969959497 2273.8840453177691 1581.8273631371558 3513.8675928711891 1678.4595314562321 4631.3024278432131 7.3903036192059508 26990.128759149462 620.22513372823596 622.2289429102093 14953.756474263966 393.48816911876202 7069.9282457195222 104.09262512624264 619.23041133396327 1023.2189958672971 35.682809017598629 6.8049799203872707 660.55074725672603 26.498248293995857 4.3112899065017691 1234.4299531485885 138.35670252330601 39.630597844719887 30.037886336445808 51.71711309812963 270.83642314001918 70.084204945713282 4.6844818145036724 50.643131911754608 17.246765285730362 85.231591260060668 3510.8316275179386 205.11374385282397 197.61193805932999 667.00858528912067 101.48240593075752 336.51337237656116 71.734482832252979 46.434900335967541 207.62314619868994 30.95688085258007 12.862498372793196 10.173047728836538 12.168916102498768 1499.8083196878433 187.18191319704056 122.24863703548908 71.763153865933418 5.9843060523271552 30.513405531644821 30.6788041703403 27.51844983920455 10.782528072595595 12.156444519758228 4.900549262762067 35.591156292706728
leaf_count=3989 221 1216 3740 63536 1722 1550 1535 9888 9256 7217 16424 16 55012 3497 1456 24892 2133 29516 79 3015 4440 198 28 513 98 26 6245 1303 93 128 765 793 38 20 168 106 234 4456 1567 340 922 174 356 42 155 947 51 52 53 35 643 1570 632 241 4 100 495 145 44 49 20 445
internal_value=0 0.0421677 0.0943863 0.0391444 0.0617554 0.0577675 0.0892422 0.0426044 0.0482479 0.0143374 0.0539351 0.0604379 0.0614423 0.0530365 0.00234492 0.0742728 0.0201466 0.0252007 -0.0256779 0.0305097 0.0588669 0.118868 0.0165633 0.129322 -0.0183853 0.108042 -0.0366567 0.0258968 -0.0808116 -0.0539798 -0.0154495 0.0277397 -0.0299798 0.101993 0.103123 0.180352 -0.0586453 0.105288 -0.0260933 0.0324631 0.0519154 -0.069019 0.0819468 0.0898079 0.0584461 -0.0827272 -0.050336 0.0115628 -0.0922116 -0.105316 0.134519 -0.0576759 -0.0133452 -0.0798697 0.10731 -0.118128 -0.102681 -0.138493 -0.213002 -0.203015 -0.212043 -0.111845
internal_weight=0 52355.8 2865.38 49490.4 54624.6 47703.5 6921.06 45237.1 36152.2 5192.33 30959.9 46087.4 45698.8 27610.4 4253.34 18088.5 9084.87 8651.76 485.307 2469.79 1645.45 2380.07 1033 2208.21 1616.12 161.242 1783.55 463.884 433.119 912.188 171.86 703.932 340.921 5888.06 5866.32 121.339 1319.66 5784.72 824.344 227.65 731.031 301.972 363.012 92.6247 713.443 684.538 81.6 114.345 324.065 47.8517 2160.36 388.584 129.639 258.945 16.1574 187.627 307.908 79.2356 17.5875 21.7415 17.057 39.9024
internal_count=268644 165049 7510 157539 103595 94099 9496 138063 96433 16473 79960 89849 87390 58509 19476 28881 41630 39404 4948 10478 5896 2562 3197 1389 4250 656 8998 2519 2226 2965 1173 1285 831 6299 6210 185 6479 5991 4582 468 1149 2048 454 263 1077 2497 219 226 4292 233 1156 2459 648 1811 57 1822 4235 910 72 89 69 471
is_linear=0
shrinkage=0.1


Tree=13
num_leaves=60
num_cat=0
split_feature=130 81 128 110 57 70 122 53 52 71 133 32 32 127 116 76 109 70 6 6 58 31 127 30 58 118 87 33 72 103 31 33 20 35 19 97 116 69 32 88 105 117 10 127 118 123 133 127 112 78 5 53 62 82 55 25 56 0 65
split_gain=947.395 1173.25 897.372 566.345 558.451 620.555 540.982 901.451 871.163 946.925 817.503 426.992 380.912 384.654 474.413 475.78 380.609 366.062 360.001 299.858 292.911 295.298 292.902 407.654 285.048 275.748 410.406 261.027 243.856 229.223 216.385 186.909 176.449 170.556 163.012 154.557 149.055 147.124 146.538 143.455 132.87 146.565 126.878 106.109 104.708 91.71 80.8096 63.3597 144.388 200.568 62.1995 47.7539 43.0138 37.0441 36.6723 23.7999 23.5411 12.409 0.188892
threshold=1.0000000180025095e-35 -1.254230737686157 1.0000000180025095e-35 -1.1938187479972837 0.9125819504261018 -0.23717205226421353 -1.9758546352386472 1.1197195649147036 1.0835750102996828 -0.40337947010993952 1.0000000180025095e-35 0.96758571267128002 0.95620459318161022 -1.7477120757102964 -1.03027868270874 -1.1518154740333555 -0.92647185921668995 -0.056266317144036286 0.62203383445739757 0.55860841274261486 0.84043619036674511 0.9965159296989442 -1.5447348356246946 1.0357999205589297 0.90047627687454235 -0.98319536447525013 -1.3182663917541502 0.81763422489166271 -0.58949750661849964 -0.81784901022911061 0.99638450145721447 0.75864949822425853 1.1856094598770144 0.93358284235000621 1.4188060760498049 -0.97419983148574818 -0.96208757162094105 -0.17041078209877011 0.974839746952057 -1.1720352768898008 -0.81145945191383351 -1.0929669141769407 0.6785687804222108 -2.0484006404876705 -1.1076105833053587 -1.253152549266815 1.0000000180025095e-35 -2.0268452167510982 -1.0073166489601133 -1.1530318856239317 0.6134314537048341 1.1125182509422304 0.60676524043083202 -1.2461953759193418 1.0534847378730776 1.2011935114860537 0.95429283380508434 0.24746725708246234 0.42614713311195379
decision_type=2 2 2 2 2 2 2 2 2 2 2 2 2 2 2 2 2 2 2 2 2 2 2 2 2 2 2 2 2 2 2 2 2 2 2 2 2 2 2 2 2 2 2 2 2 2 2 2 2 2 2 2 2 2 2 2 2 2 2
left_child=2 12 3 31 18 16 7 27 9 -8 -10 29 22 14 39 -16 28 -9 36 -18 38 -22 23 32 -13 45 -27 -5 -6 -7 34 -1 -2 47 -24 -32 42 -25 -20 -14 43 51 -4 55 -45 -15 52 53 49 -49 -50 -42 -33 -3 -55 -35 -38 -48 -43
right_child=1 33 4 6 5 11 8 17 10 -11 -12 24 13 25 15 -17 19 -19 20 -21 21 -23 30 37 -26 26 -28 -29 -30 -31 35 46 -34 40 -36 -37 56 -39 -40 -41 41 58 -44 44 -46 -47 57 48 50 -51 -52 -53 -54 54 -56 -57 -58 -59 -60
leaf_value=0.1929699663346959 -0.043895245891559576 0.16558637334373932 -0.08453598510779281 -0.1053821451132418 0.24543332045737137 0.21942689992044384 0.054082077537392054 -0.088960362538518231 0.039228623018995927 0.11373823806370507 -0.029858331163212959 0.036344034383906022 0.22188507326925017 0.10297264653255532 0.026977466660853967 -0.10356523093521515 -0.11753338864143514 0.091684038071588064 -0.02545039239992733 0.07962624493691009 -0.13846153914994638 0.080944285865052951 -0.069676969687685372 -0.010183960343600421 0.17634204241389609 0.098356207008667484 -0.024839947972738766 0.12061045521949763 0.013883632621787503 -0.027579504474124206 0.04789125059378093 -0.1624083322944595 0.12752878870648329 -0.027823175555725166 0.080148295124386454 0.15471141952728865 -0.15176733164062955 -0.078690752263212121 0.21436736625612982 0.07615852144141505 0.23686223545519122 -0.13735589383865668 -0.0066750808415545308 0.1135926703245333 -0.14107114120466699 0.19528861278286555 0.020142644275082826 0.16922178200168617 -0.1083361295740306 -0.06034808100305844 -0.037876334422792687 0.0085482118177967505 -0.067189855335195142 -0.12857707932895768 -0.063330840942258534 -0.13202532170610767 -0.081027780027012969 0.1489697897211007 -0.11505936822709453
leaf_weight=29.114518962800503 82.811547890305519 4.8249114677309981 397.84461119584739 52.120091315358877 216.3414821177721 38.482956647872925 66577.436097897589 339.04350879043341 17207.817642007023 2771.5178269408643 1902.0860950909555 778.91180622577667 76.930867500603199 190.0202199369669 957.38074221462011 394.12484861165285 82.585796114057302 167.64515532180667 1234.7388733141124 1169.8121513538063 67.851353362202644 639.51049915701151 229.61900408752263 554.17117184773088 178.82669132947922 966.38420630246401 375.470229126513 2634.5150263495743 57.590140916407108 1583.8098084554076 533.3067131023854 53.901587769389153 218.40866162255406 30.340862322598696 106.20766878314316 181.56495543196797 176.23033229634166 721.79068080335855 26.016090467572212 554.10079826042056 47.879932805895805 12.887554794549944 441.59503186866641 61.456079810857773 21.898288324475288 248.13943771272898 13.694505725055935 57.678249359130859 412.10555134341121 111.86998068541288 180.01331815123558 11.328532736748455 395.8958363942802 358.79682580009103 113.36175399646163 78.966911539435387 64.175061585381627 16.468061834573746 5.388188123703002
leaf_count=15 448 14 1698 262 332 86 131224 4177 54183 3092 9175 2306 91 459 3014 1923 492 716 6192 2667 284 1260 2230 2886 546 1647 1221 1954 235 7417 1578 278 650 220 437 296 885 3356 14 1551 62 67 1570 150 110 305 49 188 2432 756 1365 96 5895 2172 1081 471 307 6 51
internal_value=0 0.0135013 0.0494839 0.0521323 0.0153672 0.0394376 0.0527165 0.0931526 0.0512568 0.0564662 0.0323521 0.00953747 0.0322277 0.0526314 0.0223347 -0.0110913 0.0899793 -0.0291916 -0.0170617 0.0666251 0.00839499 0.0598985 0.00301405 -0.0242353 0.0624841 0.0863751 0.0638841 0.116226 0.196753 -0.0217202 0.0439176 -0.053051 0.0804008 -0.0658132 -0.0222936 0.0750217 -0.063459 -0.0489371 -0.0205017 0.0939245 0.00618027 0.116768 -0.0435765 -0.0382954 0.0466891 0.155253 -0.0679748 -0.0815147 -0.0636169 0.0177488 -0.0869153 0.193178 -0.0786004 -0.110095 -0.112912 -0.103102 -0.132884 0.0904793 -0.130782
internal_weight=0 7899.23 99315.6 92161.3 7154.32 4106.36 91652.2 3193.32 88458.9 69349 19109.9 2580.03 6390.43 3762.55 1982.54 1351.51 1526.33 506.689 3047.96 1252.4 1968.12 707.362 2627.88 1577.18 957.738 1780.01 1341.85 2686.64 273.932 1622.29 1050.7 509.075 301.22 1508.8 335.827 714.872 1079.85 1275.96 1260.75 631.032 270.146 77.4842 839.44 192.662 83.3544 438.16 479.96 1238.65 761.667 169.548 592.119 59.2085 449.797 476.983 472.159 109.308 240.405 30.1626 18.2757
internal_count=268644 31327 237317 211026 26291 14081 204783 7109 197674 134316 63358 10355 22092 10211 6579 4937 3726 4893 12210 3159 7750 1544 11881 7340 2852 3632 2868 2216 567 7503 4541 6243 1098 9235 2667 1874 4460 6242 6206 1642 1227 276 3268 951 260 764 6228 8008 4741 944 3797 158 6173 3267 3253 691 1192 55 118
is_linear=0
shrinkage=0.1


Tree=14
num_leaves=63
num_cat=0
split_feature=52 26 30 35 135 75 130 133 31 32 70 123 79 80 54 29 125 0 25 26 121 17 28 4 71 0 0 32 122 31 0 29 100 29 29 41 92 107 106 29 84 54 33 61 57 2 31 8 74 113 74 105 30 2 58 0 49 72 104 36 72 29
split_gain=873.487 718.058 691.662 604.179 572.672 565.034 648.181 692.788 529.366 471.063 702.591 546.632 664.806 543.828 470.009 513.528 398.847 394.155 384.249 378.956 363.777 351.142 472.354 350.544 349.781 549.407 374.508 331.846 309.004 283.542 261.11 225.297 244.213 219.116 218.958 208.18 199.34 190.265 186.605 213.158 153.573 151.36 150.752 149.354 139.486 138.271 121.669 103.593 87.7056 73.4415 150.711 72.0502 64.1301 56.2587 53.874 61.5737 60.6101 52.6442 49.9875 40.5878 28.5069 24.6506
threshold=1.0189570188522341 1.3185625672340395 1.0889247655868532 0.89365854859352123 1.0000000180025095e-35 -1.1055251359939573 1.0000000180025095e-35 1.0000000180025095e-35 0.94535520672798168 0.96178874373435985 -0.18739834427833554 -1.136420667171478 -1.1603237390518186 -1.260310113430023 0.90849640965461742 1.1994886398315432 -1.4656807184219358 0.35644619166851049 1.2204167842864992 1.2681582570075991 -1.1354896426200864 1.3386505842208865 1.236278831958771 0.72584521770477306 -0.49397854506969446 0.41736842691898351 0.54966169595718395 0.95106908679008495 -1.0546138286590574 1.0025078654289248 0.59804579615592968 1.1513916850090029 -0.93708544969558705 1.1489759683609011 1.2096724510192873 0.99414658546447765 -1.1309698820114134 -0.98165360093116749 -0.8998919129371642 1.1958642005920412 -1.2858343720436094 0.94736066460609447 0.87085017561912548 0.57742050290107738 0.82129606604576122 0.565106362104416 1.0112012624740603 0.80341196060180675 -0.96364539861679066 -1.1953468918800352 -0.82441437244415272 -0.8931153118610381 1.0916224718093874 0.54035437107086193 0.72997599840164196 0.34316107630729681 0.99245834350585949 -0.66801020503044117 -0.91221290826797474 0.82419505715370189 -0.56096315383911122 1.1396284699440005
decision_type=2 2 2 2 2 2 2 2 2 2 2 2 2 2 2 2 2 2 2 2 2 2 2 2 2 2 2 2 2 2 2 2 2 2 2 2 2 2 2 2 2 2 2 2 2 2 2 2 2 2 2 2 2 2 2 2 2 2 2 2 2 2
left_child=2 3 8 5 17 19 7 -7 21 11 13 12 -5 -11 15 40 -8 49 -12 35 37 54 36 34 25 33 -27 -13 -25 -21 -24 32 -19 -10 -17 -2 -23 57 39 41 -4 -16 51 -33 -39 -42 -44 58 61 60 -51 -26 -49 -50 56 -56 -1 -6 -40 -41 -3 -22
right_child=1 4 14 9 20 6 16 -9 24 10 18 27 -14 -15 38 23 -18 31 -20 29 48 22 30 28 42 26 -28 -29 -30 -31 -32 43 -34 -35 -36 -37 -38 44 47 59 45 -43 46 -45 -46 -47 -48 52 53 50 -52 -53 -54 -55 55 -57 -58 -59 -60 -61 -62 -63
leaf_value=-0.083420721957334187 0.065692486958728452 -0.13438936567740101 -0.21125341178643336 0.0064745988016477324 0.068500956196334936 0.066731994556786897 -0.07115977132317107 0.020969729645803251 0.043435979891861091 0.060982018418319885 -0.050744904059687318 -0.14646797562986733 0.045171533323390738 0.013201325382807298 0.032681672796998455 0.023520792140300478 0.060265990667586838 -0.099488468052884013 0.24007127292499361 -0.03692476332881213 0.05829973883712334 -0.12556206332849418 -0.037279889077300184 0.095167500218826862 0.055495099710565626 0.051945547799311667 0.079594215584693928 0.10102268021353933 0.015317412992402947 0.026463614017918375 0.033938304482835531 -0.017951018324141258 0.038224859748250184 -0.079364362002377287 -0.046528164451954603 -0.0061701929163485584 0.12162701493863132 -0.037256721363424915 0.12159964457763216 -0.096338419989491275 -0.19699166819093505 -0.070945737022641078 0.10729831495635574 -0.10536664601913932 0.076274307095321847 0.093875441029882364 -0.045430058489712051 0.12645740849879741 -0.16976533636221275 -0.11484170685609085 -0.011076479616305888 -0.12512274702115403 -0.14874636358320842 0.10750806007010039 -0.21428103005943233 0.074458455262890452 -0.2159596037269807 -0.15844621373606679 -0.10611954652281895 0.22607308628535724 0.12313382712602024 -0.15565632627056503
leaf_weight=136.05233926698565 1768.396722342819 237.37672109156847 16.986812062561512 15373.068149793893 12.922213561832903 19536.01042220369 634.38195454701781 3982.5381874665618 239.85668787360191 10522.021848894656 948.88274011015892 57.026680491864681 6242.2826413344592 3079.1752486675978 941.85290345549583 908.66208260506392 363.06516026332974 143.37604590132833 47.718254491686821 1420.4158043246716 5.6679191142320624 34.313039049506187 663.89402402937412 862.67124529927969 527.18522797524929 9969.2764162607491 9632.7320040911436 1084.3618168011308 1105.9175894856453 1402.3546061404049 2292.3834507316351 1225.6052458621562 1264.0885707102716 368.59291276708245 876.81707866862416 522.14293526113033 662.69351205043495 116.90716545283794 9.9338120892643911 216.37595831975341 16.508431755006313 165.75446265004575 3066.2706259936094 232.53472100570798 1456.0326512828469 1634.5675311982632 53.062874607741833 35.157159931957722 10.04197536408901 284.42909304238856 275.59780729934573 23.051566258072853 11.153811760246752 26.973543271422386 9.5662215054035169 32.399093389511108 46.226147592067719 48.900092743337154 325.54928122274578 3.9763389304280272 4.3777702972292891 107.84364137798548
leaf_count=4476 3779 1288 73 49381 33 43640 3650 11927 355 23887 6769 298 20655 10017 2092 1779 1508 1181 54 4888 11 765 1784 1167 691 15606 12126 1819 2994 4422 4462 5376 3246 1119 2753 1760 615 301 22 1119 69 771 2438 1330 2303 1843 142 39 44 1993 1098 70 62 29 39 44 195 231 1551 8 6 451
internal_value=0 0.0358231 0.055083 0.0386638 0.000926644 0.0493275 0.0556342 0.0589828 0.06222 0.0302054 0.0442264 0.0212113 0.0176499 0.0501649 0.0273058 0.0417214 -0.0233215 -0.0216846 -0.0368203 0.0190897 0.0473752 0.0279489 0.0354045 0.0212073 0.0677847 0.0626277 0.0655325 0.0886574 0.0503092 -0.00543337 0.0179448 -0.00434356 0.0241962 -0.0309553 -0.010879 0.0493109 0.109458 0.0610728 -0.0184103 -0.00069627 0.0878895 0.0171737 0.0961875 -0.0318915 0.0678362 0.0909672 0.1047 -0.0800232 -0.101384 -0.0836622 -0.0637773 0.0479283 0.0601757 0.0322863 -0.0935145 0.00863872 -0.117033 -0.111009 -0.0993767 -0.0905204 -0.129726 -0.144973
internal_weight=0 72436.5 34889.4 66983.8 5452.68 29629.3 24516 23518.5 27757.6 37354.5 14597.8 22756.7 21615.4 13601.2 7131.88 5422.13 997.447 3667.39 996.601 5113.31 1785.29 3877.53 3653.28 3754.07 23880 20210.5 19602 1141.39 1968.59 2822.77 2956.28 2865.6 1407.46 608.45 1785.48 2290.54 697.007 1634.76 1709.75 1327.96 1668.06 1107.61 3669.57 1458.14 1572.94 1651.08 3119.33 381.794 150.527 801.781 560.027 550.237 46.311 37.0155 224.244 41.9653 182.278 61.8223 335.483 220.352 241.754 113.512
internal_count=268644 207375 61269 188454 18921 75574 60725 55567 44927 112880 40727 72153 70036 33904 16342 10678 5158 15518 6823 14849 3403 12380 7626 8693 32547 29206 27732 2117 4161 9310 6246 11133 4427 1474 4532 5539 1380 2868 5664 3990 1985 2863 3341 6706 2604 1912 2580 1674 535 4385 3091 761 101 73 4754 83 4671 264 1573 1127 1294 462
is_linear=0
shrinkage=0.1


Tree=15
num_leaves=61
num_cat=0
split_feature=51 122 50 101 31 29 0 6 98 72 0 33 97 69 110 112 29 34 28 135 84 33 31 74 83 89 76 51 116 76 76 82 54 68 132 89 45 111 27 73 29 40 109 100 53 0 85 122 88 110 4 54 124 29 61 74 109 5 52 53
split_gain=768.177 710.35 676.165 621.483 531.978 466.692 453.861 406.422 450.665 397.928 908.991 352.758 306.616 304.64 291.408 290.928 290.704 257.312 228.487 222.935 246.889 209.44 209.111 207.778 200.154 198.098 194.75 182.059 176.114 477.195 231.654 174.728 156.843 154.382 153.684 144.16 143.854 141.916 131.466 111.626 121.471 108.065 92.0575 89.4562 85.097 71.1203 62.9873 105.235 62.0867 49.8877 26.6778 25.6908 23.3501 67.2097 23.958 18.9103 8.45843 1.45433 0.794193 0.0919589
threshold=1.0794922709465029 -2.0030086040496822 1.1883148550987246 -0.85618883371353138 1.0075265765190127 1.2356600165367129 -0.12562089413404462 0.61900785565376293 -0.90015515685081471 -0.59761446714401234 0.33847433328628546 0.87085017561912548 -1.0570560097694395 0.086835313588380827 -1.1880323290824888 -1.2390483021736143 1.0550409555435183 0.9179694950580598 1.1821022033691408 1.0000000180025095e-35 -1.0132514834403989 0.81311345100402843 1.0156003236770632 -0.97637158632278431 -1.2789589762687681 -0.12464921176433562 -0.92904740571975697 1.1449611783027651 -0.9822067618370055 -1.1598881483078001 -1.01954710483551 -1.3624882102012632 1.1064829230308535 0.15617883205413821 1.0000000180025095e-35 -1.1864058375358579 1.0917848348617556 -0.92455169558525074 1.2636637687683108 -0.93602976202964772 1.2501043081283572 0.99650132656097423 -1.1326628923416135 -0.94450169801712025 1.0789268016815188 0.38849450647830969 -0.30764186382293696 -2.0234382152557369 -1.1964569687843321 -1.1804248094558714 0.017350524663925174 1.0605595707893374 -1.5663328766822813 1.162782669067383 0.64200517535209667 -1.0081334710121153 -1.1246888637542722 0.80585941672325145 1.1437829136848452 1.1249150633811953
decision_type=2 2 2 2 2 2 2 2 2 2 2 2 2 2 2 2 2 2 2 2 2 2 2 2 2 2 2 2 2 2 2 2 2 2 2 2 2 2 2 2 2 2 2 2 2 2 2 2 2 2 2 2 2 2 2 2 2 2 2 2
left_child=4 2 14 16 5 9 15 8 -8 10 38 34 -12 46 27 51 31 -13 -9 20 23 58 28 -7 41 32 52 42 29 37 -31 44 -15 -17 -11 43 -26 -6 -1 40 -21 -18 -2 -30 -3 -33 47 -4 -37 -23 -48 -5 53 -24 -54 -41 -29 -22 -16 -27
right_child=1 3 13 6 22 19 7 18 -10 11 12 17 -14 25 21 33 24 -19 -20 39 57 49 26 -25 36 59 -28 56 35 30 -32 45 -34 -35 -36 48 -38 -39 -40 55 -42 -43 -44 -45 -46 -47 50 -49 -50 -51 -52 -53 54 -55 -56 -57 -58 -59 -60 -61
leaf_value=-0.0064532071505364781 -0.11772674565805429 0.092572238859943298 0.34519317766780477 0.09269519406442879 0.13704490087294086 -0.068016048232411488 -0.028647308546843393 0.067387663755928182 0.028737947647692996 -0.026721382411030323 -0.11481973556103985 0.091445093933478244 0.048261441172129729 0.21644416786302176 -0.15835800179893716 -0.14868093363099008 -0.046228608044283387 -0.099471128579537285 -0.10850877081777294 0.096113589934863533 -0.13966474374129198 0.086830035747432727 -0.16134638159490466 0.13222067423956155 0.03031109736457881 -0.12605988302922519 0.15561424086305897 -0.1139640847925189 -0.06711062977981351 -0.0065548609680426227 0.077235476591668087 0.13898026882108563 -0.024216300501632107 0.14115703006636102 0.057477508090296572 -0.1490049895178491 -0.05457874300877158 -0.16834654304534469 -0.10462242267662757 -0.077461993671529283 -0.14443721417693417 -0.13215450141411267 0.13172903158319191 0.012564880713808058 -0.11181465076083935 -0.066952305746823801 -0.11038114829771939 -0.11353461452268312 -0.034744983526293148 0.12686409660783693 0.02687518379829823 -0.10758081651966407 -0.10262383727051459 0.12244593392822289 0.10256129999693614 -0.13183858164753845 -0.183834539392698 -0.17572306990362616 -0.12367702071013205 -0.11050744230821584
leaf_weight=200.4846012853086 19.149939920753241 30.469911001622677 8.6025172919034958 6.5100164115428916 457.06122629344463 73.169459085911512 1422.0794999301434 3195.1694309562445 36341.170608121902 407.2958849966526 115.55826551094651 4061.2717744782567 49458.032452041283 86.167325332760811 20.358596026897434 23.355346452444792 1301.8365772906691 71.844042524695396 75.596655532717705 59.898865222930908 48.138979338109493 392.04542946442962 15.631571173667906 177.61883609741926 632.64637601934373 4.2391554564237586 36.545632466673851 48.457742784172297 154.60417421534657 1351.1111732572317 436.56656964123249 192.94288189336658 39.491904381662607 86.223262667655945 463.4360554292798 85.799669083207846 291.64741837978363 15.740684509277342 426.86290358752012 94.300802417099476 32.318534314632416 164.90537116862833 65.029617443680763 1591.6341485530138 61.460538104176521 18.366814970970154 261.61797487363219 11.944855723530054 106.69465312175453 1510.7021409422159 14.971034992486237 397.12016270682216 267.44245923310518 17.902559295296669 5.8143367618322364 198.74238127097487 26.968999411910772 14.571164250373839 9.7726521827280504 36.855893105268478
leaf_count=1632 221 46 6 52 601 380 4529 6063 111330 1127 3929 4444 87804 39 99 147 6678 256 337 175 248 411 71 242 2774 26 33 765 985 4349 722 311 146 142 615 476 1694 71 2017 628 169 1152 42 4589 1053 168 3990 127 627 802 169 5165 2013 23 14 1192 145 61 77 445
internal_value=0 0.0282803 0.0795341 0.0253188 0.0453459 0.0480201 0.028337 0.0295059 0.0265769 0.049048 0.0463675 0.0759397 0.0478813 -0.0296948 0.103749 -0.0651207 -0.0212237 0.0881265 0.0633222 -0.0331919 0.029424 0.114473 0.0124355 0.0738 -0.0329216 0.0784797 -0.0625993 -0.0261171 0.0185705 0.0375363 0.0139075 0.0710131 0.14081 0.0793816 0.0180924 -0.00354282 0.00352535 0.126878 -0.07325 -0.0841445 0.0118101 -0.0558892 0.0749805 0.00551077 -0.0440716 0.121081 -0.0904028 0.0785198 -0.0856736 0.118615 -0.102952 -0.104351 -0.0885934 -0.00984078 -0.0982579 -0.11434 -0.138946 -0.148043 -0.14711 -0.112112
internal_weight=0 46797.9 2556.38 44241.5 60446.1 55903.5 41547.2 41034 37763.3 55204.8 50200.9 5003.85 49573.6 463.891 2092.49 513.209 2694.28 4133.12 3270.77 698.759 313.498 1932.88 4542.55 250.788 2391.04 166.754 343.337 159.606 4199.21 2260.48 1787.68 303.24 125.659 109.579 870.732 1938.73 924.294 472.802 627.348 385.261 92.2174 1466.74 84.1796 1746.24 91.9304 211.31 297.136 20.5474 192.494 1902.75 276.589 403.63 306.791 33.5341 273.257 293.043 75.4267 62.7101 30.1312 41.095
internal_count=268644 149151 7510 141641 119493 104919 127765 122259 115859 101824 95382 6442 91733 4948 2562 5506 13876 4700 6400 3095 931 1389 14574 622 12298 656 2154 1173 12420 5743 5071 1578 185 289 1742 6677 4468 672 3649 2164 344 7830 263 5574 1099 479 4292 133 1103 1213 4159 5217 2121 94 2027 1820 910 309 176 471
is_linear=0
shrinkage=0.1


Tree=16
num_leaves=60
num_cat=0
split_feature=53 30 70 0 123 74 71 43 70 52 30 80 56 119 105 54 31 50 134 28 120 117 72 117 79 108 35 102 32 133 62 30 24 132 110 0 12 71 31 38 71 71 69 70 118 136 107 8 0 107 21 52 72 12 71 132 1 16 104
split_gain=698.406 647.406 605.651 615.416 529.52 603.656 525.375 620.801 761.417 524.989 503.558 434.092 415.268 403.056 356.307 345.744 332.835 317.74 270.082 265.12 294.385 247.623 247.91 221.837 202.459 320.361 261.195 250.347 240.752 205.43 199.42 201.573 172.795 170.935 157.102 154.279 134.122 150.779 92.5797 81.9411 75.7485 104.815 72.0452 110.875 57.9886 56.5675 39.5146 31.3625 27.6439 22.8891 20.2829 3.63318 2.16223 1.10146 0.734378 0.53941 0.39575 0.383016 0.000712899
threshold=0.99042636156082164 1.077415466308594 -0.40903261303901667 0.54966169595718395 -1.1465491056442259 -1.0290792584419248 -0.20794465392827985 1.1438075900077822 -0.14883773773908612 1.0830525159835818 1.0916224718093874 -0.23399018496274945 1.0390406250953677 -0.90844744443893422 -0.78946810960769642 1.1064829230308535 0.93567055463790905 1.1744926571846011 1.0000000180025095e-35 1.2348361015319826 -1.0280812382698057 -0.96734464168548573 -0.73115608096122731 -1.4542315602302549 -1.0667274594306944 -0.90903830528259266 0.88766798377037059 -0.84472468495368946 0.91536664962768566 1.0000000180025095e-35 0.50226095318794262 1.0866064429283144 1.3915425539016726 1.0000000180025095e-35 -1.1938187479972837 0.57133612036705028 0.90926316380500805 -0.55829676985740651 1.0001373887062075 1.0226128697395327 -0.44897840917110438 -0.44470964372158045 -0.22342874109745023 -0.38009378314018244 -1.0206808447837827 1.0000000180025095e-35 -0.95868465304374684 0.8475550413131715 0.53861019015312206 -0.8985399305820464 1.4689109921455386 1.1437829136848452 -0.73320040106773365 0.94518864154815685 -0.19056625664234159 1.0000000180025095e-35 -0.69210875034332264 1.0684514045715334 -0.81228157877922047
decision_type=2 2 2 2 2 2 2 2 2 2 2 2 2 2 2 2 2 2 2 2 2 2 2 2 2 2 2 2 2 2 2 2 2 2 2 2 2 2 2 2 2 2 2 2 2 2 2 2 2 2 2 2 2 2 2 2 2 2 2
left_child=2 6 3 18 21 13 7 8 9 -2 -7 15 17 -6 -10 34 47 -9 19 32 -21 22 -5 -14 25 26 -18 -27 33 -30 31 36 -1 -26 -8 -23 37 -3 52 -17 42 -42 43 -32 -38 46 -33 53 -44 -47 58 54 -20 55 -13 -4 -53 -43 -49
right_child=1 30 16 4 5 10 11 12 14 -11 -12 51 23 -15 -16 39 24 -19 38 20 -22 35 -24 -25 28 27 -28 -29 29 -31 40 45 -34 -35 -36 -37 44 -39 -40 -41 41 57 48 -45 -46 49 -48 50 -50 -51 -52 56 -54 -55 -56 -57 -58 -59 -60
leaf_value=-0.11104279906413117 0.036394210775820078 0.061802221386359206 -0.17995264770946828 0.040741088513519791 0.078655442511572513 0.029279739771460173 -0.10885163864202135 0.01183181939005629 0.11465182453390953 0.018249687061188551 -0.039718873065635395 -0.12324846938862087 -0.11141699386791222 -0.023811927898153045 -0.12575980884327118 -0.07644387477967414 0.026488528208375658 -0.083040842857646013 -0.20229292570652158 0.016782573234477956 -0.043769537099376817 0.05424682884494969 0.08752821770499189 0.079544495368066015 0.010616406392325577 0.058213846737213193 -0.20957975423805078 0.11992680490541099 0.0069629094406180999 0.10593022312226702 -0.11664763169478808 -0.14836102049861752 0.10650265895289944 0.082035837293986835 0.12153472799826531 0.13767803504211787 0.054992557779868528 -0.005970718376472034 0.06659126521826142 0.069200327712533122 0.35960169293033634 -0.12205627057785751 -0.1210177123648894 0.13387872569095838 -0.12088456474469385 -0.032779007193500444 -0.06753826047868311 -0.10268117397309151 0.12082090630055253 0.17356130929162292 0.15395786192688013 -0.15441710380990439 -0.25324556007307558 -0.25484435027981139 -0.16946683939716392 -0.21633718478373334 -0.11192873353506194 -0.16769802977456644 -0.10192319988181187
leaf_weight=40.258565880358219 41535.397440169007 458.44972111657262 5.52165556699038 2576.3570692539215 3224.0101784095168 5573.748104667291 30.270277369767427 539.5079224538058 1346.637589674443 25883.403926396742 1305.446306515485 4.2958178706467178 70.497191565111279 435.76513052545488 64.604682974517345 123.88290314935148 1694.8537427410483 1021.2191979289055 65.435081467032433 4009.5320415869355 1003.9218007437885 308.43002625182271 2020.8079152777791 443.77512012049556 631.94095587730408 3033.9599545300007 48.202325135469437 839.15066554397345 225.70710641145706 2964.6629928648472 39.878115683794022 77.775542959570885 392.28416700661182 713.47243700921535 1333.5123562663794 787.67242187261581 22.568326931446791 1156.0211614072323 14.583898693323134 56.132405385375023 8.7992574721574801 5.3912242129445058 298.63766429573298 31.715075876563787 110.70542153343558 9.7670471519231814 272.19171744212508 18.611318478360772 4.8025975897908202 11.957990571856497 3.2729001045227042 2.2648706436157218 9.5431661009788495 6.1696183681488028 17.21391885727644 15.547821238636971 68.32491166703403 2.7901825904846191 37.231175219640136
leaf_count=1306 93796 1582 30 4401 4286 9959 582 2607 1594 84853 4363 33 944 2283 597 1123 2868 11152 264 8246 3074 503 2072 1369 1131 4292 187 572 390 2248 448 406 418 707 1340 480 48 3495 20 181 11 40 1714 109 598 34 1908 760 10 9 1 10 40 26 83 63 925 13 2040
internal_value=0 0.0288898 0.0465325 0.0370984 0.0469174 0.0336424 0.0306179 0.0293252 0.0309499 0.0294282 0.0161861 0.0866457 -0.0245659 0.0664548 0.103646 0.0992276 0.0665905 -0.0502455 0.00830545 0.0111381 0.00465728 0.0714911 0.0613076 0.0533672 0.0682534 0.0555623 0.0199603 0.0715846 0.0839675 0.0989286 -0.0210257 -0.00890684 0.0862548 0.0484901 0.116421 0.114201 0.00531511 0.0132743 -0.163938 -0.0310291 -0.0865469 0.120036 -0.0959005 -0.00566693 -0.0911019 -0.0757802 -0.0855 -0.128903 -0.11719 0.0807957 -0.0879951 -0.124256 -0.208778 -0.217683 -0.160236 -0.206802 -0.113292 -0.137622 -0.102176
internal_weight=0 75052.4 32006.1 21767.8 16232.2 10539 72540.9 70905 68830 67418.8 6879.19 1635.9 2075 3659.78 1411.24 1543.8 10238.3 1560.73 5535.56 5446 5013.45 5693.27 4597.16 514.272 10152 5616.17 1743.06 3873.11 4535.78 3190.37 2511.45 2119.44 432.543 1345.41 1363.78 1096.1 1747.74 1614.47 89.5621 180.015 392.014 16.9807 375.033 71.5932 133.274 371.692 349.967 86.3545 303.44 21.725 59.1154 92.0995 74.9782 27.2391 21.5097 21.0695 70.5898 8.18141 55.8425
internal_count=268644 211614 57030 41715 28347 20891 201189 196912 180840 178649 14322 4277 16072 6569 2191 3226 15315 13759 13368 13044 11320 7456 6473 2313 12395 7919 3055 4864 4476 2638 10425 8080 1724 1838 1922 983 5723 5077 324 1304 2345 64 2281 557 646 2357 2314 2920 1724 43 2801 1051 304 119 116 93 935 53 2800
is_linear=0
shrinkage=0.1


Tree=17
num_leaves=61
num_cat=0
split_feature=130 80 128 57 70 110 122 52 71 51 72 57 32 109 76 111 78 115 79 6 109 123 125 99 96 70 60 109 89 100 17 35 30 31 75 105 117 127 118 113 50 107 11 125 112 79 115 109 34 31 57 68 86 25 126 6 73 56 53 65
split_gain=622.814 873.415 635.233 479.931 453.583 412.628 641.824 824.031 649.57 584.561 573.946 369.055 326.83 323.795 371.87 465.61 534.435 339.158 371.432 268.845 255.174 243.112 225.221 223.925 236.538 219.329 217.555 181.582 177.094 167.916 154.078 135.735 126.479 123.953 108.109 106.672 117.547 83.8822 87.6346 81.5473 79.5388 165.667 78.7747 64.393 114.21 119.238 57.7955 55.9977 54.4424 40.2436 33.0177 121.273 26.1761 22.0811 22.0546 20.7206 14.4346 22.3961 0.465993 0.165909
threshold=1.0000000180025095e-35 -1.2519147992134092 1.0000000180025095e-35 0.9125819504261018 -0.23717205226421353 -1.1880323290824888 -1.9388177394866941 1.1340125799179079 -0.20042179524898526 1.1298898458480837 -0.56381976604461659 0.99648720026016246 0.96758571267128002 -0.9232983887195586 -1.1752967238426206 -0.93304947018623341 -1.2512080669403074 -0.95871609449386586 -1.3284588456153867 0.62203383445739757 -0.92647185921668995 -1.3523510098457334 -2.4542992115020748 -0.92170560359954823 -0.99333831667900074 -0.17699646204710004 0.7710215449333192 -1.1355593800544737 -1.1636276245117185 -0.77644419670104969 1.349495589733124 0.93358284235000621 1.0787308812141421 1.0122125148773196 -0.60537537932395924 -0.81145945191383351 -1.0929669141769407 -2.0484006404876705 -1.1076105833053587 -1.042250335216522 1.1729210019111636 -0.99848273396491993 0.82679319381713878 -1.714889347553253 -1.0073166489601133 -1.1680710911750791 -1.4438101053237913 -1.1201097965240476 0.9067777991294862 0.99108022451400768 0.96385478973388683 0.048803173005580909 -1.2008558511734007 1.2011935114860537 -1.787015378475189 0.26961943507194525 -0.7971929907798766 0.96708074212074291 1.1088080406188967 0.42614713311195379
decision_type=2 2 2 2 2 2 2 2 2 2 2 2 2 2 2 2 2 2 2 2 2 2 2 2 2 2 2 2 2 2 2 2 2 2 2 2 2 2 2 2 2 2 2 2 2 2 2 2 2 2 2 2 2 2 2 2 2 2 2 2
left_child=2 13 5 19 20 22 7 47 -9 10 -8 -11 26 52 17 16 -16 28 -19 32 29 -22 40 42 -25 -14 -6 34 -15 -5 -17 43 33 -4 -24 37 49 53 -39 -34 41 -1 -21 50 45 -45 -29 -7 -46 -37 58 -52 56 -33 -54 -42 -2 -58 -3 -38
right_child=1 31 3 4 12 6 9 8 -10 11 -12 -13 25 14 15 30 -18 18 -20 23 21 -23 27 24 -26 -27 -28 46 -30 -31 -32 35 39 -35 -36 36 59 38 -40 -41 55 -43 -44 44 48 -47 -48 -49 -50 -51 51 -53 54 -55 -56 -57 57 -59 -60 -61
