tree
version=v4
num_class=1
num_tree_per_iteration=1
label_index=0
max_feature_idx=136
objective=binary sigmoid:1
feature_names=Column_0 Column_1 Column_2 Column_3 Column_4 Column_5 Column_6 Column_7 Column_8 Column_9 Column_10 Column_11 Column_12 Column_13 Column_14 Column_15 Column_16 Column_17 Column_18 Column_19 Column_20 Column_21 Column_22 Column_23 Column_24 Column_25 Column_26 Column_27 Column_28 Column_29 Column_30 Column_31 Column_32 Column_33 Column_34 Column_35 Column_36 Column_37 Column_38 Column_39 Column_40 Column_41 Column_42 Column_43 Column_44 Column_45 Column_46 Column_47 Column_48 Column_49 Column_50 Column_51 Column_52 Column_53 Column_54 Column_55 Column_56 Column_57 Column_58 Column_59 Column_60 Column_61 Column_62 Column_63 Column_64 Column_65 Column_66 Column_67 Column_68 Column_69 Column_70 Column_71 Column_72 Column_73 Column_74 Column_75 Column_76 Column_77 Column_78 Column_79 Column_80 Column_81 Column_82 Column_83 Column_84 Column_85 Column_86 Column_87 Column_88 Column_89 Column_90 Column_91 Column_92 Column_93 Column_94 Column_95 Column_96 Column_97 Column_98 Column_99 Column_100 Column_101 Column_102 Column_103 Column_104 Column_105 Column_106 Column_107 Column_108 Column_109 Column_110 Column_111 Column_112 Column_113 Column_114 Column_115 Column_116 Column_117 Column_118 Column_119 Column_120 Column_121 Column_122 Column_123 Column_124 Column_125 Column_126 Column_127 Column_128 Column_129 Column_130 Column_131 Column_132 Column_133 Column_134 Column_135 Column_136
feature_infos=[-1.7373466491699219:1.9731968641281128] [-1.6486232280731201:1.9330692291259766] [-1.5678098201751709:1.893924355506897] [-1.4949060678482056:1.8557635545730591] [-1.4299124479293823:1.8185858726501465] [-1.3728283643722534:1.7823913097381592] [-1.333403468132019:1.7519460916519165] [-1.3043193817138672:1.7671613693237305] [-1.2702003717422485:2.0758624076843262] [-1.226288914680481:2.0974209308624268] [-1.1696058511734009:2.0165181159973145] [-1.0977727174758911:2.073509693145752] [-1.0288742780685425:2.1457490921020508] [-0.91207128763198853:2.2142360210418701] [-0.8030850887298584:2.2825961112976074] [-0.68971306085586548:2.4052433967590332] [-0.63879203796386719:2.5269482135772705] [-0.65542465448379517:2.5277442932128906] [-0.65910369157791138:2.5302853584289551] [-0.6643681526184082:2.4445860385894775] [-0.8555336594581604:2.3612079620361328] [-0.86833834648132324:2.2960772514343262] [-0.86565589904785156:2.1994528770446777] [-0.70636492967605591:2.1797337532043457] [-0.68053698539733887:2.1696581840515137] [-0.94777458906173706:2.0883691310882568] [-1.2671374082565308:1.9448176622390747] [-1.6690099239349365:1.6968520879745483] [-1.8748650550842285:1.5064034461975098] [-2.1668190956115723:1.3278765678405762] [-2.5042393207550049:1.1459542512893677] [-2.6881959438323975:1.0652625560760498] [-2.6073334217071533:1.0082290172576904] [-2.3245775699615479:0.99408984184265137] [-1.6179424524307251:0.99887841939926147] [-0.85442560911178589:1.096311092376709] [-0.66342759132385254:1.2523990869522095] [-0.6696123480796814:1.4357191324234009] [-0.67192721366882324:1.5244829654693604] [-0.67710685729980469:1.427788257598877] [-0.67375040054321289:1.3506048917770386] [-0.77278417348861694:1.3033223152160645] [-0.78214722871780396:1.4334096908569336] [-0.67822211980819702:1.6771683692932129] [-0.67593681812286377:1.8418123722076416] [-0.67998087406158447:1.9795904159545898] [-0.67735743522644043:1.8671952486038208] [-0.67972826957702637:1.7601110935211182] [-0.67738151550292969:1.8138210773468018] [-0.68022686243057251:2.0951991081237793] [-0.67672491073608398:2.3221406936645508] [-0.68167710304260254:2.3866791725158691] [-0.6882440447807312:2.3278176784515381] [-0.69760811328887939:2.41339111328125] [-0.68820065259933472:2.0181429386138916] [-0.66498374938964844:1.7058380842208862] [-0.62731093168258667:1.5109990835189819] [-0.64525216817855835:1.3322867155075073] [-0.88048118352890015:1.3174220323562622] [-0.73171019554138184:1.3004671335220337] [-0.58463895320892334:1.2785980701446533] [-0.6056399941444397:1.5017008781433105] [-0.63135004043579102:1.6372760534286499] [-0.66003769636154175:1.5962808132171631] [-0.81091159582138062:1.2496439218521118] [-1.0305129289627075:1.0563232898712158] [-1.2528316974639893:0.96944224834442139] [-1.6713657379150391:0.85952615737915039] [-1.8910553455352783:0.72384035587310791] [-2.0949718952178955:0.56993401050567627] [-1.9126988649368286:0.41874155402183533] [-1.723555326461792:0.28619131445884705] [-1.5802557468414307:0.18248416483402252] [-1.5674382448196411:0.10744565725326538] [-1.3156384229660034:0.30397361516952515] [-1.5821062326431274:0.79505783319473267] [-1.8401819467544556:1.4404212236404419] [-2.0371255874633789:1.2026444673538208] [-2.1728529930114746:1.1285310983657837] [-2.2573421001434326:0.92254304885864258] [-2.3058340549468994:0.73609095811843872] [-2.3315773010253906:0.27998179197311401] [-2.3403120040893555:0.31248012185096741] [-2.3343968391418457:0.36315670609474182] [-2.3124566078186035:0.5232703685760498] [-2.2730567455291748:0.45226269960403442] [-2.2140905857086182:0.47649812698364258] [-2.1362462043762207:0.49989777803421021] [-2.0426793098449707:0.51851314306259155] [-1.9374580383300781:0.53298360109329224] [-1.8240519762039185:0.65060514211654663] [-1.7565661668777466:1.0689502954483032] [-1.6401363611221313:1.4172115325927734] [-1.5798866748809814:1.6278220415115356] [-1.5245249271392822:1.6645923852920532] [-1.4861346483230591:1.6171708106994629] [-1.4547033309936523:1.5605852603912354] [-1.4384253025054932:1.5595740079879761] [-1.4264529943466187:1.5630311965942383] [-1.5819015502929688:1.5628886222839355] [-1.8758529424667358:1.5685317516326904] [-2.4619696140289307:1.5680602788925171] [-2.648137092590332:1.5700795650482178] [-2.4631106853485107:1.5662518739700317] [-2.0341367721557617:1.5674868822097778] [-1.4475361108779907:1.5623446702957153] [-1.1201972961425781:1.563502311706543] [-1.1215335130691528:1.5613243579864502] [-1.168958306312561:1.5685273408889771] [-1.225764274597168:1.5734660625457764] [-1.369315505027771:1.5835809707641602] [-1.6010570526123047:1.5861003398895264] [-2.1418814659118652:1.5904401540756226] [-2.465855598449707:1.5886306762695312] [-2.5047738552093506:1.5883719921112061] [-2.0072333812713623:1.5826603174209595] [-1.577265739440918:1.5835590362548828] [-1.6321159601211548:1.7016431093215942] [-1.6864286661148071:2.5795986652374268] [-1.7459897994995117:2.8008601665496826] [-1.820858359336853:2.5472877025604248] [-1.9280952215194702:1.7180403470993042] [-2.15055251121521:1.5756756067276001] [-2.3795907497406006:1.5728672742843628] [-2.6431498527526855:1.5717638731002808] [-2.9497678279876709:2.1645474433898926] [-3.3342947959899902:3.0688047409057617] [-3.8750591278076172:4.2020993232727051] [0:1] [0:1] [0:1] [0:1] [0:1] [0:1] [0:1] [0:1] [0:1]
tree_sizes=5527 5248 6001 5352 6877 5946 6129 6879 6567 6678 6583 6885 6836 6453 6902 6927 6792 6897 6912 6902 6564 6776 6683 6922 6960 6894 5911 6925 6085 6548 6425 6829 6348 5406 4711 6554 5595 4847 5521 6922 6559 6923 6342 6939 5329 5229 5972 6826 5431 6149 5575 6921 4714 5190 6249 6828 6003 6383 5001 5820 5896 6803 6948 6434 6229 6877 6132 5830 6468 5356 6378 6875 6420 6456 6856 6814 6836 6576 6627 6452 6427 5905 5891 6987 6843 6826 6957 6818 5999 6682 6777 6330 6802 6719 6372 6456 6544 6384 6820 6645 5263 5366 6964 6108 6565 6902 5224 6930 4940 6754 6727 6477 6457 6699 6566 6119 5366 6484 6261 6670 6588 5693 6823 6667 6777 6552 6965 6760 6045 6464 6158 6663 5552 6695 5814 6635 6929 4196 6339 5703 3886 5607 6769 6995 5147 6849 6434 5923 6773 5966 6673 6947 6159 5987 4073 6838 6250 6587 5808 5481 5891 6818 6667 6595 5919 6964 6655 6259 6355 6487 6485 6832 6356 6496 6596 6953 3457 5490 5123 6207 6354 6931 6058 6773 6915 6383 6898 5704 6531 4955 6566 6916 5894 6248 6563 5605 6251 6909 6683 6936

Tree=0
num_leaves=51
num_cat=0
split_feature=53 115 53 132 106 130 131 45 29 52 103 128 135 136 134 72 68 57 104 79 78 110 69 136 109 5 109 69 107 29 97 71 50 71 28 69 37 31 3 76 104 113 119 100 9 41 109 0 0 1
split_gain=89911 34472.9 25384.1 48108.7 17984 17337.6 18424.7 14241.6 12936.2 12489.3 12445.1 10103.2 7718.23 7592.84 6009.16 7118.35 6007.48 5893.67 4292.52 4067.48 3255.58 2908.56 2509.78 2275.61 2205.94 2082.33 1906.08 1825.01 1613.44 1598.96 1288.62 1273.1 1254.44 1009 907.904 869.123 830.15 734.549 608.192 440.702 400.178 367.513 328.559 326.712 319.8 194.287 100.028 5.68434e-14 2.84217e-14 1.42109e-14
threshold=1.0206866264343264 -0.82475063204765309 1.1097073554992678 1.0000000180025095e-35 -0.90848627686500538 1.0000000180025095e-35 1.0000000180025095e-35 1.1680900454521181 1.2297512888908388 1.0925959348678591 -0.87858393788337696 1.0000000180025095e-35 1.0000000180025095e-35 1.0000000180025095e-35 1.0000000180025095e-35 -0.27341699600219721 0.11051238328218461 0.92328056693077099 -0.84470224380493153 -0.2673791348934173 -1.3120326399803159 -1.1969733238220213 -0.095183320343494401 1.0000000180025095e-35 -1.1246358156204221 0.78477725386619579 -1.0473823547363279 -0.037057043984532349 -0.89191508293151844 1.0685029029846194 -0.65248107910156239 -0.45297238230705256 1.1617154479026797 -0.5213920772075652 1.1391932368278506 -0.012867601122707127 0.93606519699096691 1.0015600323677065 0.047792816534638412 -0.67477393150329579 -0.88705208897590626 -1.0793886184692381 -1.5354481935501096 -0.9177333116531371 0.73586738109588634 1.057992219924927 -1.1119704842567442 1.0195605754852297 0.97631293535232555 0.9756096899509431
decision_type=2 2 2 2 2 2 2 2 2 2 2 2 2 2 2 2 2 2 2 2 2 2 2 2 2 2 2 2 2 2 2 2 2 2 2 2 2 2 2 2 2 2 2 2 2 2 2 2 2 2
left_child=1 5 3 9 7 6 8 21 11 10 29 -1 14 -12 15 23 17 -11 28 -17 33 -5 36 -4 38 -10 39 -26 -8 -2 -24 41 -9 37 -22 -18 -16 -7 -6 46 -36 -28 -41 -35 -20 -33 -14 48 -3 -50
right_child=2 47 12 4 24 20 18 32 25 16 13 -13 26 -15 22 19 35 -19 44 -21 34 -23 30 -25 27 -27 31 -29 -30 -31 -32 45 -34 43 40 -37 -38 -39 -40 42 -42 -43 -44 -45 -46 -47 -48 -49 49 -51
leaf_value=-1.6427056828320594 -1.750186519021375 -2.7725553486094361 -2.6337117393398661 -2.6690251076490847 -2.7725553486094361 -2.3550149194308263 -2.5957476913161073 -2.1624153474257897 -2.5421246414999334 -2.4088047891997966 -2.0776427716788812 -2.4140864051848241 -1.8761581334094275 -1.8507574723813551 -1.8568715745276188 -1.4686167451233305 -2.4565494485717565 -2.1391155115923386 -1.9607919442709014 -2.7725553486094361 -1.3139479015068762 -1.6309572373395249 -1.6515806972716021 -2.1046786653715266 -2.2994560038366236 -2.0438124233124624 -2.7725553486094361 -1.1928433689918494 -2.2192586049703036 -2.6154377637534494 -2.7725553486094361 -1.2280889569965114 -2.6078566373760981 -1.4499366763725217 -2.7547562684558207 -2.7135012406792929 -2.7394117298143796 -1.5448706519251478 -1.3505010343279338 -2.7725553486094361 -2.4929832914881902 -1.572961191373341 -1.5247251386934582 -2.7725553486094361 -1.4344499559424695 -1.536375260016942 -2.6980574698668649 -2.7725553486094361 -2.7725553486094361 -2.7725553486094361
leaf_weight=11005.262908734381 22.499225527048111 129.87862139940262 1459.9850353002548 27.772690683603287 11.735287420451639 13.772622518241404 162.6238027587533 94.250937588512897 162.21394331753254 1134.3143159076571 6794.0409938469529 172.45353703200817 1.603816539049151 1884.0239420980215 14.130325861275194 90.409047931432724 286.6160751581192 2837.0032070949674 14.168233469128607 32.530459947884083 5.9138187542557707 959.6147530451417 130.81560864299536 86.10312145203352 15.194025263190268 173.60551078617573 8.8166667148470861 778.11428707093 379.35859480500221 420.90901096910238 11.127241440117357 54.919773288071156 192.03821758925915 2.173954911530017 80.771403178572655 243.44736203551292 43.376575388014317 59.722574405372143 4.0438868328928939 2.8578161075711241 210.83624900877476 3.5953576564788809 8.0648766756057721 13.255402371287344 62.315037257969379 32.563529692590237 19.297954566776756 127.6896558701992 2.0065517351031295 61.108621023595333
leaf_count=65300 156 2136 22125 430 193 173 2407 1015 2320 14816 67807 2261 13 14826 112 390 3871 29937 126 535 17 5589 787 881 183 1678 145 1360 4286 6307 183 114 2864 9 1315 3870 700 300 13 47 2919 19 39 218 249 161 304 2100 33 1005
internal_value=-2.6656 -1.74877 -2.09635 -2.05362 -1.60601 -1.72255 -1.70154 -1.84021 -1.67298 -2.12205 -2.05479 -1.65461 -2.43186 -2.02839 -2.48402 -2.54601 -2.25835 -2.21615 -2.23326 -1.81365 -2.38193 -1.66016 -1.96525 -2.60425 -1.23733 -2.28452 -1.69202 -1.21404 -2.33223 -2.57153 -1.73946 -1.47731 -2.46121 -1.85103 -2.54061 -2.57456 -2.52256 -1.69669 -2.40811 -2.36598 -2.56549 -2.42507 -1.85121 -2.5862 -1.53195 -1.34284 -2.63499 -2.77256 -2.77256 -2.77256
internal_weight=0 12839.1 17705.8 15705.6 2082.76 12518.4 12132 1273.68 11513.5 13622.9 9121.47 11177.7 2000.2 8678.06 1868.48 1669.03 4501.38 3971.32 618.466 122.94 386.446 987.387 199.45 1546.09 809.087 335.819 131.72 793.308 541.982 443.408 141.943 99.8953 286.289 88.9246 297.521 530.063 57.5069 73.4952 15.7792 31.8245 291.608 12.412 10.9227 15.4294 76.4833 87.4833 20.9018 320.683 192.994 63.1152
internal_count=268644 88852 179792 153237 11647 83578 78627 9898 71559 141590 89096 67561 26555 82633 25713 23931 52494 44753 7068 925 4951 6019 1782 23006 1749 3998 842 1543 6693 6463 970 439 3879 700 4251 7741 812 473 206 403 4234 164 86 227 375 275 317 5274 3174 1038
is_linear=0
shrinkage=1


Tree=1
num_leaves=48
num_cat=0
split_feature=52 102 121 52 31 108 118 68 32 110 30 104 130 122 72 101 26 83 105 30 53 29 5 111 71 108 102 25 128 135 31 75 29 27 53 121 0 104 100 73 1 100 128 112 136 11 23
split_gain=9560.15 6771.13 6626.22 6312.81 5157.03 3111.06 2721.75 3643.35 3718.34 3560.39 2708.98 2472.24 2344.23 2257.26 2056.95 1466.93 1161.59 1135.4 1088.49 769.038 732.347 943.127 729.837 705.912 692.414 673.594 633.642 487.943 439.256 408.561 408.077 406.345 397.411 378.814 1105.84 360.784 346.746 313.756 300.351 171.428 118.13 52.8396 33.8161 0.0278973 0.00478559 0.00084537 6.25539e-05
threshold=1.0631519556045534 -0.84531792998313893 -0.68133962154388417 1.1434237957000735 1.0075481534004214 -1.031485855579376 -1.4744551181793211 0.1083415485918522 0.96326306462287914 -1.1935039162635801 1.0938712954521181 -0.94229182600975026 1.0000000180025095e-35 -1.1050180196762083 -0.56259039044380177 -0.90267330408096302 1.0236160159111025 -1.0887279510498045 -0.82856798171997059 1.0979977250099184 1.0622696280479433 1.0985670089721682 0.65012845396995556 -1.1380046606063841 -0.36852133274078364 -0.69188120961189259 -0.84531792998313893 1.3554132580757143 1.0000000180025095e-35 1.0000000180025095e-35 1.0156254172325136 -0.55863162875175465 1.2497562766075136 1.1880408525466921 1.0949746370315554 -1.490903317928314 0.43298371136188513 -0.85341611504554737 -0.94155830144882191 -0.74556201696395863 0.17036303132772448 -0.90019875764846791 1.0000000180025095e-35 -0.96685460209846485 1.0000000180025095e-35 1.0956917405128481 1.5683861374855044
decision_type=2 2 2 2 2 2 2 2 2 2 2 2 2 2 2 2 2 2 2 2 2 2 2 2 2 2 2 2 2 2 2 2 2 2 2 2 2 2 2 2 2 2 2 2 2 2 2
left_child=2 16 4 6 10 28 9 8 -8 31 12 32 14 -14 -1 30 25 37 -9 -13 21 36 29 -19 -11 35 -24 -23 40 -17 38 -3 -12 34 -22 -2 -18 -7 -6 -35 -5 -37 -32 -4 45 -27 -45
right_child=1 3 43 5 15 17 7 18 -10 24 11 19 13 -15 -16 22 20 23 -20 -21 33 27 26 -25 -26 44 -28 -29 -30 -31 42 -33 -34 39 -36 41 -38 -39 -40 -41 -42 -43 -44 46 -46 -47 -48
leaf_value=0.38844125444947397 0.51752989883165446 0.22261573923343356 -0.1190609938537965 -0.097531901697151702 0.024274371221090819 1.1443280231696422 0.27867779314314933 0.39920129169053481 0.39120117661766901 0.57235674778701673 0.47496182106985096 0.26140852214147636 0.032329469210223172 0.36681434339260544 0.50712480063785037 0.20501906366358447 0.64255889079320117 0.14602446254842913 0.056853422385585543 0.10780707062563018 0.53659325713307782 0.13102217075553146 0.31068931608803768 0.31878726569639027 0.40452178244660919 -0.10717235581977383 0.56073801463089235 -0.096417797820308529 0.45423501459847304 0.37901393399101774 -0.11266775405087262 -0.074067641844764831 0.11152207351765522 -0.075853532387458011 -0.052342055441882508 0.94329495929145857 0.12715854084549244 -0.031473832847321297 0.18602646987660509 0.10690033235123289 0.73628193971062972 1.3110673710586711 0.13422407474463349 -0.10625021026898551 -0.1122125995353182 -0.11002758879290508 -0.10701884213962483
leaf_weight=25977.533551476896 20.235097408294678 64.276685994118452 1.710582599043845 534.52135102450848 176.52918409928679 2.2974768280982962 10929.072433736175 105.71367054432631 4015.797981031239 266.04045840352774 475.1991033218801 722.59992516040802 352.08633950725198 472.5340434089303 1547.2815462462604 999.65126623958349 47.485034577548504 390.49546992778778 764.59993319585919 593.81673938781023 46.691656239330769 1066.4761349484324 472.19631046429276 599.77394416183233 3232.6534073837101 5.8688925281167013 129.03733775764704 103.47925745695829 14.974446862936018 156.01564272493124 88.37373186275363 163.8297662101686 32.120408561080694 377.71999621763825 100.52430342510343 6.8352054804563513 18.002006232738495 186.14677768200636 328.27139856666327 59.398677662014961 1.7045316994190205 9.1179034635424596 5.9192371517419806 290.16771076619625 3.4528822600841522 1.259502977132797 1.0626864433288563
leaf_count=82491 25 534 13 8144 1599 10 70897 557 22242 271 1197 3095 3824 2815 3129 6656 112 4303 9852 3847 298 8357 2528 3423 5926 94 164 1304 29 488 1024 2294 271 4597 1355 32 156 2597 2101 583 14 16 68 5241 36 17 18
internal_value=0 0.283215 0.367146 0.299239 0.37141 0.116143 0.315447 0.297331 0.308914 0.392327 0.382536 0.2644 0.390136 0.224 0.395113 0.228919 0.100595 0.207847 0.0984371 0.192121 0.0879487 0.131577 0.274997 0.250661 0.417284 0.592674 0.364355 0.110906 -0.0799636 0.228508 0.0937916 0.00953291 0.451951 -0.00429356 0.134447 0.797886 0.500878 -0.0171387 0.129462 -0.0510197 -0.0948814 1.15349 -0.0971691 -0.106328 -0.109157 -0.107677 -0.106253
internal_weight=0 23138.4 32822.1 21271.9 32529.2 1729.91 19542 15815.2 14944.9 3726.8 30173.2 1823.74 28349.4 824.62 27524.8 2355.99 1866.55 1178.71 870.314 1316.42 1819.78 1235.44 1756.9 990.269 3498.69 46.7695 601.234 1169.96 551.2 1155.67 599.094 228.106 507.32 584.335 147.216 36.1882 65.487 188.444 504.801 437.119 536.226 15.9531 94.293 292.941 10.5813 7.1284 291.23
internal_count=268644 148075 120569 131093 115297 18520 112573 103548 93139 9025 100669 8410 92259 6639 85620 14628 16982 10333 10409 6942 16762 9929 9836 7726 6197 220 2692 9661 8187 7144 4792 2828 1468 6833 1653 73 268 2607 3700 5180 8158 48 1092 5272 147 111 5259
is_linear=0
shrinkage=0.1


Tree=2
num_leaves=55
num_cat=0
split_feature=53 111 69 38 135 30 34 26 54 133 100 109 72 1 72 32 108 29 5 32 0 29 120 53 81 52 100 30 105 1 4 120 10 113 132 38 0 9 33 45 71 0 45 103 57 31 23 24 44 128 100 23 1 0
split_gain=5183.27 4060.22 3397.73 3727.6 2783.88 2616.96 2564.18 2250.44 2156.05 2032.09 1685.22 1658.43 1272.12 1257.37 1168.99 1666.62 1163.15 1055.94 931.796 845.582 812.905 644.607 563.64 516.917 511.125 454.398 433.682 425.883 492.703 364.442 362.495 329.786 304.394 295.691 275.518 264.864 237.741 259.435 226.23 217.151 169.642 300.035 169.107 141.316 99.0152 79.3192 67.8815 41.9715 0.429654 0.0381855 0.0351715 3.48654e-05 2.6801e-06 5.68434e-14
threshold=0.99825304746627819 -0.84864419698715199 -0.21741787344217298 0.98705357313156139 1.0000000180025095e-35 1.0887776017189028 0.83409732580184948 1.2345687150955202 0.91783681511878978 1.0000000180025095e-35 -0.92713558673858631 -1.1200537681579588 -0.66069275140762318 0.45849819481372839 -0.33373390138149256 0.96647295355796825 -1.0257321596145628 1.2068818807601931 0.75448384881019603 0.89502975344657909 0.5256427824497224 1.1258322000503542 -1.1356028318405149 0.92932096123695385 -1.2646915912628172 0.9791928529739381 -0.95490735769271839 1.0947691202163699 -0.90061688423156727 -0.20854731649160382 0.51407536864280712 -1.7581418156623838 0.78894680738449108 -1.0420392155647276 1.0000000180025095e-35 1.0222822427749636 0.42439465224742895 0.69944730401039135 0.8927702307701112 1.2098859548568728 -0.50782474875450123 0.32347925007343298 1.1844223737716677 -0.9282718002796172 1.0249621272087099 1.012839734554291 1.7204375863075259 1.4086455106735232 0.79225319623947155 1.0000000180025095e-35 -0.92951196432113636 1.5605292916297915 0.606121987104416 0.43547736108303076
decision_type=2 2 2 2 2 2 2 2 2 2 2 2 2 2 2 2 2 2 2 2 2 2 2 2 2 2 2 2 2 2 2 2 2 2 2 2 2 2 2 2 2 2 2 2 2 2 2 2 2 2 2 2 2 2
left_child=1 5 9 4 6 12 31 -8 17 10 26 35 13 33 15 -13 38 23 -19 34 -15 30 -23 -7 -18 -21 44 28 -10 -16 -12 -4 -28 -1 -14 42 40 -38 -6 -37 47 -42 -5 -29 -2 -39 48 -11 51 50 -50 53 -51 -3
right_child=2 46 3 11 16 8 7 -9 27 36 21 14 19 20 29 -17 24 18 -20 25 -22 22 -24 -25 -26 -27 32 43 -30 -31 -32 -33 -34 -35 -36 39 37 45 -40 -41 41 -43 -44 -45 -46 -47 -48 -49 49 52 -52 -53 -54 -55
leaf_value=-0.090603362382558561 -0.084315405257936238 -0.10562018554785346 0.21793276528755903 0.052858866935937769 -0.086534964325886587 0.32501538899808158 0.26302524731120469 0.21008875869366783 0.17638909079281437 -0.04901343424645465 0.085425892991805835 0.10182952593083033 0.086134469855876195 0.23856748640889305 -0.053241806970479824 0.22348759969497048 0.0045292081848994107 0.0971866867148269 0.24434854962873925 0.39436203472145048 0.29285449775575428 0.24636364276870537 0.14276312080014597 0.22199136844653153 0.40004348303433535 0.32619660532230133 -0.028019761788748022 0.088904286457486922 -0.012062940712768332 0.34999215973666015 0.38443598834680298 -0.04450744569238016 0.13745101192672479 0.26676236825102745 0.25506664777227162 -0.12331609835546453 0.41112898404225418 -0.078958414385152276 0.1813433862629352 0.33520188059097711 -0.095576942625298644 0.13623463659035692 -0.1080662529827293 -0.077639424983851624 0.6421739614701375 0.29696454189614202 0.39118829578923969 -0.11776203374865771 -0.11906900625516235 -0.11319087057926523 -0.12884610696156451 -0.10619361044552583 -0.11303857243214555 -0.10562018554785346
leaf_weight=114.39909288287163 251.99832206219435 62.622139621526003 54.798264756798744 84.484185360372066 48.17520510405302 1400.8445619866252 14277.701352462173 18354.739714324474 427.24342018738389 141.87650715187192 48.405978791415691 2867.424849011004 147.14089234173298 3680.6875969171524 23.808759905397892 1854.1847493797541 33.435731243342161 719.46361833810806 1070.3697597198188 1302.7939109280705 11007.33847001195 814.22531928867102 1479.111640162766 746.56878289207816 1434.2400959208608 3921.7942255921662 167.65226016566157 68.386084113270044 205.44699915871024 382.53526349365711 249.64066913351417 379.36851262301207 329.99278542771935 29.028369814157486 280.75964145362377 15.519116036593912 24.079312093555927 30.496069867163897 91.226125739514828 30.882883191108704 114.16284634172916 109.28150289878249 287.57543782517314 199.81233823299408 1.8901159763336171 6.8788683302700511 2.7651830315589896 237.38741906732321 8.1980308666825294 2.6768499165773383 6.6752716377377519 1.0646080523729313 2.0330643504858017 201.31783582270145
leaf_count=631 2970 1243 324 668 452 2440 53434 80793 1484 1083 270 22870 554 9616 297 10803 182 3339 3869 1190 22976 2764 7790 2176 3349 5955 1762 406 1251 592 718 3737 1948 68 610 110 38 183 499 66 837 412 4566 1495 1 22 3 1632 64 26 40 20 20 3996
internal_value=0 0.271893 0.21536 0.224109 0.236285 0.276134 0.230038 0.23325 0.209986 0.127547 0.159289 0.147991 0.291758 0.276373 0.163612 0.149605 0.364814 0.241919 0.185194 0.332125 0.279251 0.197525 0.179545 0.289198 0.391033 0.343194 0.0274462 0.0704296 0.115195 0.326366 0.335874 -0.0113836 0.0817054 -0.0182759 0.196976 -0.0434286 -0.0322179 0.155149 0.0887683 0.181851 -0.0513225 0.0177968 -0.0715247 -0.0351736 -0.0789069 -0.00976968 -0.101888 -0.0920443 -0.106679 -0.120972 -0.123457 -0.105622 -0.113125 -0.10562
internal_weight=0 25609.4 44227.2 40220.1 34673.7 25322.1 33066.6 32632.4 4838.14 4007.08 3342.92 5546.42 20483.9 14831.5 5127.95 4721.61 1607.08 3937.25 1789.83 5652.49 14688 2591.38 2293.34 2147.41 1467.68 5224.59 751.533 900.889 632.69 406.344 298.047 434.167 497.645 143.427 427.901 418.462 664.163 61.4543 139.401 46.402 602.708 223.444 372.06 268.198 253.888 37.3749 287.353 379.264 284.588 19.5832 14.8733 265.005 4.70991 263.94
internal_count=268644 63472 205172 182742 142770 58060 138288 134227 16460 22430 18223 39972 41600 33291 34562 33673 4482 11824 7208 8309 32592 11542 10554 4616 3531 7145 6681 4636 2735 889 988 4061 3710 699 1164 5410 4207 243 951 176 3964 1249 5234 1901 2971 205 5412 2715 5409 150 104 5259 46 5239
is_linear=0
shrinkage=0.1


Tree=3
num_leaves=49
num_cat=0
split_feature=53 102 111 40 31 71 45 6 128 71 0 81 112 57 6 134 0 5 132 72 114 120 45 77 24 103 30 104 52 51 0 57 70 54 74 102 133 52 122 100 72 111 121 53 72 53 53 23
split_gain=3882.32 3283.44 2262.53 2227.41 1834.69 1473.91 1807.36 1356.05 1306.67 1716.28 1760.12 978.254 815.331 645.786 726.046 643.504 641.718 1533.03 627.792 537.904 507.884 769.542 483.314 479.412 346.997 337.248 320.341 288.375 278.371 258.006 235.844 153.134 149.255 120.042 113.069 100.905 80.4006 78.1737 110.968 58.7224 27.5271 77.8087 13.1042 0.56132 0.165057 0.0740556 0.0581974 2.47951e-09
threshold=1.0539831519126894 -0.8265898823738097 -0.79985409975051869 1.0673810839653017 1.0135774016380312 -0.20829942822456357 1.1887488365173342 0.59423872828483593 1.0000000180025095e-35 -0.41581563651561732 0.41022281348705297 -0.20578338205814359 -1.1824039816856382 0.89047554135322582 0.62524321675300609 1.0000000180025095e-35 0.42312748730182653 0.59281817078590404 1.0000000180025095e-35 -0.59776291251182545 -1.3591424226760862 -1.3663368821144102 1.2098859548568728 -0.9305395483970641 1.2563594579696657 -0.85209396481513966 1.059570372104645 -0.9007560908794402 1.0818933844566347 1.0748592019081118 0.40911264717578893 0.85559168457984935 -0.16192301362752912 1.0042090415954592 -1.0173435807228086 -0.87478956580162037 1.0000000180025095e-35 1.0758710503578188 -1.1724540591239927 -0.85714629292488087 -0.40502931177616114 -1.2224851846694944 -1.5088831782341001 1.1097073554992678 -0.27341699600219721 0.9361301362514497 1.0949746370315554 1.5465337634086611
decision_type=2 2 2 2 2 2 2 2 2 2 2 2 2 2 2 2 2 2 2 2 2 2 2 2 2 2 2 2 2 2 2 2 2 2 2 2 2 2 2 2 2 2 2 2 2 2 2 2
left_child=2 16 4 5 8 6 7 -3 9 10 -1 22 -8 29 -15 -11 17 18 25 26 40 23 -7 -22 28 -2 -6 33 34 -10 -29 -28 -23 -19 -18 -21 -37 38 -26 -39 41 -5 -20 -13 -42 47 -30 -4
right_child=1 3 45 20 19 11 12 -9 13 15 -12 43 -14 14 -16 -17 24 27 42 35 21 32 -24 -25 37 -27 31 30 46 -31 -32 -33 -34 -35 -36 36 -38 39 -40 -41 44 -43 -44 -45 -46 -47 -48 -49
leaf_value=0.15590595377830374 -0.029823720725805636 0.15990742895418864 -0.10505685521813196 -0.10868547275047134 0.53266085768741178 0.27912323578638343 -0.053174533127155713 0.24743118410375209 0.07996290366995773 0.29147737698586407 0.20866235822295331 -0.14878616879982426 0.17747829320818567 0.059743751905406407 0.26216576823699556 -0.048124326100010689 -0.12132160923442646 0.40876266854190579 0.27124530686588144 -0.12631831399643897 0.43328196192764667 0.025167408208127157 0.027237740116334699 0.11589234228531858 0.36155343835248588 0.059296233067537889 0.037827904636974115 0.40558011454696952 -0.12168980199272801 -0.056173332034692769 0.22653147284115477 -0.068026708993324789 -0.099761559727663651 -0.11335349444439823 0.34968862045266724 0.19372355022950671 0.43503692303596042 -0.10150060778389974 -0.03503487285059282 0.12837641348145565 -0.1070517154105583 0.63364841611092526 0.36115283019947614 -0.1083397283527958 -0.1196144360287375 -0.12090766566160599 -0.10743822722682597 -0.10505209377381107
leaf_weight=7437.174748275429 587.92919102683663 16622.547033485025 239.39654445275664 5.2545893415808678 10.996082127094267 1786.8269081786275 544.82959919795394 1981.1862766817212 629.73301681503654 2547.6809024438262 42251.404584173113 3.6160047277808181 213.2372765019536 299.60469329357147 433.68812264502048 57.04647296667099 5.7887650430202475 5.3665726408362415 24.116058699786663 4.9826818257570258 65.023026295006275 238.17129626125097 79.569147180765867 177.51639499887824 8.8946191594004613 1528.6582767143846 287.61157886683941 132.39878756552935 21.281873725354675 178.72385876998305 165.5588811673224 260.39436388015747 159.79218894988298 24.537559881806374 42.626427620649338 22.39473469555378 36.004680261015892 387.81048613041639 34.118474766612053 11.440338701009749 254.76689023897052 1.9308226481080044 49.458456590771675 67.148148417472839 10.906167585402725 2.9840726330876342 3.3111602403223506 1.0986843705177296
leaf_count=24964 5237 72876 5225 76 10 1408 6040 6422 3782 3954 102586 21 783 1493 1362 334 40 8 26 34 194 2224 745 1292 19 8804 1931 239 147 1217 680 2119 2195 340 98 71 54 3701 251 50 4363 9 48 974 99 21 54 24
internal_value=0 0.151497 0.198905 0.164824 0.200265 0.171382 0.163061 0.169228 0.202239 0.204914 0.200766 0.254548 0.011706 0.111505 0.179461 0.28404 0.0539057 0.0747124 0.0445231 0.0295565 0.0119052 0.060576 0.268385 0.200982 -0.0477721 0.0345412 -0.00174748 0.276381 0.154204 0.0498676 0.306093 -0.0124707 -0.0249947 -0.0196549 0.293372 0.305644 0.342499 -0.081114 0.0469751 -0.0949136 -0.102344 0.0907902 0.331683 -0.110407 -0.107567 -0.105251 -0.119771 -0.105057
internal_weight=0 25245.6 54700.9 22212.3 54457.4 21299 19361.8 18603.7 53835.1 52293.3 49688.6 1937.16 758.067 1541.75 733.293 2604.73 3033.3 2518.02 2190.16 622.384 913.361 640.503 1866.4 242.539 515.272 2116.59 559.002 327.862 73.0082 808.457 297.958 548.006 397.963 29.9041 48.4152 63.3821 58.3994 442.264 43.0131 399.251 272.858 7.18541 73.5745 70.7642 265.673 243.479 24.593 240.495
internal_count=268644 119463 149181 99721 143911 89269 86121 79298 139692 131838 127550 3148 6823 7854 2855 4288 19742 15382 14115 4219 10452 5905 2153 1486 4360 14041 4060 1267 339 4999 919 4050 4419 348 138 159 125 4021 270 3751 4547 85 74 995 4462 5270 201 5249
is_linear=0
shrinkage=0.1


Tree=4
num_leaves=63
num_cat=0
split_feature=130 77 53 101 110 71 1 38 72 29 32 117 74 94 75 32 32 29 127 129 125 80 73 115 124 116 125 22 90 30 100 76 112 31 109 70 53 53 115 28 122 71 31 128 78 116 5 42 114 75 70 127 1 105 100 80 123 75 6 87 29 106
split_gain=3145.23 2973.14 2199.41 2052.9 1938.94 1725.84 1565.61 1389.97 1530.52 1229.9 1208.22 939.446 891.941 775.894 763.545 718.591 713.067 676.529 664.796 581.307 574.258 547.444 445.802 424.233 393.206 418.578 427.929 390.495 385.186 383.042 376.459 311.647 391.713 308.997 308.929 301.748 278.953 266.919 425.78 275.377 210.998 206.341 200.861 190.71 180.554 256.347 167.289 165.098 154.734 121.754 107.857 54.1922 33.0061 31.5579 25.5698 1.4168 0.303428 0.115928 0.0594614 0.0499601 0.00732733 9.918e-05
threshold=1.0000000180025095e-35 -1.241313576698303 0.99697354435920726 -0.89717149734497059 -1.1935039162635801 -0.5653804838657378 0.58308979868888866 0.99239358305931102 -0.55236464738845814 1.2349804639816286 0.96504768729209911 -0.88958376646041859 -0.97374650835990895 -0.89536443352699269 -1.1589112281799314 0.96760272979736339 0.95625615119934093 1.0760700106620791 -2.0908175706863399 1.0000000180025095e-35 -1.3356083035469053 -1.2368486523628233 -0.84408611059188832 -1.004336893558502 -1.2353271842002866 -0.95346251130104054 -1.4774388670921323 1.3217331171035769 -1.2033399939537046 1.0818246006965639 -0.95490735769271839 -1.1623268723487852 -0.93803846836090077 1.0111945271492007 -0.88803866505622853 -0.20457818359136579 0.968959540128708 1.0583659410476687 -0.9586992859840392 1.1262438893318178 -1.2524258494377134 -0.51626229286193837 0.99159273505210888 1.0000000180025095e-35 -0.53490570187568653 -1.4857591986656187 0.69315949082374584 1.0433846712112429 -0.98145684599876393 -0.55863162875175465 -0.25493590533733362 -2.0464290380477901 0.59684747457504284 -0.85807707905769337 -0.93185657262802113 -1.4282631278038023 -1.0032860636711118 -1.1620963811874387 0.68676778674125682 -1.2876788973808286 1.1117584109306338 -0.86678287386894215
decision_type=2 2 2 2 2 2 2 2 2 2 2 2 2 2 2 2 2 2 2 2 2 2 2 2 2 2 2 2 2 2 2 2 2 2 2 2 2 2 2 2 2 2 2 2 2 2 2 2 2 2 2 2 2 2 2 2 2 2 2 2 2 2
left_child=2 16 5 22 44 6 13 8 -6 14 17 19 -11 20 -8 -9 36 18 50 33 -1 23 27 35 25 26 -18 52 -27 43 -29 32 -19 -7 -20 -12 56 38 -38 -39 -25 58 -23 -24 45 -5 -15 -43 -33 -46 -3 -44 -4 -21 -31 60 59 -57 -26 -2 -13 -58
right_child=1 10 3 4 7 11 9 15 -10 12 21 55 -14 46 -16 -17 24 31 34 53 -22 42 29 40 41 28 -28 30 -30 54 -32 48 -34 -35 -36 -37 37 39 -40 -41 -42 47 51 -45 49 -47 -48 -49 -50 -51 -52 -53 -54 -55 -56 57 61 -59 -60 -61 -62 -63
leaf_value=0.14093038045404169 -0.13226228796923442 0.30809103638366631 -0.10764767867849918 0.30890071792586871 0.14347518363178566 0.20821221854030456 -0.015694082703689712 0.056289356719230167 0.18771914688964156 -0.059924912398965038 0.25444825499852164 -0.10455376653512012 0.2108090577015021 -0.070262151307474319 0.18159799182967229 0.14816549682370883 0.15940999389753435 0.13005292773299315 0.30336347969163913 -0.11556437375191382 0.057623747898210169 0.70000556502873679 0.17285984244762737 -0.1249959707173432 -0.1217731936628333 0.16446541148659233 0.33956057920181809 -0.086852551290337074 -0.022568423050064103 0.072617558177279717 0.061928832248807235 -0.040055975700873395 -0.053227150169133264 0.087080685517213541 0.075864860860900774 -0.021484622225793747 0.34055332299614277 0.1774959569927215 0.11588879249000805 -0.043893663282324025 0.12443091803803595 0.33776125595466777 -0.12263522709303948 -0.11186933588179566 0.36148874020647209 -0.018817551982309052 0.17026395119076401 0.028945282944811093 -0.11244724783044435 -0.09085496896235086 -0.10206616403787022 0.0019828831744850344 0.13946816875723991 0.048728973783558081 -0.12846717470815802 -0.12633314355111561 -0.10565618473944215 -0.14273667824291758 -0.13674198891478148 -0.1178020697287445 -0.11275976336667787 -0.10455253210913046
leaf_weight=2584.2859824746847 2.8045498952269581 6.7865598797798148 229.92368042096496 29.891498599201441 33828.707565650344 13465.75066139549 199.29321657493711 2340.2367568388581 10168.902391560376 379.50073060393333 381.74032889306545 76.227881878614426 179.12653732299805 293.59030644968152 12486.08173558861 1337.9997771680355 283.12162886559963 227.98218624293804 139.44152309373021 55.898598313331604 1217.1936591155827 3.5492829643189898 423.15424413606524 55.924343422055244 5.1699607223272306 498.20127806812525 246.79345797002316 202.12133978679776 141.35192308574915 7.126338116824626 1072.3852761015296 1365.8471495695412 238.70639105141163 213.93677912652493 104.3648623265326 44.222323473542929 93.013845257461071 80.952416531741619 906.26645236462355 183.63075849041343 86.175917811691761 284.17568723112345 71.447896704077721 24.908670090138912 6.0497004985809317 118.45965980738401 32.075400210916996 18.434861868619919 376.70011135190725 362.59432286396623 115.94604646787047 68.210741095244884 5.5350772291421881 14.78348235785961 56.143531486392021 7.3294069841504124 0.83156683668494125 10.452574573457239 5.4525870010256767 16.137736327946186 1.1038933545351017 39.106540117412806
leaf_count=5761 17 34 1967 101 112987 17575 1924 17070 23545 2342 999 1830 587 2249 21640 6380 1058 1068 555 261 3905 18 1400 358 40 1664 437 2205 795 35 5586 9407 1693 764 678 329 220 328 3640 1182 343 462 500 306 34 825 70 84 2841 5353 1141 362 33 42 386 49 18 51 30 130 11 939
internal_value=0 0.0810028 0.155492 0.142534 0.146675 0.176336 0.155345 0.148764 0.153701 0.172104 0.0164659 0.202673 0.0268872 0.101566 0.178498 0.0897103 0.156619 -0.0153932 0.110427 0.20484 0.114256 0.131839 0.0438049 0.175888 0.204237 0.177585 0.24331 0.0164759 0.123128 0.124507 0.0383339 -0.0362683 0.0363071 0.206318 0.205979 0.225802 0.103242 0.113154 0.136801 0.0238432 0.0262676 0.303742 -0.0428905 0.157031 -0.0459428 0.0472149 -0.0465723 0.318948 -0.0557054 -0.0834317 -0.0793863 -0.0617704 -0.101839 -0.0812017 -0.105818 -0.110523 -0.109519 -0.135975 -0.129457 -0.119943 -0.104671 -0.104576
internal_weight=0 6092.49 81430.8 50214.1 48192.8 31216.6 17371.1 47675.8 43997.6 13244 3287.05 13845.5 558.627 4127.15 12685.4 3678.24 2805.45 2575.77 366.539 13750.4 3801.48 711.271 2021.3 568.063 1482.7 1169.47 529.915 1509.97 639.553 511.333 1274.51 2209.24 466.689 13679.7 243.806 425.963 1322.74 1263.86 999.28 264.583 142.1 313.233 143.208 448.063 516.995 148.351 325.666 302.611 1742.55 368.644 122.733 139.659 235.459 70.6821 63.2699 95.1138 58.8804 17.782 10.6225 18.9423 77.3318 39.9381
internal_count=268644 31370 237274 178213 166295 59061 38478 159982 136532 26493 20326 20583 2929 11985 23564 23450 11044 17417 2408 18642 9666 2909 11918 2029 4570 3954 1495 9791 2459 2127 7791 15009 2761 18339 1233 1328 6474 5370 3860 1510 701 616 880 1706 6313 926 2319 546 12248 5387 1175 862 2000 303 421 1941 1104 100 70 147 1841 957
is_linear=0
shrinkage=0.1


Tree=5
num_leaves=54
num_cat=0
split_feature=52 102 52 70 115 54 134 108 30 53 75 130 98 108 93 129 74 29 74 123 82 27 38 20 25 101 130 62 87 45 73 70 106 107 34 133 30 45 128 109 108 101 56 56 32 52 45 110 110 121 71 19 24
split_gain=2606.27 1828.24 1310.56 2198.56 1289.39 1178.44 1362.12 1148.09 1129.85 1019.27 862.445 840.927 834.688 740.057 682.067 667.656 719.81 705.738 587.65 460.872 419.744 501.081 476.466 392.233 365.489 341.457 305.046 293.578 282.439 261.152 263.286 257.957 248.002 231.344 210.674 209.884 172.116 170.353 164.694 146.528 133.329 105.678 101.742 91.3681 91.3055 37.6738 0.22082 0.106591 0.0754396 0.00582922 0.000367479 0.000185518 7.45272e-07
threshold=1.0568472743034365 -0.85022854804992665 1.1434237957000735 -0.12417120113968848 -0.82475063204765309 1.0521404147148135 1.0000000180025095e-35 -1.031485855579376 1.0914556384086611 0.93930959701538097 -1.032758295536041 1.0000000180025095e-35 -0.83073019981384266 -1.0583558082580564 -1.134549558162689 1.0000000180025095e-35 -0.98656514286994923 1.2349804639816286 -1.0305624008178709 -1.5567762255668638 -1.2836285233497617 1.2554567456245425 0.93345811963081371 1.3529266119003298 1.3367429375648501 -0.86709329485893238 1.0000000180025095e-35 0.55509161949157726 -0.94560289382934559 1.0763396024703982 -0.8172241449356078 -0.29446992278099055 -0.94509559869766224 -0.91850316524505604 0.83281433582305919 1.0000000180025095e-35 1.1010490059852602 1.2098859548568728 1.0000000180025095e-35 -0.82109725475311268 -0.91240400075912464 -1.0023003220558164 0.93687427043914806 0.82370814681053173 0.96462464332580578 1.0580486059188845 1.044925391674042 -1.1935039162635801 -1.1935039162635801 -0.68133962154388417 -0.5653804838657378 1.758301913738251 1.2791778445243838
decision_type=2 2 2 2 2 2 2 2 2 2 2 2 2 2 2 2 2 2 2 2 2 2 2 2 2 2 2 2 2 2 2 2 2 2 2 2 2 2 2 2 2 2 2 2 2 2 2 2 2 2 2 2 2
left_child=4 20 3 5 8 6 -3 32 11 10 18 15 -7 48 39 17 -17 -1 -10 26 23 22 27 29 41 -16 -9 -22 -12 30 -2 -24 37 36 -15 40 -11 -4 -21 -13 -23 -25 -31 -35 -37 -26 49 -34 -5 -6 51 -51 -52
right_child=1 2 7 13 46 12 -8 19 9 33 28 14 -14 34 25 16 -18 -19 -20 38 21 35 31 24 45 -27 -28 -29 -30 42 -32 -33 47 43 -36 44 -38 -39 -40 -41 -42 -43 -44 -45 -46 -47 -48 -49 -50 50 52 -53 -54
leaf_value=0.15238307058863201 -0.00220373433762166 0.13027040202418186 -0.04709861758929737 -0.1081244912406823 -0.11137666086719239 0.028385137742916091 0.062100770976893309 0.11117333881223174 0.15887402216680596 0.063530952535772761 0.20245325093690908 0.21632964490115458 0.099171475350315563 -0.054636042534556443 0.074271508390607796 0.13032050435499562 -0.047304021263298232 -0.025245052341063765 0.048764592651811128 -0.090660632607223651 0.23527109359801457 0.07754169770271141 0.0046045700930101453 -0.10978220865961297 0.19567241946741373 -0.044023777707970148 -0.079851970047976645 -0.030647831653390203 0.051599394212116845 -0.12090902345773469 0.16464348142517116 0.15064283701187772 -0.10606065368034973 0.047937573651279257 0.20872498657280431 -0.10821611177892561 -0.076085408843665214 0.2616779537326977 0.13154069617292283 -0.13126556108427345 -0.050194690946118559 0.26267007998813707 -0.037290189288303584 -0.080416502329434508 0.54206855503165474 -0.11126403029758969 -0.12489580384991546 -0.10920117497447326 -0.11589332220795123 -0.10434536993056052 -0.10410059708233366 -0.10504209352863265 -0.10419943238737508
leaf_weight=43927.02918824181 664.29589076712728 22233.199764914811 40.218721963465214 60.260661263018847 1.1533173918724049 2445.6796736717224 3376.214542992413 1468.416795603931 708.75926565378904 593.071572329849 1151.309262290597 293.15732289105654 5223.9822847507894 30.681117195636034 692.52390428259969 664.34155134111643 347.47383047267795 224.82117855548859 1533.1999319642782 189.10355154797435 337.36997412145138 257.61560791730881 341.77938758954406 8.1756783314049226 4.3824201971292487 376.75313775613904 88.642011065036058 47.343025896698236 139.10709971934557 211.94645500555634 110.27861966565251 187.20103164389729 160.18625905737281 68.495568722486496 3038.2861729860306 158.7529065720737 103.74276885762811 32.150438003242016 40.501023195683956 12.65094408392906 119.67327286675572 111.69552419707179 464.20036848261952 291.39934849739075 2.1889559850096694 45.696606900542974 5.3337938636541358 332.19706095010042 15.77051694691181 107.32687878981233 92.932815693318844 3.9628841020166865 0.76925533637404342
leaf_count=78720 3675 68772 337 979 13 12463 14291 7031 1351 1993 1555 518 24631 164 3877 1694 1540 1172 5213 2075 869 1430 2140 139 13 2645 921 331 453 1906 283 743 3193 252 1701 1397 606 72 349 70 867 119 3425 1937 9 665 35 4601 152 2693 2456 88 20
internal_value=0 0.107983 0.113867 0.118538 0.141605 0.110985 0.121283 0.0415098 0.142624 0.0952845 0.121061 0.147292 0.0765993 0.198457 0.070255 0.149638 0.0693214 0.151479 0.0835739 0.0807952 0.0337316 0.0727811 0.11787 -0.00125194 0.142481 0.0325909 0.100298 0.202547 0.186191 -0.0180901 0.0215508 0.0562861 -0.0827742 0.0091182 0.206092 -0.0037606 0.0427447 0.0900772 -0.0514655 0.20195 0.0370246 0.237267 -0.0635015 -0.055988 -0.0993716 -0.084404 -0.104807 -0.108179 -0.109736 -0.104287 -0.104247 -0.10437 -0.104101
internal_weight=0 41848.1 38775.5 36424.1 51339.3 33279.1 25609.4 2351.42 51127.8 4589.08 3532.38 46538.8 7669.66 3145 1375.09 45163.7 1011.82 44151.9 2241.96 1786.66 3072.6 1451.92 913.693 1620.67 169.95 1069.28 1557.06 384.713 1290.42 1450.72 774.575 528.98 564.752 1056.71 3068.97 538.231 696.814 72.3692 229.605 305.808 377.289 119.871 676.147 359.895 160.942 50.079 211.479 492.383 76.0312 206.145 204.992 111.29 93.7021
internal_count=268644 159743 141732 123153 108901 120157 83063 18579 103596 13360 8572 90236 37094 2996 7110 83126 3234 79892 6564 10376 18011 7786 4083 10225 936 6522 7952 1200 2008 9289 3958 2883 8203 4788 1865 3703 2599 409 2424 588 2297 258 5331 2189 1406 678 5305 7794 1131 5270 5257 2781 2476
is_linear=0
shrinkage=0.1


Tree=6
num_leaves=56
num_cat=0
split_feature=53 26 135 35 52 70 111 27 52 5 32 78 70 29 135 109 58 30 31 6 0 120 108 70 101 6 96 77 31 127 28 45 70 117 102 103 52 97 16 70 52 69 3 14 108 116 115 53 53 128 106 71 21 31 70
split_gain=2127.48 1565.71 1300.89 1145.69 1286.82 1256.68 1115.31 1197.37 1190.32 1096.26 957.847 1177.17 1137.98 867.249 859.392 848.229 664.56 660.163 626.763 611.755 595.347 576.299 517.28 474.75 437.821 344.701 332.724 330.44 349.465 327.985 329.5 305.726 275.223 259.445 235.985 213.589 210.194 170.859 94.3384 92.521 106.098 70.0485 62.8162 59.8711 49.7529 41.02 1.01378 0.656512 0.285188 0.0954851 0.0702947 0.000282887 0.000208069 0.000168087 5.4966e-07
threshold=0.99825304746627819 1.3225743770599367 1.0000000180025095e-35 0.89904281497001659 1.1468639373779299 -0.12417120113968848 -0.84864419698715199 1.3056010603904726 0.9791928529739381 0.6004253923892976 0.96288350224494945 -1.1460067629814146 -0.17768069356679914 1.2165805101394656 1.0000000180025095e-35 -1.0948721170425413 0.84127032756805431 1.0735877156257632 1.0104022622108462 0.80133804678916942 0.3553666770458222 -1.0850360393524168 -1.0583558082580564 -0.41050247848033899 -0.8538299798965453 0.64635714888572704 -0.87751799821853627 -1.2653973102569578 0.99531903862953197 -1.4677260518074033 1.2235906124114992 1.0158389806747439 -0.29711154103279108 -1.2182776927947996 -0.92305514216423024 -0.86439615488052357 1.0052901506423952 -0.92033088207244862 1.1757172942161562 -0.34751401841640467 1.051047742366791 -0.20677702128887174 0.67267364263534557 1.0295490026474001 -0.8818315565586089 -0.87826880812644947 -0.82475063204765309 1.0206866264343264 1.0206866264343264 1.0000000180025095e-35 -0.83984690904617298 -0.5653804838657378 1.6387133598327639 0.99986919760704052 -0.39952085912227625
decision_type=2 2 2 2 2 2 2 2 2 2 2 2 2 2 2 2 2 2 2 2 2 2 2 2 2 2 2 2 2 2 2 2 2 2 2 2 2 2 2 2 2 2 2 2 2 2 2 2 2 2 2 2 2 2 2
left_child=6 3 20 4 5 14 7 18 13 10 11 -5 -12 17 -2 34 25 -9 27 -15 39 33 -7 26 -18 -11 -10 28 -1 30 -22 -25 -17 47 -6 -35 -29 42 -39 43 -41 48 -20 -3 -31 -8 49 -4 -23 50 -47 52 -48 -51 -53
right_child=1 2 21 9 15 22 45 8 23 16 12 -13 -14 19 -16 32 24 -19 37 -21 29 41 -24 31 -26 -27 -28 36 -30 44 -32 -33 -34 35 -36 -37 -38 38 -40 40 -42 -43 -44 -45 -46 46 51 -49 -50 53 -52 54 -54 -55 -56
leaf_value=-0.067502190934439002 0.10753598870319155 -0.10943336969662892 -0.15605664036922831 0.038954261372292853 0.29709121514448861 -0.10869895073029144 0.22899990149215324 0.096905780835045974 0.058999597849001911 0.041930096417877816 0.11102564601214771 0.10381885267127025 -0.051805333159571046 0.030127694869306207 0.18390149967478531 -0.063164158788997213 0.071625197769935617 0.1488542448633999 -0.080930000563338447 0.12144909921121763 0.092783770863023515 -0.15245838496920947 0.18413928289836112 0.13589177316810633 0.17258738792234646 0.12857576651567468 -0.058465782206917144 0.17541952776548786 0.12269632543247266 -0.014686878667068954 0.0046120114409336334 0.035260082486633794 0.099107164476788412 0.10081458887853972 -0.095962145367921095 0.18375838632931982 0.14816417354848749 0.057601221939813013 0.28021800871687819 0.0686569913353271 -0.12694365642137115 0.1255465946249523 0.086234913686710296 0.11988855821731835 -0.11020033365976947 -0.12409880690626998 -0.10391410437026219 -0.12790794497743194 -0.13164844828943797 -0.11492033755884717 -0.13696088413061802 -0.10378425180852249 -0.10464747013707945 -0.11376098886826394 -0.10369519118396893
leaf_weight=113.20336370170116 25319.669417329133 517.36474565044045 15.841609537601469 8864.8258208036423 15.775044180452822 61.511578626930714 3.7151610851287833 3096.5352125614882 2891.1757016777992 1020.1462501809001 8158.1159355305135 4088.0992861241102 453.03653875738382 1384.7667296230793 1564.7282753400505 119.97388511151075 512.25972725450993 11649.197030335665 143.27660593017936 1559.8640703484416 692.30105805769563 77.546113185584545 3116.9961516782641 1382.8757749311626 2659.0902029126883 834.92447076737881 263.07970360666513 5932.7222849875689 658.7498996257782 77.951294671744108 1092.9552835524082 386.21589852869511 811.46163529530168 627.22994200140238 481.91612654179335 614.74833262711763 5409.5706834048033 101.60105775296688 23.424696281552315 72.420687638223171 44.938961617648602 10.295009471476076 26.662393637001514 11.64098025485873 181.56337671354413 9.2000016644597089 97.15713769942522 17.371397316455841 7.1966921016573897 2.4669513702392569 7.8960037231445321 0.69871961325406928 4.0291405245661727 2.5362593308091164 84.401054326444864
leaf_count=427 72357 3125 69 38966 11 991 3 5682 7938 3585 26049 16550 4365 4580 3046 1365 1760 16139 899 3679 2058 346 2071 2076 5620 2064 989 5944 1319 591 5080 965 3520 1323 7060 941 7021 274 14 186 293 20 114 62 1547 62 2684 109 42 22 43 20 98 24 2456
internal_value=0 0.0975005 0.037474 0.101698 0.114603 0.119011 0.12826 0.129645 0.115948 0.0864135 0.0766105 0.0594263 0.102459 0.128051 0.111981 0.0218907 0.12847 0.137945 0.154605 0.0785035 -0.00291032 0.116789 0.178472 0.0724581 0.156279 0.0809273 0.0492024 0.158112 0.0948046 0.0235341 0.038804 0.113923 0.0782057 0.134494 -0.0835037 0.14187 0.16242 0.0105783 0.0993105 -0.0865669 -0.00624175 -0.120768 -0.0547028 -0.104387 -0.0815106 -0.100361 -0.106233 -0.141334 -0.150691 -0.126483 -0.130039 -0.10383 -0.103943 -0.114333 -0.103696
internal_weight=0 62143.9 4061.37 58082.5 31492 30062.9 35235 35022.9 22613.7 26590.5 21564.1 12952.9 8611.15 17690.4 26884.4 1429.13 5026.42 14745.7 12409.2 2944.63 2691.14 1370.23 3178.51 4923.35 3171.35 1855.07 3154.26 12114.2 771.953 2044.77 1785.26 1769.09 931.436 1275.19 497.691 1241.98 11342.3 294.965 125.026 646.365 117.36 95.0378 169.939 529.006 259.515 212.1 208.385 33.213 84.7428 22.0992 17.096 186.286 101.186 5.00321 85.0998
internal_count=268644 205172 15792 189380 90421 78465 63472 58060 42048 98959 85930 55516 30414 30080 75403 11956 13029 21821 16012 8259 12942 2850 3062 11968 7380 5649 8927 14711 1746 9276 7138 3041 4885 2442 7071 2264 12965 1301 288 3666 479 408 1013 3187 2138 5412 5409 178 388 151 105 5258 2782 46 2476
is_linear=0
shrinkage=0.1


Tree=7
num_leaves=63
num_cat=0
split_feature=52 26 135 35 53 74 129 130 24 53 134 29 30 134 32 4 133 77 37 75 108 21 26 0 26 105 6 75 48 106 31 103 71 72 55 108 107 67 101 73 126 99 69 56 40 128 0 74 0 31 5 1 0 31 25 77 108 49 118 111 30 30
split_gain=1897.74 1472.18 1539.64 1155.77 1130.5 985.982 1083.26 897.797 861.223 1299.56 1942.9 780.175 836.352 1044.31 809.729 794.233 757.197 917.602 715.561 1109.21 706.603 657.442 588.138 583.046 1176.56 491.026 468.814 399.857 371.437 586.327 360.591 300.152 275.329 264.329 251.356 250.983 303.791 236.122 216.091 212.677 202.328 554.775 181.016 173.099 164.289 160.554 160.133 160.66 144.089 125.473 98.8412 118.133 98.4983 77.0824 72.6731 58.8938 55.144 24.9505 23.3604 54.5346 25.5381 16.3382
threshold=1.0568472743034365 1.2798735499382021 1.0000000180025095e-35 0.89385804533958446 1.1227952837944033 -0.99342867732048024 1.0000000180025095e-35 1.0000000180025095e-35 1.279943645000458 1.0810958147048952 1.0000000180025095e-35 1.2349804639816286 1.0717917680740359 1.0000000180025095e-35 0.95000323653221141 0.69868871569633495 1.0000000180025095e-35 -1.1934911012649534 0.9431256651878358 -1.0160931348800657 -1.0130079984664915 1.2492327690124514 1.2969292402267458 0.46394856274127966 1.3656194210052492 -0.89414677023887623 0.64751294255256664 -1.122576832771301 1.1217274069786074 -0.86596563458442677 0.99370798468589794 -0.83840316534042347 -0.38317304849624628 -0.66454356908798207 0.93937310576438915 -0.9692571461200713 -0.91510319709777821 0.15051294863224032 -0.83929911255836476 -0.84514182806015004 -1.5227895379066465 -0.91105440258979786 -0.18436229228973386 0.96099412441253673 0.98573982715606701 1.0000000180025095e-35 0.30022263526916509 -0.92078235745429982 0.4654694944620133 1.0024233460426333 0.80487185716629039 0.70072788000106823 0.45972205698490148 0.910831779241562 1.3202553987503054 -1.129608631134033 -0.89192888140678395 1.0923208594322207 -0.9717457890510558 -0.95693147182464589 1.0853340029716494 1.0700787901878359
decision_type=2 2 2 2 2 2 2 2 2 2 2 2 2 2 2 2 2 2 2 2 2 2 2 2 2 2 2 2 2 2 2 2 2 2 2 2 2 2 2 2 2 2 2 2 2 2 2 2 2 2 2 2 2 2 2 2 2 2 2 2 2 2
left_child=5 3 22 4 16 11 7 23 9 10 -5 12 14 15 27 -14 17 -2 19 -10 38 -11 28 24 -7 -18 -25 -1 29 -3 -15 46 -20 -16 53 57 -37 -22 -6 48 52 -42 43 -33 -44 -30 54 -48 -36 -41 58 -52 -9 56 -4 -53 -8 -24 59 -13 -60 -55
right_child=1 2 31 8 20 6 34 40 18 21 -12 50 13 30 33 -17 25 -19 32 -21 37 -23 35 26 -26 -27 -28 -29 45 -31 -32 42 -34 -35 39 36 -38 -39 -40 49 41 -43 44 -45 -46 -47 47 -49 -50 -51 51 55 -54 61 -56 -57 -58 -59 60 -61 -62 -63
leaf_value=-0.0069449389608719561 0.072393945860743145 0.092454462165656601 0.10759457441072039 0.10872558984461111 0.28978737014937839 0.1145572949695351 0.21485348301282559 -0.01081475077207078 0.032096634674670541 0.042487423353672261 -0.077958349755270689 -0.11942845562619686 0.063422338240426979 0.036892698342830189 0.13318394282342624 0.11870499426518316 0.10484588209109069 0.14297456356845084 -0.041952922869949498 0.13235661409743257 -0.071317238661481791 0.17210182356209874 -0.034330752042927654 0.20914370922524281 0.022740648833982358 -0.035145245564896718 0.12774983841394963 0.059001583915245161 -0.080272113696490788 -0.058764016845158265 0.20015259386020101 0.16014406655868352 0.1697706865454891 -0.015470298399375096 0.29442844767444004 0.094559911007068509 -0.056196465317107959 0.10482103150817323 -0.083967737616454471 -0.14013956466652561 -0.068807966332737822 0.2712649989911386 0.2898137229845183 -0.13040264583042421 0.077365455506070505 0.1595145667727485 -0.091957977208363309 0.14732387153199558 0.022865312596160439 0.02923328548400235 0.30016084906611462 0.074546187529402563 -0.11749225550178598 -0.068979473743494057 -0.080029547835992018 -0.099064141528743016 -0.15342971558210272 -0.10953560842101395 -0.041024101188239487 0.45164224865202746 -0.12190957093758366 -0.1430715885870372
leaf_weight=1494.9913424476981 2370.7271601371467 974.13617080822587 28.38079845905304 13763.904355254024 15.972166657447813 12782.659460224211 11.722573280334474 252.22959203273058 4396.8977905139327 7039.8575954660773 581.02271800488234 4.8945799730718136 4688.9514252282679 150.53493721783161 1366.4395578056574 5829.9475278705359 511.89613855630159 8258.7081824112684 1062.5289425700903 1473.1877652779222 86.927751213312149 414.37156674638391 47.497187193483114 732.17530526965857 1566.6794649735093 490.77044079452753 21124.458044290543 2388.208443948999 340.39173585548997 348.00815391913056 1335.5997015088797 166.55689354240894 65.188888065516949 131.0916199311614 43.169880446046591 177.40039203315973 542.2071601562202 611.45772470533848 491.07343861460686 62.273434430360794 111.49169164709747 84.196813203394413 211.59478387981653 23.38398177921772 43.962729692459106 30.418893255293369 31.997361838817596 228.03442830964923 35.692719858139753 146.9521212503314 13.187752448022364 34.761901043355465 131.770621702075 36.528835989534855 75.729848265647888 44.621661864221096 6.224513627588748 619.54782934859395 49.800951823592186 2.5399935916066161 180.55374046415091 160.65682962536812
leaf_count=8597 8309 3241 76 36815 21 23561 14 1732 16939 36634 3051 42 12931 325 2944 9463 1548 14567 5334 4431 1071 1248 316 716 4337 2364 30842 5747 2062 1788 765 344 149 466 55 891 4037 2139 6600 317 920 318 161 143 120 135 157 511 150 551 15 125 1123 151 384 235 40 4157 266 10 1341 802
internal_value=0 0.0793934 0.0205557 0.0848896 0.109844 0.106996 0.116224 0.118217 0.0737653 0.0835634 0.101164 0.0875715 0.0904643 0.105148 0.0577032 0.094062 0.119397 0.127233 0.0432425 0.0572584 0.0176604 0.0496925 -0.0117051 0.120194 0.104533 0.0363251 0.130476 0.0336129 0.0278455 0.0526515 0.183616 0.143265 -0.029714 0.120171 -0.0295021 -0.0599922 -0.0190314 0.0828972 -0.0721943 0.0315719 -0.00524712 0.0775116 0.198313 0.124374 0.253267 -0.0606016 0.0759195 0.11788 0.171521 -0.0211785 -0.0646634 0.0230029 -0.0474214 -0.111287 -0.0288828 -0.0230405 0.0871234 -0.104181 -0.0987919 0.0756757 -0.104423 -0.129346
internal_weight=0 45523.7 3889.25 41634.5 12837.5 55005 37288.9 36785.7 28797 21799.2 14344.9 17716.1 17385.8 12005 5380.73 10518.9 11632.1 10629.4 6997.8 5870.09 1205.43 7454.23 3079.61 36206 14349.3 1002.67 21856.6 3883.2 1692.95 1322.14 1486.13 809.641 1127.72 1497.53 503.221 1386.65 719.608 698.385 507.046 288.088 579.689 195.689 445.498 189.941 255.558 370.811 364.142 260.032 78.8626 209.226 330.361 92.5713 384 215.133 104.111 79.3836 17.9471 667.045 237.789 7.43457 230.355 197.186
internal_count=268644 159743 18523 141220 36619 108901 65629 63549 104601 77748 39866 43272 41238 23484 17754 22394 26788 22876 26853 21370 9831 37882 16627 59456 27898 3912 31558 14344 7226 5029 1090 1896 5483 3410 2080 9401 4928 3210 6621 1073 4093 1238 768 487 281 2197 1128 668 205 868 2034 375 2855 1007 460 360 54 4473 1659 52 1607 953
is_linear=0
shrinkage=0.1


Tree=8
num_leaves=60
num_cat=0
split_feature=53 26 30 135 37 71 51 49 133 109 111 25 69 76 107 109 99 71 1 33 0 121 56 26 71 31 74 121 0 70 101 38 28 50 27 28 117 135 35 95 69 92 52 69 52 104 136 30 123 14 70 31 1 112 32 115 53 128 76
split_gain=1657.79 1062.36 1021.19 974.842 885.438 1089.13 1068.73 952.113 1091.79 834.397 832.67 805.938 838.29 703.848 676.492 654.403 622.609 620.334 710.962 570.353 475.483 431.988 399.182 385.095 381.366 305.552 277.671 433.599 276.293 441.973 264.118 247.23 244.258 220.161 218.916 208.851 195.555 187.25 185.928 166.971 145.08 116.867 94.2802 76.3218 91.3757 58.3503 151.143 56.3932 56.2882 48.959 46.6142 56.3726 42.9423 32.2184 21.003 0.686321 0.592299 0.0611062 0.000876767
threshold=0.99697354435920726 1.3225743770599367 1.0930468440055849 1.0000000180025095e-35 0.9557873308658601 -0.39334040880203242 1.1666694879531863 1.094305217266083 1.0000000180025095e-35 -1.1386232376098631 -0.84864419698715199 1.2404799461364748 -0.039237461984157555 -1.1763342618942259 -0.94927039742469776 -1.1037245988845823 -0.79894030094146717 -0.49470694363117212 0.45633345842361456 0.93758031725883495 0.3553666770458222 -1.1342855691909788 0.82060497999191295 1.609477758407593 -0.37048606574535364 0.94372606277465831 -1.0322567820549009 -1.0120383501052854 0.60121271014213573 -0.46548984944820399 -0.92873227596282948 0.98599773645401012 1.2468928694725039 0.99396127462387096 1.475567162036896 1.2235906124114992 -1.2182776927947996 1.0000000180025095e-35 0.82281416654586803 -1.0931590795516966 -0.21901994198560712 -1.0107640624046323 1.1249656677246096 -0.20821283757686612 1.051047742366791 -0.90936771035194386 1.0000000180025095e-35 1.1106169223785403 -1.2846156954765318 1.0295490026474001 -0.35412740707397455 1.0022030472755434 0.42247529327869421 -0.89184546470642079 0.89502975344657909 -0.82475063204765309 1.0206866264343264 1.0000000180025095e-35 -1.2728218436241148
decision_type=2 2 2 2 2 2 2 2 2 2 2 2 2 2 2 2 2 2 2 2 2 2 2 2 2 2 2 2 2 2 2 2 2 2 2 2 2 2 2 2 2 2 2 2 2 2 2 2 2 2 2 2 2 2 2 2 2 2 2
left_child=2 4 10 20 5 7 9 13 -9 -7 17 12 19 -2 28 -8 -14 18 32 -6 43 36 26 -20 31 54 39 -28 29 37 52 -13 -1 -31 47 -32 56 -4 -27 -16 -38 -36 -26 49 -45 46 -24 -30 -47 -3 51 -23 -22 -12 -19 57 -5 -55 -57
right_child=1 3 14 21 11 6 15 8 -10 -11 53 24 16 -15 22 -17 -18 25 23 -21 30 50 45 -25 42 38 27 -29 34 33 35 -33 -34 -35 41 -37 40 -39 -40 -41 -42 -43 -44 44 -46 48 -48 -49 -50 -51 -52 -53 -54 55 -56 58 -58 -59 -60
leaf_value=0.040308235379103136 0.071168085815245294 -0.1062647451602567 -0.075400430644233921 -0.15290424014287005 0.032598576263290192 -0.071018797869406541 -0.10833291306029169 0.070014499480242687 -0.00072069258526781413 0.12995528273481161 0.1841040360436047 0.00081538164418202836 -0.058028993134750233 0.11228840372929275 -0.15756388435917812 0.06657864412826113 0.045794586062180419 -0.18448542471481844 0.10540109373749502 0.098045646486050186 0.25288554069880503 -0.15060467378860806 -0.059265274175084676 -0.02833541546058399 0.22702972077575875 0.0026210020878125414 0.055505991424068757 -0.059838167372618926 0.17462834692728213 0.16820581922632635 0.065967977179944889 -0.088260753144361881 -0.089556849498762303 0.032419265021109658 0.1681966565352285 -0.00064828907965258599 0.089450618062346748 0.084209908493479507 0.14624479384220135 0.10798728302338412 0.15966339433583787 -0.13578498224654448 -0.12280874260687571 0.067973921071202884 -0.12185323918992493 0.018631335164677017 0.2485431814555974 0.078104201945441556 -0.11905241260197148 0.090715088483480227 0.095032866231598928 0.082522208039495934 -0.085638607949227008 -0.1268413311303683 0.016233722807789494 -0.10340534034806011 -0.1257090012702877 -0.11291417036510643 -0.10390914293882875
leaf_weight=488.36794805526733 7519.9407043755054 505.6857140250504 230.16450406610966 15.784968942403792 1811.6036258973181 211.86823265627027 291.77772525697947 22426.944487117231 2417.2538348250091 8279.7323977090418 3.9200438931584349 865.35140274092555 811.51827680692077 9323.6571690067649 24.759712010622025 801.38365637883544 2003.7722347024828 29.644880399107933 26308.982528723776 5025.1888059750199 3.8019589334726325 86.758085146546364 132.14807504042983 217.08843149244785 73.69602932035923 91.95951797068119 894.59399726241827 512.68577963858843 597.48516437411308 349.66691415011883 779.94376155734062 486.90612151101232 205.89125513285398 181.32640857622027 18.657718792557716 1186.6848781816661 969.30541737750173 107.98788075149059 4542.0826569348574 541.97932677716017 422.59232325851917 39.259456321597099 8.6026909947395307 63.291270807385445 42.309374082833529 34.285775206983089 18.142586931586266 67.350740700960159 221.654196806252 12.940848872065542 10.918870657682417 11.780989870429037 260.14776583388448 14.473818622529508 6.3255732804536811 125.0736524630338 16.256264999508858 4.0268356278538695 47.723804332315922
leaf_count=1021 19921 3162 869 70 8152 1568 4782 70764 10536 11745 3 3436 5074 17988 111 3904 14658 120 39266 14327 18 399 750 868 112 212 2358 2334 463 297 2126 2891 842 543 41 5173 1875 252 3901 943 472 214 63 143 327 112 18 172 1305 63 20 25 2323 93 12 3934 109 40 1324
internal_value=0 0.0736766 0.100287 0.0261184 0.0770233 0.0825643 0.11296 0.0755758 0.0631322 0.124941 0.106209 0.0513979 0.0617922 0.09393 0.0524577 0.0198927 0.015867 0.107469 0.101692 0.0807036 -0.00842483 0.0904293 0.0187083 0.104307 -0.0185384 0.141141 0.0372858 0.013485 0.102921 0.06493 0.0131646 -0.0312582 0.00179512 0.121837 0.148606 0.025771 0.105145 -0.0244294 0.143395 0.0963859 0.110768 -0.0378589 0.190461 -0.0855714 -0.00808119 -0.0715659 -0.0221077 0.16485 -0.100608 -0.10135 -0.10101 -0.122733 -0.0807625 -0.0996889 -0.149188 -0.105504 -0.139107 -0.12381 -0.103544
internal_weight=0 66747.4 36057.7 4388.2 62359.2 51272.6 9584.76 41687.8 24844.2 8491.6 32085.6 11086.6 9652.08 16843.6 3972.15 1093.16 2815.29 31890.3 27220.3 6836.79 2854.81 1533.4 2380.25 26526.1 1434.56 4670.01 1974.02 1407.28 1591.9 869.146 2230.58 1352.26 694.259 530.993 722.753 1966.63 1423.94 338.152 4634.04 566.739 1391.9 57.9172 82.2987 624.227 105.601 406.231 150.291 664.836 255.94 518.627 109.458 98.5391 263.95 195.218 35.9705 191.298 32.0412 18.5007 172.797
internal_count=268644 206226 62418 16305 189921 141208 21999 119209 81300 13313 51636 48713 42211 37909 10782 8686 19732 46242 41997 22479 13335 2970 7931 40134 6502 4245 5746 4692 2851 1961 9640 6327 1863 840 890 7299 2526 1121 4113 1054 2347 255 175 3695 470 2185 768 635 1417 3225 444 424 2341 5394 132 5391 179 133 5258
is_linear=0
shrinkage=0.1


Tree=9
num_leaves=61
num_cat=0
split_feature=130 81 53 102 110 122 53 71 0 72 53 5 132 28 76 96 124 125 32 32 123 53 22 27 69 117 76 1 127 29 118 124 125 112 78 3 43 105 104 108 61 37 73 128 75 108 135 51 58 24 35 40 56 1 95 57 31 99 35 128
split_gain=1557.2 1649.12 1131.4 976.837 868.487 983.083 1093.94 843.839 867.046 749.111 729.692 695.96 525.658 521.977 495.197 492.792 570.917 419.541 348.508 324.221 321.499 304.661 296.592 287.535 264.676 258.039 289.105 226.544 272.26 268.828 265.437 210.798 187.929 352.303 647.859 180.85 166.213 162.071 151.208 151.014 125.482 122.689 109.238 106.632 121.802 92.3885 87.1058 77.7989 138.781 59.0295 45.6427 42.9759 30.63 174.118 24.715 17.1683 43.7909 6.37164 2.74334 1.2269
threshold=1.0000000180025095e-35 -1.2867578864097593 1.0027902722358706 -0.8815208077430724 -1.1935039162635801 -1.9941121339797971 1.1245917677879336 -0.5516095459461211 0.57015269994735729 -0.76746243238449086 1.0905426740646365 0.72506093978881847 1.0000000180025095e-35 1.1167777776718142 -1.2180100083351133 -0.86839586496353138 -1.2380282282829282 -1.7465502619743345 0.95589068531990062 0.90192070603370678 -1.1546974182128904 0.9505981206893922 1.3207450509071352 1.2744088768959048 -0.045117234811186784 -0.9215007722377776 -1.1763342618942259 0.34917342662811285 -1.5468976497650144 1.0812468528747561 -0.93432858586311329 -1.1588572859764097 -1.7137420773506162 -0.96913340687751759 -1.224445044994354 0.61208274960517894 0.96275180578231823 -0.76628750562667836 -0.85819959640502919 -0.85555198788642872 0.62701568007469188 0.93819257616996776 -0.70062482357025135 1.0000000180025095e-35 -0.55863162875175465 -0.88233181834220875 1.0000000180025095e-35 1.0328460931777956 0.77683129906654369 1.2563594579696657 0.94880029559135448 0.95931375026702892 1.0114507675170901 0.31822283565998083 -0.99062341451644886 0.83390909433364879 0.9890335500240327 -0.82754600048065174 0.86423000693321239 1.0000000180025095e-35
decision_type=2 2 2 2 2 2 2 2 2 2 2 2 2 2 2 2 2 2 2 2 2 2 2 2 2 2 2 2 2 2 2 2 2 2 2 2 2 2 2 2 2 2 2 2 2 2 2 2 2 2 2 2 2 2 2 2 2 2 2 2
left_child=2 18 7 12 43 6 -6 8 15 11 -7 -10 22 17 47 16 -1 49 27 36 25 -21 46 -24 45 26 -20 39 29 -29 -30 -11 52 34 -34 -17 -16 -27 -35 -2 51 -42 -26 44 -5 -19 -4 48 -9 50 -3 -22 57 -54 -41 56 -14 -15 -57 -49
right_child=1 13 3 4 5 10 -8 14 9 31 -12 -13 55 32 19 35 -18 24 20 21 40 -23 23 -25 42 37 -28 28 30 -31 -32 -33 33 38 -36 -37 -38 -39 -40 54 41 -43 -44 -45 -46 -47 -48 59 -50 -51 -52 -53 53 -55 -56 58 -58 -59 -60 -61
leaf_value=0.076826935500120486 0.43145443599229155 -0.11751859581704904 -0.10790122028575302 0.012253806788713814 0.14664668183687204 0.073206770276963651 -0.029946929462988166 -0.10117289514507394 -0.036074657839743056 0.1300480744422102 0.037409876001686153 0.083075472227890301 -0.035899477429551359 -0.082229825626136455 0.0943686359656674 -0.087455754449956069 0.022147125190758829 0.26236844975318635 0.10986671960042294 0.15005166532599459 0.080890318539597161 0.10878327743752879 0.04156458669100177 -0.032734549110185002 -0.12560315530638286 -0.074944218177961347 0.037106332706844117 0.11785463864581061 0.16833674045922467 -0.027126338875323848 0.038873290112220758 0.053149896683334308 0.15080268082954307 -0.020142040477576964 -0.045874658220128789 0.074617856480204914 0.028549052866890391 0.28454783880421464 -0.12201953815536626 0.20452628630818306 0.18888106426308326 0.013668255506956287 0.31963534302218699 0.16496848672432587 -0.096839968500017443 0.10097092549942195 0.25698910007903641 -0.16369080030746253 0.086723107253671841 0.37675030553115668 0.025547332656616479 -0.14803831368505913 -0.09159437152533971 0.57713457854868444 -0.11224446366755492 0.21823068738754481 0.20489613027903936 -0.12809131255060119 0.18594434246361025 -0.12881745786508256
leaf_weight=5893.4136228784919 23.202413309365511 89.314000427722931 279.08605495095253 142.50245243683457 2883.3422412760556 45663.880658321083 399.3749162890017 81.741379695013165 521.94607467204332 4710.9458204247057 6505.6850594244897 8066.269167104736 11.184018764644859 33.146212641149759 934.39012409746647 323.42224776744843 2824.7178344596177 123.85688177123666 1285.2729495167732 2111.5230242460966 16.871152855455875 11707.246157836169 1195.0078006722033 923.29460884444416 37.111518830060959 161.66078116744757 949.53032712638378 148.07270187139511 199.49239360168576 938.54073803126812 768.23907347582281 385.66199816577137 218.0791268274188 203.03101430460811 721.89435444027185 87.468314029276371 650.95565041899681 13.59554412961006 515.80091555416584 3.5923814773559553 414.88305278867483 44.224461391568184 6.4713644534349433 20.793508321046829 363.14019372314215 49.698334002867341 6.6992189809679976 36.048440188169479 75.725959613919258 2.875173605978488 29.720154602080584 15.955221444368361 66.932800281792879 4.1340104639530173 7.8348020128905773 76.189647227525711 23.25889578461647 352.03879252448678 40.204747535288334 14.008869998157023
leaf_count=10504 39 805 2363 666 2243 118140 3723 1748 1577 4889 30233 15703 37 213 1294 2330 7310 126 3100 1457 39 14241 5266 5048 257 653 3584 520 509 4522 3654 958 561 1495 4212 156 1311 16 3058 1 474 137 20 20 5605 124 3 157 137 6 226 78 681 5 97 35 17 2158 18 85
internal_value=0 0.0294043 0.0768616 0.0681093 0.0708692 0.0720828 0.125162 0.0901939 0.0779352 0.0938578 0.0687428 0.0758342 0.00764061 -0.0377134 0.108108 0.0540665 0.0591104 0.0774753 0.0624067 0.110175 0.0848266 0.115089 -0.00372105 0.00918017 0.160826 0.0697889 0.0789521 0.0312612 0.0269856 -0.0073698 0.0655615 0.124229 -0.0561784 -0.0405454 -0.000244411 -0.0529543 0.0673426 -0.0470566 -0.0932447 0.284904 0.158498 0.172003 -0.0594923 -0.056968 -0.0660947 0.216152 -0.0993477 -0.0453354 -0.0108138 -0.0709836 -0.0817982 -0.0303802 -0.113015 -0.0526939 -0.0126607 0.188726 0.126707 -0.124145 0.207078 -0.153931
internal_weight=0 7445.07 96959.1 58533.6 55978.7 55452.3 3282.72 38425.5 22813.8 13684.8 52169.6 8588.22 2554.92 2454.1 15611.6 9129.02 8718.13 339.047 4990.97 15404.1 2901.99 13818.8 2404.09 2118.3 217.138 2410.06 2234.8 2088.97 2054.34 1086.61 967.731 5096.61 2115.06 1658.81 939.973 410.891 1585.35 175.256 718.832 34.6296 491.934 459.108 43.5829 526.436 505.643 173.555 285.785 207.525 157.467 121.909 119.034 32.8264 456.252 71.0668 11.4272 150.837 34.4429 385.185 116.394 50.0573
internal_count=268644 31370 237274 173417 160630 154339 5966 63857 43427 23127 148373 17280 12787 13947 20430 20300 17814 1564 17423 18303 8081 15698 12680 10314 527 7353 6684 9342 9205 5042 4163 5847 12383 9326 4773 2486 2605 669 4553 137 728 611 277 6291 6271 250 2366 2127 1885 1037 1031 117 3057 686 98 107 54 2371 53 242
is_linear=0
shrinkage=0.1


Tree=10
num_leaves=60
num_cat=0
split_feature=52 73 133 69 32 52 108 30 51 72 100 38 109 111 70 46 28 30 135 54 53 115 90 74 38 69 74 122 108 75 92 32 100 79 90 34 95 125 0 128 34 28 29 6 0 1 79 31 74 99 110 33 50 107 116 75 115 130 71
split_gain=1285.73 924.353 980.58 1021.54 963.372 929.366 1001.74 869.476 836.661 965.713 719.16 877.058 685.282 630.233 618.848 814.945 543.08 625.075 646.75 493.304 476.237 454.69 516.153 409.624 351.912 335.24 328.285 546.157 325.184 293.486 326.492 260.333 218.086 190.787 178.476 171.694 170.446 163.072 234.977 151.383 150.175 141.156 122.731 109.524 170 108.847 107.433 98.0518 84.349 144.103 79.2694 55.8316 32.6445 31.2641 30.2664 29.5745 0.869214 0.134234 0.00108629
threshold=1.0192911624908449 -0.65406912565231312 1.0000000180025095e-35 -0.012867601122707127 0.9185985028743745 1.1336758732795718 -1.0399113297462461 1.0907390713691714 1.1012635231018069 -0.58963221311569203 -0.9143615961074828 0.9434289038181306 -1.1386232376098631 -0.84864419698715199 -0.14545913040637967 1.1715686321258547 1.218778729438782 1.069744408130646 1.0000000180025095e-35 0.90931907296180736 0.97832861542701732 -1.4436081647872923 -0.25115823745727534 -0.96025928854942311 0.92215728759765636 -0.077453441917896257 -1.027462303638458 -1.0474006533622739 -1.0583558082580564 -1.1298161745071409 -1.1367691755294798 0.95475488901138317 -0.9022705852985381 -0.2673791348934173 -0.95739656686782826 0.77223390340805065 -1.0931590795516966 -1.4423795342445371 0.5054563879966737 1.0000000180025095e-35 0.83409732580184948 1.0969803333282473 1.1885071992874148 0.70556774735450756 0.52776974439620983 0.63926690816879284 -0.74853119254112233 1.0081827044487002 -0.58955624699592579 -0.63840371370315541 -1.0238212943077085 0.95727339386940014 1.0465768575668337 -0.99715244770050038 -0.87826880812644947 -1.1046671867370603 -0.82475063204765309 1.0000000180025095e-35 -0.5516095459461211
decision_type=2 2 2 2 2 2 2 2 2 2 2 2 2 2 2 2 2 2 2 2 2 2 2 2 2 2 2 2 2 2 2 2 2 2 2 2 2 2 2 2 2 2 2 2 2 2 2 2 2 2 2 2 2 2 2 2 2 2 2
left_child=7 2 3 10 40 12 25 13 9 -6 24 -12 48 16 15 -14 29 18 -18 23 -19 33 -23 26 -2 41 36 -28 -16 30 -1 -10 -31 -8 45 -36 -9 38 42 -27 52 -7 -21 55 -45 -25 -42 -40 49 -3 -5 -52 -4 -50 -15 -39 57 -56 -58
right_child=1 5 4 50 8 6 21 19 31 -11 11 -13 14 54 28 -17 17 20 -20 37 -22 22 -24 34 -26 39 27 -29 -30 32 -32 -33 -34 -35 35 -37 -38 43 47 -41 46 -43 -44 44 -46 -47 -48 -49 53 -51 51 -53 -54 -55 56 -57 58 -59 -60
leaf_value=0.069747135168213945 0.017634449399555188 -0.085487511317778569 0.020315142508410339 0.49862047308468233 0.0074882977922594105 0.20062553371147254 0.15549709036799275 -0.15899974176920759 -0.09307112598054984 0.11931300574601876 0.075772960020662944 0.048943096531137209 0.098646480920418139 0.18135751776656014 -0.075170981234129741 -0.0061964529259839769 0.071274733949519456 0.096105746951193741 -0.012971201105076919 0.021249185370044263 0.050922112770541421 0.066394945413398868 -0.10533019645767734 0.09062105828479905 -0.10171300667564434 -0.094439467920429135 0.042078243416538784 -0.087242247177148347 0.14591821161069238 0.15005319845191115 -0.17697105756763795 0.038705259316132744 0.10736240531781767 -0.1164855455594601 -0.059938132264523207 0.093356884696787018 0.090491443290053583 0.058657552872877251 0.14719059786788075 0.1538663559801107 -0.050197123374116859 -0.12252416370832937 -0.11150487743521574 0.13220973855643042 -0.046868829627366021 0.15329281408442461 0.17426021864889077 -0.036305576821349404 -0.1209420097020872 0.19792765608869042 -0.099601924998835245 0.019048565372902001 -0.12330621004930345 0.094287167190928917 -0.12154418727249734 -0.14011637877306363 -0.10336616964696604 -0.14416599379470188 -0.10282028492452328
leaf_weight=279.53363516181707 2039.8926315438002 50.516853004693985 16.427158486098051 2.3050193786621085 1781.2217479497194 62.440195830538869 562.83626021817327 28.146218031644821 585.3826170489192 1363.3969903960824 20880.779413349926 29253.792386103421 5428.0582102835178 3.7502736300230017 68.165232852101326 858.6792521700263 3254.6773765534163 15378.770817834884 1265.5953794568777 194.83544155955315 2749.8145687989891 978.88224044814706 213.13960653543472 543.30690927058458 281.11004678159952 688.24400728754699 1497.7632002457976 417.63726978003979 2767.1205870062113 1535.2553564533591 66.373735703527927 201.53085815906525 5425.1879594698548 27.029534637928009 115.19841734319925 199.75675115734339 1009.4065674394369 7.9649625942111006 161.41569040715694 25.46132069081068 604.93802585825324 17.252263259142637 108.37746953219175 59.932610996067524 458.97243979200721 565.62985227257013 22.103232495486736 35.530684590339661 153.14761788398027 27.819876298308372 451.21084304153919 43.480673059821129 432.46887250244617 7.0601988397538653 17.886576198041443 124.24222267046571 94.796961000189185 3.0738478004932395 59.230655830353498
leaf_count=615 9370 206 52 1 5991 111 975 127 3326 2352 47655 92166 8662 2 468 3073 5457 20563 3056 527 5467 4608 2192 778 2485 8718 3546 2028 1422 1222 276 841 5678 301 457 289 1639 58 194 32 2616 145 488 120 2063 411 35 124 1497 31 4790 387 2667 85 137 787 3028 17 2230
internal_value=0 0.0574651 0.0522464 0.0562463 0.00994925 0.0828065 0.0296073 0.0807992 0.0328949 0.0559716 0.0575983 0.0601176 0.0974427 0.0874871 0.101818 0.0843264 0.0886042 0.0809566 0.0476874 0.0443436 0.0892521 0.0712243 0.0356896 0.0596642 0.00317959 -0.0638601 0.0384209 0.013881 0.140603 0.112311 0.0224061 -0.0593228 0.116779 0.143034 0.10372 0.0372875 0.0837234 -0.0139017 0.0290395 -0.0855812 -0.0738954 0.130668 -0.0262011 -0.0468874 -0.0261856 0.122588 -0.042285 0.114086 -0.069876 0.0151623 -0.0864471 -0.0891732 -0.11805 -0.111457 -0.099732 -0.128141 -0.105756 -0.124862 -0.103156
internal_weight=0 69895.9 57960 52952.6 5007.47 11935.9 2575.29 35662.1 3931.53 3144.62 52455.6 50134.6 9360.57 30133.9 9122.02 6286.74 29955.2 22648.9 4520.27 5528.12 18128.6 1781.89 1192.02 4376.85 2321 793.398 2952.95 1915.4 2835.29 7306.35 345.907 786.913 6960.44 589.866 1423.89 314.955 1037.55 1151.27 500.159 713.705 1075.94 79.6925 303.213 651.112 518.905 1108.94 627.041 196.946 238.545 78.3367 496.997 494.692 448.896 160.208 178.738 132.207 174.988 20.9604 154.028
internal_count=268644 207260 174734 156854 17880 32526 17082 61384 12510 8343 151676 139821 15444 47748 13625 11735 42334 34543 8513 13636 26030 8076 6800 9275 11855 9006 7340 5574 1890 7791 891 4167 6900 1276 1935 746 1766 4361 1333 8750 5370 256 1015 3028 2183 1189 2651 318 1819 237 5178 5177 2719 1582 5414 845 5412 154 5258
is_linear=0
shrinkage=0.1


Tree=11
num_leaves=63
num_cat=0
split_feature=130 80 128 31 52 133 82 71 70 57 70 32 29 76 29 115 109 104 86 58 109 6 32 109 134 21 72 109 100 70 72 59 53 30 32 76 89 29 80 31 0 78 0 30 78 111 28 120 74 124 20 3 8 129 76 46 5 90 31 31 53 75
split_gain=1209.97 1324.91 955.059 930.724 659.195 1230.09 1056.18 893.523 813.775 645.528 670.987 625.49 507.769 502.926 766.319 461.031 412.389 464.426 405.111 403.15 393.154 389.973 431.898 373.738 325.42 318.762 313.455 308.096 275.362 273.692 230.578 229.074 218.978 211.873 209.422 206.897 147.632 144.665 114.751 112.182 118.48 109.234 101.943 80.2344 64.1436 249.41 187.589 102.737 59.3523 84.1053 69.744 51.4895 167.488 46.0575 30.6233 17.4482 129.087 116.542 10.5031 66.3777 0.618309 0.263458
threshold=1.0000000180025095e-35 -1.2381845116615293 1.0000000180025095e-35 1.0077458024024966 1.0798939466476443 1.0000000180025095e-35 -1.1609117984771726 -0.36424420773982996 -0.25186270475387568 0.91081440448760997 -0.23722769320011136 0.96760272979736339 1.2349804639816286 -1.1798394322395322 1.0760700106620791 -0.9569108486175536 -0.92564401030540455 -0.79328694939613331 -1.3468546867370603 0.90114346146583568 -0.92434284090995777 0.62122175097465526 0.95436474680900585 -0.85106411576271046 1.0000000180025095e-35 1.3505288958549502 -0.58963221311569203 -0.83780902624130238 -0.94155830144882191 -0.19658089429140088 -0.75025394558906544 0.82831895351409923 1.1084805130958559 1.0434478521347048 0.96647295355796825 -1.0156792998313902 -1.1622408032417295 1.0508890151977541 -1.3059097528457639 1.0037733912467959 0.41734930872917181 -1.224445044994354 0.53003144264221203 1.0327959656715395 -1.1433201432228086 -0.99489462375640858 1.2342368364334109 -1.2467464804649351 -0.87614399194717396 -1.6023371815681455 1.4902127981185915 0.67267364263534557 0.79787275195121776 1.0000000180025095e-35 -1.1807594895362852 1.1940150260925295 0.39123527705669409 -0.87240397930145253 1.0036628842353823 1.0042407512664797 1.1097073554992678 -0.46088624000549311
decision_type=2 2 2 2 2 2 2 2 2 2 2 2 2 2 2 2 2 2 2 2 2 2 2 2 2 2 2 2 2 2 2 2 2 2 2 2 2 2 2 2 2 2 2 2 2 2 2 2 2 2 2 2 2 2 2 2 2 2 2 2 2 2
left_child=2 13 3 4 8 6 -6 -7 12 21 16 31 -1 15 29 36 26 -18 27 -13 41 39 25 -20 -10 -23 -11 -17 51 32 42 -12 -15 -24 -22 -32 38 -31 -2 43 -41 -16 -30 -4 45 46 47 -3 50 -50 -47 53 -53 -5 -38 58 61 -58 60 -60 -46 -57
right_child=1 44 9 28 5 7 -8 -9 24 10 11 19 -14 14 20 18 17 -19 23 -21 34 22 33 -25 -26 -27 -28 -29 30 37 35 -33 -34 -35 -36 -37 54 -39 -40 40 -42 -43 -44 -45 55 48 -48 -49 49 -51 -52 52 -54 -55 -56 56 57 -59 59 -61 -62 -63
leaf_value=0.070514905980192874 0.16896962467192961 0.53735515188626393 -0.0073682300986450261 -0.11554841979512978 0.034929721129611999 -0.059785645705698581 0.079426031370902997 0.10822666531641696 0.13371844548001804 0.26211151026930368 -0.084842399390413645 0.054658935520074496 -0.016556087196610718 0.16645197378303681 0.23880648192924828 0.14370829892648856 0.013145308752539284 0.13173246715876172 0.034487802013602326 0.23769431352887271 -0.042046413842435612 -0.091829084170410857 -0.13351523845450713 -0.096081640104528868 -0.067098021163404603 0.027904787448935271 -0.016636470846256874 0.049800518149869751 0.30596029887147058 0.3058657012882422 0.018226049623276768 0.0022406907997424559 -0.046405541834868246 0.068190026149528835 0.039832231173732642 0.081435471078566676 -0.14695148629161459 -0.09911777402844002 -0.12824629932489104 0.015070005112213326 -0.14458216475183142 0.061014430855571559 0.042635951861712408 -0.10957185912943822 -0.1248369392094416 -0.10028969271071247 0.67432117479206011 0.036984134659896542 -0.12212513604626173 0.12025097473354895 0.033898292355320124 0.12024438339671316 -0.14832849303783069 0.027796112894162672 0.12130463980455795 -0.11232965810281043 -0.11137861527794835 0.51435720371955151 0.15451722504286403 -0.12460989227460084 -0.11355161294041607 -0.13239653488963601
leaf_weight=59880.618556823581 488.71941117197275 4.3617995083332053 91.428834469988942 181.66021431982517 9835.4732469320297 1512.4434178452939 11656.61097677052 400.3180238455534 2471.0872557517141 226.36034606397152 414.77253898978233 786.76427765935659 677.33602167293429 419.33349179290235 65.796696119010448 562.98496562987566 603.62258403375745 729.20395066589117 1302.8722553998232 142.06521040201187 1844.7390469834208 489.1966415066272 55.005990982055664 263.57092634961009 83.418799340724945 407.61583073064685 49.090158060193062 920.75692944228649 42.753829188644886 9.9797048978507501 4198.1607615016401 1111.6881360076368 54.626570031046867 977.82427693903446 376.0576057434082 590.69449290074408 19.469513472169641 75.929789703339338 13.344836704432963 232.12759523838758 58.121755257248878 72.782275088131428 22.407382801175117 480.45540215820074 263.99894486367702 514.31040179356933 5.4561789855360976 69.260688286274672 25.158068846911192 33.222955651581287 41.887411871924996 48.507977388799191 44.540628015995026 25.570050597190857 5.4458263069391242 69.546461742371321 5.3365678340196609 6.730195224285124 10.253468476235865 50.381235156208277 59.488407135009766 7.2220454253256312
leaf_count=109295 813 3 557 1536 35173 8186 34042 1400 2935 347 1721 2442 3065 738 67 862 2070 1355 4242 519 9447 3165 223 1243 383 1879 226 3345 100 43 13204 5818 481 2474 1055 1295 94 651 82 762 281 271 70 2286 1796 3419 6 316 199 101 239 133 236 96 13 744 65 4 40 342 600 49
internal_value=0 0.0201532 0.0614059 0.0640982 0.0665576 0.0522239 0.0590631 -0.0246227 0.0718732 0.0254027 0.0508376 0.01795 0.069541 0.0377738 0.00697385 0.0629089 0.101046 0.0780256 0.0479868 0.0826543 -0.0179844 -0.011619 0.0133629 0.0125181 0.127161 -0.0374081 0.212434 0.0854325 0.0228163 0.112152 0.0285651 -0.0214217 0.141919 0.0574477 -0.0281815 0.0260228 0.149279 -0.0520727 0.16107 -0.0675339 -0.0169 0.145429 0.215409 -0.0932323 -0.0779686 -0.0586065 0.108558 0.0666289 -0.0801158 0.0158041 -0.090184 -0.0701136 -0.00831643 -0.0978612 -0.0883179 -0.106366 -0.0664259 0.237623 -0.115603 -0.0774089 -0.122762 -0.114217
internal_weight=0 7663.02 98526.9 91671.6 86517.3 23404.8 21492.1 1912.76 63112.5 6855.34 4063.57 2455.29 60558 6496.41 2919.25 3577.16 1608.28 1332.83 3050.19 928.829 2359.38 2791.78 1929.64 1566.44 2554.51 896.812 275.451 1483.74 5154.3 559.87 4854.02 1526.46 473.96 1032.83 2220.8 4788.86 526.98 85.9095 502.064 862.134 290.249 138.579 65.1612 571.884 1166.61 693.658 79.0787 73.6225 614.579 58.381 556.198 300.279 93.0486 207.23 24.9153 472.957 88.8353 12.0668 384.122 60.6347 323.487 76.7685
internal_count=268644 31370 237274 211149 194479 78801 69215 9586 115678 26125 14498 10500 112360 23447 12753 10694 3998 3425 9692 2961 10840 11627 7741 5485 3318 5044 573 4207 16670 1913 14669 7539 1219 2697 10502 14499 1002 694 895 3886 1043 338 170 2843 7923 4283 325 319 3958 300 3658 2001 369 1632 107 3640 862 69 2778 382 2396 793
is_linear=0
shrinkage=0.1


Tree=12
num_leaves=63
num_cat=0
split_feature=53 103 71 42 72 5 70 52 30 104 97 99 132 29 32 57 12 98 54 132 62 11 104 136 110 31 57 125 106 30 135 0 42 120 82 23 47 98 51 132 90 29 121 4 74 76 72 24 107 108 30 59 11 32 35 31 38 14 31 90 31 69
split_gain=1080.87 862.177 770.786 928.624 756.058 599.641 584.152 567.155 516.366 587.727 559.684 440.307 434.94 354.067 344.255 334.776 288.271 284.277 274.817 257.27 225.863 210.501 207.969 204.537 192.976 191.431 183.456 179.546 172.396 175.943 159.979 137.076 135.874 135.06 201.356 130.522 120.146 119.492 117.386 116.533 115.434 104.211 102.972 98.4851 97.263 85.9397 59.5316 40.6603 35.5556 42.2081 31.0918 30.992 26.8739 23.8532 23.0722 19.6595 19.3949 18.1062 7.56374 6.02565 3.58486 0.845354
threshold=0.99076238274574291 -0.89031794667243946 -0.20829942822456357 1.1200617551803591 -0.66069275140762318 -0.036239957436919205 -0.12417120113968848 1.0648342967033388 1.0967918038368227 -0.94647878408431996 -0.88096717000007618 -0.99849852919578541 1.0000000180025095e-35 1.1307237744331362 0.90785250067710888 0.99654230475425731 1.2672508358955386 -0.92312887310981739 1.1062916517257693 1.0000000180025095e-35 0.70892977714538585 0.90998405218124401 -0.93528947234153736 1.0000000180025095e-35 -1.1935039162635801 0.94372606277465831 0.81471881270408641 -1.5952591300010679 -0.91437414288520802 1.1060001850128176 1.0000000180025095e-35 -0.16252022981643674 0.94984745979309093 -1.7581418156623838 -0.1777083873748779 1.0756641626358034 1.0770013332366946 -1.0301244258880613 0.99688255786895763 1.0000000180025095e-35 -0.74912762641906727 1.1447963118553164 -0.94945067167282093 0.73232281208038341 -1.0488769412040708 -1.047915995121002 -0.65697121620178212 1.4187019467353823 -0.99376371502876271 -1.0299839377403257 1.0781117081642153 0.70477777719497692 1.2281644940376284 0.88461467623710643 0.78078684210777294 0.98166215419769298 0.87462651729583751 1.1574212312698366 0.99054265022277843 -0.99544516205787648 1.0091559886932375 -0.28094843029975886
decision_type=2 2 2 2 2 2 2 2 2 2 2 2 2 2 2 2 2 2 2 2 2 2 2 2 2 2 2 2 2 2 2 2 2 2 2 2 2 2 2 2 2 2 2 2 2 2 2 2 2 2 2 2 2 2 2 2 2 2 2 2 2 2
left_child=4 12 3 6 8 33 7 -3 10 37 11 42 21 -13 25 31 27 41 24 -17 -8 30 52 38 -7 46 50 -12 29 -11 36 -5 -32 34 -4 -20 -2 55 -19 40 -27 56 -1 -39 -30 -41 57 -24 49 -28 61 -25 -23 -48 -35 -10 -16 -6 -50 -18 -43 -14
right_child=1 2 5 15 14 18 20 -9 9 28 16 13 26 -15 17 19 59 23 35 -21 -22 22 47 51 -26 39 48 -29 44 -31 32 -33 -34 54 -36 -37 -38 43 -40 45 -42 60 -44 -45 -46 -47 53 -49 58 -51 -52 -53 -54 -55 -56 -57 -58 -59 -60 -61 -62 -63
leaf_value=0.033184790645040443 -0.035050094266497397 0.057172835413075454 0.19011767768771315 -0.11500344201467108 -0.014318295391342115 -0.1108131458522264 0.13237896812258093 0.03846453890802979 0.05348286025232362 0.028804462338635095 -0.010721650224054236 0.12578337762138445 -0.16362605047956869 0.065754841594235822 0.15614125427191297 0.093746690399011678 0.11120830465204334 0.13814861712461629 -0.1044148271642385 -0.11183702007139205 -0.060347521058981196 -0.12336062529390251 0.18764983353226294 -0.23634368360931501 0.143105326350182 -0.010700801857796103 -0.07419773752448687 -0.13848252738013764 0.05302719647408325 -0.081152057322665436 -0.16479465197135332 -0.036497879796065121 0.065027844457634848 0.11249670386979493 -0.12426185317106608 0.12381874926998465 -0.10014688259481981 0.045686508304835102 0.10416159268617825 -0.083018878163448315 0.088631856758417726 -0.22963239309638384 -0.12311192105515355 0.12454297337173877 -0.073222032849022053 0.094492018521415491 -0.15617610381064498 0.03031294215640561 0.18451262766902149 0.16458300651169333 0.080005223823766 0.038760122455357628 0.12756489862426684 -0.0096326003930851389 -0.10658615175228177 -0.15097186659900014 -0.010239026715567347 0.2076020807628508 0.13653588879192707 0.16192336716752001 -0.16901570737396934 -0.2057328362192018
leaf_weight=59.071931399405003 1311.1101455893368 27799.617959193885 48.962839456275105 293.54814199544489 7.6591205373406392 30.488973593339324 1005.8217965401709 38850.172352772206 5.8966145217418697 753.76485286094248 722.54778899252415 1028.2279673088342 7.7473550774157092 22134.491624735296 10.51032003760338 301.7477838806808 35.110596980899572 1401.0368740260601 71.663012787699699 76.2536904476583 64.721044698730111 40.39895231090486 88.501046258956194 19.08612929284573 1634.0087055042386 321.79122069478035 13.991972312331201 129.74940216355026 68.300894722342491 180.33920128270984 29.221965130418539 917.82013946771622 214.94839189201593 4.9726027101278296 34.890855077654123 38.527876138687134 361.75248821638525 242.79249936342239 3699.9224679917097 28.360006272792816 183.82063138484955 19.450418770313263 147.16536784544587 455.52940651774406 572.64227629452944 712.01189328730106 58.545857336372137 20.168207481503487 117.37456528842449 15.719824716448782 5.4336304515600196 5.2136279493570319 4.7723614834249011 13.708146065473555 144.32832202501595 23.234259262681007 21.014615327119827 7.070388488471508 45.637347295880318 70.407424204051495 19.575373530387878 12.398332923650742
leaf_count=148 6645 58848 55 4984 52 568 724 121358 13 2036 1808 1042 36 35003 4 1089 40 781 615 1023 317 433 78 79 1044 710 46 1575 178 859 132 7258 404 13 329 86 3643 498 3488 76 231 80 3601 518 2565 748 721 55 43 10 9 8 11 29 1518 116 50 4 37 37 85 50
internal_value=0 0.045502 0.047441 0.0456716 0.0672464 0.108521 0.0474448 0.0462678 0.0597695 0.0145067 0.0640536 0.0671244 -0.0149065 0.0684196 0.0977426 -0.0298846 -0.0108682 0.109373 0.128329 0.0522746 0.120727 -0.0290588 0.0834871 0.112118 0.138454 0.0524069 0.119346 -0.0301713 -0.0198288 0.00757613 -0.0380906 -0.055522 0.037523 -0.0422505 0.0593069 -0.0246137 -0.0491271 0.0888483 0.113497 0.0624197 0.0254127 -0.0899929 -0.0783443 0.0971262 -0.0597685 0.0876924 -0.0910212 0.158449 0.152743 0.0521356 -0.132282 -0.177319 -0.0968503 -0.128374 -0.0992894 -0.109587 0.0452317 0.0922069 0.171081 0.145048 -0.199227 -0.18954
internal_weight=0 73606.7 71317.5 69309.7 33158 2007.84 67720.3 66649.8 26629.3 2302.5 24326.8 23369 2289.18 23162.7 6528.78 1589.37 957.815 5195.81 1774.69 378.001 1070.54 2070.87 153.841 5125.26 1664.5 1332.97 218.303 852.297 1575.05 934.104 1917.03 1211.37 244.17 233.155 83.8537 110.191 1672.86 727.453 5100.96 1245.98 505.612 70.5507 206.237 698.322 640.943 740.372 86.9835 108.669 192.724 29.7118 25.5793 24.2998 45.1713 72.254 149.301 29.1309 31.5249 14.7295 163.012 105.518 39.0258 20.1457
internal_count=268644 211461 199829 195601 57183 4228 181247 180206 50037 6783 43254 39794 11632 36045 7146 14354 3460 4575 2313 2112 1041 11401 577 4356 1612 2571 231 3383 5638 2895 10824 12242 536 1915 384 701 10288 1145 4269 1765 941 219 3749 1016 2743 824 806 133 136 56 95 87 444 750 1531 129 54 56 80 77 165 86
is_linear=0
shrinkage=0.1


Tree=13
num_leaves=59
num_cat=0
split_feature=52 71 71 0 42 25 135 53 27 72 5 133 74 130 119 26 108 109 34 129 133 122 31 41 52 20 110 49 134 31 0 0 15 136 69 116 31 55 68 83 52 76 88 50 31 72 60 110 0 72 31 50 32 86 44 53 33 77
split_gain=945.424 780.151 725.672 837.793 710.369 739.559 661.554 659.793 632.294 511.745 511.4 444.54 437.69 418.474 394.555 383.642 339.709 287.122 281.746 279.774 268.756 310.977 253.891 244.465 274.364 236.003 230.585 256.107 212.299 202.406 194.361 176.904 172.264 295.524 169.383 258.132 166.273 163.014 114.401 113.636 100.515 67.3395 64.2309 63.3129 55.6228 78.8017 53.8093 40.2158 37.1921 36.9312 39.5728 34.0173 30.1131 27.6065 14.2805 7.55138 5.43211 0.61038
threshold=1.0192911624908449 -0.2202106639742851 -0.57185971736907948 0.57015269994735729 1.1142557859420779 1.3914533853530886 1.0000000180025095e-35 1.1245917677879336 1.2643259167671206 -0.77270725369453419 0.72794401645660411 1.0000000180025095e-35 -1.0246635079383848 1.0000000180025095e-35 -0.99850738048553456 1.4275755286216738 -1.0257321596145628 -1.1159324645996092 0.83281433582305919 1.0000000180025095e-35 1.0000000180025095e-35 -1.2669908404350279 0.98956480622291576 0.80957055091857921 0.96248951554298412 1.4401615858078005 -1.1852183341979978 1.1809356212615969 1.0000000180025095e-35 0.92054682970047008 0.57731378078460704 0.50722715258598339 0.81145742535591137 1.0000000180025095e-35 0.086555674672126784 -1.4409393668174741 1.0049924254417422 1.0731726288795473 0.14092744141817096 -0.15431404858827588 0.84347242116928112 -0.48005124926567072 -0.62901917099952687 1.0453484654426577 0.99786818027496349 -0.7208886146545409 0.73793157935142528 -1.1563892364501951 0.56692090630531322 -0.72836250066757191 1.0051349997520449 1.2396781444549563 0.95714861154556286 -0.17021031677722928 0.77550098299980175 1.1097073554992678 0.84572273492813121 -1.2336331009864805
decision_type=2 2 2 2 2 2 2 2 2 2 2 2 2 2 2 2 2 2 2 2 2 2 2 2 2 2 2 2 2 2 2 2 2 2 2 2 2 2 2 2 2 2 2 2 2 2 2 2 2 2 2 2 2 2 2 2 2 2
left_child=2 4 3 11 5 6 8 18 -2 10 30 14 -12 19 28 -16 -8 46 53 23 21 -7 48 54 -25 49 27 -20 -1 40 -5 -24 33 -19 35 56 -31 39 -34 -36 -11 -39 -37 -22 45 -21 -6 -28 -13 50 -15 -48 -46 -3 -4 -55 -9 -51
right_child=1 7 13 9 17 20 16 34 -10 29 12 22 -14 25 15 -17 -18 32 26 44 43 -23 31 24 -26 -27 47 -29 -30 36 -32 -33 38 -35 37 42 -38 41 -40 -41 -42 -43 -44 -45 52 -47 51 -49 -50 57 -52 -53 -54 55 -56 -57 -58 -59
leaf_value=0.052943124756419303 0.041943607794560529 0.049668182059130164 -0.10230091554551318 0.025832098226742924 0.31088638314395606 0.047905506159416834 -0.016777285264275004 -0.11239938433531678 0.0018412802793092019 0.06614408683204881 0.080862235799025947 -0.16620209847192141 0.03186055987503799 -0.12325960160502387 0.016031819073716976 -0.080888841486613586 0.092226145079937719 0.014127513134139054 0.11674475866467782 0.18732180559581466 0.06342049725267776 -0.065016375782449745 -0.12048564478778415 0.10959805437035275 0.07376022037176469 0.48553919019013397 0.13622687312170778 -0.13377560562797419 -0.16986728382083477 0.093449274915998831 -0.089672734565124257 0.027257524329585298 -0.015360162910075668 0.24673305387557304 0.22129032914919897 -0.12052651671607506 -0.02377318561857877 0.087519890448831461 -0.11053813097748544 -0.10980101297135483 -0.09622770847953549 -0.072325842275501595 0.20559150916506957 -0.12312541038126475 -0.16104944864945805 -0.10125512063502091 -0.097724453799678382 0.23176455737660501 0.0096660223708067584 -0.1304683642162266 0.12237934789616861 0.1876442027979511 0.063153736394637811 -0.21643878768651981 -0.21804747135141822 -0.11578108674947048 -0.069739876586457111 -0.11719516973912741
leaf_weight=3040.0625211130828 58038.517682269216 9.6066612340509874 39.283638514578342 246.20179046317935 3.2932116836309424 493.34217469394207 312.54852800071239 190.58510866388679 4217.3978345841169 67.471058070659637 3234.6798858679831 192.73732782900333 4176.2410981841385 12.529678020626308 2043.8300152551383 510.39752104133368 3354.3137892447412 868.94620492309332 102.2176044434309 15.415476759895681 19.322585877031088 482.29388615489006 116.27618234604597 2552.2310790419579 13105.192161440849 7.098353896290063 1692.7567755281925 67.92309027723968 43.37402106821537 4712.0971352308989 356.82466965168715 267.47424191981554 593.24570152163506 58.283750459551811 67.378623167052865 7.1580488719046107 124.19354585930705 40.809208236634731 160.44045361503959 12.251101115718482 87.655431635677814 74.411514664068818 38.645451158285141 311.4118587076664 60.529871441423893 24.504466030746698 421.37446184642613 45.237808421254158 12.824910297989843 70.587784312665462 13.761971682310103 4.2190483659505835 6.648644730448722 9.483614504337309 14.628640174865721 34.808382086455822 35.392684517428279 68.041749197989702
leaf_count=5651 157242 24 1818 561 7 1144 1158 2433 15334 219 5825 816 9073 253 6072 1716 5102 4715 140 25 48 2760 470 2190 16838 9 903 891 164 5316 1216 522 3604 56 42 56 430 85 1976 162 254 579 59 1696 276 159 5974 20 27 789 21 10 17 41 60 328 671 597
internal_value=0 0.0403399 0.0603436 0.0472556 0.0383886 0.0401817 0.0416582 0.0960495 0.039227 0.0616977 0.0460426 0.0170926 0.0532486 0.076085 0.0257311 -0.00333531 0.0829351 -0.0187476 0.121468 0.077772 -0.0343245 -0.00791606 -0.0655481 0.07887 0.079602 -0.0790453 0.127837 0.0167327 0.0498089 0.0868326 -0.0425148 -0.0175086 -0.000113368 0.0287486 -0.010828 -0.061842 0.0904391 0.0603273 -0.0356211 0.170352 -0.0256054 -0.0157112 0.154627 -0.112227 -0.0833062 0.0101817 -0.0917797 0.138714 -0.15523 -0.103345 0.00531644 -0.0948955 -0.13886 -0.104003 -0.133708 -0.137333 -0.105718 -0.123954
internal_weight=0 71767.6 35222.8 19232.3 69339 67229.1 65922.8 2428.67 62255.9 13005.4 8013.95 6226.98 7410.92 15990.5 5637.66 2554.23 3666.86 2109.8 1962.03 15818.4 1306.37 975.636 589.313 15711.3 15657.4 172.02 1908.14 170.141 3083.44 4991.42 603.026 383.75 1680.92 927.23 466.632 271.781 4836.29 194.85 753.686 79.6297 155.126 115.221 45.8035 330.734 107.098 39.9199 428.887 1737.99 205.562 164.921 26.2916 425.594 67.1785 53.8987 53.9123 44.292 225.978 138.63
internal_count=268644 207260 61384 38332 200826 184484 178836 6434 172576 22894 16675 15438 14898 23052 13603 7788 6260 16342 2347 21383 5648 3904 1835 20906 19028 1669 1954 1031 5815 6219 1777 992 10351 4771 4087 3219 5746 868 5580 204 473 664 115 1744 477 184 5991 923 843 1660 274 5984 293 393 1878 369 3104 1386
is_linear=0
shrinkage=0.1


Tree=14
num_leaves=63
num_cat=0
split_feature=130 81 128 31 109 71 54 57 68 32 2 28 72 32 70 32 5 89 30 76 117 69 110 60 22 31 72 94 76 114 76 109 5 72 88 133 125 112 78 62 20 52 125 54 41 76 76 0 54 68 109 115 103 86 35 32 68 16 56 1 31 99
split_gain=892.978 1045.17 712.982 723.532 526.68 512.004 850.538 507.662 551.815 453.918 407.899 357.731 317.56 330.794 287.095 257.834 328.761 309.089 268.73 261.335 246.101 245.281 233.385 227.28 223.357 222.521 313.076 210.109 182.93 712.043 256.251 172.154 341.514 227.223 159.086 146.582 144.325 285.146 411.278 140.521 163.97 135.568 135.108 120.891 110.929 100.659 98.4501 92.4203 77.6304 67.6429 52.1599 51.4095 51.1939 79.1136 66.8252 49.7434 37.2393 36.9593 27.1773 92.7541 14.0564 5.9953
threshold=1.0000000180025095e-35 -1.2867578864097593 1.0000000180025095e-35 1.0077458024024966 -1.1386232376098631 -0.20064418762922284 1.0564211606979372 0.91523045301437389 0.064696099609136595 0.96731778979301464 -0.19655825197696683 1.1167777776718142 -0.5969039499759673 0.95436474680900585 -0.17768069356679914 0.96110448241233837 0.56267571449279796 -1.2772313952445982 1.0273413062095644 -1.1723043918609617 -1.0484383702278135 -0.045117234811186784 -0.81328153610229481 0.7697483003139497 1.3652279973030093 1.0144788622856142 -0.59942808747291554 -1.0747693777084348 -1.15869665145874 -0.96308565139770497 -1.0156792998313902 -0.92564401030540455 0.54246917366981517 -0.58963221311569203 -1.0995712876319883 1.0000000180025095e-35 -1.7137420773506162 -0.96913340687751759 -1.224445044994354 0.61406815052032482 1.1995987296104433 1.1290886402130129 -1.458573520183563 1.0266275405883791 1.0626971125602724 -1.1514113545417783 -1.1288558840751646 0.22186126559972766 0.93441548943519603 0.062057103961706168 -1.1425977349281309 -1.0409381389617918 -0.78460267186164845 -1.2630007863044737 0.95557653903961193 0.97500693798065197 0.099963430315256133 0.96539020538330089 1.0114507675170901 0.31822283565998083 0.99912121891975414 -0.82754600048065174
decision_type=2 2 2 2 2 2 2 2 2 2 2 2 2 2 2 2 2 2 2 2 2 2 2 2 2 2 2 2 2 2 2 2 2 2 2 2 2 2 2 2 2 2 2 2 2 2 2 2 2 2 2 2 2 2 2 2 2 2 2 2 2 2
left_child=2 15 3 4 35 6 -6 12 31 23 -7 21 13 24 -11 17 20 22 41 -20 46 34 43 -10 -4 28 48 -15 29 -5 -30 33 -33 -9 51 50 58 38 -38 40 -18 -19 -39 -2 -28 -22 -17 -37 -27 -41 -1 -3 54 -54 -14 57 -36 -23 61 -60 -24 -13
right_child=1 11 7 25 5 10 -8 8 9 14 -12 36 52 27 -16 16 39 18 19 -21 45 55 60 -25 -26 26 44 -29 30 -31 -32 32 -34 -35 56 47 37 42 -40 49 -42 -43 -44 -45 -46 -47 -48 -49 -50 -51 -52 -53 53 -55 -56 -57 -58 -59 59 -61 -62 -63
leaf_value=-0.11746618049017976 0.11994436925196682 0.1971412511136913 -0.073153064300545342 0.13011662704506086 0.052041438639683385 -0.044316640951668262 0.01765208118011256 0.20728639850811301 -0.095092648705188521 0.085096101915802247 0.12748895515978148 -0.080435043515375185 -0.13692357105678846 0.096242606999922875 -0.074733876042222175 0.15434142965495282 -0.12809640930360663 0.14708812831019613 0.011142224797694771 -0.067211327331370876 -0.0050145385868129808 -0.09296575940033644 -0.13142421811588897 -0.0022973111026252822 0.014820795273230351 0.02783073149469445 0.13005849335657133 0.0083783401739744214 -0.016222119006832073 0.0042144126255466308 0.066652866990283041 -0.11872748082048881 0.089382060570371791 -0.013717433555247746 -0.091224489092653099 -0.14674661879954967 0.10089103013039656 -0.12184889653388778 -0.048555537871105947 0.18226154586190102 0.081781312747555318 -0.012556477170877829 -0.027061706693817262 0.023567822055458914 -0.13460363558965824 -0.11472077826988279 -0.12829839451331088 0.13750852836874816 -0.093956918002754561 0.098851343600318928 -0.035031980522755662 0.094617213157604158 -0.0022415875736023316 -0.14991820803073944 0.12605505598065675 0.31351715983686446 0.21898447646782976 0.23689955378904043 -0.090308180255748008 0.30883606734357605 0.011498078078470905 -0.12569026304246905
leaf_weight=229.07029563561082 494.0427356865257 96.997414864599705 803.64867876470089 623.60377244651318 77064.240210274234 154.86162145063281 7932.1952138599008 220.76324224472046 345.58883924782276 845.66418414562941 1283.6800127886236 32.102250773459673 234.31391902081668 342.47103927284479 129.60964159667492 111.89556103944778 39.136467412114143 187.25897475518286 2135.5432254038751 531.65017509274185 287.662816144526 108.00057245790958 51.426961297169328 1117.1992383301258 450.30619869753718 59.248120035976171 113.5273734331131 1325.5733062848449 1945.4144530817866 1606.1698295511305 461.62493564933538 85.817716535180807 971.78818457759917 58.942359693348408 41.245213855057955 14.7699708789587 246.03541321307421 508.47624938935041 732.06273596175015 215.11495319008827 762.02898392826319 74.296865943819284 213.52563329786062 176.70295063778758 18.403891824185848 117.91939638182521 13.849261227995155 50.702637564390898 448.82315829023719 177.41165035963058 115.43950088322163 98.653866292908788 104.80859027802944 55.479427665472031 10.078341230750082 3.2631269842386237 4.2705213055014601 3.5069432258605948 63.041318662464619 6.4144008159637442 7.9443527907133094 332.20359855145216
leaf_count=3079 668 73 4667 986 153036 1455 34535 290 1427 2013 1235 213 1073 654 982 199 153 466 7161 2763 1050 976 1076 5658 2058 174 190 3835 6171 5241 929 489 2020 259 317 86 561 3023 4212 183 1526 621 1530 520 110 606 108 22 2869 303 1031 165 428 255 17 8 24 1 681 5 20 2158
internal_value=0 0.00977131 0.0447588 0.0471125 0.049297 0.0498334 0.0488321 0.0142293 0.0393262 0.0110116 0.108994 -0.0438047 -0.0142527 -0.00275464 0.0638554 0.0345478 0.066419 0.0195217 0.0050098 -0.00447595 0.000984293 0.0490047 0.0777338 -0.0242205 -0.0415609 0.0111596 -0.0441141 0.026418 0.0187888 0.0394257 -0.000328254 0.0909468 0.0724953 0.160714 0.106271 -0.0637771 -0.0592858 -0.0461494 -0.010963 0.0955448 0.0715289 0.10174 -0.0938164 0.0945547 0.0931392 -0.0369106 0.123212 0.0733834 -0.0797548 0.144562 -0.0898439 0.145445 -0.0972743 -0.0533559 -0.126079 -0.0713294 -0.0621191 -0.0825914 -0.110773 -0.0534463 -0.1123 -0.121702
internal_weight=0 7873.68 99223.8 92121.8 86845 86435 84996.4 7102.05 3775.37 2438.06 1438.54 2489.8 3326.68 2922 975.274 5383.89 1725.02 3658.87 2928.75 2667.19 531.327 355.938 730.117 1462.79 1253.95 5276.82 640.003 1668.04 4636.81 2229.77 2407.04 1337.31 1057.61 279.706 241.167 409.982 2133.86 1700.1 978.098 1193.69 801.165 261.556 722.002 670.746 131.931 405.582 125.745 65.4726 508.071 392.527 344.51 195.651 404.68 160.288 244.392 114.771 45.5157 111.508 433.762 69.4557 59.3713 364.306
internal_count=268644 31370 237274 211149 194479 190261 187571 26125 13138 10080 2690 13947 12987 11214 2995 17423 4128 13295 11011 9924 1963 1564 2284 7085 6725 16670 3343 4489 13327 6227 7100 3058 2509 549 579 4218 12383 9326 4773 2165 1679 1087 4553 1188 300 1656 307 108 3043 486 4110 238 1773 683 1090 985 341 977 3057 686 1096 2371
is_linear=0
shrinkage=0.1


Tree=15
num_leaves=63
num_cat=0
split_feature=51 25 37 79 134 35 135 97 124 73 104 136 70 73 97 33 28 110 74 129 5 31 29 70 68 72 31 6 22 102 31 133 58 112 97 52 135 29 123 114 76 103 51 69 55 114 127 1 29 0 32 95 125 0 133 66 30 112 132 1 120 57
split_gain=821.13 937.429 742.81 639.604 1289.12 1335.76 849.223 696.983 646.369 604.985 602.972 619.459 666.607 599.158 855.689 661.098 594.846 577.665 516.073 553.648 510.9 467.851 431.318 403.656 394.049 521.656 492.759 485.856 340.096 444.212 330.178 359.529 260.742 242.431 241.124 239.171 343.164 253.294 202.324 216.787 506.334 195.324 344.148 193.064 192.268 185.905 172.108 212.777 158.908 146.816 140.232 138.654 137.887 137.776 103.293 99.2272 96.5747 55.4503 49.3042 48.8643 29.1684 24.7037
threshold=1.0716752409935 1.2645614147186282 0.9502488672733308 -1.2089800834655759 1.0000000180025095e-35 0.90738022327423107 1.0000000180025095e-35 -0.88808870315551747 -1.4924940466880796 -0.67965084314346302 -0.81061542034149159 1.0000000180025095e-35 -0.2396527677774429 -0.73916134238243092 -0.85477584600448597 0.8618936836719514 1.1662631630897524 -1.0038984417915342 -0.99342867732048024 1.0000000180025095e-35 0.64504307508468639 1.0075481534004214 1.2349804639816286 -0.22524716705083844 0.0088164140470325964 -0.58685094118118275 1.0004100203514101 0.60483640432357799 1.2764384746551516 -0.84464937448501576 1.0111945271492007 1.0000000180025095e-35 0.85089069604873668 -1.1268332600593565 -0.80327096581459034 1.003622889518738 1.0000000180025095e-35 1.1768065094947817 -1.5333905220031736 -1.1923804879188535 -0.89612039923667897 -0.80700069665908802 1.0828899145126345 -0.10048698261380194 0.93937310576438915 -1.2066569924354551 -2.3371269702911373 0.35347238183021551 1.1071708202362063 0.34199275076389318 0.95552638173103344 -0.86772015690803517 -1.7871865630149839 0.42556689679622656 1.0000000180025095e-35 0.2288768142461777 1.0473848581314089 -0.97825095057487477 1.0000000180025095e-35 0.42247529327869421 -1.3464633226394651 0.83390909433364879
decision_type=2 2 2 2 2 2 2 2 2 2 2 2 2 2 2 2 2 2 2 2 2 2 2 2 2 2 2 2 2 2 2 2 2 2 2 2 2 2 2 2 2 2 2 2 2 2 2 2 2 2 2 2 2 2 2 2 2 2 2 2 2 2
left_child=13 2 24 7 6 17 9 8 57 -5 30 12 -12 14 18 34 -10 -6 20 21 56 -20 -22 -13 28 27 -27 -26 29 -2 31 -4 -30 -8 59 37 52 45 39 40 -17 55 -43 -7 -21 -16 47 -36 -32 -38 51 -40 -37 -48 -41 -9 -1 -3 -39 61 -61 -15
right_child=1 3 10 4 5 43 33 41 16 -11 11 23 -14 15 35 38 -18 -19 19 44 22 -23 -24 -25 25 26 -28 -29 32 -31 48 -33 -34 -35 46 36 49 58 50 54 -42 42 -44 -45 -46 -47 53 -49 -50 -51 -52 -53 -54 -55 -56 -57 -58 -59 -60 60 -62 -63
leaf_value=0.075995423484984059 -0.089074178093670214 0.10004763122096072 -0.021381507851652718 -0.037253758619865233 -0.13242008913697326 -0.11016212554067291 0.0052352912275949997 -0.063681400517689155 0.043714367961267826 0.032619455625535691 0.074418745995304736 0.0036118662933596539 0.014823657358408713 -0.18283035228668654 -0.1542857596789875 -0.092096785182989249 -0.01570129605970538 0.1376102439186852 0.059351910735469499 -0.1222716790925059 0.037422323574466482 0.011526105611543325 -0.075347242231135939 0.1467089831653938 -0.0045810343867256119 0.056728941168628304 0.13711037354614106 0.050568663148977247 0.10485423893028659 0.087089371196759052 0.17661673505455222 0.082237530743069304 0.22485702929951695 0.09179743104115444 -0.070111527928396297 -0.061210441667673879 -0.14962831363068874 -0.13470045612275366 0.063741363523281747 0.075024948128829747 0.086366454111747232 0.1229452154029548 -0.070171047333933118 0.20743659092025313 0.0017832944625407925 0.054587587972569289 -0.13784862792569802 0.068501734790232569 -0.008185238072493833 0.069827254387886242 -0.18668647035618019 -0.11236365518493777 -0.15321817244978803 0.011932132253614678 0.13167654817113877 -0.12735525635891387 -0.067814558016003654 0.25896618291219337 0.050640920428168312 0.12845204459050147 0.061742250297260964 0.081128675058790137
leaf_weight=50.774207647889853 167.93739100918174 27.903343707323074 4009.8001148533076 3300.4285201262683 82.690063327550888 311.22111411765218 432.69441724568605 483.46294693462551 2352.0051945336163 1984.0683840066195 2449.5081580989063 265.29947853088379 8029.611557116732 10.47982596978545 45.868425406515598 167.22110812366009 5941.8235424049199 1889.4795163795352 25515.782965933904 211.32928545214236 17357.677959391847 2223.6785695869476 345.92613516375422 767.15929625928402 2773.1538061089814 7516.1722547356039 848.76909945905209 3767.805366165936 526.96305913105607 969.36203940212727 140.80638384073973 365.3648988083005 275.83939719945192 1282.5824182331562 194.95690729469061 404.46896573156118 35.51985590159893 116.47708332911134 267.56251187622547 408.90595787763596 3225.4675564467907 127.26188015937805 335.70757961273193 20.394338086247444 305.59623195976019 600.08403784036636 194.980339827016 256.37016677856445 69.494679905474186 215.04175581037998 31.52958519756794 53.677609816193581 272.70183142647147 89.650253370404243 1511.6541025415063 495.65697074308991 581.46644948422909 103.01308758556843 16.370099902153015 105.60499994456768 172.78155254013836 5.3585287109017363
leaf_count=123 864 56 14825 15417 369 1434 1278 2117 6720 5120 5723 817 35043 46 167 483 21143 3419 40128 950 38911 6400 1964 1343 8908 18998 1030 7889 923 1690 191 1027 255 2030 624 1434 135 497 368 494 3458 220 1453 30 959 856 1811 349 247 304 136 159 1131 160 1120 2267 2237 47 29 71 236 11
internal_value=0 0.0289505 0.0391817 0.0113688 0.0301795 0.0950643 0.00882442 -0.00636802 0.00462811 -0.0110198 0.0238203 0.0360355 0.0287541 0.0464684 0.0425819 0.0745009 0.00114809 0.126288 0.0451293 0.0536072 0.0320643 0.0555181 0.0352188 0.109939 0.0538602 0.0483425 0.064885 0.027187 0.0962532 0.0610765 -0.00684531 -0.0127284 0.146087 0.0699613 0.000812304 -0.0269669 -0.0612672 0.0138929 0.0878988 0.092768 0.0775702 -0.0706079 -0.0170869 -0.0906298 -0.0489328 0.0397557 -0.0297775 0.00862584 0.115548 0.038717 0.0145626 0.0343151 -0.0982627 -0.0906721 0.119615 -0.0959148 -0.0562654 0.225095 -0.111862 0.0773279 0.0870484 -0.0935261
internal_weight=0 52113.4 32943 19170.4 9303.56 2303.79 6999.77 9866.83 8424.75 5284.5 16097 11511.6 10479.1 54995 48298.8 6696.2 8293.83 1972.17 46592.2 28256.4 18335.8 27739.5 17703.6 1032.46 16846 14905.9 8364.94 6540.96 1940.1 1137.3 4585.47 4375.17 802.802 1715.28 1030.18 1706.53 927.732 778.8 5666.02 5313.25 3392.69 1442.09 462.969 331.615 516.926 645.952 735.958 451.327 210.301 250.562 352.77 321.24 677.171 284.631 1920.56 979.12 632.241 130.916 132.847 294.225 278.387 15.8384
internal_count=268644 162893 99773 63120 29097 5252 23845 34023 27966 20537 59216 42926 40766 105751 96225 9526 27863 3788 91672 48437 43235 46528 40875 2160 40557 36825 20028 16797 3732 2554 16290 15852 1178 3308 3308 4553 3004 1549 6218 5555 3941 6057 1673 1464 1909 1023 2944 973 438 439 663 527 2565 1971 1614 4384 2360 103 526 364 307 57
is_linear=0
shrinkage=0.1


Tree=16
num_leaves=62
num_cat=0
split_feature=53 27 122 50 30 52 101 72 133 31 29 100 54 29 69 12 5 30 110 70 52 103 97 31 26 101 135 122 86 13 34 82 52 97 50 105 30 117 30 30 136 77 36 135 5 123 30 86 75 32 29 71 74 7 102 55 31 111 101 53 72
split_gain=699.637 726.443 653.45 747.996 611.812 504.029 723.704 697.281 618.307 489.581 458.666 428.211 396.321 379.077 373.099 361.875 360.021 344.024 332.745 312.83 390.946 344.117 311.634 303.481 289.097 264.922 231.102 221.072 212.349 190.058 187.566 168.62 163.796 152.358 149.086 145.018 131.663 117.818 108.88 106.476 90.3158 90.2571 87.631 73.1296 71.0287 89.9182 125.46 69.2597 58.2824 57.6864 36.006 27.5482 24.3814 20.0744 3.44384 2.35954 2.07831 1.26053 1.07472 0.748497 0.647786
threshold=0.98940694332122814 1.3056010603904726 -1.9941121339797971 1.1857864856719973 1.0887776017189028 1.0833676457405093 -0.82967916131019581 -0.56767296791076649 1.0000000180025095e-35 0.94549161195755016 1.0554236769676211 -0.82595202326774586 0.91783681511878978 1.2007262706756594 0.086555674672126784 1.2672508358955386 0.75448384881019603 1.0449292063713076 -1.1878072619438169 -0.33404639363288874 0.97669044137001049 -0.90756955742835987 -0.87554872035980214 0.98669898509979259 1.5477558374404909 -0.94552308320999134 1.0000000180025095e-35 -1.0644618868827818 -1.2654169201850889 0.98874434828758251 0.83281433582305919 -0.1777083873748779 0.95255273580551159 -0.96090134978294361 1.165429472923279 -0.90061688423156727 1.0993559360504153 -1.0101999044418333 1.0724802613258364 1.0633664727211001 1.0000000180025095e-35 -1.300877511501312 0.85118979215621959 1.0000000180025095e-35 0.5494736135005952 -1.2144805192947385 1.0848278403282168 -0.95629537105560292 -1.1015692353248594 0.88086286187171947 1.1917597055435183 -0.53826335072517384 -1.0184875130653379 0.97360625863075267 -0.92989435791969288 0.9266796112060548 1.0042407512664797 -0.89254188537597645 -0.90941503643989552 1.0206866264343264 -0.66069275140762318
decision_type=2 2 2 2 2 2 2 2 2 2 2 2 2 2 2 2 2 2 2 2 2 2 2 2 2 2 2 2 2 2 2 2 2 2 2 2 2 2 2 2 2 2 2 2 2 2 2 2 2 2 2 2 2 2 2 2 2 2 2 2 2
left_child=4 2 3 18 9 7 10 11 -8 15 -7 -4 13 28 43 22 27 -9 34 20 23 -22 25 -11 -18 -1 44 -15 56 37 -20 -16 -30 57 -2 36 40 39 42 -28 -14 -37 -21 -5 55 46 -46 -40 -43 -24 58 -39 -47 -35 -38 60 -6 -17 -31 -57 -3
right_child=1 26 5 14 12 6 8 17 -10 19 -12 -13 35 16 31 33 24 -19 30 38 21 -23 49 -25 -26 -27 29 -29 32 50 -32 -33 -34 53 -36 41 54 51 47 -41 -42 48 -44 -45 45 52 -48 -49 -50 -51 -52 -53 -54 -55 -56 59 -58 -59 -60 -61 -62
leaf_value=-0.02356148979038912 0.053320571737978155 -0.13874857675990127 0.034909489646172083 -0.090144602516166489 -0.20925592107057522 0.088888010117315064 0.028234863673943497 0.05593388616598971 -0.033952513502527724 0.059522831640493171 -0.038840947726479183 0.0033862323753560855 -0.0038866307820867095 0.00052657963543067542 0.13662260121699216 -0.17181728026017928 0.05636918137349254 0.11863373018916515 -0.11286792360962604 -0.0089762588755113431 -0.025715230505256717 0.046829958285797037 -0.14687968279829286 0.099385188385406012 -0.058734833126352408 0.037503092637737052 -0.1397449691627812 -0.079327452369822693 0.090226274956209163 -0.16405247570995629 0.12027444775784005 -0.10970787191475694 0.035019230848717088 0.066391463460703695 -0.12818244813525467 0.2705854850102411 -0.097188745452421538 -0.18205997302368129 -0.20559717387804019 0.044810170923816471 0.16661247612730212 -0.042905455867971329 0.10579986656982809 0.17652532318783951 -0.0015406259519065556 -0.064329536898314554 -0.12021234297563899 0.11001517414315065 -0.13090466494947853 0.0077876202808314894 0.091641397428020341 0.073305060937572511 -0.12925523977933015 0.14530966744979903 -0.13571739122631435 -0.13456633412029295 -0.15374605687323847 -0.10417586028840438 -0.19695828038226582 -0.11846311414034216 -0.16379312069388507
leaf_weight=1041.2347928546369 106.39410798810422 17.42541198246181 34066.427829235792 363.43215825967491 22.297627292573456 311.1099784001708 22646.870260681957 3320.0060458146036 1720.2687238678336 7336.0598958581686 2918.0932711660862 4933.2156435623765 705.79009915888309 1189.8761917538941 150.51806763932109 3.119974538683894 1629.7170873582363 1188.3146848604083 35.120229169726372 69.043406695127487 710.26413799077272 8234.6661732494831 141.52617549337447 2582.1025959029794 251.93581534177065 2236.4303338062018 33.227813400328159 489.23643661662936 1284.4428368806839 13.079701129347084 1977.6431346423924 34.081018852069974 924.04907564818859 36.276219688355923 78.753786232322454 6.8161234259605399 38.522991266101599 32.701448120176792 19.050986289978031 528.0940712839365 32.499047681689262 122.02829368785024 1820.3401795700192 10.583048880100248 336.41676906868815 88.133705334737897 121.1743538659066 10.949068441987036 196.38765887729824 29.067075029015541 4.991565190255641 4.8511300683021537 168.27110819146037 289.12721077911556 58.322266783565283 54.952246822416782 9.6698360443115217 23.553552905097604 41.157565772533417 60.801432516425848 25.355555772781372
leaf_count=4065 360 96 79790 5182 96 1716 74902 5332 8027 9715 13483 13330 1938 2977 222 14 2879 1353 181 129 1691 12693 1656 2303 1254 5489 129 1590 1316 59 1186 450 1666 59 940 4 263 143 81 903 29 516 1349 4 1172 731 700 8 944 54 9 7 1017 183 361 294 46 747 169 528 114
internal_value=0 0.0289598 0.0303729 0.0781441 0.0466966 0.0285209 0.0179493 0.0352262 0.0238446 0.0541078 -0.0265352 0.030922 0.0205262 0.0311973 -0.0251838 0.0211062 0.0109204 0.0724605 0.104406 0.0601425 0.0562289 0.0410696 0.011246 0.0699006 0.0409578 0.0181044 -0.0392287 -0.0227402 0.0634233 0.00551267 0.116206 0.0911446 0.0671272 0.117678 -0.0238828 -0.0328234 -0.010762 0.022413 0.0986044 0.0338853 0.00361864 -0.0894727 0.101606 -0.082599 -0.0729748 -0.0595304 -0.032966 -0.0904087 -0.0971802 -0.120526 -0.16537 -0.149071 -0.106938 0.136512 -0.120392 -0.133525 -0.192465 -0.112088 -0.189023 -0.126108 -0.153592
internal_weight=0 75391.5 73860.8 2756.53 31544.4 71104.3 27596.3 43508 24367.1 24582.8 3229.2 38999.6 6961.59 5801.22 558.614 3800.34 3560.77 4508.32 2197.91 20782.5 18863.1 8944.93 3448.26 9918.16 1881.65 3277.67 1530.63 1679.11 2240.46 658.103 2012.76 184.599 2208.49 352.077 185.148 1160.37 835.134 598.874 1919.38 561.322 738.289 325.232 1889.38 374.015 872.531 713.996 457.591 30.0001 318.416 170.593 59.2288 37.5526 256.405 325.403 96.8453 158.535 31.9675 26.6735 54.2373 115.754 42.781
internal_count=268644 212529 206458 8525 56115 197933 98128 99805 82929 40236 15199 93120 15879 11824 5858 12267 8700 6685 2667 27969 26402 14384 11264 12018 4133 9554 6071 4567 3124 1419 1367 672 2982 1003 1300 4055 2591 1182 1567 1032 1967 1464 1478 5186 4652 3620 1872 89 1460 1710 237 150 1748 242 624 1032 142 761 228 822 210
is_linear=0
shrinkage=0.1


Tree=17
num_leaves=63
num_cat=0
split_feature=130 80 83 113 111 71 79 110 69 30 83 53 74 26 96 123 136 35 131 76 29 116 123 110 79 39 134 113 27 74 18 70 117 73 53 128 96 58 32 78 70 29 33 31 69 31 78 111 29 118 33 82 110 116 38 108 107 80 30 30 53 76
split_gain=628.812 816.215 536.444 1228.41 958.566 869.815 619.914 934.605 574.836 556.42 548.353 451.601 375.866 322.036 430.128 437.826 312.996 289.752 272.907 271.488 479.189 350.606 307.381 283.229 226.576 212.822 198.465 181.111 168.594 213.187 176.04 164.246 162.777 148.833 133.139 119.074 116.421 135.968 105.666 100.533 99.3065 99.2477 69.652 112.54 63.0177 61.7987 53.8907 203.755 104.592 80.382 52.7604 50.1593 140.345 27.8871 21.6578 15.7954 50.056 32.2017 4.24902 70.141 0.781313 0.0599866
threshold=1.0000000180025095e-35 -1.2381845116615293 -1.1397208571434019 -1.0192031264305113 -1.002118647098541 -0.50660809874534596 -1.1229496598243711 -0.99907246232032765 -0.012867601122707127 1.0967918038368227 -1.1778902411460874 0.97664391994476329 -0.88089847564697255 1.2064357995986941 -0.8762819468975066 -1.4575088024139402 1.0000000180025095e-35 0.94022881984710704 1.0000000180025095e-35 -1.1798394322395322 1.0760700106620791 -0.9660668373107909 -1.2539978623390196 -0.9446900188922881 -1.3335846066474912 1.0053701996803286 1.0000000180025095e-35 -1.048549950122833 1.4916734695434573 -0.95225942134857167 1.2676762342453005 -0.19658089429140088 -1.0101999044418333 -0.94535005092620839 1.1084805130958559 1.0000000180025095e-35 -0.9296077787876128 0.86964243650436412 0.96675416827201854 -1.2767432928085325 -0.23844363540410993 1.0508890151977541 0.95727339386940014 0.99438637495040905 -0.13183380663394925 0.99834072589874279 -1.1433201432228086 -0.99489462375640858 1.1387572884559634 -1.1435884237289426 0.94520097970962536 -1.2191495299339292 -0.95343267917633046 -1.1025561690330503 1.0170634388923647 -0.96168479323387135 -0.93621414899826039 -1.1027724742889402 1.0667460560798647 1.0670349001884463 1.1097073554992678 -0.41371107101440424
decision_type=2 2 2 2 2 2 2 2 2 2 2 2 2 2 2 2 2 2 2 2 2 2 2 2 2 2 2 2 2 2 2 2 2 2 2 2 2 2 2 2 2 2 2 2 2 2 2 2 2 2 2 2 2 2 2 2 2 2 2 2 2 2
left_child=2 19 3 13 6 28 26 11 9 10 -5 -8 -9 16 15 -15 18 -18 -1 21 31 36 50 45 -24 44 38 -28 30 -30 -6 34 -25 -11 -21 -16 39 -38 -4 -2 -27 -33 54 -44 -7 -22 47 48 49 -3 -23 52 -49 -53 -10 56 61 -58 60 -60 -57 -48
right_child=1 46 4 8 5 25 7 12 42 33 -12 -13 -14 14 35 -17 17 -19 -20 20 23 22 24 32 -26 40 27 -29 29 -31 -32 41 -34 -35 -36 -37 37 -39 -40 -41 -42 -43 43 -45 -46 -47 55 51 -50 -51 -52 53 -54 -55 -56 58 57 -59 59 -61 -62 -63
