tree
version=v4
num_class=1
num_tree_per_iteration=1
label_index=0
max_feature_idx=136
objective=binary sigmoid:1
feature_names=Column_0 Column_1 Column_2 Column_3 Column_4 Column_5 Column_6 Column_7 Column_8 Column_9 Column_10 Column_11 Column_12 Column_13 Column_14 Column_15 Column_16 Column_17 Column_18 Column_19 Column_20 Column_21 Column_22 Column_23 Column_24 Column_25 Column_26 Column_27 Column_28 Column_29 Column_30 Column_31 Column_32 Column_33 Column_34 Column_35 Column_36 Column_37 Column_38 Column_39 Column_40 Column_41 Column_42 Column_43 Column_44 Column_45 Column_46 Column_47 Column_48 Column_49 Column_50 Column_51 Column_52 Column_53 Column_54 Column_55 Column_56 Column_57 Column_58 Column_59 Column_60 Column_61 Column_62 Column_63 Column_64 Column_65 Column_66 Column_67 Column_68 Column_69 Column_70 Column_71 Column_72 Column_73 Column_74 Column_75 Column_76 Column_77 Column_78 Column_79 Column_80 Column_81 Column_82 Column_83 Column_84 Column_85 Column_86 Column_87 Column_88 Column_89 Column_90 Column_91 Column_92 Column_93 Column_94 Column_95 Column_96 Column_97 Column_98 Column_99 Column_100 Column_101 Column_102 Column_103 Column_104 Column_105 Column_106 Column_107 Column_108 Column_109 Column_110 Column_111 Column_112 Column_113 Column_114 Column_115 Column_116 Column_117 Column_118 Column_119 Column_120 Column_121 Column_122 Column_123 Column_124 Column_125 Column_126 Column_127 Column_128 Column_129 Column_130 Column_131 Column_132 Column_133 Column_134 Column_135 Column_136
feature_infos=[-1.7844352722167969:2.1873281002044678] [-1.6962581872940063:2.0962586402893066] [-1.6161398887634277:2.0136351585388184] [-1.5440802574157715:1.9394575357437134] [-1.4800789356231689:1.8737261295318604] [-1.4241359233856201:1.8164401054382324] [-1.3852788209915161:1.7937201261520386] [-1.3575865030288696:1.9274762868881226] [-1.3260828256607056:2.0758624076843262] [-1.2853907346725464:2.0974209308624268] [-1.2320997714996338:2.0165181159973145] [-1.1626077890396118:2.064321756362915] [-1.0779223442077637:2.1106562614440918] [-0.97803342342376709:2.1760303974151611] [-0.86829191446304321:2.2825961112976074] [-0.75375783443450928:2.3805651664733887] [-0.63882678747177124:2.4481546878814697] [-0.65620064735412598:2.4658794403076172] [-0.66012513637542725:2.4605560302734375] [-0.66667592525482178:2.4363620281219482] [-0.8555336594581604:2.3612079620361328] [-0.86833834648132324:2.2960772514343262] [-0.86565589904785156:2.1994528770446777] [-0.6943366527557373:2.1797337532043457] [-0.6794590950012207:2.1696581840515137] [-0.92955285310745239:2.0883691310882568] [-1.274228572845459:1.9448176622390747] [-1.700652003288269:1.7312250137329102] [-1.9454965591430664:1.5516149997711182] [-2.2033448219299316:1.3473584651947021] [-2.6534385681152344:1.1458766460418701] [-2.9375624656677246:1.0691677331924438] [-2.8964071273803711:1.0156075954437256] [-2.6209216117858887:0.99408984184265137] [-1.9672813415527344:0.99887841939926147] [-1.2877312898635864:1.0987448692321777] [-0.66342759132385254:1.3781088590621948] [-0.67049169540405273:1.4357191324234009] [-0.67192721366882324:1.5244829654693604] [-0.67710685729980469:1.427788257598877] [-0.67391806840896606:1.3506048917770386] [-0.77278417348861694:1.3033223152160645] [-0.78214722871780396:1.4334096908569336] [-0.67822211980819702:1.6771683692932129] [-0.67549598217010498:1.8418123722076416] [-0.67939788103103638:1.9795904159545898] [-0.67687302827835083:1.8671952486038208] [-0.67970603704452515:1.8940913677215576] [-0.67738151550292969:2.0411467552185059] [-0.68022686243057251:2.1347439289093018] [-0.67672491073608398:2.3221406936645508] [-0.68208664655685425:2.3866791725158691] [-0.68785721063613892:2.3278176784515381] [-0.6967010498046875:2.41339111328125] [-0.68777680397033691:2.0181429386138916] [-0.66555494070053101:1.663224458694458] [-0.63047897815704346:1.3776267766952515] [-0.79989981651306152:1.3641012907028198] [-0.9627259373664856:1.3483799695968628] [-0.83332031965255737:1.3266682624816895] [-0.62303602695465088:1.2987289428710938] [-0.62908732891082764:1.6912268400192261] [-0.65896600484848022:1.8743280172348022] [-0.67422842979431152:1.7138135433197021] [-0.89532732963562012:1.3433690071105957] [-1.1747497320175171:1.0751444101333618] [-1.3727543354034424:0.99085426330566406] [-1.6710461378097534:0.88367986679077148] [-1.7223098278045654:0.75060045719146729] [-1.8893227577209473:0.59843027591705322] [-1.6767393350601196:0.44751104712486267] [-1.7446892261505127:0.31280896067619324] [-1.674402117729187:0.20973041653633118] [-1.5674382448196411:0.13722024857997894] [-1.4517455101013184:0.2961885929107666] [-1.6804615259170532:0.9557119607925415] [-1.8599822521209717:1.4404212236404419] [-1.985605001449585:1.2026444673538208] [-2.0616223812103271:1.1285310983657837] [-2.1171634197235107:0.92254304885864258] [-2.168381929397583:0.73609095811843872] [-2.1978850364685059:0.27998179197311401] [-2.2107267379760742:0.32789856195449829] [-2.208972692489624:0.37759476900100708] [-2.1915850639343262:0.5232703685760498] [-2.1574652194976807:0.46151745319366455] [-2.1063995361328125:0.49370381236076355] [-2.0390708446502686:0.51996833086013794] [-1.9571486711502075:0.54197138547897339] [-1.8639241456985474:0.55988889932632446] [-1.7629733085632324:0.65060514211654663] [-1.7565661668777466:1.0689502954483032] [-1.6520191431045532:1.4172115325927734] [-1.5958865880966187:1.6287872791290283] [-1.5394163131713867:1.6652539968490601] [-1.4922878742218018:1.6182962656021118] [-1.4531639814376831:1.5608183145523071] [-1.4315723180770874:1.5597559213638306] [-1.414076566696167:1.5645072460174561] [-1.5819015502929688:1.5648646354675293] [-2.0638625621795654:1.5687597990036011] [-2.4619696140289307:1.5653641223907471] [-2.648137092590332:1.569068431854248] [-2.5047333240509033:1.5659784078598022] [-2.1062953472137451:1.5674868822097778] [-1.4165751934051514:1.5623446702957153] [-1.1194825172424316:1.563502311706543] [-1.1123948097229004:1.561995267868042] [-1.1531680822372437:1.5723429918289185] [-1.2142764329910278:1.5757462978363037] [-1.369315505027771:1.5827798843383789] [-1.5990560054779053:1.5861003398895264] [-2.1418814659118652:1.5904537439346313] [-2.4733853340148926:1.5896482467651367] [-2.5047738552093506:1.5896980762481689] [-2.0072333812713623:1.5865405797958374] [-1.5763039588928223:1.5868538618087769] [-1.6245735883712769:1.611059308052063] [-1.6777870655059814:2.2872264385223389] [-1.735770583152771:2.4594569206237793] [-1.8081856966018677:2.1617026329040527] [-1.9255495071411133:1.6493175029754639] [-2.1472852230072021:1.6308574676513672] [-2.3756425380706787:1.6220458745956421] [-2.6391217708587646:1.8138364553451538] [-2.9497678279876709:2.1341862678527832] [-3.3559722900390625:2.4851961135864258] [-3.8531808853149414:3.3610599040985107] [0:1] [0:1] [0:1] [0:1] [0:1] [0:1] [0:1] [0:1] [0:1]
tree_sizes=6508 5343 5071 6887 6438 6876 6318 5724 6427 6474 6659 6326 6576 6469 6564 6265 6459 6929 6779 6599 6695 6642 6617 6855 6125 6466 6931 6868 6399 6787 6927 6362 6929 6933 6906 6425 6720 6365 6055 6831 4984 6826 5680 6955 6037 6939 6387 6465 6955 5068 6956 6402 6473 6790 6144 5067 6321 6969 6614 4432 6928 6208 6993 5457 6249 6969 6527 6586 5699 6212 6921 6941 6555 5668 6242 6732 6242 5763 6385 5680 6251 4969 6827 6632 6257 6941 6312 5808 6443 6501 6569 6247 6366 6739 5468 6726 6643 6657 6902 6736 6924 5940 6437 6517 6946 6235 6878 5637 6662 5576 5272 6547 6709 6941 6283 6436 5803 6923 5913 6175 6530 5906 6963 6464 6526 6137 4301 6299 6452 6463 6100 6701 4542 5824 6826 6533 6550 6117 6016 6661 5803 6497 5999 6804 5087 6912 6702 5838 6936 5692 6944 5916 6568 4864 5776 6787 6920 5671 6430 6726 5851 6703 5998 5692 6495 6949 6139 6270 5341 6232 6171 5757 6738 3742 6555 6604 5896 6588 6861 6884 5671 6011 6929 6689 6811 4767 6956 5929 6913 6026 6621 6930 6739 6941 6487 6026 6831 5482 5751 6943

Tree=0
num_leaves=60
num_cat=0
split_feature=132 70 71 105 30 129 32 52 100 69 37 61 103 54 122 77 110 111 22 104 110 105 70 105 77 106 102 69 117 62 29 34 90 105 70 71 68 11 92 36 103 104 42 69 72 102 72 108 50 48 97 35 3 106 0 14 0 6 42
split_gain=217540 101230 45879.7 36653.5 25571.6 23612.1 23598.6 18132.8 17713.5 20776.9 16976.1 15059.5 14121.7 12664.8 10727.4 10569.9 19206.7 10553.1 10091.3 7850.01 7793.84 7270.92 6628.33 5274.08 5106.98 5203.31 5086.46 6150.38 4159.02 6834.06 4119.23 4020.73 3827.07 3737.42 2715.99 2497.08 2312.23 2218.45 2075.43 1685.1 1345.33 1282.73 674.24 325.97 449.931 301.218 738.869 421.34 288.594 205.896 444.633 59.007 2.84217e-14 1.42109e-14 7.10543e-15 7.10543e-15 1.77636e-15 8.88178e-16 8.88178e-16
threshold=1.0000000180025095e-35 -0.10216891020536421 -0.44135943055152888 -0.90778955817222584 1.0636554956436159 1.0000000180025095e-35 0.96728426218032848 0.92367422580719005 -0.84033495187759388 -0.044898722320795052 0.94737443327903759 0.66620123386383068 -0.81105926632881153 0.90881827473640453 -1.0497522950172422 -0.85761356353759755 -1.1934700012207029 -0.96157065033912648 1.1821296811103823 -0.92461878061294545 -1.2178700566291807 -0.91065850853919972 -0.25578479468822474 -0.87017050385475148 -1.1046550869941709 -0.98677521944046009 -0.80831941962242115 0.0030945383477956061 -1.5649039149284361 0.75822505354881298 1.2300579547882082 0.91217276453971874 -1.1373443603515623 -0.90130585432052601 -0.23847927153110501 -0.36851474642753596 0.19770251959562304 0.72108888626098644 -1.2224233150482176 0.9755847454071046 -0.8127431571483611 -0.72854372859001149 1.0741158723831179 0.034736344590783126 -0.32032153010368342 -0.88798359036445607 -0.6823710799217223 -0.8947261869907378 0.99653643369674694 1.2343658208847048 -0.3536571860313415 0.87949964404106151 0.065772168338298811 -0.86519494652748097 0.65942794084548961 0.99873292446136486 0.57059776782989513 0.18005412071943286 1.1532579660415652
decision_type=2 2 2 2 2 2 2 2 2 2 2 2 2 2 2 2 2 2 2 2 2 2 2 2 2 2 2 2 2 2 2 2 2 2 2 2 2 2 2 2 2 2 2 2 2 2 2 2 2 2 2 2 2 2 2 2 2 2 2
left_child=2 4 3 13 10 7 8 33 18 11 15 -10 -9 24 31 21 -17 -11 55 37 41 -2 -20 -22 30 -26 34 35 29 49 -1 -7 -21 -5 40 -28 -31 -15 -16 -29 -8 -12 -36 44 51 47 48 54 -47 53 -51 -30 -45 -3 -6 -4 -48 -54 -38
right_child=1 28 6 5 45 14 26 12 9 17 20 -13 -14 19 38 16 -18 -19 22 32 23 -23 -24 -25 25 -27 27 39 43 36 -32 -33 -34 -35 42 -37 58 -39 -40 -41 -42 -43 -44 52 -46 46 56 -49 -50 50 -52 -53 57 -55 -56 -57 -58 -59 -60
leaf_value=-1.9269748032079976 -1.5362992696473785 -3.3567338253822494 -3.3567338253822494 -2.6319000135875186 -3.3567338253822494 -1.9482683119054354 -2.2027601264769574 -2.3566176828656165 -1.7192780482952896 -2.1069286430308889 -3.3567338253822494 -2.2238496817426801 -2.9281805216692902 -2.7495747212654424 -3.3567338253822494 -1.0182237604495521 -1.966481733379178 -1.4196562612410031 -1.767166237246695 -1.1730573357935126 -0.69298372406553321 -0.87814101563584979 -1.1919611887543704 -1.0386884338410081 -1.6701469452493549 -2.9100931783729918 -3.0229723367720789 -1.2696214699912034 -1.2867253871927236 -0.65593161512602416 -2.7025433569688331 -2.9169820262483173 -1.969724846375998 -3.2704544777304085 -1.9837589147211447 -2.5082457460331469 -3.3567338253822494 -1.4150164428666447 -0.99875771618182707 -2.3662693117850297 -3.3567338253822494 -0.56642738161596329 -1.263772173115407 -3.3567338253822494 -3.3567338253822494 -3.3567338253822494 -3.3567338253822494 -1.6730615401264233 -1.433804139532451 -3.3567338253822494 -0.76670489807512032 -2.1511825721772855 -3.3567338253822494 -3.356733825382249 -3.3567338253822494 -3.3567338253822494 -3.3567338253822494 -3.3567338253822494 -3.3567338253822494
leaf_weight=322.00274672359228 238.69132248312235 30.820987969636917 3.6913508847355869 132.02789521962404 28.133111111819744 479.28816968947649 82.929344616830349 5288.6557034477592 835.58091502636671 293.86539197713137 14.801241897046568 2025.0723378360271 470.75200130045414 12.779714830219744 3.8347043171524993 363.88074418902397 517.19421487301588 931.98909616470337 302.64699433743954 63.959915488958359 848.63389371335506 565.58322606235743 592.61386279016733 919.40676601231098 41.405445925891399 185.30799371749163 232.48099232465029 34.698813289403915 1.2494828626513483 20.110780879855159 86.980297431349754 47.052725180983543 1053.5898910090327 299.77510719001293 18.838218010962009 158.51122350990772 2.5803617835044852 491.52178070694208 140.40190125256777 23.502064235508442 11.504112951457499 1.8538752794265736 42.016518674790859 205.85552895069122 4.5156331211328498 0.96763566881418217 6.6659346073865873 1.5361897274851788 4.0351554527878761 1.9711096957325938 0.9986143559217443 2.1454418152570724 1.9352713376283639 0.75260552018881099 17.668310545384884 23.079902619123459 1.2901808917522428 1.9352713376283643 1.1826658174395563
leaf_count=4559 2483 860 103 2764 785 6884 1394 96722 10162 4669 413 34451 11196 282 107 1973 7519 8650 3820 442 1948 2305 4203 5166 484 4375 5741 272 10 39 1880 1114 15350 8116 277 3130 72 4540 735 432 321 2 327 5744 126 27 186 18 38 55 3 35 54 21 493 644 36 54 33
internal_value=-3.25287 -1.28766 -2.1357 -2.27415 -1.14345 -2.38914 -1.91077 -2.45019 -1.83953 -1.92886 -1.10798 -2.07647 -2.40334 -1.92463 -1.82549 -1.33559 -1.57485 -1.58441 -1.44362 -1.77634 -0.893038 -1.07347 -1.38641 -0.872755 -2.30295 -2.68364 -2.50098 -2.67154 -3.13187 -2.38268 -2.09192 -2.03487 -1.92413 -3.07521 -2.00762 -2.8143 -1.08164 -1.44884 -1.06145 -1.71246 -2.34334 -3.04615 -1.48665 -3.33297 -2.70281 -3.18515 -2.75797 -3.3021 -1.80574 -3.28186 -2.4858 -1.83302 -3.35673 -3.35673 -3.35673 -3.35673 -3.35673 -3.35673 -3.35673
internal_weight=0 3806.4 14732.4 9119.34 3530.34 6861.79 5613.02 6191.21 5008.54 4086.51 3470.05 2860.65 5759.41 2257.55 670.578 1685.35 881.075 1225.85 922.032 1621.85 1784.7 804.275 895.261 1768.04 635.696 226.713 604.481 449.193 276.054 58.4171 408.983 526.341 1117.55 431.803 155.288 390.992 23.8738 504.301 144.237 58.2009 94.4335 16.6551 60.8547 217.637 7.91056 60.2965 12.9589 47.3376 5.00279 34.5433 2.96972 3.39492 209.726 31.5736 45.8014 26.7713 7.95612 3.87054 3.76303
internal_count=268644 30498 238146 159550 23392 127638 78596 118798 66702 57932 21809 44613 107918 31912 8840 14280 9492 13319 8770 20614 7529 4788 8023 7114 11298 4859 11894 9575 7106 1083 6439 7998 15792 10880 2319 8871 144 4822 842 704 1715 415 604 6023 171 1583 287 1296 65 939 58 45 5852 881 1278 747 222 108 105
is_linear=0
shrinkage=1


Tree=1
num_leaves=49
num_cat=0
split_feature=52 131 78 92 31 129 123 55 103 105 72 78 135 56 32 99 101 37 93 58 56 75 98 25 105 110 87 64 30 1 103 90 110 81 20 108 46 73 132 132 105 105 70 30 132 29 105 116
split_gain=3832.36 3471 5677.54 4800.12 3386.01 3016.83 2744.45 2451.21 3988.96 2418.08 2295.79 2265.68 2241.89 1885.22 1703.9 1399.04 1380.39 1373.15 1163.42 777.45 762.825 748.47 1109.09 510.158 464.326 384.502 314.296 305.409 273.612 249.106 189.854 178.767 159.022 298.617 266.751 173.755 11.5987 5.61787 0.903855 0.181438 0.116102 0.0701868 0.0506416 0.0373484 0.0331358 0.0259308 0.000328031 5.08748e-05
threshold=0.78267782926559459 1.0000000180025095e-35 -1.2949626445770261 -1.1520924568176267 1.0042429566383364 1.0000000180025095e-35 -2.2272350788116451 0.95172879099845897 -0.85613298416137684 -0.90850248932838429 -0.65014341473579396 -1.399177014827728 1.0000000180025095e-35 0.95260620117187511 0.93760678172111522 -0.86419096589088429 -0.93646728992462147 0.84117561578750621 -1.1314498186111448 0.78945094347000133 0.88530278205871593 -1.1478772163391111 -0.94728553295135487 1.2327656149864199 -0.96500810980796803 -0.88341927528381337 -1.2721529006958006 0.13917604088783267 1.0554120540618899 -0.69216120243072499 -0.90669992566108693 -1.211575925350189 -0.9099237024784087 -1.1376168131828306 1.7773742079734804 -0.90124198794364918 0.75818282365798961 -0.93603613972663868 1.0000000180025095e-35 1.0000000180025095e-35 -0.91065850853919972 -0.90130585432052601 -0.13534639030694959 1.0607756376266482 1.0000000180025095e-35 1.2300579547882082 -0.90130585432052601 -0.91580340266227711
decision_type=2 2 2 2 2 2 2 2 2 2 2 2 2 2 2 2 2 2 2 2 2 2 2 2 2 2 2 2 2 2 2 2 2 2 2 2 2 2 2 2 2 2 2 2 2 2 2 2
left_child=24 3 16 5 6 11 29 14 9 -9 -8 23 15 -10 20 -6 19 -14 -13 26 -4 28 -23 -2 36 -16 -3 -7 -18 -5 -21 -29 33 34 44 -36 37 -1 41 46 47 45 -43 -41 -26 -34 -35 -40
right_child=1 2 7 4 12 27 10 8 13 -11 -12 18 17 -15 25 -17 21 -19 -20 30 -22 22 -24 -25 32 -27 -28 31 -30 -31 -32 -33 38 39 35 -37 -38 -39 40 43 -42 42 -44 -45 -46 -47 -48 -49
leaf_value=0.46736162813915644 0.31680190142493331 0.079462755164526513 0.36796321941114246 0.92229466655745185 0.23636381652189686 0.64269707898991102 0.26982805382469804 0.41562101367858917 0.2069389838844726 0.76403105942497063 0.32503445925631169 0.68596142302346552 -0.019312373123782294 0.49626073994442232 0.062024284718613931 0.10663273513905197 0.19845065172109624 0.52146996266647516 0.49967326475441115 0.47100383268492935 0.62345289783605162 0.49256440606304364 0.13649719148119058 -0.052181854702428615 -0.10739850862448262 0.96804721808399563 0.76434764971575897 0.30899599808688943 -0.0077115370411322132 -0.082577084871053016 0.99135328382106769 0.0029350775409083675 -0.11256512661497867 -0.10568870017458276 1.1938526603677841 0.40995409103571512 0.54344686306818579 0.31818982834583059 -0.12125080338539429 -0.12345012407919097 -0.13996861261426394 -0.10377499778268662 -0.11726732058023503 -0.11102631412298403 -0.12324158440347732 -0.10687076249927119 -0.10379891755329751 -0.12064859082152285
leaf_weight=4.3997951298952112 199.77125010639429 27.324947007000446 705.97968035563827 2.5002906322479239 3016.69092143327 27.206396654248238 9404.425430431962 268.77055213600397 351.15656513720751 769.56251989305019 37849.021907221526 573.51910971850157 54.311429247260094 627.96458713710308 192.70293324440718 1147.4597184099257 83.631289534270763 346.60246326029301 806.94159341603518 8.9114169776439649 140.0454715937376 120.28314930200577 320.75388343632221 46.121386900544167 5.5757935196161279 4.8007222115993491 8.8772850781679136 1037.1801802180707 279.58478075265884 185.10801162570715 32.893589079380035 19.441821612417698 12.278396777808664 13.19310015812516 3.9769599437713632 9.7838384099304658 7.7815507650375357 5.9236779734492311 2.7433130294084549 12.901802033185957 7.481832027435301 180.83492911607027 2.8253145664930335 2.9782742708921441 1.7296538501977918 22.933939181268215 0.98726120591163713 2.8708783313632011
leaf_count=9 810 299 2809 1 20264 23 65638 487 3325 3149 126517 2267 499 3349 1893 10401 817 1467 3806 63 464 823 2931 708 95 11 37 1645 3264 4245 68 94 136 261 17 43 5 32 19 86 38 5182 41 61 13 383 28 21
internal_value=0 0.317908 0.408521 0.311378 0.304616 0.441124 0.312532 0.472941 0.5373 0.673846 0.314047 0.527253 0.22236 0.392497 0.348515 0.200616 0.185017 0.448211 0.577068 0.586652 0.410255 0.146061 0.233607 0.247593 -0.0397083 0.084047 0.247406 0.311882 0.0397578 -0.069185 0.880432 0.303364 -0.0711074 0.0885369 0.377231 0.636506 0.451256 0.381766 -0.106294 -0.113779 -0.131812 -0.104767 -0.103983 -0.12112 -0.11115 -0.108856 -0.105557 -0.120943
internal_weight=0 58659.5 3943.24 54716.3 52006.1 2710.18 47441.1 3060.98 2017.45 1038.33 47253.4 1626.35 4565.06 979.121 1043.53 4164.15 882.26 400.914 1380.46 78.0072 846.025 804.253 441.037 245.893 301.2 197.504 36.2022 1083.83 363.216 187.608 41.805 1056.62 283.095 51.1267 21.0662 13.7608 18.105 10.3235 231.969 30.0604 13.096 218.873 183.66 15.8801 7.30545 35.2123 14.1804 5.61419
internal_count=268644 262174 23789 238385 229032 9353 196401 15487 10310 3636 192155 7591 32631 6674 5177 30665 8302 1966 6073 467 3273 7835 3754 1518 6470 1904 336 1762 4081 4246 131 1739 6424 604 168 60 46 41 5820 436 78 5742 5223 147 108 519 289 40
is_linear=0
shrinkage=0.1


Tree=2
num_leaves=46
num_cat=0
split_feature=52 123 32 71 103 56 100 135 129 30 104 69 101 24 102 104 136 111 81 115 1 24 105 71 93 97 70 110 132 132 105 105 113 105 132 70 69 29 99 109 105 48 69 93 105
split_gain=2141.18 1591.13 1634.99 1888.07 6674.83 4804.53 3939.67 2272.29 1270.1 1236.59 1161.65 2247.29 2035.58 946.333 915.825 740.315 358.991 339.477 219.78 132.076 129.185 107.762 93.7927 91.8454 15.2174 23.6536 0.932449 0.413371 0.385865 0.196303 0.0805187 0.0769301 0.0542766 0.0395099 0.0393114 0.0373561 0.034364 0.0174883 0.00954525 0.00913551 0.00846555 0.00774286 0.00107536 0.000303787 0.000303038
threshold=0.78267782926559459 -2.2272350788116451 0.96232774853706371 -0.48324799537658686 -0.8474266231060027 0.92361536622047435 -0.86646568775176991 1.0000000180025095e-35 1.0000000180025095e-35 1.0651736259460451 -0.82387307286262501 -0.071876894682645784 -0.79621508717536915 1.2562778592109682 -0.82370528578758229 -0.80091318488121022 1.0000000180025095e-35 -0.92158061265945423 -1.1289815306663511 -1.4880502223968504 -0.69216120243072499 1.7272273302078249 -0.97509253025054921 -0.22568103671073911 -1.0262573957443235 -0.96520093083381642 -0.10216891020536421 -1.1934700012207029 1.0000000180025095e-35 1.0000000180025095e-35 -0.90995025634765614 -0.90130585432052601 -1.3791940212249754 -0.91065850853919972 1.0000000180025095e-35 -0.13534639030694959 0.025613134726881984 1.2300579547882082 -0.90857794880866993 -0.90590333938598622 -0.90778955817222584 1.2393073439598086 0.0030945383477956061 -1.0310641527175901 -0.95964378118515004
decision_type=2 2 2 2 2 2 2 2 2 2 2 2 2 2 2 2 2 2 2 2 2 2 2 2 2 2 2 2 2 2 2 2 2 2 2 2 2 2 2 2 2 2 2 2 2
left_child=17 19 3 4 5 -3 9 -8 -6 -5 13 15 -13 16 -15 -12 -4 18 21 23 -21 34 -20 -2 -23 -26 27 -22 31 44 -31 37 -28 -30 43 42 -25 40 -37 -39 -19 -38 -33 -1 -24
right_child=1 2 10 6 8 -7 7 -9 -10 -11 11 12 -14 14 -16 -17 -18 28 22 20 26 24 29 36 25 -27 32 -29 33 30 -32 35 -34 -35 -36 38 41 39 -40 -41 -42 -43 -44 -45 -46
leaf_value=-0.10710335814082371 0.40065725880594116 0.21456747989476807 0.26005917975770704 0.39331897859671366 0.021779828192300399 0.36292324556762812 0.23839674288259718 0.37430697634903676 0.22523922926397272 0.19655624127515353 0.094256383613810932 0.32694755806083298 0.16426275779959587 0.24714135949128974 0.055370959847305751 -0.082931829294461565 0.42578391484554934 -0.1129346865845379 0.33214235780915891 0.42694899198505393 -0.13324547603949305 0.2207762951653193 -0.10634937988579513 -0.12787502974683948 0.52779723019492653 0.3272426032436796 -0.11827531239833458 -0.11325892878526843 -0.12014337006645621 -0.11841601976283854 -0.13433980353283884 -0.10339205638437339 -0.10335489582310101 -0.1355181074794006 -0.12312272453273254 -0.10937005701255405 -0.10320868206884515 -0.11134291845184459 -0.12150416017225851 -0.10622971856460094 -0.10642903070284307 -0.11424761695447663 -0.10756659871905128 -0.10471864644104577 -0.10496935664910351
leaf_weight=1.381374564021826 9.6885337829589826 16815.501112613827 208.81078265234828 2375.2053289264441 1943.6639336757362 2508.6001591235399 37414.14164596051 1271.9740848988295 364.33186019957066 369.02708109095693 1095.0794756151736 1002.3292353227735 3305.6705645807087 1455.5979942381382 300.42658587545156 300.51027401536703 349.46635604277253 10.047817163169382 5.5312846824526778 4.6390647888183585 16.665385618805885 7.5318832695484152 1.91154107823968 0.75355914980173011 7.9522591251879922 22.575406748801473 2.4928221777081481 27.299541063606739 2.9833343550562859 14.937352726235988 4.0327402893453828 163.99979805573821 111.05195192247629 3.8009617850184432 3.4947993513196707 1.2825454175472262 4.0966863334178925 4.185574308037757 1.310939848423003 21.153720065951351 2.4973392486572257 0.75204170495271672 0.61940127611160178 0.87102944776415725 9.4949478507041931
leaf_count=24 2 79074 834 7735 17721 8845 99932 3765 841 1986 7684 3478 14312 6238 2192 2845 446 107 6 1 89 43 36 5 5 51 58 268 22 144 23 5175 3668 20 29 32 136 63 9 386 44 19 17 21 213
internal_value=0 0.232421 0.233168 0.238575 0.214629 0.233827 0.251078 0.242865 0.0538972 0.36686 0.190633 0.166387 0.202114 0.250388 0.214333 0.0561027 0.363798 -0.0391119 0.136799 -0.066658 -0.0931519 0.28713 -0.0466019 0.214291 0.348078 0.379486 -0.10847 -0.120835 -0.105293 -0.115568 -0.121801 -0.104517 -0.103682 -0.128757 -0.116483 -0.103595 -0.108008 -0.108586 -0.115504 -0.107074 -0.11164 -0.104921 -0.103408 -0.106181 -0.105201
internal_weight=0 71257.8 71080.3 63062.4 21632.1 19324.1 41430.3 38686.1 2308 2744.23 8017.89 5703.59 4308 2314.3 1756.02 1395.59 558.277 291.596 79.7146 177.44 162.149 43.8068 35.9079 15.2908 38.0595 30.5277 157.51 43.9649 211.881 30.3766 18.9701 205.097 113.545 6.7843 5.7472 167.213 5.60229 37.8845 2.59349 25.3393 12.5452 4.84873 164.619 2.2524 11.4065
internal_count=268644 262174 257928 219899 106481 87919 113418 103697 18562 9721 38029 28319 17790 9710 8430 10529 1280 6470 595 4246 4084 173 422 162 99 56 4083 357 5875 416 167 5833 3726 42 74 5233 160 600 41 449 151 155 5192 45 249
is_linear=0
shrinkage=0.1


Tree=3
num_leaves=63
num_cat=0
split_feature=30 103 104 56 100 72 136 134 57 9 56 98 37 72 134 55 34 133 134 100 87 56 54 39 99 57 68 26 111 102 105 127 56 74 62 31 68 98 5 132 53 105 81 31 37 112 31 18 135 63 96 71 124 55 108 129 62 30 43 47 86 70
split_gain=1472.58 2931.99 2338.5 2556.57 3142.97 2201.16 1990.69 1886.39 1725.24 1852.13 1596.51 2606.5 1586.17 1515.77 2374.51 1583.5 1406.75 1544.6 1375.06 1380.02 1298.79 1432.86 1292.44 1285.1 1263.53 1253.27 2324.11 1244.36 1116.83 1102.84 994.04 986.321 955.165 889.798 854.826 786.399 775.417 753.443 1852.11 729.217 985.789 794.376 727.844 746.392 628.238 614.643 542.153 619.363 536.303 445.015 437.503 349.435 335.574 328.88 539.924 328.063 326.677 290.736 287.028 230.669 78.3943 0.301519
threshold=1.0569649338722231 -0.8333010971546172 -0.81975859403610218 0.97959259152412426 -0.80455783009529103 -0.56147992610931385 1.0000000180025095e-35 1.0000000180025095e-35 0.85513821244239818 0.65814462304115307 0.95684528350830089 -0.86147499084472645 0.9390847682952882 -0.65734371542930592 1.0000000180025095e-35 0.89665779471397411 0.86100274324417125 1.0000000180025095e-35 1.0000000180025095e-35 -0.86412048339843739 -1.1786215305328367 0.90274810791015636 1.0053305029869082 0.98524183034896862 -0.80402842164039601 0.87486398220062267 -0.018934573046863076 1.2649120688438418 -1.0056462883949278 -0.84969666600227345 -0.83732178807258595 -1.8147707581520078 0.93386229872703563 -0.78246346116065968 0.52206575870513927 1.0061295628547671 0.017798738554120067 -0.9392641782760619 0.63520166277885448 1.0000000180025095e-35 1.0103474855422976 -0.92990356683731068 -1.1331765055656431 0.94717496633529674 0.93090534210205089 -0.96390041708946217 1.0001848340034487 1.2168025374412539 1.0000000180025095e-35 0.40986581146717077 -0.92894315719604481 -0.46892741322517389 -1.2227179408073423 0.99281325936317455 -0.89186835289001454 1.0000000180025095e-35 0.58246573805809032 1.0582861304283144 0.76701948046684276 1.0826465487480166 -1.3850950598716734 -0.25578479468822474
decision_type=2 2 2 2 2 2 2 2 2 2 2 2 2 2 2 2 2 2 2 2 2 2 2 2 2 2 2 2 2 2 2 2 2 2 2 2 2 2 2 2 2 2 2 2 2 2 2 2 2 2 2 2 2 2 2 2 2 2 2 2 2 2
left_child=2 6 8 7 31 24 13 10 39 16 48 -12 56 14 22 -16 33 -18 19 -11 21 -15 -2 -7 -6 26 46 29 -14 51 35 45 -20 -10 -22 -28 53 38 -29 40 41 -1 52 -44 61 -5 47 -3 -4 -42 -46 -8 -41 59 -55 -33 -9 -31 -39 -27 -48 -38
right_child=1 25 3 4 5 23 27 12 9 18 11 -13 28 20 15 -17 17 -19 32 -21 34 -23 -24 -25 -26 36 30 37 -30 57 -32 55 -34 -35 -36 -37 44 58 -40 42 49 -43 43 -45 50 -47 60 -49 -50 -51 -52 -53 -54 54 -56 -57 -58 -59 -60 -61 -62 -63
leaf_value=0.17513129709458142 0.16333599398544385 0.34243440752240695 0.026968198393022103 0.22079923747383701 0.14704008802823018 0.39407602527524799 0.20463588461137064 0.14242856889896985 0.16309861319972785 0.28999914337140903 0.20156303075733373 0.066079343223809497 -0.040616431141637092 0.4823841896421055 0.28088822051235046 -0.045989272505600511 0.21306690030298175 0.10439275195296101 0.41622306199573611 0.13067833384914052 0.23409578800376823 0.24560273250449974 0.24662394477127625 0.18476082906983504 -0.036358939575842242 0.13768911064073427 0.50036009170888696 0.439937286005468 0.31434946937121672 0.19794463045016719 -0.11719948694313731 0.26181886853200065 0.0053899514798872727 0.34089703878617583 0.14211287558926564 -0.11523195160731022 -0.12642653721110961 0.36864906714165618 0.031955241196122912 0.21610821163418087 0.22974763237670925 -0.0062906766584497915 -0.016293554310250893 0.17488692051773483 0.2984735749569164 0.39164450762435937 0.23877982278397281 -0.050813786095570079 0.27737154843149625 0.12816857499940371 0.038026846035036137 0.41519361957445089 0.31425130444652127 -0.081555157388889035 0.17243445468577839 0.13613350793966569 -0.061138177274738276 -0.036688350311375344 -0.067172508949379192 -0.068055636712106557 -0.11462228162273612 -0.14682560892486338
leaf_weight=364.34217617288232 11458.152314864099 78.375808335840702 2107.2329442258924 262.74641377851367 813.76987377181649 299.08180976472795 135.41247306764126 147.13995432853699 363.42200178653002 2472.0043465383351 3002.5068170614541 2694.1294659730047 96.531054269522429 373.09306348115206 182.35939579829574 791.1524114087224 13354.035895194858 1449.8666234277189 914.14558972418308 696.96194422990084 2934.6172239892185 811.32812994346023 2224.9200114160776 15213.784906018525 697.75766760855913 57.950013048946857 239.04147968441248 129.47192971408367 1083.8691439479589 79.904920518398285 35.469096023589373 781.42461744323373 60.325538702309132 1248.2448818981647 1540.7955035716295 22.724648974835873 61.122862502932549 15.521825904026626 791.57050586491823 1678.1658574342728 826.8050937987864 714.95042644999921 234.49239849299192 1581.3809013962746 183.64390587434173 1060.6221665292978 6.4799432083964339 81.905370995402336 89.150821879506111 901.57664885371923 99.41214345395565 188.58511050790548 439.67006746679544 151.57272386550903 186.89388882741332 282.84863586723804 169.81181731075048 155.74570360779762 571.62947663292289 913.14784232899547 200.33403243124485 8.2204271331429464
leaf_count=1201 54981 311 15214 1113 3150 546 577 905 1882 6247 9636 13658 641 719 879 6654 24724 6161 1983 2425 8458 3257 6972 30248 4952 258 576 308 2632 282 305 1386 379 2488 6803 208 381 17 5258 959 1810 5908 1008 2135 569 2077 4 738 248 3385 745 438 325 1356 999 824 1215 1066 4522 7631 1868 39
internal_value=0 0.162498 0.191797 0.17192 0.192641 0.177572 0.173602 0.129084 0.212767 0.227162 0.109562 0.137488 0.231988 0.183117 0.166143 0.0152418 0.212083 0.202424 0.286904 0.254959 0.227072 0.320189 0.176879 0.188796 0.0623787 0.0556468 0.171741 0.0801275 0.285321 0.207474 0.379603 0.300086 0.39079 0.300804 0.202428 0.446919 0.00924105 0.0328729 0.0893057 0.168867 0.129937 0.0549528 0.196653 0.150199 0.140916 0.357724 0.00343559 0.14148 0.037132 0.176761 0.207002 0.327193 0.236483 -0.0261922 0.0586924 0.228416 0.0333645 0.0428715 -0.0556512 -0.0557779 -0.103549 -0.128845
internal_weight=0 24710.6 56102.8 28802.4 19412 17024.4 22384.3 9390.37 27300.4 20559 7893.02 5696.64 1497.35 20316.4 14656.6 973.512 16415.6 14803.9 4143.44 3168.97 5659.83 1184.42 13683.1 15512.9 1511.53 2326.29 664.33 2067.84 1180.4 559.648 297.235 2387.64 974.471 1611.67 4475.41 261.766 1661.96 1508.19 921.042 6741.38 2807.67 1079.29 3933.71 1815.87 352.399 1323.37 367.095 160.281 2196.38 1728.38 283.056 323.998 2117.84 1309.56 338.467 1064.27 316.952 235.651 587.151 971.098 206.814 69.3433
internal_count=268644 117179 151465 88445 44296 38896 101191 44149 63020 46289 38756 23294 5393 88723 69486 7533 35255 30885 11034 8672 19237 3976 61953 30794 8102 15988 4010 12468 3273 2363 1089 5400 2362 4370 15261 784 11978 10105 5566 16731 12304 7109 4427 3143 1734 3190 2921 1049 15462 5195 1314 1015 1284 10244 2355 2210 2120 1348 4539 7889 1872 420
is_linear=0
shrinkage=0.1


Tree=4
num_leaves=59
num_cat=0
split_feature=31 104 68 52 68 104 61 24 123 100 73 104 103 69 103 103 30 118 40 89 104 31 136 69 63 131 101 124 131 71 105 41 111 31 43 129 81 0 115 1 73 94 71 26 26 103 70 132 132 105 132 105 70 70 68 105 29 106
split_gain=1486.97 1733.4 1193.74 1181.84 1110.1 2682.22 1116.16 1037.38 1027.43 1053.69 3451 995.602 878.008 734.478 1491.17 723.35 700.183 641.219 586.507 581.395 527.498 620.392 477.898 458.974 706.373 448.87 442.751 369.212 367.751 365.602 259.195 246.501 240.523 217.645 202.742 188.033 131.871 99.8997 93.9444 85.86 76.664 60.6598 55.9491 26.8716 112.362 28.8761 1.0447 0.290916 0.131018 0.0881727 0.051634 0.042612 0.0357257 0.0293292 0.0273963 0.0218483 0.0121126 0.000701472
threshold=1.0010486841201784 -0.82387307286262501 0.013808894436806442 0.78267782926559459 -0.0040953180287033311 -0.87581712007522572 0.63212278485298168 1.2950611710548403 -2.2272350788116451 -0.52003547549247731 -0.43553903698921198 -0.79138365387916554 -0.83442741632461537 -0.17986778169870374 -0.84610435366630543 -0.85912635922431935 1.0939176082611086 -1.5790337920188902 1.0303492546081545 -0.36399377882480616 -0.7993045151233672 1.0071505308151247 1.0000000180025095e-35 -0.096097614616155611 0.51084846258163463 1.0000000180025095e-35 -0.94971829652786244 -1.5079361200332639 1.0000000180025095e-35 -0.21403807401657102 -0.77119505405426014 1.0025667548179629 -0.92158061265945423 1.0069603919982912 1.0333036184310915 1.0000000180025095e-35 -1.1096377372741697 0.58881056308746349 -1.4880502223968504 -0.69216120243072499 -0.90709570050239552 -1.0103039741516111 -0.22568103671073911 1.2580037713050845 1.2595213055610659 -0.82897567749023426 -0.10216891020536421 1.0000000180025095e-35 1.0000000180025095e-35 -0.90130585432052601 1.0000000180025095e-35 -0.90995025634765614 -0.10216891020536421 -0.13534639030694959 -0.0071309925988316527 -0.91065850853919972 1.2300579547882082 -0.96629780530929554
decision_type=2 2 2 2 2 2 2 2 2 2 2 2 2 2 2 2 2 2 2 2 2 2 2 2 2 2 2 2 2 2 2 2 2 2 2 2 2 2 2 2 2 2 2 2 2 2 2 2 2 2 2 2 2 2 2 2 2 2
left_child=3 4 34 32 5 16 27 12 38 10 11 -10 -8 15 -15 -7 28 29 -19 -12 23 30 -23 24 -4 -9 -18 37 -2 -11 -22 -29 36 -25 35 54 40 -6 42 -40 41 -1 -5 45 -45 -36 -41 49 57 56 -42 -50 -44 -51 -3 -49 -34 -38
right_child=1 2 20 8 6 13 7 25 9 17 19 -13 -14 14 -16 -17 26 18 -20 -21 21 22 -24 33 -26 -27 -28 31 -30 -31 -32 -33 47 -35 43 -37 48 -39 39 46 50 -43 52 44 -46 -47 -48 55 51 53 -52 -53 -54 -55 -56 -57 -58 -59
leaf_value=-0.11435040795754087 0.17383574500230392 -0.11446751952931163 0.12846285942234223 0.2674279214444919 -0.13025062550071737 0.079819650701699427 0.2460980062863849 0.013134519939185624 0.16471534887673073 0.22180389109460316 0.067555864455304968 0.13259506603704849 0.14926147744615023 0.18922295674053588 0.047866258742240944 -0.029100232797596739 0.18494886592567972 0.27113683384102977 -0.035662276367957539 -0.085502053184852836 -0.065407153321329944 0.17524026566117246 1.376135231170232 0.12816940324231627 -0.030267897552926401 0.41954047274081091 0.05010889659125 0.23155947988141037 0.2400554592673296 -0.0194129450839544 0.98630720864700372 0.43037241221658268 -0.11128410181671018 0.2741569492033859 0.012774893018266471 0.21967808526498281 -0.10774031781100245 0.3666363422762402 0.277344553315854 -0.12168607922413521 -0.1081493029315776 0.23381615653657489 -0.12845702345201629 0.17425711888226453 -0.11317401805940325 -0.11731235972959773 -0.10396140342815255 -0.11953236111173304 -0.11738739769406113 -0.10314255833589597 -0.12352514026983952 -0.12992114822136167 -0.10520644790666774 -0.1142204343257099 -0.12254444255378188 -0.13126380403093932 -0.10746337180159948 -0.10532784932101365
leaf_weight=5.5157918818294993 2691.1395318247378 23.007419839501384 599.4812244027853 12.110074043273928 19.146951749920849 1437.861571662128 1430.1728365086019 507.61167805269361 51167.363237321377 3858.2757599055767 409.95875740796328 11892.970023736358 2711.4554322250187 1277.6784818395972 1794.2588697113097 1058.6415803581476 394.89708693698049 91.746249098330736 194.21626920998096 628.87953665107489 326.34264338389039 9.0347692929208261 5.2332586124539366 1344.872819930315 526.65808713808656 28.71427371352911 635.2212600260973 84.086178794503212 1218.3158877715468 63.87397575378418 2.36026432737708 241.40107010304928 12.060306273400782 110.5132707580924 17.897426374256611 41.027192145586014 1.4075973369181163 5.1303939819335929 5.9632220268249503 45.715996488928795 4.46756170876324 53.942620169371367 0.75842548906803209 17.731184344738722 58.378048151731491 366.22829972952604 121.98078309185803 2.8716279417276382 9.8035464584827405 152.37275298312306 4.2728885598480701 3.7501011341810235 5.1375494189560396 2.4280227832496157 5.1372162550687781 3.5500656440854064 26.594016671180725 8.3854493089020234
leaf_count=76 7675 221 2388 2 116 6603 2848 2898 143235 1262 1144 29878 7961 4420 10958 7337 636 69 1182 3573 2950 98 18 5234 3642 58 2711 176 2793 680 5 228 151 623 94 37 23 1 1 357 77 89 5 108 653 3379 3726 22 95 5192 34 23 155 41 36 20 449 178
internal_value=0 0.125748 0.061671 0.157358 0.139994 0.121503 0.178638 0.165755 0.158213 0.158862 0.155679 0.158658 0.182701 0.073919 0.106659 0.0336322 0.175146 0.207335 0.062769 -0.0251005 0.0866842 -0.0298342 0.615707 0.102164 0.0542297 0.034893 0.1018 0.350951 0.194472 0.217876 -0.0578553 0.379011 -0.0435953 0.139255 -0.0765044 0.0831211 0.0906439 -0.0252463 -0.0729904 -0.095534 0.160867 0.201518 0.144432 -0.100496 -0.0462111 -0.111251 -0.108793 -0.105078 -0.114488 -0.104383 -0.115666 -0.120855 -0.108197 -0.103316 -0.115942 -0.126018 -0.108655 -0.105675
internal_weight=0 18989.6 3453.9 68790.4 15535.7 10508 5027.72 4677.95 68498.9 68307.3 64099.2 63060.3 4141.63 5568.44 3071.94 2496.5 4939.57 4208.11 285.963 1038.84 2924.5 342.971 14.268 2581.53 1126.14 536.326 1030.12 349.765 3909.46 3922.15 328.703 325.487 291.422 1455.39 529.407 69.1718 91.5456 24.2773 191.666 173.66 68.1989 59.4584 18.006 460.235 76.1092 384.126 167.697 199.877 23.3467 193.455 8.74045 13.5536 5.89597 154.801 28.1446 6.42169 38.6543 9.79305
internal_count=268644 76905 19486 191739 57419 43133 14286 13765 185269 181023 177830 173113 10809 29318 15378 13940 13815 3193 1251 4717 14958 3071 116 11887 6030 2956 3347 521 10468 1942 2955 404 6470 5857 4528 294 595 117 4246 4084 276 165 162 4234 761 3473 4083 5875 319 5833 111 118 160 5233 257 42 600 201
is_linear=0
shrinkage=0.1


Tree=5
num_leaves=63
num_cat=0
split_feature=30 104 56 136 90 124 98 72 33 98 71 27 109 68 57 104 34 133 57 96 30 75 4 131 61 103 33 133 102 130 102 63 49 21 136 15 75 62 57 104 6 55 104 129 5 84 69 73 54 31 135 93 57 127 74 32 29 128 120 102 32 41
split_gain=1842.45 1364.91 1783.78 1168.77 1147.19 1091.75 1015.09 2022.6 957.002 1221.1 1011.22 933.113 926.684 870.372 852.438 888.764 824.974 1162.87 934.402 800.255 1076.55 895.884 1074.58 930.406 799.563 789.02 1197.15 564.043 535.974 512.088 503.287 501.124 491.23 490.263 486.222 417.509 409.827 401.98 392.036 371.937 568.291 351.64 326.611 295.923 430.812 292.122 318.647 272.415 234.224 448.357 222.218 215.123 197.23 394.122 164.644 111.381 110.338 102.656 91.6111 89.0011 67.1314 62.4797
threshold=1.0521924495697024 -0.81458714604377735 0.98933234810829174 1.0000000180025095e-35 -1.1974847316741941 -2.3046905994415279 -0.82379630208015431 -0.54722997546195973 0.93798324465751659 -0.83406010270118702 -0.41693691909313196 1.2080507874488833 -1.1223106384277342 -0.03818568401038646 0.86536625027656566 -0.85434338450431813 0.86409699916839611 1.0000000180025095e-35 0.91293787956237804 -1.0299033522605894 1.1012024283409121 -1.1128396987915037 0.61649680137634288 1.0000000180025095e-35 0.65678569674491893 -0.82845130562782276 0.93838810920715343 1.0000000180025095e-35 -0.84155818819999684 1.0000000180025095e-35 -0.95084738731384266 0.43757563829422003 1.0667645335197451 1.3547156453132632 1.0000000180025095e-35 0.94613513350486766 -1.1478772163391111 0.64993426203727733 0.93226081132888805 -0.87734720110893238 0.69330868124961864 0.98775050044059765 -0.86129096150398243 1.0000000180025095e-35 0.65730041265487682 -1.3393757939338682 -0.12536205351352689 -0.79814422130584706 0.98624110221862804 0.9913606345653535 1.0000000180025095e-35 -1.1260482072830198 0.9364401400089265 -3.1145749092102046 -0.94218826293945301 0.90930399298667919 1.1059890985488894 1.0000000180025095e-35 -0.92641082406043995 -0.58956676721572865 0.95729392766952526 0.97589352726936351
decision_type=2 2 2 2 2 2 2 2 2 2 2 2 2 2 2 2 2 2 2 2 2 2 2 2 2 2 2 2 2 2 2 2 2 2 2 2 2 2 2 2 2 2 2 2 2 2 2 2 2 2 2 2 2 2 2 2 2 2 2 2 2 2
left_child=1 14 5 19 13 52 29 35 10 -10 -7 25 -9 39 15 27 33 24 -19 36 21 22 -21 -23 -18 41 -27 34 32 47 54 -29 -13 38 -1 -8 43 -31 -16 40 -5 -6 -35 44 -2 46 -15 -4 49 -38 55 -41 59 -54 -22 -17 -52 -32 -45 -3 -50 -47
right_child=3 2 6 4 11 8 7 12 9 -11 -12 28 -14 45 16 50 17 18 -20 20 30 23 -24 -25 -26 26 -28 31 -30 37 57 -33 -34 42 -36 -37 48 -39 -40 51 -42 -43 -44 58 -46 61 -48 -49 60 -51 56 -53 53 -55 -56 -57 -58 -59 -60 -61 -62 -63
leaf_value=0.14847023056710434 0.21132021541823476 -0.13065164996132181 -0.13638069832611968 0.38970815831526257 0.22961627351682151 0.079225289998576628 -0.013178899171018769 0.16956824177332622 0.097335419776587231 -0.026920124069132547 0.15110172611883643 -0.048638578669337296 0.11549155517212457 0.11027816707234855 0.2106930488284515 -0.11782111450287923 0.20843350131511601 -0.017391022805522387 0.15515797831512176 0.12757700812863401 0.050717479905139133 0.11245757112581932 0.0062451938882188279 0.17149242579987486 0.15328050586576869 -0.068962395156689102 0.28098096583519255 0.11378393671112259 -0.11676954685293506 0.33773028921932546 -0.084838254964795065 -0.060366052442977908 0.064473135927728284 0.15651949635710088 0.020939655703060056 0.61638272188725862 0.23551260898722415 0.20703214576257803 0.31538015391674989 0.10556732453629497 -0.00475628984986549 0.074003405985791901 -0.11665534640199859 0.057539256313354284 0.061687426387298683 0.15824988558078001 0.23436848958146481 0.17240458487369456 0.269387964166931 0.11828999168473248 0.24567551139949445 -0.12022316153664535 -0.14484507497285073 0.10774451078523428 0.28122637141404433 -0.00018952855713539273 -0.1211486481193377 0.16631638811917773 0.19260235931429914 0.22774838805901526 0.17705358989549699 0.35888338628838323
leaf_weight=6154.3854752108455 247.83770944178104 224.09492406435311 29.038368463516235 55.544466406106949 410.44251266866922 3499.3955521658063 956.22736919671297 6648.5060203410685 2463.1930159144104 1164.9414984621108 4441.9848549533635 706.6243459507823 6054.9126808810979 440.56510236114264 1937.5760048776865 152.35764156281948 3250.2516211792827 663.48390236496925 595.54336503148079 1338.2810775153339 71.140801843255758 21556.635245716199 1605.8181128613651 3047.0126676075161 13741.749719325453 426.62799575924873 126.8171112164855 437.04901069402695 402.08061917871237 379.53522589802742 427.51190873980522 265.67723209410906 840.79187931865454 132.24719700217247 314.21846747398376 10.651239641010759 600.67173387296498 619.32551057264209 438.71209278702736 55.279760465025902 106.64263977110386 224.71842379122972 65.417200863361359 55.00022104382515 860.39867114275694 18.063125282526016 390.22622352838516 1773.2542847022414 411.67605256289244 714.29860549420118 39.940858155488968 178.28926029801369 102.36152661032975 155.78884455561638 54.898178867995739 170.65426698327065 10.318278320133684 16.918307088315487 577.78985967487097 7.1498865038156501 97.363078847527504 110.30647695064545
leaf_count=9438 634 1249 179 107 437 16116 5012 5324 9331 6503 10313 4725 16840 1572 3377 1443 5016 2654 2028 5343 388 84437 8927 8875 22331 2058 454 1323 2875 433 2827 1153 4120 322 1990 42 1398 824 641 203 582 580 580 108 3924 60 449 2936 308 1900 66 1304 860 249 70 693 80 49 281 28 184 91
internal_value=0 0.138468 0.123024 0.109605 0.0618742 0.0938009 0.144419 0.133181 0.0999893 0.0574388 0.119429 0.0286717 0.143793 0.138774 0.154 0.125201 0.164434 0.156959 0.0642279 0.116374 0.110715 0.11353 0.0613983 0.119769 0.16383 0.0985071 0.0112241 0.133032 -0.0139069 0.19926 -0.0252576 0.0479437 0.0128209 0.217433 0.142275 -0.00624358 0.161007 0.256693 0.23002 0.0139989 0.130337 0.174561 0.066112 0.126303 0.0951502 0.190257 0.168564 0.167429 0.194132 0.171837 -0.0252386 -0.0667844 -0.0524957 0.00758794 0.151119 -0.0556738 0.170366 -0.0752774 0.180863 -0.11957 0.251727 0.330652
internal_weight=0 56899.9 28530.4 36176.3 4493.02 12058.9 16471.5 13670.3 11569.5 3628.13 7941.38 3138.1 12703.4 1354.92 28369.6 7544.6 20825 18251 1259.03 31683.3 28118.2 27547.7 2944.1 24603.6 16992 1188.61 553.445 7171.33 1949.5 2801.15 570.469 702.726 1547.42 2573.95 6468.6 966.879 3565.04 998.861 2376.29 395.756 162.187 635.161 197.664 1741.03 1108.24 959.161 830.791 1802.29 1824.01 1314.97 373.271 233.569 489.395 258.15 126.039 323.012 50.2591 444.43 632.79 231.245 509.039 128.37
internal_count=268644 129374 76239 139270 19617 44649 31590 27218 42263 15834 26429 15249 22164 4368 53135 16186 36949 32029 4682 119653 110916 107582 14270 93312 27347 3529 2512 13904 11720 4372 3334 2476 8845 4920 11428 5054 8737 1257 4018 2196 689 1017 902 4947 4558 2172 2021 3115 3790 3298 2282 1507 2386 1109 458 2136 146 2876 389 1277 492 151
is_linear=0
shrinkage=0.1


Tree=6
num_leaves=58
num_cat=0
split_feature=108 102 71 103 136 34 102 100 69 36 45 109 37 103 73 32 135 105 124 109 4 70 98 14 132 36 80 36 49 69 129 54 11 14 108 33 21 71 107 107 39 106 105 54 39 109 34 38 69 113 25 107 71 37 41 70 34
split_gain=1819.67 1623.08 1251.42 2278.03 1395.27 1369.35 1226.3 893.27 853.114 1196.27 813.216 671.647 571.069 549.081 1849.81 558.967 768.666 445.515 398.505 394.259 377.784 351.737 319.773 305.87 294.316 390.214 375.942 288.944 285.999 246.527 208.235 205.168 340.312 190.381 174.279 169.623 167.076 137.617 134.763 121.462 113.431 106.878 104.868 103.843 80.1909 79.6501 69.858 56.055 52.4982 76.404 50.3758 40.774 37.003 30.8405 18.2641 0.544046 0.256588
threshold=-1.0457965731620786 -0.67797914147377003 -0.41590224206447596 -0.79238000512123097 1.0000000180025095e-35 0.92070990800857555 -0.82665500044822682 -0.82386782765388478 0.010200234130024912 0.97027471661567699 1.2205840945243838 -1.1476113200187681 0.94199863076210033 -0.67656207084655751 -0.44480404257774347 0.92796942591667186 1.0000000180025095e-35 -0.85408785939216603 -2.2169395685195918 -1.1101683378219602 0.11391559615731241 -0.22806292027235028 -0.89863252639770497 1.0000000180025095e-35 1.0000000180025095e-35 0.92454791069030773 -0.61547642946243275 0.91535869240760814 1.1966832876205447 0.0030945383477956061 1.0000000180025095e-35 1.0423564910888674 0.82482534646987926 0.89695417881011974 -1.0371523499488828 0.9502512812614442 1.3370940089225771 -0.219759926199913 -1.0354812145233152 -0.98372316360473622 1.0242407917976382 -0.89888980984687794 -0.79449215531349171 1.1612762212753298 1.0215365290641787 -1.0832316279411314 0.83839017152786266 0.99297314882278453 0.034736344590783126 -1.3579465150833128 1.1040967702865603 -0.9682343304157256 -0.42990013957023615 0.94737443327903759 1.1095166206359866 -0.10216891020536421 0.86711943149566661
decision_type=2 2 2 2 2 2 2 2 2 2 2 2 2 2 2 2 2 2 2 2 2 2 2 2 2 2 2 2 2 2 2 2 2 2 2 2 2 2 2 2 2 2 2 2 2 2 2 2 2 2 2 2 2 2 2 2 2
left_child=11 2 3 4 5 -2 -6 12 9 -9 24 29 33 14 15 18 -17 36 -13 48 39 -14 -19 -21 26 53 41 -22 47 31 40 32 52 -4 -27 -10 -5 46 56 -16 44 -3 -39 -42 -31 -28 -30 55 54 -50 -40 -25 -1 -26 -12 -15 -33
right_child=1 10 7 17 6 -7 -8 8 35 -11 19 13 21 28 20 16 -18 22 -20 23 27 -23 -24 51 25 34 45 -29 37 30 -32 38 -34 -35 -36 -37 -38 42 50 -41 43 -43 -44 -45 -46 -47 -48 -49 49 -51 -52 -53 -54 -55 -56 -57 -58
leaf_value=0.0029526642341711363 0.10870035183003753 0.32332605641749512 -0.042213174505141199 0.15167749906041839 0.072223316399146448 0.0059198442287176321 -0.062181182155622627 0.11334514472890796 0.20422679500803342 -0.040552541642279588 0.24411739395183343 0.11948217208828123 0.14564731937674055 -0.13650100455378814 -0.034551349688083453 -0.0089222671502472688 0.19679291025592857 0.061039872791332231 0.16069342810309273 0.20981484535254752 -0.080888604345947121 0.20784498786354821 -0.071751486346047097 0.076702493198631386 -0.12119329003325048 0.11780053506670936 -0.015349842508339588 0.11313794029751417 0.062002747850346707 -0.15660254496010334 0.25741055293176068 -0.17223881677629194 0.27628756775871272 0.10197976269315621 -0.1864836994373387 0.13626750690995712 -0.1162043762722455 -0.11011749511466225 0.059370560315648579 -0.15831760192220981 -0.14506143691108245 -0.12125078533837522 0.14025345892043767 0.26345441139421716 0.14199399125154483 0.1981195609389298 0.18043116934954151 0.18810105431267521 0.1424154158059496 -0.14642348396106505 0.14938470631114203 -0.1380560194489269 -0.18579252508048869 -0.17348707467889943 0.17896161267357111 -0.10544760814637577 -0.13831297284279126
leaf_weight=12.487826988101004 47336.600446801633 5.6992361992597571 129.06389086693525 166.96732044219971 5120.7221740782261 1332.7603263966739 782.59114252775908 15399.536207634956 1164.8306525424123 522.21430784463882 68.274987697601318 3326.2802183777094 1640.6531564369798 29.594598770141602 438.86763043887913 525.34511414170265 277.62598364055157 219.84035281091928 7965.0619549751282 38.698400974273682 99.61215565726161 2039.4511337727308 1035.5802494697273 9.7292013168334943 336.4963649827987 99.341119304299355 21.437335357069969 334.45040818303823 50.437266826629639 12.57316588796675 19.876333758234978 2.5730847865343121 24.424492001533508 315.1624817121774 23.223149679601192 536.3963098526001 27.055036917328835 28.57544681429863 80.604685422033072 96.778469985350966 136.16669418103993 105.63326159305871 40.353815378621221 6.5204167366027823 31.595431534573436 94.659787066280842 3996.2477417625487 6.5007684249430886 93.652298308908939 10.150700271129606 271.88900417089462 96.797672532498837 61.738448359072208 169.6279391925782 116.31650044023991 6.970650363713502 16.687458802014589
leaf_count=29 149506 7 470 449 20001 6504 4124 37852 1014 2555 28 3584 2714 171 1567 1856 274 1127 8270 6 405 2480 7079 16 4654 115 87 433 96 74 32 11 13 956 116 1054 273 414 180 566 1207 1666 76 10 54 127 1173 3 171 92 165 1009 279 1136 45 176 93
internal_value=0 0.103089 0.104934 0.0970307 0.100317 0.105886 0.0544056 0.125294 0.115489 0.108297 -0.00817328 0.138398 0.167188 0.142239 0.132165 0.14282 0.0622034 -0.0267028 0.148553 0.103401 -0.000725643 0.180116 -0.048498 -0.0309708 -0.0646852 -0.0999504 0.0327991 0.0686112 0.173886 0.0407065 -0.0503113 0.0807067 -0.0474957 0.0600865 0.0601456 0.182799 0.114323 0.176569 0.114727 -0.056913 -0.0830445 -0.0984924 0.0364592 -0.126393 0.0569946 0.158702 0.178955 -0.0824764 0.171066 0.11417 0.128801 -0.118442 -0.154038 -0.13872 0.203061 -0.130581 -0.142845
internal_weight=0 79059.2 77769.4 56022.1 54572.7 48669.4 5903.31 21747.3 17623 15921.8 1289.74 17899.8 4124.33 17222.7 13064 12094.3 802.971 1449.44 11291.3 433.62 969.709 3680.1 1255.42 145.225 856.118 628.689 227.43 434.063 4158.68 677.137 206.732 470.405 98.6508 444.226 122.564 1701.23 194.022 4115.61 371.754 535.646 186.856 111.332 68.9293 142.687 44.1686 116.097 4046.69 43.066 288.394 103.803 352.494 106.527 74.2263 506.124 184.591 36.5652 19.2605
internal_count=268644 247433 238158 189063 180135 156010 24125 49095 42475 40407 9275 21211 6620 19064 16955 13984 2130 8928 11854 1367 2971 5194 8206 1031 7908 6021 1887 838 2109 2147 1377 770 321 1426 231 2068 722 1759 449 2133 1345 1673 490 1217 128 214 1269 350 336 263 345 1025 308 5790 73 347 104
is_linear=0
shrinkage=0.1


Tree=7
num_leaves=52
num_cat=0
split_feature=108 102 30 105 129 70 30 131 32 30 111 134 135 70 102 102 73 101 71 32 133 62 75 109 56 126 0 89 61 111 72 84 38 36 107 38 40 101 71 74 116 125 57 114 110 70 123 120 124 59 110
split_gain=1854.82 1527.3 1335.56 1007.46 1096.64 1215.88 907.386 998.897 874.121 869.684 719.776 1324.33 675.423 661.78 1686.23 615.161 2228.95 548.475 414.552 379.973 597.09 425.295 380.74 1072.99 469.395 379.491 350.209 267.184 231.817 178.443 215.92 220.765 142.583 201.83 157.47 131.184 191.346 136.646 128.169 101.445 89.0971 309.943 79.2494 53.8644 48.6103 28.7777 1.30628 1.5152 0.437522 0.344994 0.288961
threshold=-1.0399215817451475 -0.68674147129058827 1.0556573271751406 -0.89229187369346608 1.0000000180025095e-35 -0.32017011940479273 1.0787267684936526 1.0000000180025095e-35 0.96232774853706371 1.1012024283409121 -0.98560470342636097 1.0000000180025095e-35 1.0000000180025095e-35 -0.18534429371356961 -0.76991689205169667 -0.61095088720321644 -0.43553903698921198 -0.76473096013069142 1.0000000180025095e-35 0.92796942591667186 1.0000000180025095e-35 0.51115399599075328 -0.60609170794486988 -1.1180621385574339 0.88403329253196727 -2.9895853996276851 0.33102293312549597 -0.36399377882480616 0.65020942687988292 -1.2451556324958799 -0.40378731489181513 -0.49484950304031367 0.99495294690132152 0.96654722094535839 -0.98372316360473622 0.98917517066001903 1.0557438731193545 -0.56236621737480152 -0.21403807401657102 -0.45214000344276423 -1.4950321316719053 -2.6198520660400386 1.0018879771232607 -1.4413063526153562 -1.17781126499176 -0.10757162049412726 -2.2272350788116451 -1.7367268204689024 -2.4105654954910274 0.91016456484794628 -1.1934700012207029
decision_type=2 2 2 2 2 2 2 2 2 2 2 2 2 2 2 2 2 2 2 2 2 2 2 2 2 2 2 2 2 2 2 2 2 2 2 2 2 2 2 2 2 2 2 2 2 2 2 2 2 2 2
left_child=15 2 8 6 5 -5 7 -4 10 -8 11 -2 -12 14 -10 16 19 -15 29 22 28 -22 24 -24 -1 43 -6 32 -21 39 31 -31 34 -34 -18 36 -29 -37 40 -3 45 -42 49 -17 -32 -27 50 -48 -41 -40 -45
right_child=1 18 3 4 26 -7 9 -9 13 -11 12 -13 -14 17 -16 25 27 -19 -20 20 21 -23 23 -25 -26 38 -28 35 -30 30 44 -33 33 -35 -36 37 -38 -39 42 48 41 -43 -44 46 -46 -47 47 -49 -50 -51 -52
leaf_value=0.076857274777227924 0.10248479621613558 0.16875102429399569 0.046572800207066466 0.027806446280187882 -0.13461200052406005 0.083544289415414599 0.1240622398606252 0.18823552226058862 0.073661220494805432 0.021993320355988149 0.12058712215994415 0.011533390022323503 -0.12364177390465014 0.16670231023915288 -0.093851106564575515 0.1518842676616185 0.10541023840260338 0.07749086682876305 0.18808780652727927 0.19053476043332762 0.094783964495978687 -0.067057588315865932 0.11964684674863298 -0.051903628229173153 0.14828404172042228 0.16978908860657316 0.12525721225883543 -0.099160680800809559 0.032314950700645738 -0.06600496704566311 -0.020318848986291604 0.12415570029916148 -0.16661189236308108 0.088062904476112869 -0.15635563255710694 -0.14480382977087486 0.043859878162233107 0.096323112475058745 -0.10679294866223901 -0.10671312372514641 -0.15174460126101952 0.16919502243265575 0.15031898644228325 -0.12915307544637014 -0.13658348961928002 0.1404211380448471 -0.20697758458999771 -0.13603641447589562 -0.15204944681714352 -0.14773415448002444 -0.11122864465484153
leaf_weight=1037.685559488833 11999.663860335946 48.144626747816801 4686.9581594280899 9783.4100138470531 52.933805953711271 6523.2996669411659 8261.6616540066898 556.88855436444283 5859.5007032491267 928.61436900869012 22307.552364742383 1847.4251724109054 113.81307215243578 1172.7737321183085 669.60019716620445 7.7269592098891726 233.88427095860243 1671.1877464875579 71.016216769814491 373.0355476140976 295.56326694041491 360.31665578484535 4374.5632790029049 397.7446830868721 8116.7268279716372 3339.4881995357573 2552.0892292298377 192.81121084466577 123.18166348338127 230.16702411882579 39.759094504639506 83.089205175638199 68.070394482463598 57.323530189692974 25.485288705676794 242.11069612205029 181.70001092739403 26.028577037155628 25.604194503277544 14.879283770918848 39.693585215136409 124.3833686709404 20.141628105193377 20.510598517954346 376.45488559640944 370.70181039348245 4.24742867052555 10.340337719768284 2.4840354993939391 2.2381259873509398 16.017711689695719
leaf_count=2367 23516 30 16201 46485 311 24940 23344 662 20388 4006 51639 7482 890 1970 3830 44 300 4156 12 275 669 1574 3910 1244 8088 749 5186 1010 304 2218 501 165 336 172 141 1821 651 95 486 373 229 61 23 232 4857 296 23 70 26 25 261
internal_value=0 0.0886785 0.0901266 0.0749137 0.0597284 0.0501037 0.0948097 0.0616172 0.101241 0.113749 0.108277 0.0903504 0.119347 0.0740186 0.0564818 0.122673 0.113973 0.114279 -0.0434013 0.123684 0.0684921 0.00587408 0.128249 0.105349 0.140188 0.157872 0.119977 -0.0285431 0.151258 -0.0640805 -0.0782781 -0.0155661 0.0373626 -0.0501879 0.0796895 -0.0680017 -0.029772 -0.121397 0.161654 0.0940183 0.163666 0.0915531 -0.000777884 -0.0941966 -0.125477 0.166855 -0.131395 -0.156692 -0.113199 -0.110084 -0.121293
internal_weight=0 79853.4 78987.4 33345.9 18911.7 16306.7 14434.1 5243.85 45641.5 9190.28 36268.5 13847.1 22421.4 9373.06 6529.1 20087.3 16106.2 2843.96 865.994 15078.8 1152.1 655.88 13926.7 4772.31 9154.41 3981.09 2605.02 1027.41 496.217 794.978 729.47 313.256 384.763 125.394 259.37 642.65 374.511 268.139 3922.25 65.5079 3874.27 164.077 47.9839 58.843 416.214 3710.19 51.1161 14.5878 17.3633 27.8423 36.5283
internal_count=268644 243188 235006 121135 76922 71425 44213 16863 113871 27350 83527 30998 52529 30344 24218 25456 22957 6126 8182 18431 2822 2243 15609 5154 10455 2499 5497 4526 579 8170 7741 2383 949 508 441 3577 1661 1916 1869 429 1335 290 534 630 5358 1045 586 93 399 511 493
is_linear=0
shrinkage=0.1


Tree=8
num_leaves=59
num_cat=0
split_feature=73 100 55 134 101 70 73 103 70 70 59 62 48 103 69 134 98 7 106 101 100 134 130 71 73 72 101 68 82 121 117 111 77 24 21 53 24 75 96 75 74 54 131 27 106 73 100 67 111 20 0 40 33 107 79 101 32 61
split_gain=1891.25 754.398 1000.12 878.12 829.23 1028.17 919.257 911.568 671.121 584.169 692.209 583.518 580.548 525.052 511.575 488.893 477.704 577.871 473.211 452.114 416.37 398.638 397.86 358.115 310.053 286.002 280.79 258.791 284.699 247.739 243.179 561.151 236.086 234.435 233.894 217.198 208.073 205.689 186.427 177.245 119.149 117.799 71.1971 73.3022 59.3631 56.1647 131.636 46.0257 41.0308 34.1783 27.7054 21.0095 15.8653 30.2221 19.4625 4.24358 0.858605 0.55833
threshold=-0.68002459406852711 -0.76339966058731068 1.0300048589706423 1.0000000180025095e-35 -0.78985103964805592 -0.22806292027235028 -0.7456265091896056 -0.79238000512123097 -0.14972771704196927 -0.10757162049412726 0.9008951485157014 0.57799190282821666 1.1250015497207644 -0.80699214339256276 -0.025834859348833557 1.0000000180025095e-35 -0.83082437515258778 0.52719113230705272 -0.98677521944046009 -0.81040197610855091 -0.53030899167060841 1.0000000180025095e-35 1.0000000180025095e-35 -0.47586704790592188 -0.7053016424179076 -0.56414470076560963 -0.79877790808677662 0.1344222500920296 -1.2872202992439268 -1.2843981981277464 -1.3032819628715513 -1.2511621117591856 -0.99513277411460865 1.3470687270164492 1.3495220541954043 1.0103474855422976 1.3497251868247988 -0.98685202002525318 -0.83076143264770497 -0.8599066138267516 -0.84555658698081959 1.1612762212753298 1.0000000180025095e-35 0.94442939758300792 -0.95212990045547474 -0.6939200460910796 -0.74240848422050465 0.20602948963642123 -1.2590588331222532 1.189708471298218 0.18772511929273608 1.0685046315193178 0.94808310270309459 -0.88003998994827259 -1.2940524220466612 -0.87279984354972828 0.9664650857448579 0.66620123386383068
decision_type=2 2 2 2 2 2 2 2 2 2 2 2 2 2 2 2 2 2 2 2 2 2 2 2 2 2 2 2 2 2 2 2 2 2 2 2 2 2 2 2 2 2 2 2 2 2 2 2 2 2 2 2 2 2 2 2 2 2
left_child=1 2 4 16 5 7 14 -1 11 12 29 23 13 25 -6 18 22 -18 55 -7 -20 -8 -4 26 47 35 -3 37 -29 42 31 48 50 44 -27 -2 -35 -13 45 -25 56 -33 43 -11 -15 46 -10 -5 -12 -26 -17 -47 53 -32 -54 -14 -40 -34
right_child=9 8 3 24 6 19 21 -9 38 10 30 27 15 33 -16 32 17 -19 20 -21 -22 -23 -24 39 49 34 -28 28 -30 -31 52 41 57 36 -36 -37 -38 -39 40 -41 -42 -43 -44 -45 -46 51 -48 -49 -50 -51 -52 -53 54 -55 -56 -57 -58 -59
leaf_value=0.07556617712687741 0.05019309525606213 0.59881420148463949 0.12223576682459703 -0.12606408314529968 -0.064792721001194195 0.16717776026042724 0.043799778802772603 -0.025156359751735743 0.12365820511742087 0.0025323231437294168 0.15059287237178265 -0.14538868777124805 -0.21042919238094016 0.00023713068386815926 0.08750641329943043 0.26356506517717015 0.11224106361080007 -0.0060434977038623383 0.11142303856467484 0.095321520599693718 0.14704888354045362 0.13664617242699559 0.19293794067830497 -0.13298733262747969 0.10487119164461878 0.065298551420806261 -0.040542874842013354 -0.055855253341592227 0.10664434336866738 0.24639587714500621 0.27528311836254199 -0.10786149389900419 -0.15644610894959896 0.4767063447004774 -0.10096527286406481 0.18068826476280453 -0.02347394854182135 -0.041042636709562957 -0.18247488025994996 0.20426846179107822 0.16581065623919294 0.11107853718906245 0.24983250181908581 -0.10607970473033956 -0.14662023975919924 0.10318572277079635 -0.17914941587499852 0.069043222651927624 0.056932432248229192 0.33369856329870495 0.087481951061415042 0.18622268767078862 0.21293757875998154 0.17913506785762517 0.073827714046242957 -0.14726061457531614 -0.14176374734989117 -0.13367419523149257
leaf_weight=59240.076995005831 189.40636221319437 7.1748200803995124 2292.9469141215086 198.79609700292349 1129.4205897077918 1680.0358289442956 1979.2727637961507 912.37557693570852 226.92080520093441 76.793997032567859 312.77069913037121 262.47842375561595 13.74717680364847 33.036708489060402 274.07503020018339 12.917323082685469 2413.2197367250919 498.30920533835888 17798.149218156934 1828.7789326012135 4021.8883652500808 603.41195333376527 1219.0628612115979 16.83268341422081 10.765351846814157 1311.7376550249755 161.16698268428445 221.31606892496347 210.23156651109457 24.645085167139769 49.183104619383812 162.09422580339015 12.050585106015204 12.90380948781967 90.444315284490585 390.52755708992481 23.397233672440052 674.01925961300731 26.621773883700371 209.92058245837688 14.930890142917631 28.966383833438158 6.4385503083467475 325.60398281179368 164.97659835591912 36.072955146431923 15.325824797153471 12.873739227652548 54.997951233759522 16.580522775650024 28.989612594246864 196.17556077241898 19.322322845458984 97.502178713679314 20.974714703857899 46.973705850541592 6.4320961683988562 101.07758017629385
leaf_count=179857 505 5 3775 1340 5995 2305 6677 4922 250 1460 234 1575 63 97 477 16 5055 1519 23031 4852 1913 1385 1292 115 31 2638 1390 703 396 15 35 2833 53 19 356 489 127 3512 108 373 12 92 4 3636 1650 47 64 46 236 13 53 112 3 27 44 232 34 546
internal_value=0 0.0762376 0.0779781 0.114945 0.0743373 0.0771078 0.0300916 0.0740384 0.0196502 0.107711 0.0389808 -0.00984763 0.111053 0.0622688 -0.0350517 0.11596 0.121947 0.0919966 0.117214 0.129727 0.11799 0.0654922 0.146777 0.0972015 -0.0732602 0.0790032 -0.0132931 -0.0407637 0.0233076 -0.0615124 0.0973896 0.0643596 -0.0609933 -0.0792908 0.0545741 0.138069 0.154323 -0.0702884 0.119192 0.179233 -0.0686456 -0.0746684 -0.0800734 -0.0853521 -0.122118 0.138188 0.104501 -0.114198 0.136586 0.243615 0.141758 0.173325 0.196106 0.211373 0.140531 -0.161562 -0.174553 -0.1361
internal_weight=0 76595.6 74310 6662.55 67647.4 63661.3 3986.18 60152.5 2285.62 25431.5 1179.29 1763.14 24252.2 2216.43 1403.5 22035.8 6423.54 2911.53 21880.8 3508.81 21820 2582.68 3512.01 395.095 239.016 1982.12 168.342 1368.05 431.548 433.482 745.812 558.829 155.035 234.314 1402.18 579.934 36.301 936.498 522.48 226.753 47.9848 191.061 408.837 402.398 198.013 474.495 242.247 211.67 367.769 27.3459 41.9069 232.249 186.982 146.685 40.297 60.7209 33.0539 113.128
internal_count=268644 228237 219541 13071 206470 191936 14534 184779 8696 40407 8619 8069 31788 5881 6472 25907 11641 6574 25239 7157 24944 8062 5067 1883 1430 3988 1395 6186 1099 5115 3504 3395 668 1893 2994 994 146 5087 627 488 154 2925 5100 5096 1747 473 314 1386 470 44 69 159 109 62 47 295 142 599
is_linear=0
shrinkage=0.1


Tree=9
num_leaves=59
num_cat=0
split_feature=108 30 102 72 56 97 95 131 75 43 121 61 68 34 69 4 101 102 79 5 100 131 71 70 101 74 62 129 71 125 107 56 115 70 56 3 108 132 38 111 78 103 16 36 74 115 31 40 70 131 50 38 106 34 68 46 70 37
split_gain=1815.75 953.726 1023.09 1146.72 1078.64 1052.47 1023.02 1040.7 1085.86 975.806 880.718 734.186 687.926 788.138 621.745 600.008 852.361 627.205 553.078 540.645 901.347 552.781 535.824 490.073 644.901 1406.38 600.414 473.625 462.196 448.659 443.382 515.1 405.373 385.649 350.792 264.091 261.863 251.163 245.688 226.156 208.085 185.892 155.809 138.88 124.172 111.846 109.36 98.8967 92.6542 69.6369 49.2747 31.8234 99.11 27.399 22.2877 7.70552 7.61919 3.55919
threshold=-1.0287097692489622 1.0556573271751406 -0.8185046613216399 -0.60465109348297108 0.93843215703964245 -0.93301585316658009 -1.0478388071060178 1.0000000180025095e-35 -1.1128396987915037 1.0523010492324831 -1.6365540027618406 0.62955582141876232 0.027762092649936679 0.90911146998405468 0.010200234130024912 0.58535808324813854 -0.88111224770545948 -0.83028629422187794 -1.4276389479637144 0.64822980761528026 -0.95362490415573109 1.0000000180025095e-35 -0.45073960721492762 -0.10757162049412726 -0.57191032171249379 -0.50101909041404713 0.7446088194847108 1.0000000180025095e-35 -0.44135943055152888 -1.2528487443923948 -0.97568070888519276 0.94568729400634777 -1.4354447126388548 -0.15425795316696164 0.95362368226051342 0.63384026288986217 -1.0600174665451048 1.0000000180025095e-35 0.99568128585815441 -1.2590588331222532 -1.3638475537300108 -0.84676358103752125 0.67852208018302929 0.89121121168136608 -1.0260404348373411 -1.2714310884475706 0.87254542112350475 1.0768232941627505 -0.15425795316696164 1.0000000180025095e-35 1.1859949827194216 0.99169287085533153 -0.90922522544860829 0.84454488754272472 0.17841097712516787 1.2256919741630556 -0.10216891020536421 0.94737443327903759
decision_type=2 2 2 2 2 2 2 2 2 2 2 2 2 2 2 2 2 2 2 2 2 2 2 2 2 2 2 2 2 2 2 2 2 2 2 2 2 2 2 2 2 2 2 2 2 2 2 2 2 2 2 2 2 2 2 2 2 2
left_child=23 2 12 4 9 -6 19 8 27 -4 37 -10 13 18 -12 17 -17 -9 -2 29 35 -22 -15 24 25 30 49 -8 34 40 31 -1 43 -32 -14 -21 38 -5 -27 53 -3 -30 -38 48 -31 47 57 -41 -26 51 -45 52 -25 54 -28 -55 -53 -34
right_child=1 6 3 10 5 -7 7 15 11 -11 14 -13 28 22 -16 16 -18 -19 -20 20 21 -23 -24 26 32 36 39 -29 41 44 33 -33 46 -35 -36 -37 42 -39 -40 45 -42 -43 -44 50 -46 -47 -48 -49 -50 -51 -52 56 -54 55 -56 -57 -58 -59
leaf_value=0.080553278600282122 -0.076296603654387049 -0.029565844467337052 -0.030816395927686247 0.012846885330365524 0.08489641896516241 -0.035215897787940757 -0.06458291374332438 0.14973666110255154 0.053718023553426676 0.17158956068962103 0.071933658069390227 0.0090234032732963623 0.029813848751177166 -0.10118395468188278 0.13255406190836558 0.098027146564658676 -0.044981982366457909 -0.072680198133464338 0.092733406419061512 0.19221298167939335 0.065597570650482093 -0.043326720524419979 0.060929510023187305 0.048765077236768983 0.13551183409322834 0.02865658342101279 0.13545689564537725 0.079968257838392259 -0.008758643000561641 -0.12001364535042183 0.068142409183576877 0.1159182816290848 -0.13100050915121997 -0.15592502594989541 0.23357063728812755 0.10768724532964538 0.19730263666830475 -0.14247366617486146 -0.10956599331690034 -0.1254552262982159 0.19716641227523699 0.11847974171934664 -0.15893863995186386 0.058004840253530254 0.15508410557435523 0.21452218932184289 0.12213590843426991 0.03645438539397549 -0.15449064435358392 0.23925398355216992 0.1472205736980266 -0.15978024567191235 -0.1143048664550288 0.19055552427127861 -0.12754223573641674 0.13854350207347066 -0.10872285491636846 -0.20211120093097332
leaf_weight=6618.0212643444538 196.93671405501664 42.636030256748199 347.30471041984856 195.97634163498878 983.39369698986411 2825.7415858823806 1335.1657872647047 1811.7614030465484 18676.343446016312 758.10678323358297 21119.163940835744 4575.7992177158594 98.938717916607857 367.72261166572571 1839.2448344938457 1431.1081331968307 588.01095498353243 136.32694117352366 11355.161650193855 463.25241661071777 1792.4274868518114 629.55423088371754 457.60359052568674 51.806701257824898 19.197253093123436 681.3241892978549 6.0458583980798704 273.01834541931748 118.03761332109571 66.088725715875626 208.45978283882141 10904.929346129298 57.101674795150757 121.63177844882011 578.73512280732393 1829.1292498484254 13.285952404141424 222.10174856707454 158.51369384676218 65.142193662002683 799.54875883460045 4214.5975740645081 161.72908483445644 62.968731671571732 21.826707504689693 20.947409301996231 21.111511081457138 89.636713730171323 25.854226179420948 6.3872718811035147 3672.0180705189705 60.705491904169321 132.8360201139003 31.609666252508759 6.8993627615272999 288.01245762780309 56.365342440083623 8.0280732810497266
leaf_count=12922 3523 170 3175 654 2190 14721 7766 3378 66955 1533 53393 19029 375 1915 2080 3394 2952 799 21495 335 5125 3424 1167 336 8 1437 2 712 297 308 400 10014 338 515 840 3684 11 3481 637 1019 909 4916 800 120 21 17 17 366 156 2 1046 309 2090 31 98 202 1002 33
internal_value=0 0.0671961 0.0766723 0.0649396 0.0210306 -0.00420684 0.0546392 0.0470164 0.0394262 0.107996 0.0741708 0.0449225 0.0957622 0.083107 0.0767901 0.0945795 0.0563798 0.134172 0.0898518 0.0935707 0.079824 0.0372845 -0.0112999 0.09878 0.101514 0.0938895 0.0226564 -0.0400427 0.127025 0.163248 0.100399 0.102562 0.13872 -0.0144217 0.203823 0.124768 -0.0206207 -0.0696663 0.00256801 0.0894238 0.185688 0.115013 -0.131895 0.143611 -0.0517153 -0.00233939 -0.0756533 -0.0316889 -0.0309153 -0.0874941 0.145716 -0.0944114 -0.068551 0.137911 -0.0047127 0.143687 -0.135198 -0.139766
internal_weight=0 80150.8 45678.8 28291 4914.55 3809.14 34472 28827.5 24860.3 1105.41 23376.5 23252.1 17387.7 12377.4 22958.4 3967.21 2019.12 1948.09 11552.1 5644.46 4714.36 2421.98 825.326 23550.6 22734.2 18867.9 816.394 1608.18 5010.31 930.1 17853 17523 3866.28 330.092 677.674 2292.38 1014.85 418.078 839.838 508.294 842.185 4332.64 175.015 3780.04 87.9154 175.726 86.2413 154.779 45.0515 308.101 3734.99 301.714 184.643 332.567 12.9452 319.622 117.071 65.1297
internal_count=268644 234716 115755 81227 21619 16911 118961 104985 94462 4708 59608 85984 34528 28100 55473 10523 6346 4177 25018 13976 12568 8549 3082 33928 28454 26736 5474 8478 6428 1408 23851 22936 1718 915 1215 4019 2885 4135 2074 1735 1079 5213 811 1330 329 1402 388 1385 164 3739 1166 3737 2426 333 100 233 1311 371
is_linear=0
shrinkage=0.1


Tree=10
num_leaves=61
num_cat=0
split_feature=132 54 134 33 109 80 32 44 93 74 96 135 97 4 106 103 74 2 131 62 106 72 102 56 105 80 51 71 70 44 54 49 28 113 30 105 77 104 45 71 55 105 38 82 82 70 37 103 0 38 62 68 81 36 71 9 103 107 103 100
split_gain=1746.02 830.707 1072.55 822.27 1167.13 1754.02 751.668 934.17 719.975 986.819 1715.06 1123.28 1674.99 969.398 807.939 608.07 1162.63 578.433 537.776 483.076 483.259 645.197 482.109 477.311 436.413 410.581 357.748 335.452 332.115 276.119 263.609 262.025 252.291 238.852 199.419 171.66 169.16 158.959 152.713 124.626 124.285 89.8886 84.2653 82.6085 66.0832 299.146 56.9544 50.4207 45.3138 39.6706 34.5451 49.7817 1.29472 0.934376 0.845115 0.572831 0.517146 0.474202 0.450123 0.150608
threshold=1.0000000180025095e-35 1.0655763745307925 1.0000000180025095e-35 0.88444635272026073 -1.1223106384277342 -1.1544865369796751 0.88071477413177501 1.1985091567039492 -1.1153194308280943 -0.95254161953926075 -0.9404841661453246 1.0000000180025095e-35 -0.86676767468452443 0.57440900802612316 -0.89766207337379444 -0.68410870432853688 -0.50101909041404713 0.74494343996047985 1.0000000180025095e-35 0.65412685275077831 -0.83380103111267079 -0.53682154417037953 -0.89201608300209034 0.9955396056175233 -0.92990356683731068 -1.3059104084968565 1.1326531171798708 -0.39334258437156672 -0.20431394875049588 1.1868036985397341 1.026070296764374 1.1966832876205447 1.0601265430450442 -1.0930094122886655 1.0662335157394411 -0.85135096311569203 -1.1159001588821409 -0.88506147265434254 1.1912133693695071 -0.21403807401657102 1.0300048589706423 -0.92990356683731068 0.93456315994262706 -1.1979144811630247 -0.7105078101158141 -0.22666043788194654 0.92783576250076305 -0.95960932970046986 -0.39615994691848749 0.99297314882278453 0.69186940789222728 0.1344222500920296 -1.2846274375915525 0.94701573252677929 -0.44135943055152888 0.47609056532382971 -0.81105926632881153 -0.94420999288558949 -0.79769781231880177 -0.84033495187759388
decision_type=2 2 2 2 2 2 2 2 2 2 2 2 2 2 2 2 2 2 2 2 2 2 2 2 2 2 2 2 2 2 2 2 2 2 2 2 2 2 2 2 2 2 2 2 2 2 2 2 2 2 2 2 2 2 2 2 2 2 2 2
left_child=1 8 19 4 15 34 7 -7 17 10 13 12 -11 -10 -13 16 26 18 30 20 21 -3 -12 32 -8 -20 -2 54 -25 -18 -1 49 -21 48 43 37 -35 41 53 -33 -22 55 -43 -6 46 -46 -39 -36 -29 -17 -40 -52 59 57 56 -5 -4 -37 -56 -19
right_child=3 2 27 35 5 6 24 -9 9 11 22 14 -14 -15 -16 31 29 52 25 23 40 -23 -24 28 -26 -27 -28 33 -30 -31 -32 39 -34 36 47 38 -38 44 50 -41 -42 42 -44 -45 45 -47 -48 -49 -50 -51 51 -53 -54 -55 58 -57 -58 -59 -60 -61
leaf_value=0.095334713963600659 0.032994405499134086 0.066525938058727127 -0.12908314941556978 -0.14097661164528752 0.15034371718536263 -0.072905006280785833 -0.10676548482579357 0.086157071455142675 0.08408186542200928 0.075183717897451707 0.054752942069016736 0.12284792189973102 0.031343070782974672 0.033199144696331472 -0.058027403383879753 -0.14280870092641818 0.0083323947830278421 -0.1047278082550015 0.010377685296694921 0.10526678807751411 0.094737734441331739 0.17686198138641787 -0.075353944552290664 0.033498947092944147 0.056673608948852809 0.10963384871662654 0.11839860738888366 0.17105330085852949 0.094482664851501419 -0.12000575848565116 0.15038434572142884 0.13656810342968104 -0.027280589189690896 -0.13249147364069097 0.14935298661578564 -0.22150083756955588 0.15652951178010796 0.10953736665588619 0.15415663501281135 -0.039562805972128093 0.17950746954779473 -0.095074710423064646 0.12860586890023482 0.10462336654318685 -0.044719012382697716 0.11784987478999261 0.13779037554664897 -0.11629927835294836 -0.10655369759798985 0.1235687929526061 0.09556273706102543 -0.20723553482467905 -0.15323748354656341 -0.18763552342877396 -0.1348431910203331 -0.17864269700745899 -0.11148734939794809 -0.2533019417962632 -0.12470080769273516 -0.13045373326858029
leaf_weight=3659.1484556756914 590.1840645968914 2119.685692448169 22.469068363308907 5.0912780538201359 1232.8378112763166 1439.9686102159321 173.14583593606949 496.54744292423129 4775.8485930599272 20037.598256561905 344.53965869545937 3858.0534197129309 15422.294560194016 17333.622815418988 263.84502125903964 39.565452738665044 690.79372874461114 143.08787757717073 1200.8251319304109 185.94161660224199 203.55328676104546 706.661077670753 1642.6400594040751 1075.5792998485267 2895.1021751090884 638.27859431505203 2903.2255178242922 6.2809267044067374 5261.3016959354281 221.3630587104708 1141.1371779739857 3825.1729137636721 630.64777161553502 24.036971017718315 8.6905010193586332 13.622855711728338 128.56018027663231 933.77089174836874 25.800122290849686 40.599655276164412 1150.6523230373859 25.992098771035671 47.841508187353611 581.63453581184149 117.89792979508638 2834.4952993094921 3024.7717453688383 40.166414968669415 92.091283433139324 6.5108095705509177 15.10289813578129 8.4770596921443921 5.8199748396873465 5.9963451623916617 62.085668511688709 19.509878486394882 65.088071394711733 7.1500172615051278 148.22510828450322 2.312428578734397
leaf_count=7434 1113 5518 132 26 516 9206 794 1581 11711 50729 905 7144 48349 65420 1342 397 1847 3915 5009 340 383 862 9003 3271 4731 1016 2011 1 8378 1375 1310 1443 1934 134 26 57 155 646 8 585 1190 89 44 492 285 1323 1291 398 470 18 13 38 28 28 329 87 758 30 963 13
internal_value=0 0.059572 0.0840303 0.0911316 0.0780063 0.0474977 0.0166621 -0.0321195 0.0554477 0.0521469 0.0361921 0.0618599 0.0561164 0.0441903 0.11127 0.103199 0.0777203 0.0864006 0.0908053 0.0906414 0.117647 0.0941129 -0.0527959 0.074859 0.0474505 0.0448255 0.10397 -0.0524965 0.0841317 -0.0228128 0.108421 0.131893 0.00290113 0.0326752 0.13032 0.119261 0.111003 0.120884 -0.0300716 0.134718 0.166766 -0.00529834 0.0498622 0.135688 0.122681 0.111358 0.131126 -0.069046 -0.0888289 -0.105168 0.0741956 -0.0132941 -0.106988 -0.222409 -0.124258 -0.170848 -0.116003 -0.232447 -0.127695 -0.105137
internal_weight=0 82351.9 11882.9 22271 15185.5 6868.09 5004.76 1936.52 70469.1 63678.4 24096.7 39581.8 35459.9 22109.5 4121.9 8317.42 4405.57 6790.61 6639.39 11334 4180.55 2826.35 1987.18 7153.47 3068.25 1839.1 3493.41 548.837 6336.88 912.157 4800.29 3911.85 816.589 250.969 1863.33 7085.52 152.597 7009.37 76.1493 3865.77 1354.21 98.4348 73.8336 1814.47 6910.94 2952.39 3958.54 48.8569 98.3722 46.0763 49.3801 23.58 151.22 26.7692 297.868 24.6012 87.5571 20.7729 210.311 145.4
internal_count=268644 238146 24818 30498 26533 17744 16312 10787 213328 194603 87039 107564 99078 77131 8486 8789 6346 18725 14769 21876 7953 6380 9908 13923 5525 6025 3124 2942 11649 3222 8744 2443 2274 760 1432 3965 289 3791 174 2028 1573 246 133 1008 3545 1608 1937 424 471 415 59 51 3956 115 2182 113 890 87 1292 3928
is_linear=0
shrinkage=0.1


Tree=11
num_leaves=58
num_cat=0
split_feature=132 33 109 81 78 112 69 42 136 63 69 107 41 86 105 74 104 100 37 52 31 51 112 44 4 49 30 64 105 126 106 38 18 33 105 112 77 38 81 106 135 69 27 127 29 27 127 27 21 9 108 40 13 105 9 36 32
split_gain=1739 744.466 1031.5 1385.52 713.612 820.724 713.735 1265.28 1189.06 813.631 763.804 604.264 676.724 559.553 553.332 870.065 491.535 367.919 348.118 537.997 638.363 309.338 272.208 254.989 246.438 240.664 218.776 188.591 184.839 178.17 176.673 254.883 236.355 175.066 153.938 146.611 209.152 144.967 131.829 123.155 113.242 167.279 161.556 103.089 96.1953 84.4833 137.967 70.4205 56.7541 54.4182 43.3112 37.6602 4.33606 1.19353 0.381088 0.141247 0.0976439
threshold=1.0000000180025095e-35 0.88444635272026073 -1.1246065497398374 -1.1376168131828306 -0.86165672540664662 -1.1736761331558225 -0.10140579193830489 1.0711107254028323 1.0000000180025095e-35 0.52579686045646679 -0.084837377071380601 -0.99372035264968861 1.1034689545631411 -1.1978413462638853 -0.83224561810493458 -0.50101909041404713 -0.89248165488243092 -0.83196142315864552 0.92868751287460338 1.0818406939506533 0.95457270741462719 1.1311860680580141 -1.2242060899734495 1.1868036985397341 0.65771409869194042 1.1966832876205447 1.067378878593445 0.39153771102428442 -0.92990356683731068 -2.200763344764709 -0.90552017092704762 0.79357159137725841 1.1176877021789553 0.87826666235923778 -0.85408785939216603 -1.1777411699295042 -0.86629411578178395 0.99429437518119823 -1.1931605935096739 -0.96010354161262501 1.0000000180025095e-35 -0.087150931358337388 1.0394431352615359 -3.3060995340347286 1.1625418066978457 1.236142694950104 -1.9085701704025266 1.2438284754753115 1.1039213538169863 0.26088127493858343 -0.8947261869907378 1.0660133957862856 1.0933502912521365 -0.85135096311569203 0.47609056532382971 0.87502768635749828 0.92427277565002453
decision_type=2 2 2 2 2 2 2 2 2 2 2 2 2 2 2 2 2 2 2 2 2 2 2 2 2 2 2 2 2 2 2 2 2 2 2 2 2 2 2 2 2 2 2 2 2 2 2 2 2 2 2 2 2 2 2 2 2
left_child=4 2 14 26 5 24 7 8 -7 13 -11 16 -13 -8 15 21 -5 -9 19 20 39 -2 40 -17 35 51 38 -22 54 33 32 -32 -21 -24 45 44 -37 53 -4 -6 42 -42 -20 -27 -1 49 -47 -31 -39 -30 -28 -16 -26 -36 -3 -56 -57
right_child=1 28 3 11 18 6 9 17 -10 10 -12 12 -14 -15 25 23 -18 -19 22 30 27 -23 29 -25 52 43 50 -29 34 47 31 -33 -34 -35 37 36 -38 48 -40 -41 41 -43 -44 -45 -46 46 -48 -49 -50 -51 -52 -53 -54 -55 55 56 -58
leaf_value=-0.14610386285623936 0.022028302762387604 -0.13565929257022077 0.13725439967011066 -0.12275248904022551 0.0050253009884901447 0.052322012611484905 0.084724738982694961 0.047171895462856391 0.0024362388905526371 0.011204619395189642 0.065781141421544648 -0.028546626831263557 0.075680525063832674 0.17512633127477428 -0.14437219253898539 0.012313254458614553 0.086154432234672756 -0.077159710859200453 0.062443641739358957 0.18951076058200494 0.096907477769522368 0.110575892548228 -0.14331060871885704 -0.11737325703220509 0.18248844367611036 -0.03168296571041667 -0.11192820054419217 -0.044411853997049146 -0.04618880471562109 -0.16004707765092452 0.18460129455626306 0.016883999658252782 0.11781991415150497 0.092650911153264154 -0.25919803587853546 -0.098026533781586239 0.13313090571589201 -0.089102335288788831 0.085749875282989094 -0.12912001966647307 0.10900481887527383 -0.084242917856412775 -0.093461576215471701 0.13042967457033436 0.090206917623704322 -0.2291930364373489 0.10595030336288054 0.1740504978710935 0.10376686381538627 0.11643506712741024 0.13069988877455216 0.12358537103584322 0.12069508470992306 -0.20586085609791521 -0.14689088363493005 -0.16318926577141032 -0.17835703176607864
leaf_weight=304.09489560872316 467.26374992728233 4.7778797969222095 1306.6289440244436 122.37469461560249 113.62444553896785 46082.535347711295 2296.0674459096044 305.36917234584689 5330.7602930814028 2983.873304143548 18236.849077988416 2802.5390558121726 800.98834592662752 975.60656059905887 37.72490391600877 647.38781799841672 1414.2002750486135 1078.9398721363395 93.622484967112541 776.91060552000999 1395.4046811833978 2534.5628418177366 32.466788791120052 197.97520767711103 21.8496013879776 39.660216528922319 50.862087946385145 101.2862845659256 20.641083665192127 41.769155859947205 137.63168707489967 265.23118772730231 1126.9294243603945 996.79324959218502 5.3477840274572399 114.13499036431313 59.572441622614861 20.03909520804882 801.98331486433744 172.09669492207468 139.10079151391983 66.068486586213112 229.14854457974434 3584.7757032159716 18.260503977537155 18.704755306243896 35.779108762741089 7.4313164055347434 63.935000598430634 6597.8077930808067 8.6015091091394407 6.092063818126916 23.643732294440269 19.469132155179977 2.9459001123905209 8.6743345484137553 8.3104943782091123
leaf_count=1312 908 26 592 525 282 139671 4524 828 21924 9998 40557 12142 1866 979 339 1696 1989 5672 253 589 2582 1774 162 1396 19 213 557 309 45 192 89 930 1696 1719 23 429 79 62 880 1936 146 243 971 1629 27 81 39 6 51 3464 11 16 22 82 20 38 34
internal_value=0 0.08461 0.0720388 0.0452884 0.0527953 0.050295 0.0511545 0.0446095 0.0471496 0.0652636 0.0581071 0.0170102 -0.00537912 0.111682 0.0980515 0.0715559 0.0695168 -0.049733 0.0869641 0.10246 0.0611961 0.0967926 0.0475197 -0.018058 -0.0723813 0.125839 0.112331 0.0873439 0.111989 0.0763212 0.134344 0.0741819 0.147075 0.0852078 0.112983 -0.0928099 -0.0187518 -0.00501202 0.117665 -0.0757736 -0.0113149 0.0467753 -0.0482399 0.128656 -0.132718 0.114907 -0.00910714 -0.109584 0.0577417 0.115928 -0.0768316 -0.107117 0.150373 -0.217354 -0.161024 -0.167105 -0.170611
internal_weight=0 21630.1 14823.6 7308.18 83527.1 77831.6 77290 52797.6 51413.3 24492.4 21220.7 5140.1 3603.53 3271.67 7515.44 3847.19 1536.57 1384.31 5695.52 4089.12 1782.41 3001.83 1606.4 845.363 541.556 3668.25 2168.08 1496.69 6806.43 1078.46 2306.7 402.863 1903.84 1029.26 6781.72 496.063 173.707 108.791 2108.61 285.721 527.94 205.169 322.771 3624.44 322.355 6672.93 54.4839 49.2005 83.9741 6618.45 59.4636 43.817 45.4933 24.8169 24.7086 19.9307 16.9848
internal_count=268644 30498 26533 18562 238146 226041 224153 168095 161595 56058 50555 16522 14008 5503 7971 5774 2514 6500 12105 8413 5109 2682 3692 3092 1888 2197 2040 2891 3965 2079 3304 1019 2285 1881 3847 1847 508 218 1472 2218 1613 389 1224 1842 1339 3629 120 198 113 3509 568 355 41 105 118 92 72
is_linear=0
shrinkage=0.1


Tree=12
num_leaves=60
num_cat=0
split_feature=132 33 109 80 55 96 72 103 95 72 102 100 135 53 131 5 32 41 105 77 130 39 100 51 134 74 31 105 98 131 69 103 43 70 28 81 51 105 122 105 32 30 57 39 71 131 50 57 33 38 109 37 107 81 123 4 9 67 32
split_gain=1694.84 680.297 921.025 1182.92 659.733 1318.77 1112.95 775.531 712.624 866.238 2075.94 1198.17 1191.52 926.883 606.976 587.912 557.509 798.353 522.965 759.11 500.075 467.905 447.58 491.109 427.755 426 412.097 408.196 385.469 382.202 286.438 278.725 277.425 257.804 249.525 228.914 202.776 157.12 156.655 134.087 125.989 123.384 121.427 112.889 108.206 93.3528 90.8873 87.2799 58.0717 53.2609 48.5902 45.6178 39.8893 37.2246 0.823862 0.490992 0.243427 0.0838647 0.039797
threshold=1.0000000180025095e-35 0.88444635272026073 -1.1246065497398374 -1.1610623598098753 1.0197353363037112 -0.89150360226631153 -0.53682154417037953 -0.7546347677707671 -1.0494149327278135 -0.65192627906799305 -0.84752458333969105 -0.86115744709968556 1.0000000180025095e-35 1.0358678698539736 1.0000000180025095e-35 0.63631141185760509 0.88319197297096264 1.1034689545631411 -0.83357003331184376 -0.49418720602989191 1.0000000180025095e-35 1.0001345276832583 -0.95362490415573109 0.87940660119056713 1.0000000180025095e-35 -0.925341635942459 0.98788693547248851 -0.93292060494422901 -0.7588752508163451 1.0000000180025095e-35 -0.2497792840003967 -0.77434358000755299 1.1728318333625796 -0.29569491744041437 1.1578831672668459 -0.92585998773574818 1.1617020368576052 -0.92990356683731068 -1.0444945096969602 -0.85458117723464955 0.97279977798461925 1.0636554956436159 0.95066368579864513 1.0235546827316286 -0.219759926199913 1.0000000180025095e-35 1.1762059330940249 0.80183982849121105 0.92877644300460827 0.99039337038993847 -0.92128509283065785 0.91468119621276867 -0.96951881051063526 -1.2106562256813047 -2.2108389139175411 0.59367945790290844 0.47609056532382971 0.015568968374282123 0.92427277565002453
decision_type=2 2 2 2 2 2 2 2 2 2 2 2 2 2 2 2 2 2 2 2 2 2 2 2 2 2 2 2 2 2 2 2 2 2 2 2 2 2 2 2 2 2 2 2 2 2 2 2 2 2 2 2 2 2 2 2 2 2 2
left_child=4 2 18 41 8 20 7 14 15 10 13 24 -13 -10 -7 30 17 -5 19 32 25 35 23 -17 -11 26 -6 -18 -23 -24 55 34 -2 -12 -22 -8 54 56 -32 47 -27 50 -33 -21 -38 -9 48 51 -41 -49 -4 -39 -48 -43 -20 -1 -3 -58 -59
right_child=1 37 3 16 5 6 21 45 9 11 33 12 -14 -15 -16 22 27 -19 36 43 31 28 29 -25 -26 40 -28 -29 -30 -31 38 42 -34 -35 -36 -37 44 39 -40 46 -42 53 -44 -45 -46 -47 52 49 -50 -51 -52 -53 -54 -55 -56 -57 57 58 -60
leaf_value=-0.1487569071540934 0.084683385619682652 -0.13118763613389797 0.10991584564358631 -0.05492017423733421 0.10311358074397203 0.013293411448729503 -0.10372637840454807 -0.12140537492990676 0.02291569505470363 0.079229435178127153 -0.071893031427053153 0.034062789298731258 0.10700513749353857 0.072721434003548094 0.15769245140459998 -0.10779921427318957 -0.1317299526198728 0.069017289294551462 -0.11922973523457719 -0.02079963795602096 0.16306360312380125 0.080403282394729825 0.055936760328401197 0.099542415743369042 0.17535790577445748 0.11860781389599424 0.015377939129780633 0.054421214583852809 0.017182242730284437 -0.022440718189233759 0.17320495980822626 -0.11288224055785737 -0.16332980381498033 0.024399580281879833 -0.08457772100172839 0.15107606466320481 0.12383141707854312 -0.23835738723242639 0.088004907523701992 -0.20139543322550915 -0.16561468400682039 0.056518818757462175 0.074279032450045704 -0.1289486861102252 -0.0082088623099072812 0.24962312983482318 0.094117436971662388 0.10162693723809264 0.12379931823441213 0.12039212297293783 0.14960590078371847 0.095089315357404586 -0.078654503808596246 -0.11306889300620022 -0.15391430499897557 -0.18192449491193496 -0.14060799234028215 -0.15464956929543747 -0.1644900920755055
leaf_weight=26.714292284101248 3262.9519585706294 4.4628694579005268 1196.0614823102951 1685.5859990539029 922.78317439556122 4567.2851276490837 36.752452313899994 436.46924176439643 16120.959452131763 6371.2892499640584 2288.2557088267058 27764.567206673324 2435.9212217889726 4863.8538336232305 310.91689006611705 119.57742768339813 122.61119452863932 751.45114291831851 10.751823383383455 239.27391031943262 1674.3999913670123 3343.6387248151004 2290.7284797132015 2557.6725628599524 499.17156474292278 1945.0011383369565 1275.1567227765918 3000.5885858610272 1355.3480798900127 854.16836994513869 760.48219153285027 45.472855977714062 45.734157454222441 316.49408607184887 41.701407946646214 867.48395531624556 3443.6041933130473 11.029113508760931 301.31023248285055 27.593022078275681 15.722215585410593 23.713447116315365 145.83625014126301 161.7723577003926 63.202657291665673 6.8883203938603392 63.157944407314062 3891.3301928192377 6.8556844592094413 2474.2422269061208 415.63866429030895 6.5331140756607047 16.949419017881155 28.497722327709198 18.862775910645723 5.3584540784358969 2.6480689644813564 7.8804935291409519 8.5889433175325376
leaf_count=128 3256 26 705 10054 1217 15094 135 2128 58363 13240 14098 80633 3708 10221 463 3184 664 1826 198 712 1609 5556 6334 4047 736 2361 3164 4721 3758 4050 621 182 189 1236 185 827 1367 49 556 116 82 114 187 1504 631 20 52 2694 9 873 154 5 49 324 114 23 19 36 37
internal_value=0 0.0786307 0.0665455 0.0412783 0.0468848 0.0644994 0.0437396 0.0109881 0.042456 0.0389885 0.0240082 0.0485211 0.0399462 0.0344597 0.0224968 0.0728688 0.0191421 -0.0167045 0.091736 0.0655063 0.101887 0.0748447 0.0602311 0.0902817 0.0862136 0.0824422 0.0522129 0.0471133 0.0621682 0.0346491 0.140134 0.144283 0.0812552 -0.0601929 0.157046 0.14072 0.119251 0.105447 0.149027 0.106382 0.116329 0.11525 0.0297921 -0.0644243 0.121452 -0.115641 -0.00084905 0.108307 -0.136678 0.108921 0.120151 -0.114316 0.0575617 -0.036045 -0.141322 -0.154298 -0.152217 -0.157126 -0.159781
internal_weight=0 20991.6 14470.3 7224.15 84567.4 16990.9 10924.8 5321.56 67576.5 60660.5 23589.6 37070.9 30200.5 20984.8 4878.2 6916.01 5560.24 2437.04 7246.15 3709.73 6066.07 5603.22 5822.15 2677.25 6870.46 4158.66 2197.94 3123.2 4698.99 3144.9 1093.87 1907.41 3308.69 2604.75 1716.1 904.236 3536.42 6521.27 1061.79 6497.69 1960.72 1663.91 191.309 401.046 3506.81 443.358 114.556 6383.13 34.4487 6365.57 1611.7 17.5622 80.1074 52.2112 29.6146 32.0727 23.5804 19.1175 16.4694
internal_count=268644 30498 26533 18562 238146 36968 27981 17705 201178 182235 83918 98317 84341 68584 15557 18943 17265 11880 7971 5661 8987 10276 17615 7231 13976 6824 4381 5385 9314 10384 1328 2163 3445 15334 1794 962 2310 3965 1177 3847 2443 1297 369 2216 1998 2148 226 3621 125 3567 859 54 101 438 312 151 118 92 73
is_linear=0
shrinkage=0.1


Tree=13
num_leaves=59
num_cat=0
split_feature=132 33 109 127 69 136 104 99 88 97 45 74 97 74 56 55 95 32 103 74 81 38 34 69 104 70 30 51 109 49 103 58 63 120 67 43 126 39 105 32 105 46 109 45 103 100 30 38 80 30 48 38 62 36 50 9 72 32
split_gain=1618.91 621.602 851.581 1656.99 566.05 1170.03 1173.95 1114.97 683.861 998.486 786.477 636.326 710.033 808.604 722.559 596.107 659.156 569.804 560.957 756.811 560.646 532.561 514.028 623.583 481.425 469.651 304.119 276.971 248.778 236.048 230.971 588.037 203.465 179.035 176.875 173.909 164.547 157.415 134.098 127.527 117.804 103.465 95.726 90.7582 90.2493 75.193 73.4851 58.5748 57.9055 42.157 38.0174 28.3439 27.1937 23.2935 0.538494 0.159244 0.0519499 0.0317979
threshold=1.0000000180025095e-35 0.88444635272026073 -1.1180621385574339 -2.8220864534378047 -0.12536205351352689 1.0000000180025095e-35 -0.8261204957962035 -0.88216251134872425 -0.82754674553871144 -0.95082873106002797 1.0284221172332766 -0.95332878828048695 -0.86676767468452443 -0.91640585660934437 0.97634941339492809 0.99535629153251659 -0.97539749741554249 0.95550367236137401 -0.68410870432853688 -0.50101909041404713 -1.1931605935096739 0.99169287085533153 0.90947049856185924 -0.14750780910253522 -0.84367066621780384 -0.29747876524925226 1.0574067831039431 1.1326531171798708 -1.1017893552780149 1.1966832876205447 -0.82845130562782276 0.85742968320846569 0.49717436730861669 -0.96630471944808949 0.13247060775756839 1.1663342714309695 -2.9895853996276851 0.96399503946304332 -0.92990356683731068 0.95989099144935619 -0.85135096311569203 1.0496583580970766 -1.1159998774528501 1.1912133693695071 -0.83162569999694813 -0.87308388948440541 1.0596247315406802 0.99039337038993847 -1.0099493265151975 1.0558715462684634 1.0498520731925967 0.99297314882278453 0.69186940789222728 0.70446047186851513 1.1780272126197817 0.47609056532382971 -0.63752225041389454 0.92427277565002453
decision_type=2 2 2 2 2 2 2 2 2 2 2 2 2 2 2 2 2 2 2 2 2 2 2 2 2 2 2 2 2 2 2 2 2 2 2 2 2 2 2 2 2 2 2 2 2 2 2 2 2 2 2 2 2 2 2 2 2 2
left_child=4 2 18 21 5 6 22 30 9 10 -7 15 14 -14 -13 33 -17 25 19 27 49 42 23 -1 -24 -8 -22 -2 -23 51 32 39 46 -9 -34 -21 -31 -33 55 -32 41 50 -4 54 -19 -11 -6 -43 -10 -5 -40 -20 -45 -50 -42 -3 -57 -58
right_child=1 38 3 20 7 8 17 11 48 45 -12 12 13 -15 -16 16 -18 44 29 35 26 28 24 -25 -26 -27 -28 -29 -30 36 31 37 34 -35 -36 -37 -38 -39 40 -41 43 47 -44 52 -46 -47 -48 -49 53 -51 -52 -53 -54 -55 -56 56 57 -59
leaf_value=0.041412648135671082 0.022683166757269727 -0.12739206242158585 -0.036047626842331391 0.12475628337646359 0.1914854730462251 -0.058943085038088094 -0.042105256607944008 -0.11928092132728557 0.31564034141296171 -0.076047302174669013 0.057954972704128818 0.050283222786554997 -0.048622353297092559 0.042516930564039684 0.10066565239469719 0.045879187978241108 -0.079592061451224369 0.042540651137167061 -0.13107057568708991 -0.00047683512653807873 0.047964199328884995 0.047246169718899798 0.032974077885675898 0.082282167627322572 -0.090177897598240339 0.051307854617711104 -0.064480724165518463 0.09227739983893346 -0.16722726051520947 -0.097694204206208654 0.0084711253530238683 -0.17915730739225627 -0.15902197319343314 0.044297082787995878 0.11187156979283841 -0.11126497052958031 0.11673316527740359 0.11461585624529291 -0.24418539498968955 -0.11682933632987313 -0.16740753697499891 0.094884833090673582 -0.13070402676529447 0.13311474754067118 -0.10719657687054336 -0.12468701584295681 0.088214339687634202 0.11498613925549353 0.18189668780063994 0.067704527210646043 0.05108219525362212 0.10555622978818138 -0.020806172120240971 0.088881115408207201 -0.20213277618155906 -0.13495165966733472 -0.14672508238003301 -0.15566818945520017
leaf_weight=37609.102318957448 702.97771184146404 4.1522241011261967 126.1489200014621 1091.6663087904453 524.22409710846841 959.26428816094995 1100.281522475183 440.4253916554153 27.397818297147751 700.09581360965967 1438.7446416392922 7870.0665901750326 1039.7119004018605 15280.532551370561 4459.4733487553895 2235.9142842367291 515.16677499562502 42.743104539811611 44.357166992500424 768.61406859196723 2963.4529946148396 397.6359639801085 763.59798652678728 4144.7584520727396 543.26375165581703 1053.6102438960224 261.77387293055654 3065.9295881539583 62.597563216462731 36.152243798598647 285.1645541228354 18.487977348268032 24.643041059374809 78.895352832973003 1099.6834430769086 173.7113269418478 3545.7154957037419 1359.4699749276042 11.634582966566088 113.57818364351988 20.531833037734035 3761.0362848117948 697.96437573619187 23.56953376531601 690.56239887699485 582.08645650371909 79.330676198005676 2358.8270179703832 97.206684682518244 146.95350148528814 6.9748163670301428 5.714223511517047 22.374250117689371 37.236222490668297 5.7069932818412772 2.2718404009938284 8.0953356623649544 7.8127584531903276
leaf_count=107479 1344 26 592 466 363 5896 8059 2607 10 3456 4575 18655 4129 38074 6322 5059 2518 104 538 2249 4801 718 1992 8405 2683 3512 1674 2560 424 355 1646 91 114 255 1289 1227 2127 1802 54 545 92 2710 7134 8 4614 3633 152 900 54 306 9 18 51 53 23 18 39 35
internal_value=0 0.0732485 0.0616174 0.0320008 0.0418397 0.034965 0.0393977 0.0515021 -0.0180476 -0.026895 0.0111928 0.0456237 0.050394 0.0367107 0.0685061 0.00383416 0.0223835 -0.022332 0.0820224 0.0592557 0.0608 -0.0680933 0.0435367 0.0454696 -0.0182203 0.00358925 0.0388377 0.0792967 0.0180751 0.111555 0.105044 0.079727 0.131076 -0.0944301 0.105934 -0.0208999 0.114569 0.110674 0.0995437 -0.0272196 0.100423 0.101917 -0.116215 -0.0265829 -0.0984687 -0.0981288 0.177912 0.102633 0.183137 0.117987 -0.133519 -0.104066 0.0581565 0.156134 -0.17496 -0.145061 -0.149097 -0.151117
internal_weight=0 20324.4 14091.4 5748.19 85214.7 49790 45947.9 35424.8 3842.03 3680.19 2398.01 31920.2 28649.8 16320.2 12329.5 3270.4 2751.08 2887.2 8343.17 4711.23 4463.85 1284.35 43060.7 41753.9 1306.86 2153.89 3225.23 3768.91 460.234 3631.94 3504.58 1776.7 1727.88 519.321 1124.33 942.325 3581.87 1377.96 6232.99 398.743 6210.66 6138.47 824.113 72.1826 733.306 1282.18 603.555 6119.86 161.841 1238.62 18.6094 50.0714 45.9438 134.443 26.2388 22.3322 18.1799 15.9081
internal_count=268644 30498 26533 16115 238146 154525 136848 83621 17677 17560 10471 77619 67180 42203 24977 10439 7577 16289 10418 7380 7247 8868 120559 115884 4675 11571 6475 3904 1142 3038 6002 4084 1918 2862 1403 3476 2482 1893 3965 2191 3847 3673 7726 174 4718 7089 515 3610 117 772 63 556 59 107 115 118 92 74
is_linear=0
shrinkage=0.1


Tree=14
num_leaves=60
num_cat=0
split_feature=132 33 109 79 107 55 111 95 72 101 4 98 61 54 70 134 104 75 42 3 101 77 110 129 105 78 135 104 51 32 51 30 29 37 69 126 124 71 22 33 105 105 62 28 127 78 71 50 38 15 33 114 66 80 108 71 9 10 111
split_gain=1534.37 565.461 742.862 1044.97 550.56 535.83 597.287 549.297 680.509 1508.16 859.137 849.5 1183.07 703.872 582.255 526.732 496.721 659.099 457.655 445.879 424.693 406.47 475.971 390.615 365.832 413.214 332.683 315.019 311.381 278.211 262.267 253.23 220.703 203.054 200.896 151.178 129.742 119.464 255.185 116.726 114.768 106.715 92.6968 76.0187 129.434 74.4771 73.0518 68.2496 57.387 46.5934 43.9793 38.2596 37.617 33.3762 31.8107 0.703125 0.106026 0.0319892 0.0196974
threshold=1.0000000180025095e-35 0.88444635272026073 -1.1223106384277342 -1.0617926716804502 -0.99372035264968861 1.0324541330337527 -0.94453155994415272 -1.0494149327278135 -0.63999110460281361 -0.84403249621391285 0.58024379611015331 -0.8648264706134795 0.65755531191825878 1.0008120536804201 -0.26940605044364924 1.0000000180025095e-35 -0.75006037950515736 -0.51409175992012013 1.1422470808029177 0.58722776174545299 -0.93511247634887684 -1.2220287919044492 -0.90249884128570546 1.0000000180025095e-35 -0.83732178807258595 -1.234444737434387 1.0000000180025095e-35 -0.89248165488243092 0.87940660119056713 0.9654812514781953 1.1326531171798708 1.067378878593445 1.0989417433738711 0.95728445053100597 -0.26575639843940729 -2.9895853996276851 -1.2012770771980283 -0.39334258437156672 1.2405446171760561 0.95468062162399303 -0.92990356683731068 -0.85458117723464955 0.65412685275077831 1.1733151674270632 -1.9725892543792722 -1.2673714756965635 -0.21403807401657102 1.1762059330940249 0.98917517066001903 1.2774082422256472 0.92877644300460827 -1.4413063526153562 0.37282817065715795 -1.3035426735877989 -0.8947261869907378 -0.44135943055152888 0.47609056532382971 0.60680174827575695 -1.1697433590888975
decision_type=2 2 2 2 2 2 2 2 2 2 2 2 2 2 2 2 2 2 2 2 2 2 2 2 2 2 2 2 2 2 2 2 2 2 2 2 2 2 2 2 2 2 2 2 2 2 2 2 2 2 2 2 2 2 2 2 2 2 2
left_child=5 2 16 31 27 7 15 19 9 10 -9 13 -13 -10 -11 24 17 30 -6 34 28 22 45 -22 26 -26 -7 -5 -21 -24 -2 32 -4 -19 49 51 -36 55 -39 42 56 43 -23 48 -45 -8 -37 50 -42 -1 -43 -18 -49 -41 -33 -17 -3 -58 -59
right_child=1 40 3 4 18 6 21 8 11 14 -12 12 -14 -15 -16 37 35 33 -20 20 23 39 29 -25 25 -27 -28 -29 -30 -31 -32 54 -34 -35 36 46 -38 38 -40 53 41 47 -44 44 -46 -47 -48 52 -50 -51 -52 -53 -54 -55 -56 -57 57 58 -60
leaf_value=-0.15763196782192473 0.013793941038348752 -0.12414494198583013 -0.15018500816480204 -0.10824502812930875 -0.044030850540379786 0.079626398420092337 -0.16858561434067132 0.058992262326322278 0.1046795086161577 -0.062774811992204138 0.016872338024688557 0.052380209661972522 0.0076115104404821292 0.048583179097053897 0.15028104677267626 -0.11260307862887203 0.11581980808890142 -0.0057299766355309303 0.067165038227175719 -0.10833667439985416 0.0024989354365405891 0.15588576307021895 0.077149780872567769 0.08834851504243503 -0.12984250443205353 0.029012586368792417 -0.065606137022600333 0.068971158306985234 0.084107094625045231 -0.052700644537970798 0.086851039468098343 -0.11088084794845361 0.092722882175552176 -0.14222176150599602 0.14457285840719014 0.11398522845468284 0.082365793808032522 -0.079226219836445747 0.19577836122655573 -0.17514106816017694 0.089993935701774205 -0.18061414085634475 0.10773551670080937 -0.17285850517817186 0.079469856448298182 0.043249215522934051 -0.034742181169016 0.087084179252230387 0.11038336899740919 0.15036690120370411 0.1118737189949025 -0.1426719093867517 -0.079507583304791796 0.059790863751761895 0.081334743506223287 -0.12513740582277075 -0.15079013375709266 -0.13337151778244299 -0.14237535472310156
leaf_weight=33.294121250510216 591.89718700945377 3.8502574041485813 37.999493762850761 109.56563208252192 2217.447514702566 2565.4426597133279 102.17682744562626 6432.573374196887 2694.8874326050282 2514.6579869221896 19593.380492487922 10942.142344683409 12817.274676013738 13158.452357817441 135.16495042666793 61.801378283649683 7.1101919887587419 551.16970475949347 444.2977767623961 86.957594074308872 2273.5082389693707 540.9242368042469 2354.8289621323347 691.10581377148628 175.74020420014858 2399.3690092414618 168.05826964229345 1186.9839354008436 2539.3643739819527 177.434286005795 2893.5591625459492 73.565697330981493 2389.1543572545052 135.85902199428529 779.59265131503344 2981.3002935508266 588.26565398275852 140.20399001985788 44.436709076166153 16.97328777611256 3383.7551405727863 26.404545912519097 1532.7550211362541 27.761021845042706 75.935319632291794 19.815676182508469 33.395379451103508 58.927067145705223 2331.5388151556253 5.7616009712219229 6.3837001025676718 29.411210673861206 17.603422686457634 9.3940660208463651 9.7510824203491193 162.24375650286674 3.6660012267529991 3.1772301793098476 10.3271236680448
leaf_count=157 1144 26 130 495 11157 4779 477 14738 4853 14815 68529 24328 40425 30218 321 762 42 1775 1132 2503 9791 417 2967 728 733 6299 561 1724 4070 540 2431 932 2157 1301 661 1329 1061 630 53 77 2502 116 1539 102 76 39 429 48 941 1 9 338 53 17 17 1057 18 17 57
internal_value=0 0.0683656 0.0571815 0.0325675 0.000559054 0.0373802 0.058575 0.0344323 0.0316979 0.0199651 0.0272827 0.0401913 0.0282293 0.0581189 -0.051907 0.0367962 0.0792231 0.056799 -0.0254701 0.0611154 0.048453 0.084765 0.0587566 0.022512 0.045218 0.0181714 0.0706974 0.0539954 0.0777353 0.0680512 0.0744445 0.0830356 0.0889199 -0.032721 0.111435 0.109888 0.11782 -0.0725982 -0.013042 0.117637 0.0941062 0.0949332 0.120296 0.0967722 0.0119179 -0.134177 0.112338 -0.00295335 0.0983118 -0.112195 -0.123668 -0.0923473 0.048765 -0.0914404 -0.0883847 -0.12168 -0.139143 -0.142506 -0.140257
internal_weight=0 19641.8 13692.5 6468.77 3958.29 85758 10471.6 75286.4 68288.5 28675.8 26026 39612.8 23759.4 15853.3 2649.82 5717.3 7223.7 4172.49 2661.75 6997.85 5590.94 4754.3 2654.26 2964.61 5308.61 2575.11 2733.5 1296.55 2626.32 2532.26 3485.46 2510.47 2427.15 687.029 1406.91 3051.22 1367.86 408.686 184.641 2100.05 5949.33 5928.31 2073.68 5818.99 103.696 121.993 3014.7 109.319 5715.29 39.0557 32.7882 36.5214 76.5305 26.3674 83.3168 224.045 21.0206 17.1704 13.5044
internal_count=268644 30498 26533 17744 14508 238146 20947 217199 198227 98403 83267 99824 64753 35071 15136 14874 8789 6651 12289 18972 17092 6073 4023 10519 12372 7032 5340 2219 6573 3507 3575 3236 2287 3076 1880 2138 1722 2502 683 2050 3965 3847 1956 3621 178 516 1758 226 3443 158 125 380 101 94 949 1819 118 92 74
is_linear=0
shrinkage=0.1


Tree=15
num_leaves=57
num_cat=0
split_feature=132 33 110 124 82 69 15 102 136 94 20 69 136 55 135 103 74 81 35 84 100 28 105 72 111 56 62 39 126 72 77 104 57 106 49 105 110 117 44 126 106 30 105 110 29 2 51 31 109 107 114 36 24 47 108 107
split_gain=1428.52 520.661 722.181 1244.93 511.368 519.413 1184.98 775.067 684.442 842.693 573.827 964.051 637.682 559.619 529.221 485.133 592.765 462.04 401.326 355.48 310.922 285.759 277.926 256.634 294.226 242.958 457.911 275.754 216.276 203.128 176.656 166.124 161.007 159.438 159.356 151.527 131.417 117.435 110.871 140.55 109.603 98.6096 95.5866 95.3161 92.2987 79.7625 54.5212 44.7022 40.584 37.0863 32.1165 16.1833 6.05953 1.20651 0.966862 0.312596
threshold=1.0000000180025095e-35 0.88173073530197155 -1.1826714277267454 -2.1906874179840083 -0.81032645702362049 -0.1003386080265045 0.9536060392856599 -0.81622368097305287 1.0000000180025095e-35 -1.040702700614929 1.2218043208122256 -0.071876894682645784 1.0000000180025095e-35 1.0071814656257632 1.0000000180025095e-35 -0.68410870432853688 -0.50101909041404713 -1.1931605935096739 0.89608663320541393 -0.89309763908386219 -0.81920588016509999 1.1568226218223574 -0.92713373899459828 -0.60297667980194081 -1.2229685783386228 0.94404864311218273 0.55889281630516063 0.9936923384666444 -2.9895853996276851 -0.59946945309638966 -0.60000616312026966 -0.90308555960655201 0.8847540318965913 -0.91158640384674061 1.1966832876205447 -0.84461340308189381 -1.1732664704322813 -1.3654358386993406 0.89331519603729259 -2.5375617742538448 -0.97389602661132801 1.0499610304832461 -0.86952584981918324 -1.1598508954048155 1.1313971281051638 0.57442015409469616 1.1125440597534182 0.97494840621948253 -1.0995184779167173 -1.0017905831336973 -1.4413063526153562 0.92934149503707897 1.2473775744438174 1.1960682868957522 -1.0385544896125791 -1.0354812145233152
decision_type=2 2 2 2 2 2 2 2 2 2 2 2 2 2 2 2 2 2 2 2 2 2 2 2 2 2 2 2 2 2 2 2 2 2 2 2 2 2 2 2 2 2 2 2 2 2 2 2 2 2 2 2 2 2 2 2
left_child=4 2 15 18 5 6 14 21 13 -10 11 -9 -12 -8 20 16 30 47 36 -16 -1 32 -19 31 38 26 -26 -27 50 -23 -2 44 -7 -18 -30 40 -4 -33 -25 -40 46 42 -42 -20 55 -43 52 -5 -46 -39 -17 -37 -3 -53 -55 -6
right_child=1 35 3 17 23 7 8 10 9 -11 12 -13 -14 -15 19 28 33 22 43 -21 -22 29 -24 24 25 27 -28 -29 34 -31 -32 37 -34 -35 -36 51 -38 49 39 -41 41 45 -44 -45 48 -47 -48 -49 -50 -51 -52 53 -54 54 -56 -57
leaf_value=-0.0053913843078195181 0.11664050253565612 -0.30278585024140736 -0.061225443070580449 0.11042541111642035 -0.14611669032015448 -0.17884794683446514 0.030927454121861511 -0.010159337600531858 0.031648571969561064 -0.046676833958572812 0.11464537043391099 0.043278914521744566 -0.10946234892901119 0.075989301632592141 -0.16981351185447102 0.097622124693096529 -0.0091699769778463419 -0.032682738396434652 0.039107598666923121 0.10113309556910395 -0.075610944249092801 0.092810052038738489 0.044653833823678594 0.14657434020975721 0.075150943334301376 0.11819951057843792 -0.04595346539761673 0.046655950433621939 -0.1008221300037071 -0.11149879431613137 0.056257800015129068 0.41065103333420244 0.089460664882480861 -0.15686327685109699 0.10677838198352566 -0.038684418918118878 -0.1381311770991315 -0.036007670066879049 -0.0017163319278762355 -0.16978070548728452 0.094627848478083601 -0.20005556619362219 0.057707640618528094 -0.16695992811418947 0.022792581255949393 0.055719841070982656 0.05371236412088886 0.016802769899934678 0.18361244015297323 -0.12548636558755275 -0.12788547174755727 -0.14058929659844993 -0.1649288989119595 -0.23539107115198121 -0.17841050863986996 -0.18015133306942824
leaf_weight=996.99074055626988 667.56680883467197 3.9331530928611782 461.43165645003319 1073.4917001053691 4.141838476061821 22.488582128658891 44892.075582385063 4410.8215290307999 3070.8699410483241 2485.2928997837007 1397.6196423918009 14388.851791225374 139.65368694067001 2936.2302426770329 55.253500822931528 7.3036779630929223 811.88850658945739 553.85188228823245 345.49677473865449 391.67755348607898 1715.7267736047506 79.125678107142448 2886.3510480746627 29.68291799724102 1429.6503461152315 1773.9872144535184 399.45811599493027 773.70815126597881 37.399554884061217 126.39762395620346 1766.9091463312507 4.8040532991290084 4081.9813159443438 80.323146048933268 3258.9140887428075 13.629673786461352 428.56460697669536 76.946131743490696 145.32532199472189 75.66896864771843 5564.6428837496787 20.888879455626011 802.35372268408537 24.006060719490051 23.02355632185936 29.284778814762831 16.200861066579819 53.543426707386971 49.277096182107925 116.37977110035717 46.676636177580804 5.8079776763916042 16.840253464877605 4.1390049010515204 10.615425238385795 7.7446517795324308
leaf_count=3437 506 18 2898 614 21 283 131949 15585 10982 10860 2099 31803 633 6006 277 49 2920 2198 507 575 8130 90 4811 20 2406 2102 1124 1705 411 424 1887 4 4616 481 2334 36 4900 230 407 349 3576 106 843 130 44 44 36 152 27 1926 864 31 80 18 48 32
internal_value=0 0.0637884 0.0518612 0.0261346 0.0334885 0.0315934 0.0263127 0.0437081 0.0298346 -0.00338668 0.0355445 0.0307411 0.0942863 0.0336938 -0.0331917 0.0743117 0.0472611 0.0504081 -0.0618865 0.0676363 -0.0498035 0.0822287 0.0322031 0.0648275 0.0704746 0.0765092 0.048703 0.0964725 0.101172 -0.0328407 0.0728156 -0.0277336 0.0879906 -0.0224664 0.104423 0.0867734 -0.0982583 -0.0777365 -0.0348887 -0.059262 0.0878857 0.0888748 0.0899753 0.0257197 0.0899455 -0.0507675 -0.0837924 0.105978 0.132401 -0.0898727 -0.0973737 -0.123186 -0.19103 -0.179197 -0.194395 -0.168292
internal_weight=0 18992.1 12503.7 5826.74 86100.9 81191.1 56544.1 24646.9 53384.5 5556.16 20336.9 18799.7 1537.27 47828.3 3159.65 6676.98 3326.69 4567.24 1259.5 446.931 2712.72 4309.99 3440.2 4909.8 4627.48 4376.8 1829.11 2547.7 3350.29 205.523 2434.48 282.317 4104.47 892.212 3296.31 6488.34 889.996 198.13 250.677 220.994 6454.14 6417.17 6367 369.503 84.1871 50.1737 36.9743 1127.04 72.3007 193.326 53.9803 34.1921 20.7734 20.5624 14.7544 11.8865
internal_count=268644 30498 25662 16210 238146 227749 172216 55533 159797 21842 50120 47388 2732 137955 12419 9452 5794 7775 8435 852 11567 5413 7009 10397 8113 7337 3530 3807 3658 514 2393 2284 4899 3401 2745 4836 7798 2160 776 756 4703 4569 4419 637 124 150 134 766 71 2156 913 133 98 97 66 53
is_linear=0
shrinkage=0.1


Tree=16
num_leaves=59
num_cat=0
split_feature=132 33 109 70 104 74 69 103 55 134 98 95 130 105 34 5 81 33 45 69 34 110 31 47 111 104 69 126 41 74 44 104 106 105 39 71 125 37 126 29 70 102 52 113 63 35 122 24 30 114 33 105 58 105 71 102 112 68
split_gain=1317.96 475.775 601.998 1137.73 467.554 490.915 457.447 629.047 501.877 976.386 578.788 502.995 629.324 443.043 365.055 349.07 335.808 302.254 287.859 267.836 349.127 246.478 233.684 228.375 165.27 148.982 147.653 147.633 143.33 119.43 112.423 108.075 100.225 99.904 247.909 189.277 96.6677 91.5466 338.238 88.2731 88.016 248.291 97.9412 87.9664 81.2045 79.8093 71.9725 57.3511 41.7422 29.8136 20.1009 16.7735 20.4388 5.55854 1.14548 1.06038 0.783738 0.0408763
threshold=1.0000000180025095e-35 0.8851207196712495 -1.1180621385574339 -0.25172892212867731 -0.75006037950515736 -0.50101909041404713 0.010200234130024912 -0.75075906515121449 1.0197353363037112 1.0000000180025095e-35 -0.84607207775115956 -1.0494149327278135 1.0000000180025095e-35 -0.83610433340072621 0.87896952033042919 0.6397823989391328 -1.1931605935096739 0.86239072680473339 1.2205840945243838 -0.0034745481098070736 0.94528299570083629 -0.94104665517806996 0.94380065798759472 1.1489509940147402 -1.1792038679122923 -0.75695154070854176 -0.090578977018594728 -2.9895853996276851 1.1017939448356631 -0.5266817808151244 1.1758326888084414 -0.76077076792716969 -0.96977138519287098 -0.87017050385475148 1.0235546827316286 -0.34517192840576166 -2.7761955261230464 0.93655630946159374 -2.200763344764709 1.0007480382919314 -0.12377864867448805 -0.72645089030265797 1.1280197501182558 -1.3204442858695982 0.5318569839000703 0.95557111501693737 -1.4041180610656736 1.2504702806472781 1.0558715462684634 -1.4413063526153562 0.94514414668083202 -0.77345281839370716 0.93864759802818309 -0.92990356683731068 -0.44056379795074457 -0.67797914147377003 -1.2804603576660154 -0.01676085218787193
decision_type=2 2 2 2 2 2 2 2 2 2 2 2 2 2 2 2 2 2 2 2 2 2 2 2 2 2 2 2 2 2 2 2 2 2 2 2 2 2 2 2 2 2 2 2 2 2 2 2 2 2 2 2 2 2 2 2 2 2
left_child=6 2 4 16 5 22 7 8 11 10 -10 15 -13 23 18 -1 48 -18 -5 24 -21 25 -2 54 -15 31 -11 49 -7 -16 -29 46 44 37 35 -35 -27 38 -34 -25 41 45 -43 -36 53 -23 -8 -39 -4 -6 -33 -42 -53 57 -9 -38 -55 -3
right_child=1 32 3 14 27 28 21 13 9 26 -12 12 -14 19 29 -17 17 -19 -20 20 -22 40 -24 39 -26 36 -28 30 -30 -31 -32 50 33 34 43 -37 55 47 -40 -41 51 42 -44 -45 -46 -47 -48 -49 -50 -51 -52 52 -54 56 -56 -57 -58 -59
leaf_value=0.10007337878793317 0.068266314389710633 -0.13544842447437064 0.10778755748861212 -0.10122301844601617 0.096230198944625908 0.0048991226710308885 0.029646496721736373 -0.11577090138673414 0.080827149893030747 -0.12592720515205438 0.037307197815452102 0.026956805657916878 -0.0088280932615533419 0.073853227668443017 0.033287767383951929 0.041724132952543701 0.0016912306222190529 0.06725781144676192 0.033828839244867535 0.046676916117829551 -0.13720235591496374 0.11672334240639765 -0.11512363204120578 -0.16005972162587992 -0.09263555097767294 0.14112439576477526 -0.030602373618607966 -0.079179733864973248 -0.088343968845435356 -0.20305767507302802 0.10348822595585545 0.21605948932305066 -0.052587174273008012 0.031197466070947699 -0.064525732120123691 -0.19385045609223617 -0.16693390286743653 0.09222277133883007 0.091001493270414943 0.12245281530923058 0.19114581432826477 -0.21595473428985415 -0.00075681065653855097 0.097661445684609924 0.073249309798770729 0.047885268815444068 -0.17499058085307126 0.12202787271435594 0.048827334682885831 -0.13115791268932966 0.10080999578022297 0.084540454427950787 0.14309506845420952 -0.25621618514788064 -0.16245089704082596 -0.14082994620235567 -0.20583831658779814 -0.12332463880085479
leaf_weight=1248.9739443138242 3566.8323490098119 8.3000694960355741 962.73184068500996 922.3407854642719 6.9781331140547982 767.85505202040076 344.83474000543356 6.3548675402998915 4913.5594372414052 277.13770818524063 8083.1126647777855 56520.901694871485 5382.44292332232 63.750652618706226 500.50958793610334 5724.4921560958028 1372.8731030356139 1441.1174001693726 190.40785188600421 443.64268727600574 134.57975639402866 751.91156468912959 70.863347761332989 11.538040243089197 921.22958420217037 12.960318259894846 392.79485826194286 34.091076930984855 209.92632257565856 22.334602430462837 2880.9426790867001 33.077746078372002 195.38631607592106 91.129263170063496 36.258900187909603 63.353072822093964 42.14809462428093 2480.2306370437145 1022.9683758579195 266.91037802025676 51.542307257652283 25.653776042163372 120.43839254975319 430.35501321963966 25.141373798251152 217.03476767241955 18.08847613632679 872.77639849483967 137.18675946444273 33.196419914253056 27.89641235768795 76.854903191328049 265.69956101477146 4.8729935139417639 30.424527987837791 24.669556453824043 8.4309163987636548 4.1822356209158924
leaf_count=1603 3708 46 467 7889 43 2176 801 59 7224 2153 18922 159021 20759 137 766 16811 3764 1905 1034 745 551 479 268 52 5417 7 1607 246 1597 113 1945 11 451 124 88 235 177 1413 686 336 21 114 239 259 26 355 78 363 306 497 40 91 74 21 134 128 34 28
internal_value=0 0.0595069 0.0493313 0.0243125 0.0676708 0.0477854 0.0300081 0.0288848 0.0301869 0.047692 0.0537605 0.0267136 0.0238453 -0.0283366 -0.0457297 0.0521747 0.0535825 0.0352696 -0.0781136 -0.0501453 0.0038795 0.0771223 0.0646938 0.079812 -0.0818599 0.0165497 -0.0700364 0.098728 -0.0151199 0.0231917 0.101352 0.0401437 0.0849685 0.0863377 0.0487065 -0.0610945 -0.108816 0.0914506 0.0679743 0.110746 0.0973385 0.0829812 -0.0385456 0.0850585 -0.0546337 0.101304 0.0194472 0.0999809 0.100434 -0.0916617 0.163331 0.13796 0.129958 -0.179319 -0.154385 -0.157296 -0.224291 -0.131386
internal_weight=0 18363.6 13120.2 5549.5 7570.69 4615.48 86434.7 84421.8 82543.4 13666.6 12996.7 68876.8 61903.3 1878.43 1635.59 6973.47 3913.91 2813.99 1112.75 1563.2 578.222 2012.81 3637.7 315.228 984.98 503.675 669.933 2955.21 977.781 522.844 2915.03 423.897 5243.39 5192.46 621.096 154.482 79.778 4571.36 1218.35 278.448 1509.14 1115.04 146.092 466.614 50.9276 968.946 362.923 3353.01 1099.92 40.1746 60.9742 394.097 342.554 25.7862 36.7794 66.8177 13.3039 12.4823
internal_count=268644 30498 26724 16244 10480 7749 238146 235531 228100 29906 26146 198194 179780 7431 9802 18414 6442 5669 8923 6850 1296 2615 3976 581 5554 1242 3760 2731 3773 879 2191 930 3774 3619 706 359 312 2913 1137 388 1373 1187 353 347 155 834 879 1776 773 540 51 186 165 129 193 305 55 74
is_linear=0
shrinkage=0.1


Tree=17
num_leaves=63
num_cat=0
split_feature=108 133 104 106 135 31 30 130 102 111 57 31 96 32 39 123 110 107 107 34 70 31 108 32 133 33 31 55 69 101 66 44 54 100 128 30 55 125 72 95 69 53 3 113 114 39 122 7 48 74 62 46 104 34 72 29 70 72 102 69 73 77
split_gain=1211.99 861.254 833.291 718.627 1574.78 818.569 781.579 686.759 603.454 598.008 573.575 466.17 461.978 438.284 431.107 896.103 674.88 427.305 417.207 415.749 366.81 364.739 331.951 307.342 762.679 419.34 351.614 747.067 304.969 294.356 560.26 289.341 282.586 281.801 223.734 200.43 197.846 195.079 180.423 199.352 159.901 158.254 136.862 126.334 113.069 112.954 111.066 110.95 96.0547 80.5227 72.559 71.5175 129.678 115.95 69.8198 300.637 44.8933 43.4189 42.6455 36.3694 29.2601 10.4002
threshold=-1.0225747823715208 1.0000000180025095e-35 -0.91296413540840138 -0.89706942439079274 1.0000000180025095e-35 1.0010486841201784 1.0994549393653872 1.0000000180025095e-35 -0.82076355814933766 -0.98560470342636097 0.83847296237945568 0.99542939662933361 -1.0545281171798704 0.90930399298667919 1.0170828700065615 -2.0525954961776729 -1.2005516290664671 -0.97207713127136219 -0.88595536351203907 0.87233951687812816 -0.10757162049412726 0.98155534267425548 -1.0194393992424009 0.92859682440757763 1.0000000180025095e-35 0.90785571932792675 0.99155697226524364 0.90061911940574657 -0.078550118952989564 -0.5811074674129485 0.3775330930948258 1.1846033334732058 1.0423564910888674 -0.48241502046585077 1.0000000180025095e-35 1.0833733677864077 0.81093633174896251 -2.0802668333053584 -0.65279826521873463 -1.042514383792877 -0.33694860339164728 1.0603241324424746 0.46915632486343389 -1.339632451534271 -1.4122269153594968 0.92748567461967479 -1.9762915372848509 0.12191610038280488 1.2054408192634585 -0.46099707484245295 0.35942217707633978 1.1824219822883608 -0.80091318488121022 0.84454488754272472 -0.62962412834167469 1.1538026332855227 -0.11843071877956389 -0.70501235127449025 -0.58956676721572865 0.0065943372901529082 -0.37989155948162073 -0.50830000638961781
decision_type=2 2 2 2 2 2 2 2 2 2 2 2 2 2 2 2 2 2 2 2 2 2 2 2 2 2 2 2 2 2 2 2 2 2 2 2 2 2 2 2 2 2 2 2 2 2 2 2 2 2 2 2 2 2 2 2 2 2 2 2 2 2
left_child=14 3 11 6 5 9 7 13 -7 -5 54 35 50 -2 15 16 32 19 21 -12 29 -6 -19 26 41 -26 27 -17 -9 30 37 -32 61 47 -14 42 -37 -16 39 -13 -28 -25 -3 56 60 -40 -20 58 -49 -34 -8 53 -53 -18 57 -56 -31 -4 -22 -45 -35 -1
right_child=1 2 10 4 18 8 12 28 -10 -11 17 38 34 -15 20 23 51 22 46 -21 33 -23 -24 24 25 -27 40 -29 -30 43 31 -33 49 44 -36 36 -38 -39 45 -41 -42 -43 -44 59 -46 -47 -48 48 -50 -51 -52 52 -54 -55 55 -57 -58 -59 -60 -61 -62 -63
leaf_value=-0.28024992139953725 0.038096246944261718 0.16332574088350063 -0.055046786814580972 0.0031388319493643613 -0.07527078471632366 0.02076021773237249 0.10572860176728197 -0.10732983905854417 -0.020502257839499938 0.040829621378536379 0.074233344794243192 0.15700626095962694 -0.092424692091164357 0.072573587317029051 0.079863643921160563 -0.050306453159331611 0.010832449901001587 0.1348473410364906 0.16292004430194618 -0.051677437041856567 -0.13976457899930603 0.011339315636437478 -0.048773009937755379 0.11491564519286063 -5.9892877907642892e-05 -0.13350819922025167 -0.10131555762063436 0.059731081971556681 0.11783756810815577 0.11487275731745031 0.044286649360013891 -0.070766302429704595 0.078644855269958069 0.10991845256994631 0.12253583393798456 -0.088725857151838422 0.062981348313185637 -0.16003490556836222 0.14100863842394848 0.031248835054686709 0.12865179113578634 0.0016584520798156857 -0.14904567455757453 0.060494296181137289 -0.12787203221875518 -0.042461521322067763 -0.13127265877973021 -0.13497494682255454 0.031988689369891257 -0.045338380766791746 -0.10192442749738145 0.05203636256380411 -0.096255760417310834 -0.16821481529678498 -0.16196544796723689 0.077854488071743055 0.083282303393025947 -0.15255036173190029 -0.0078241170668880717 -0.13921827332758585 -0.036210780583409215 -0.17380130850764428
