tree
version=v4
num_class=1
num_tree_per_iteration=1
label_index=0
max_feature_idx=136
objective=binary sigmoid:1
feature_names=Column_0 Column_1 Column_2 Column_3 Column_4 Column_5 Column_6 Column_7 Column_8 Column_9 Column_10 Column_11 Column_12 Column_13 Column_14 Column_15 Column_16 Column_17 Column_18 Column_19 Column_20 Column_21 Column_22 Column_23 Column_24 Column_25 Column_26 Column_27 Column_28 Column_29 Column_30 Column_31 Column_32 Column_33 Column_34 Column_35 Column_36 Column_37 Column_38 Column_39 Column_40 Column_41 Column_42 Column_43 Column_44 Column_45 Column_46 Column_47 Column_48 Column_49 Column_50 Column_51 Column_52 Column_53 Column_54 Column_55 Column_56 Column_57 Column_58 Column_59 Column_60 Column_61 Column_62 Column_63 Column_64 Column_65 Column_66 Column_67 Column_68 Column_69 Column_70 Column_71 Column_72 Column_73 Column_74 Column_75 Column_76 Column_77 Column_78 Column_79 Column_80 Column_81 Column_82 Column_83 Column_84 Column_85 Column_86 Column_87 Column_88 Column_89 Column_90 Column_91 Column_92 Column_93 Column_94 Column_95 Column_96 Column_97 Column_98 Column_99 Column_100 Column_101 Column_102 Column_103 Column_104 Column_105 Column_106 Column_107 Column_108 Column_109 Column_110 Column_111 Column_112 Column_113 Column_114 Column_115 Column_116 Column_117 Column_118 Column_119 Column_120 Column_121 Column_122 Column_123 Column_124 Column_125 Column_126 Column_127 Column_128 Column_129 Column_130 Column_131 Column_132 Column_133 Column_134 Column_135 Column_136
feature_infos=[-1.7373466491699219:2.1873281002044678] [-1.6486232280731201:2.0962586402893066] [-1.5678098201751709:2.0136351585388184] [-1.4949060678482056:1.9394575357437134] [-1.4299124479293823:1.8737261295318604] [-1.3728283643722534:1.8164401054382324] [-1.333403468132019:1.7937201261520386] [-1.3043193817138672:1.9274762868881226] [-1.2702003717422485:1.9831451177597046] [-1.226288914680481:2.0064544677734375] [-1.1696058511734009:2.0165181159973145] [-1.0977727174758911:2.073509693145752] [-1.0288742780685425:2.1457490921020508] [-0.91207128763198853:2.2142360210418701] [-0.8030850887298584:2.2825961112976074] [-0.68971306085586548:2.355140209197998] [-0.63881856203079224:2.3999395370483398] [-0.65620064735412598:2.4998569488525391] [-0.66012513637542725:2.5653238296508789] [-0.66667592525482178:2.5221147537231445] [-0.66619455814361572:2.4413206577301025] [-0.67410272359848022:2.3840618133544922] [-0.78228282928466797:2.2409591674804688] [-0.70636492967605591:2.1787192821502686] [-0.67705637216567993:2.1696581840515137] [-0.94777458906173706:2.0883691310882568] [-1.274228572845459:1.9448176622390747] [-1.700652003288269:1.7314887046813965] [-1.9454965591430664:1.5598906278610229] [-2.2033448219299316:1.3473584651947021] [-2.6534385681152344:1.1459542512893677] [-2.9375624656677246:1.0691677331924438] [-2.8964071273803711:1.0182701349258423] [-2.6209216117858887:1.0153312683105469] [-1.9672813415527344:1.0222163200378418] [-1.2877312898635864:1.0987448692321777] [-0.66409575939178467:1.3781088590621948] [-0.67050886154174805:1.4357191324234009] [-0.67336314916610718:1.5244829654693604] [-0.67729061841964722:1.3777114152908325] [-0.67367839813232422:1.3165556192398071] [-0.67545926570892334:1.2273765802383423] [-0.67422336339950562:1.2687077522277832] [-0.67822211980819702:1.5027958154678345] [-0.67549598217010498:1.6759111881256104] [-0.67939788103103638:1.7528411149978638] [-0.67687302827835083:1.7291663885116577] [-0.68056988716125488:1.8940913677215576] [-0.67851173877716064:2.0411467552185059] [-0.68057990074157715:2.1347439289093018] [-0.67868822813034058:2.3221406936645508] [-0.68411111831665039:2.3866791725158691] [-0.68776941299438477:2.2922041416168213] [-0.6967010498046875:2.0923285484313965] [-0.68777680397033691:1.9014968872070312] [-0.66555494070053101:1.7058380842208862] [-0.62701141834259033:1.5109990835189819] [-0.79989981651306152:1.3603483438491821] [-0.9627259373664856:1.3460699319839478] [-0.83332031965255737:1.3262704610824585] [-0.58399802446365356:1.3006186485290527] [-0.60407185554504395:1.6912268400192261] [-0.63139909505844116:1.8743280172348022] [-0.66095739603042603:1.7138135433197021] [-0.89532732963562012:1.3433690071105957] [-1.1747497320175171:1.0751444101333618] [-1.3727543354034424:0.99085426330566406] [-1.6710461378097534:0.88367986679077148] [-1.7223098278045654:0.75060045719146729] [-1.8329139947891235:0.59843027591705322] [-1.7363165616989136:0.44751104712486267] [-1.7446892261505127:0.31280896067619324] [-1.674402117729187:0.20481951534748077] [-1.5674382448196411:0.12430305778980255] [-1.3100894689559937:0.30397361516952515] [-1.5821062326431274:0.9557119607925415] [-1.8401819467544556:1.3625956773757935] [-2.0371255874633789:0.97979003190994263] [-2.1728529930114746:1.0076425075531006] [-2.2573421001434326:0.66064220666885376] [-2.3058340549468994:0.36351838707923889] [-2.3315773010253906:0.26114976406097412] [-2.3403120040893555:0.31248012185096741] [-2.3343968391418457:0.36315670609474182] [-2.3124566078186035:0.40882810950279236] [-2.2730567455291748:0.44654315710067749] [-2.2140905857086182:0.47649812698364258] [-2.1362462043762207:0.49989777803421021] [-2.0426793098449707:0.67684948444366455] [-1.9374580383300781:0.53298360109329224] [-1.8240519762039185:0.65060514211654663] [-1.7074116468429565:1.0689502954483032] [-1.6520191431045532:1.4172115325927734] [-1.5958865880966187:1.6287872791290283] [-1.5394163131713867:1.6652539968490601] [-1.4922878742218018:1.6182962656021118] [-1.4547033309936523:1.5608183145523071] [-1.4384253025054932:1.5597559213638306] [-1.4264529943466187:1.5645072460174561] [-1.5819015502929688:1.5648646354675293] [-1.8758529424667358:1.5687597990036011] [-2.4619696140289307:1.5660412311553955] [-2.648137092590332:1.569068431854248] [-2.4631106853485107:1.5659784078598022] [-2.0341367721557617:1.5655828714370728] [-1.4475361108779907:1.5610309839248657] [-1.2213733196258545:1.5632989406585693] [-1.1215335130691528:1.5619508028030396] [-1.1656886339187622:1.5697338581085205] [-1.225764274597168:1.5734660625457764] [-1.369315505027771:1.5835809707641602] [-1.6010570526123047:1.5861003398895264] [-2.1418814659118652:1.5904537439346313] [-2.465855598449707:1.5886306762695312] [-2.5047738552093506:1.5883719921112061] [-2.0072333812713623:1.5826603174209595] [-1.6131480932235718:1.5835590362548828] [-1.6321159601211548:1.7016431093215942] [-1.6864286661148071:2.5795986652374268] [-1.7459897994995117:2.8008601665496826] [-1.820858359336853:2.5472877025604248] [-1.9280952215194702:1.7488086223602295] [-2.1567583084106445:1.5756756067276001] [-2.3918964862823486:1.5728672742843628] [-2.6616356372833252:1.5717638731002808] [-2.9761693477630615:2.1645474433898926] [-3.3320021629333496:3.0688047409057617] [-3.8750591278076172:4.2020993232727051] [0:1] [0:1] [0:1] [0:1] [0:1] [0:1] [0:1] [0:1] [0:1]
tree_sizes=6802 6603 4542 6739 6542 6854 6654 6107 6349 6344 6131 6475 6363 6327 6895 6899 6842 6785 6776 6918 6803 6862 6439 6917 6333 6798 6706 6973 6352 6812 6242 6719 6336 6058 6665 6691 6095 6776 6770 6686 6253 6337 6823 6789 5736 6816 5257 6078 6188 5570 5835 5276 6587 6304 6939 6024 6913 6749 6222 6941 6704 6991 6264 5950 5428 6956 5924 6265 6217 6640 5923 5097 5821 6013 6525 6282 5856 5995 5519 6907 6420 5974 6923 6123 4303 6959 6821 6010 5828 4147 5806 6954 6269 6810 5536 5916 6726 6508 6598 5818 5824 5456 6537 4780 6627 6840 6326 5803 6174 6578 4566 6782 6707 6720 6302 6811 6848 5290 6124 4602 6956 5928 6245 6680 5923 6774 5751 6942 5770 6071 5931 6906 6378 6495 6629 6726 6457 6944 6667 6737 6931 6911 4525 6858 6606 6169 5453 3905 6560 6583 6752 5947 6604 6912 6032 6695 6458 6846 6979 6811 5665 6763 6151 6141 5941 6121 4944 6221 6824 6926 6498 4978 6423 6596 6499 6506 6505 5604 6285 6593 6548 5898 6690 6381 6912 6745 6024 6993 5961 5140 6939 6047 5901 6052 6526 6918 6621 5585 6035 5907

Tree=0
num_leaves=63
num_cat=0
split_feature=132 70 71 105 30 129 32 53 99 69 38 103 61 54 77 122 22 108 115 104 113 105 104 110 102 77 70 106 69 69 133 105 103 107 29 19 101 90 70 27 108 81 106 94 37 36 31 107 36 97 119 30 107 112 41 69 6 38 0 0 0 1
split_gain=219664 103819 46456.8 35530.1 24978.9 23842.8 21469.8 16390.6 16331.7 18834.7 15891.9 12526.2 12176.7 11789.6 11612.2 11225.1 10559.4 10308.7 9447.95 13307.2 8830.68 7445.82 6908.73 5967.54 5927.87 5249.39 4906.87 4621.71 4402.26 4187.98 3933.64 3856.86 3740.1 3330.13 2993.98 2806.43 2214.92 2213.92 1912.69 1755.01 1675.29 1631.13 1242.53 1131.84 745.103 724.56 406.988 335.081 1088.16 213.146 397.353 161.762 155.611 131.441 99.0007 465.9 5.68434e-14 1.42109e-14 3.55271e-15 1.77636e-15 8.88178e-16 4.44089e-16
threshold=1.0000000180025095e-35 -0.10734576359391211 -0.44368892908096308 -0.90831094980239857 1.0618972182273867 1.0000000180025095e-35 0.96754002571105968 0.86123350262641918 -0.86245539784431446 -0.026194654405117031 0.98338326811790477 -0.81668776273727406 0.66642335057258617 0.91148546338081371 -0.84686231613159169 -1.049614369869232 1.2021960616111758 -1.0551026463508604 -1.4706909060478208 -0.72096112370491017 -1.0099219679832456 -0.91275885701179493 -0.92287659645080555 -1.2183094620704649 -0.8081371784210204 -1.1039397120475767 -0.25568939745426172 -0.9821617305278777 -0.0099510247819125635 0.04988906346261502 1.0000000180025095e-35 -0.87270933389663685 -0.82400831580162037 -0.89743238687515248 1.2353330850601199 1.2631728053092959 -0.77801448106765736 -1.2961391806602476 -0.23830088227987287 1.1797271966934206 -0.88598451018333424 -1.1968373060226438 -0.91003096103668202 -1.012803256511688 0.94822415709495556 0.960718333721161 0.94813764095306408 -0.99253633618354786 0.91416972875595104 -0.80040562152862538 -1.3589844703674314 1.0633676648139956 -0.99371445178985585 -1.0087418556213377 1.1201350688934328 0.039311716333031661 0.14549535512924197 0.97909897565841686 1.0201685428619387 -0.1640769615769386 -0.28240287303924555 -0.12894079089164731
decision_type=2 2 2 2 2 2 2 2 2 2 2 2 2 2 2 2 2 2 2 2 2 2 2 2 2 2 2 2 2 2 2 2 2 2 2 2 2 2 2 2 2 2 2 2 2 2 2 2 2 2 2 2 2 2 2 2 2 2 2 2 2 2
left_child=2 4 3 13 10 7 8 33 16 12 14 -9 -10 25 21 32 58 -16 19 57 -11 -2 35 42 38 34 -18 -27 36 44 -24 -25 -7 -5 -1 -15 -26 -17 39 -8 -30 43 -12 46 -21 -40 -6 48 52 51 -51 -43 -20 -45 56 -56 -49 61 -4 -50 -31 -3
right_child=1 18 6 5 41 15 24 11 9 20 23 -13 -14 22 17 37 26 -19 47 29 -22 -23 30 31 28 27 -28 -29 40 60 -32 -33 -34 -35 -36 -37 -38 -39 45 -41 -42 49 -44 53 -46 -47 -48 54 59 50 -52 -53 -54 -55 55 -57 -58 -59 -60 -61 -62 -63
leaf_value=-1.9612208193503968 -1.5448415436361809 -3.3567338253822494 -3.3567338253822494 -2.5484999699888915 -1.399029313037375 -1.9310657304990344 -3.3567338253822494 -2.3645012526680946 -1.7315069573188109 -2.0868760022603756 -3.3567338253822494 -2.8263777350401336 -2.1460804506139834 -3.3567338253822494 -1.314434649989217 -3.3567338253822494 -1.7114451102688997 -2.043974726780998 -2.0875812022300906 -1.7570316830862445 -1.3126758400787104 -0.86572130697109761 -1.6561572208104791 -0.64896898888581322 -2.6934762843206443 -1.9005674036073226 -1.2113303589234463 -2.9268941416339889 -3.1474643190765037 -3.3567338253822494 -2.0681675243039193 -0.96515050790439005 -2.7090078211507405 -3.3458433652141211 -2.7206787930811323 -1.4511382122629151 -3.2562000717069495 -0.97478152441029797 -1.4380643201881491 -2.0800976910005078 -1.8898044065447557 -2.6813957090809497 -0.56642738161596329 -0.63654157261110367 -0.60272692760897462 -3.3567338253822494 -3.3567338253822494 -3.3567338253822494 -3.3567338253822494 -3.3567338253822494 -0.85643580886358039 -3.3567338253822494 -0.85643580886358039 -1.5155660811951255 -1.1607526982053846 -3.3567338253822494 -3.3567338253822494 -3.3567338253822494 -3.3567338253822494 -3.3567338253822494 -3.3567338253822494 -3.3567338253822494
leaf_weight=348.43869665265083 214.1220061853528 1.9711096957325938 25.516910970211033 67.202383428812027 1.3211595788598058 440.84940880537033 12.328395187854765 5119.533902965486 978.73144588619471 193.49552531540394 11.46827459335327 663.24466862529516 2565.8165976181626 7.8486004248261443 610.421885445714 4.0138961076736441 309.68953286111355 283.71341729164124 2.0379267409443855 6.4673041328787795 617.48872232437134 656.21112361550331 349.81147822737694 627.5622987896204 218.37768121808767 58.61453814804554 535.274324208498 174.49938858300447 12.359373874962328 5.8774907290935507 686.47030647844076 1001.4468182846904 71.875948995351791 237.49593948572874 60.995667144656181 504.91074762493372 102.90832579135895 140.07449635863304 53.921533897519112 85.091186106204987 74.052971810102463 3.8298446461558333 1.8538752794265736 2.85248963534832 41.322831518948078 2.0427864119410506 5.411592073738575 197.43351479619741 8.350337438285349 1.648564472794533 1.0344527140259732 47.987561501562595 2.0689054280519477 4.2143472433090192 1.1778061464428891 5.375753715634346 13.475222647190092 46.159805238246918 2.831230290234088 3.4763207361102095 1.2543425336480138 1.3976959660649289
leaf_count=5048 2245 55 712 1353 12 6259 344 94017 12018 3037 320 15125 41732 219 5048 112 3743 4336 32 81 5096 2596 4042 1175 4701 815 3896 4148 320 164 10651 4919 1558 6602 1329 4839 2772 701 510 1330 1022 82 2 5 59 57 151 5509 233 46 4 1339 8 43 8 150 376 1288 79 97 35 39
internal_value=-3.25287 -1.28511 -2.13674 -2.27971 -1.12241 -2.39338 -1.91608 -2.45514 -1.853 -1.93214 -1.08445 -2.41748 -2.03161 -1.92991 -1.29282 -1.82097 -1.45832 -1.54592 -2.95864 -2.16814 -1.49739 -1.0328 -1.78053 -0.860582 -2.50393 -2.29003 -1.39463 -2.66883 -2.7033 -1.09627 -1.92909 -0.843344 -2.04012 -3.16999 -2.07436 -1.48031 -2.87372 -1.04114 -1.97401 -2.24166 -2.06968 -3.01591 -2.96844 -2.04473 -0.758936 -1.5081 -2.97258 -3.31241 -2.86975 -3.26182 -2.39273 -3.30682 -1.46737 -1.16075 -3.34484 -2.96207 -3.35673 -3.35673 -3.35673 -3.35673 -3.35673 -3.35673
internal_weight=0 3812.95 14725.8 8935.88 3475.1 6744.29 5789.93 6087.48 5228.84 4355.53 3406.8 5782.78 3544.55 2191.59 1764.47 656.814 873.312 894.135 337.846 104.451 810.984 870.333 1549.04 1642.33 561.082 642.548 844.964 233.114 407.698 54.922 1036.28 1629.01 512.725 304.698 409.434 512.759 321.286 144.088 153.384 97.4196 86.4123 68.3 13.3221 13.7996 47.7901 55.9643 6.73275 233.396 15.9335 54.5004 2.68302 51.8174 4.10683 7.06684 217.462 6.55356 210.909 49.5286 28.3481 11.8267 7.13183 3.36881
internal_count=268644 30457 238187 156818 22323 125727 81369 117097 70313 61883 20641 109142 53750 31091 14225 8630 8430 9384 8134 1721 8133 4841 19751 6416 11056 11340 7639 4963 8815 339 14693 6094 7817 7955 6377 5058 7473 813 2241 1674 1342 1682 322 211 140 567 163 6413 370 1471 50 1421 40 48 6043 158 5885 1382 791 330 199 94
is_linear=0
shrinkage=1


Tree=1
num_leaves=61
num_cat=0
split_feature=131 80 92 31 78 129 55 103 54 103 71 95 103 110 37 103 30 103 105 16 28 105 93 75 34 75 127 77 32 54 61 56 31 29 110 74 70 71 68 42 71 105 31 31 67 10 113 3 111 113 54 51 78 90 31 102 119 30 105 106
split_gain=3562.57 7362.15 3404.44 3944.35 3357.84 3324.6 2923.47 3897.41 2949.88 2893.77 5499.97 5047.39 3771.97 2159.18 2661.34 1945.06 2081.7 1999 1783.08 1701.86 1502.22 1356.78 1341.4 1420.31 1300.16 1179.69 1170.52 1069.47 1124.65 1051.68 823.719 820.38 1299.27 657.375 654.864 1179.74 575.883 548.768 501.606 1094.51 501.316 471.453 438.524 430.884 321.233 306.88 285.113 272.843 259.055 172.781 167.785 339.306 163.893 153.241 138.729 121.486 0.164339 0.0835068 0.0560431 0.000427894
threshold=1.0000000180025095e-35 -1.3185502886772154 -1.1522681713104246 1.003394663333893 -1.3999786972999571 1.0000000180025095e-35 0.95122703909873974 -0.85361501574516285 1.0262850522994997 -0.76514971256256092 -0.48286475241184229 -0.9123050570487975 -0.83897370100021351 -1.1906303763389585 0.95538994669914257 -0.82506826519966114 1.0598058104515078 -0.84277829527854908 -0.90831094980239857 1.1506028771400454 1.1566141843795779 -0.83677300810813893 -1.1313443779945371 -1.1809639930725095 0.92910748720169078 -1.15874707698822 -1.3625272512435911 -1.3151555657386778 0.95132821798324596 1.0016270279884341 0.63863149285316478 0.88698869943618786 0.99479141831398021 1.088959872722626 -0.88767850399017323 -1.0306029915809629 -0.30903638899326319 -0.46034617722034449 -0.020953871309757229 1.0285762548446657 -0.53112590312957753 -0.86314842104911793 1.0029408335685732 1.0143563747406008 0.009146765340119602 0.91540011763572704 -1.1396487951278684 0.56784868240356456 -0.83371344208717335 -0.8994275927543639 1.0082989335060122 1.0716903209686282 -1.2898662090301511 -1.2961391806602476 1.0009024739265444 -0.91163581609725941 -0.86192345619201649 1.0349802970886233 -0.9076186716556548 -0.86477205157279957
decision_type=2 2 2 2 2 2 2 2 2 2 2 2 2 2 2 2 2 2 2 2 2 2 2 2 2 2 2 2 2 2 2 2 2 2 2 2 2 2 2 2 2 2 2 2 2 2 2 2 2 2 2 2 2 2 2 2 2 2 2 2
left_child=2 27 4 9 26 22 19 18 36 10 12 -12 -4 21 -15 16 30 -18 46 40 -10 -11 23 -6 37 -24 48 41 34 -20 -5 32 -21 -26 47 -36 -9 -17 52 -40 55 44 -42 -33 59 49 -8 -29 54 -7 57 -52 -30 -50 -1 -3 -28 -43 -58 -2
right_child=1 6 3 15 5 45 7 8 20 13 11 -13 -14 14 -16 24 17 -19 29 31 -22 -23 25 -25 33 -27 56 28 38 -31 -32 43 -34 -35 35 -37 -38 -39 39 -41 42 50 -44 -45 -46 -47 -48 -49 53 -51 51 -53 -54 -55 -56 -57 58 -59 -60 -61
leaf_value=-0.12279687911506797 -0.11113218194154591 0.17691583547761547 0.28509401232433601 0.65209723035133571 0.048167372712348527 0.14792769064932698 0.048368186917460552 -0.033321800788625185 0.38899653396898437 0.25195538758001551 0.41943519764714277 0.32143150712970187 0.017180748891501337 0.13618339361515719 0.27351784400127771 -0.092273740829335621 0.26345432941686536 0.07062001282049328 0.54688407695082497 0.45614262928469379 0.70791883025218949 0.35730422689953756 0.06218508054036645 0.72710218561942108 -0.048499609116034521 0.52097395580818751 -0.13107146517604112 0.25213392336700385 -0.067116980839552531 0.83093819975191396 0.35846426441582252 0.67142829384691538 0.16144525744108326 0.37072198769741221 0.2285158510719589 0.59761188692912248 0.29294533577828552 0.1061127239145159 0.64808522928860324 0.10632663623579602 0.77903980964464004 -0.10352252608508308 0.14026653743472373 0.076085939470439679 1.0867921439554096 0.62261288459801556 0.49165576138997197 -0.11172793555961363 0.5687566944011001 0.31787040229500346 0.82620155908814574 0.020609058631362059 0.62464419149593287 0.27714093246206289 0.28842702454938385 -0.10699935497285498 -0.11369187888135115 -0.10937663075051035 -0.10367782817853621 -0.10856974517328144
leaf_weight=24.648210473358631 0.87413478642702136 18.00488293915987 10694.018093321472 108.36845476925373 32.713945478200912 65.093264937400818 15.458256267011164 136.015730176121 361.20046477392316 1864.1016799136996 8317.405625000596 14273.257038090378 552.66631145402789 1907.3018364086747 5423.1641856469214 161.685701739043 2511.3055279180408 684.00347761064768 165.52319473028183 491.0015257447958 249.8630198314786 3551.8701241910458 60.569071836769581 530.12011204659939 43.662503037601709 750.46290338784456 2.3397894129157057 49.6790826395154 122.34054554998875 613.21561045944691 806.82649869099259 141.75597296655178 215.16424240171909 260.9827841706574 175.0617116317153 171.37064163014293 89.826085690408945 1013.0923454798758 44.383761435747147 233.36168341338634 14.552229426801203 32.835873369127512 41.104094296693802 13.297394081950186 6.486685611307621 31.434991113841534 236.346460968256 35.217235758900642 18.879423558712006 739.33723377808928 5.5291331447660914 96.095128893852234 3.5235498771071425 395.80872064828873 12.296293117105959 92.496630560606718 5.9366046935319892 94.475549701601267 95.333450026810169 2.5606649033725244
leaf_count=225 10 170 65124 444 376 230 104 1636 2343 3782 38640 46839 6810 13305 14195 2369 15853 6851 1063 1629 1181 2822 757 1957 728 3086 16 402 1508 2195 3013 477 1581 1807 1514 859 778 7725 241 2079 59 999 378 87 8 35 270 412 109 1087 21 1008 20 1347 26 1862 62 1207 2884 39
internal_value=0 0.408085 0.309977 0.304246 0.418111 0.473351 0.491038 0.565577 0.405267 0.313771 0.329068 0.357514 0.271929 0.273162 0.237785 0.224873 0.260261 0.222175 0.695764 0.355551 0.519403 0.321045 0.569026 0.68764 0.126547 0.486711 0.198268 0.184454 0.237832 0.770562 0.393233 0.412084 0.36635 0.310638 0.350101 0.411098 0.0964473 0.0788086 0.117854 0.1929 0.0625343 -0.00213323 0.307284 0.620372 0.672734 0.316097 0.464442 0.101194 0.267812 0.304119 -0.0313803 0.0644394 -0.0477512 0.290417 0.0140714 -0.0607388 -0.10487 -0.107867 -0.104265 -0.109222
internal_weight=0 3968.62 54938.7 52173.7 2764.97 2209.73 2894.83 1867.45 836.905 46583.8 33837.3 22590.7 11246.7 12746.4 7330.47 5589.93 4110.5 3195.31 1030.54 1027.38 611.063 5415.97 1373.87 562.834 1479.42 811.032 555.242 1073.8 834.938 778.739 915.195 861.219 706.166 304.645 431.329 346.432 225.842 1174.78 403.61 277.745 166.158 238.857 55.6563 155.053 9.92149 835.865 251.805 84.8963 451.633 804.43 228.936 101.624 125.864 414.688 36.9445 110.502 103.61 127.311 101.27 3.4348
internal_count=268644 26140 242504 230307 12197 7528 15813 9570 5938 191517 157413 85479 71934 34104 27500 38790 26161 22704 3632 6243 3524 6604 6176 2333 12629 3843 4669 10327 7035 3258 3457 3774 3210 2535 3187 2373 2414 10094 3848 2320 2469 3292 437 564 57 1352 374 814 1707 1317 3235 1029 1528 1456 251 2032 2962 2206 2946 49
is_linear=0
shrinkage=0.1


Tree=2
num_leaves=41
num_cat=0
split_feature=52 123 32 71 103 55 100 129 135 71 102 102 68 69 102 134 20 115 121 105 132 70 105 108 110 105 76 39 6 77 70 107 74 30 110 20 48 76 25 106
split_gain=2178.32 1832.04 1516.33 1886.88 5433.06 4960.98 3038.67 1547.13 1493.17 1474.47 2744.87 2218.65 982.361 981.942 935.732 814.555 470.944 267.208 173.09 80.4735 2.40165 0.913736 0.405517 0.292686 0.166156 0.101278 0.0768256 0.0517751 0.0337006 0.0181231 0.00973497 0.00766665 0.00759751 0.00538087 0.00413517 0.00296595 0.000909741 0.000628751 3.74988e-05 1.17955e-05
threshold=0.7454187572002412 -2.226861715316772 0.96233308315277111 -0.4782488346099853 -0.85361501574516285 0.96381935477256786 -0.86696669459342945 1.0000000180025095e-35 1.0000000180025095e-35 -0.39321367442607874 -0.78582128882408131 -0.79923543334007252 0.1042078696191311 -0.047212656587362282 -0.83609354496002186 1.0000000180025095e-35 1.2202989459037783 -1.4884318709373472 -1.8769417405128477 -0.96445369720458973 1.0000000180025095e-35 -0.10734576359391211 -0.91275885701179493 -1.0551026463508604 -1.1974644064903257 -0.90697821974754322 -0.39040841162204737 1.0178239941596987 1.0108466744422915 -1.3441253304481504 -0.091138903051614747 -0.89743238687515248 -0.94369176030158985 1.0486107468605044 -1.1072051525115965 1.6553994417190554 1.1947669386863711 -1.0797032713890073 1.6073852777481081 -0.87948301434516896
decision_type=2 2 2 2 2 2 2 2 2 2 2 2 2 2 2 2 2 2 2 2 2 2 2 2 2 2 2 2 2 2 2 2 2 2 2 2 2 2 2 2
left_child=19 17 3 4 5 -3 15 -6 -8 11 13 14 -12 -11 -4 -5 -13 18 30 -1 25 23 33 36 26 28 -23 -25 37 -30 -2 -27 -24 38 -26 -33 -19 -21 -22 -32
right_child=1 2 9 6 7 -7 8 -9 -10 10 12 16 -14 -15 -16 -17 -18 21 -20 20 22 24 32 27 34 31 -28 -29 29 -31 39 35 -34 -35 -36 -37 -38 -39 -40 -41
leaf_value=0.22999713854416215 -0.11586550782963445 0.21247806137681724 0.2672457515345063 0.34778152784716965 0.071089616188132851 0.34816269546982115 0.24009193424583578 0.2563308205546066 0.35286930025996199 0.2935133049451914 0.055961411012015128 -0.016356629245020616 0.2137973498242452 0.4973695544339517 0.15331159873538286 0.64629150590965045 0.23850008435697859 -0.13703974909534064 0.51325087964998573 -0.1089660099824845 -0.1279611436094362 -0.12476557308468045 -0.15595471602301053 -0.11587150788954165 -0.10408109531062132 -0.1103995733934648 -0.10884384626798849 -0.13162909390625729 -0.11253346968762308 -0.12269369172079575 -0.10494385858866846 -0.10317797908860682 -0.15038560061372305 -0.12373936036480648 -0.11163009492749321 -0.10493019501840106 -0.13902659224872127 -0.10730460163238408 -0.12837256562528532 -0.10453721365995039
leaf_weight=7.2917352616786948 0.92824958264827806 15987.100981704891 1028.0404241532087 2309.2612435091287 2942.3025472462177 3240.9416631758213 36855.102948909625 532.46522529236972 1212.6199939660728 535.99967414140701 470.58645739778876 776.09846841916442 2433.4320411197841 422.56690629571676 2412.3664702959359 95.17956780642271 79.97843524813652 3.8061764538288099 12.129967212677 2.9926302470266828 3.3965470343828219 5.7123771160840988 5.7514812797307968 20.533905632793907 135.3192823342979 1.5358649343252171 6.4552949443459493 2.3208489418029776 4.9899488240480423 2.7085421159863463 5.4278915375471124 140.48522276617587 4.2669770419597608 3.6724761277437201 0.72954121977090736 10.373568683862684 5.8414992243051529 9.5369328409433365 6.3702414184808731 0.82125112414360124
leaf_count=31 14 74068 3972 7541 26774 10573 96916 1411 3615 2104 4047 6228 8022 925 12125 196 487 20 8 42 20 73 25 175 3630 18 123 15 52 19 121 4712 22 33 10 239 29 152 37 20
internal_value=0 0.23154 0.232387 0.237627 0.214552 0.235348 0.250571 0.0994755 0.243684 0.191818 0.236653 0.151511 0.188221 0.38338 0.187357 0.359598 0.0074532 -0.0706745 0.282933 -0.0962017 -0.108332 -0.108453 -0.138355 -0.123637 -0.105123 -0.104253 -0.116319 -0.117472 -0.110901 -0.116108 -0.10631 -0.10337 -0.153583 -0.127002 -0.104122 -0.103298 -0.138243 -0.107701 -0.128229 -0.10489
internal_weight=0 71534.1 71334 63175 22702.8 19228 40472.2 3474.77 38067.7 8159.07 3862.59 4296.48 2904.02 958.567 3440.41 2404.44 856.077 200.026 19.3074 203.372 196.08 180.719 23.4577 32.5024 148.216 172.623 12.1677 22.8548 20.2281 7.69849 7.17739 152.395 10.0185 13.4393 136.049 150.859 9.64768 12.5296 9.76679 6.24914
internal_count=268644 263242 259004 221094 112826 84641 108268 28185 100531 37910 15098 22812 12069 3029 16097 7737 6715 4238 163 5402 5371 4075 137 239 3836 5234 196 190 265 71 155 4969 47 90 3640 4951 49 194 57 141
is_linear=0
shrinkage=0.1


Tree=3
num_leaves=62
num_cat=0
split_feature=71 103 136 102 28 103 34 106 71 103 100 123 100 72 99 31 56 105 27 99 62 38 38 71 99 72 25 33 82 21 118 41 103 71 70 20 32 101 36 68 62 42 116 64 15 71 35 68 103 32 90 73 115 72 70 70 108 110 71 68 71
split_gain=1527.91 3895.5 2594.92 1980.15 2955.92 1623.38 1579.64 1433.12 1413.81 3920.77 1552.8 1259.37 1338.9 2350.42 1218.92 1147.47 1092.77 1178.79 1121.49 924.513 849.01 724.465 1164.93 758.944 602.531 602.217 559.31 504.805 498.186 487.841 451.383 695.515 419.305 575.797 399.575 387.948 383.261 523.087 363.266 360.304 317.726 277.863 198.246 195.653 271.887 224.422 182.617 178.145 143.853 139.513 135.551 119.868 113.054 98.8114 80.1719 0.650042 0.199107 0.127343 0.0972739 0.0164892 0.00255013
threshold=-0.41662757098674769 -0.79597717523574818 1.0000000180025095e-35 -0.8264268934726714 1.1759542822837832 -0.77756211161613453 0.91979074478149425 -0.91689014434814442 -0.48975935578346247 -0.8543235957622527 -0.86091849207878102 -2.226861715316772 -0.52002885937690724 -0.35329674184322352 -0.90012702345848072 0.99681890010833751 0.98716095089912426 -0.81633082032203663 1.1971653103828432 -0.91331946849822987 0.62976926565170299 0.98338326811790477 0.96522364020347606 -0.38910132646560663 -0.86705511808395375 -0.55986657738685597 1.0732715725898745 0.94457301497459423 -0.78469976782798756 1.1844192147254946 -1.579640746116638 1.0687627792358401 -0.82452449202537526 -0.42797592282295221 -0.10187551751732825 1.2213404774665835 0.95762300491333019 -0.79437056183814991 0.94395393133163463 0.061153056100010879 0.64186415076255809 1.0332075357437136 -1.2886934876441953 0.35694533586502081 0.94782716035842907 -0.45379191637039179 0.93670213222503673 0.065104171633720412 -0.81617319583892811 0.96286869049072277 -1.1299513578414915 -0.8392290174961089 -1.4884318709373472 -0.5950815975666045 -0.11244444176554678 -0.10734576359391211 -1.0551026463508604 -1.1974644064903257 -0.44368892908096308 0.16460017859935763 -0.48286475241184229
decision_type=2 2 2 2 2 2 2 2 2 2 2 2 2 2 2 2 2 2 2 2 2 2 2 2 2 2 2 2 2 2 2 2 2 2 2 2 2 2 2 2 2 2 2 2 2 2 2 2 2 2 2 2 2 2 2 2 2 2 2 2 2
left_child=1 2 6 4 14 16 8 42 9 -1 -10 52 13 15 -4 -13 18 20 21 -6 48 22 -2 -23 35 -22 -15 49 39 46 34 -32 38 -34 -14 47 37 -26 -8 -20 -31 -30 43 44 -3 -45 -19 -9 -18 -5 -29 -37 54 -38 -7 56 -54 -57 60 -56 -44
right_child=5 7 3 27 19 11 32 24 10 -11 -12 12 30 26 -16 -17 17 29 28 -21 25 23 -24 -25 36 -27 -28 50 41 40 31 -33 33 -35 -36 51 53 -39 -40 -41 -42 -43 58 45 -46 -47 -48 -49 -50 -51 -52 -53 55 -55 59 57 -58 -59 -60 -61 -62
leaf_value=0.18687551065969507 0.1711588015863916 1.5160163751549263 0.32080846648685557 -0.096775338214571641 0.088376423922907718 0.32805691878709209 0.19511510567090126 0.031948168928380143 0.26762660272061606 0.053061108144781301 0.1943266609253832 0.18313144016926641 0.25008070635539215 -0.078355123402076898 0.16297544595874094 0.018572099996143863 0.2575308065278733 0.30070562646931159 0.042777739469465836 -0.058794720075984519 0.092292943459287333 0.10660120624663268 0.26457624281975434 0.21024058972380952 0.12829567306490275 0.24101895275951937 0.086865523426831917 0.57401276918520672 -0.014049543526895537 0.51193918671238381 0.38126593753645266 -0.019060255586577604 -0.048423866549592187 0.11504792423794111 0.098338859877047435 0.31065021208974075 -0.12089773420320274 -0.041834535151797997 -0.12370355253206565 0.33802107834714495 0.36213811910894045 0.26270201064455045 -0.10646926332438288 -0.1100141730953135 0.35669271567897209 0.32799657895420314 -0.0070919085090883896 0.18307225258940329 0.46800577274127986 0.021862588886824543 0.11319263671987996 0.90377853188475243 -0.13332040813032697 0.022847096389319442 -0.11931314813144243 -0.11487838087021802 -0.11556730447642501 -0.10371539907378245 -0.12800369837758285 -0.10458333035222125 -0.11034806282608403
leaf_weight=19711.235409280285 1831.2245713286102 3.1877418123185617 677.29983277432621 493.29737922549248 1372.8400848824531 10.824467658996584 339.96696088463068 180.43515147455037 3704.0241140574217 2463.227154051885 13151.602078240365 13987.552064837888 3511.5741705819964 410.78424102813005 1762.8189509622753 436.97312493994832 40.326684162020683 35.214724589139223 646.36229572445154 619.43741051480174 335.17101138457656 937.64256919175386 4925.0433335639536 2867.2441396638751 256.41425190493464 1450.4352357387543 408.78615812212229 14.883646011352541 42.88047082722187 179.63061093539 60.365272343158722 154.41010831296444 419.65269237011671 442.84423634037375 182.55701542273164 6.1530769187957048 410.3497071377933 612.21120666712523 39.936883613467216 44.158007815480232 668.52540860697627 235.63702833652496 2.9105611704289913 12.669552717357872 5.536088053137064 152.4752646163106 42.586489614099264 137.39956514537334 166.73162180557847 124.04730344936252 11.176629200577734 7.6353094950318319 9.0350056886672991 54.129584569483995 0.8676973432302465 11.140568774193524 21.002905465662479 123.55956223979592 4.1934145987033826 6.1221509352326393 4.0585043951869011
leaf_count=74168 3671 5 2219 3082 8250 2 1265 1306 11799 19260 45973 26550 968 3423 4595 3830 112 50 2496 4835 1668 4854 8934 3887 1285 3678 1062 4 181 152 49 1228 3152 1941 1003 57 3246 5729 293 57 1329 403 51 162 48 266 237 157 221 725 66 8 49 344 11 196 190 3640 25 149 48
internal_value=0 0.170776 0.176579 0.109198 0.132995 0.198633 0.185071 0.0285295 0.188605 0.172011 0.210434 0.179684 0.182175 0.168787 0.206785 0.178146 0.223991 0.278652 0.210154 0.0426181 0.23533 0.219601 0.239256 0.184701 -0.000815553 0.213102 0.0040538 -0.0547377 0.107195 0.371881 0.234388 0.0934564 0.0740658 0.0355098 0.242582 0.119807 -0.0308216 0.00838712 0.1616 0.0616582 0.393864 0.220093 0.292547 0.318774 0.780317 0.294393 0.132225 0.0972789 0.427014 -0.0729366 0.376378 0.639095 -0.0817267 -0.104146 0.157583 -0.107605 -0.120907 -0.104639 -0.115969 -0.106412 -0.108728
internal_weight=0 47198 45348.3 5075.8 4432.4 33784.4 40272.5 1849.76 39030.1 22174.5 16855.6 19335.6 19153 15244.1 2440.12 14424.5 14448.8 2918.62 11530.2 1992.28 1992.66 10561.2 6756.27 3804.89 1664.73 1785.61 819.57 643.405 969.038 925.957 3908.91 214.775 1242.4 862.497 3694.13 331.623 1333.1 868.625 379.904 690.52 848.156 278.517 185.031 173.869 8.72383 165.145 77.8012 317.835 207.058 617.345 26.0603 13.7884 182.552 464.479 17.8143 164.738 30.0379 134.7 11.1625 6.98985 6.96907
internal_count=268644 194364 181627 23776 19899 74280 157851 12737 151200 93428 57772 42350 38113 34865 6814 30380 31930 7447 24483 13085 5679 21346 12605 8741 12132 5346 4485 3877 3137 1768 3248 1277 6651 5093 1971 1528 10604 7014 1558 2553 1481 584 605 481 53 428 287 1463 333 3807 70 65 4237 3590 162 4075 239 3836 124 160 99
is_linear=0
shrinkage=0.1


Tree=4
num_leaves=60
num_cat=0
split_feature=108 133 30 104 69 106 30 135 103 30 31 72 106 51 134 130 89 106 31 13 35 56 105 106 135 31 133 33 109 133 52 7 101 118 33 50 127 115 114 55 47 105 61 71 29 111 114 74 103 51 54 0 65 105 70 37 32 113 6
split_gain=1682.06 1526.97 1395.03 2107.23 2188.72 1932.76 1414.21 1392.2 1464.51 1351.02 1178.21 1119.17 955.32 910.973 894.598 867.721 700.102 797.778 680.564 647.233 606.3 1097.81 932.926 784.151 722.961 831.662 608.03 601.393 601.117 450.156 438.896 364.77 538.494 443.798 420.093 252.883 236.799 451.738 249.4 225.52 215.139 184.032 162.261 116.141 248.808 104.648 128.616 74.6711 171.065 63.9554 60.2179 30.1004 13.3647 0.234747 0.191113 0.171569 0.119093 0.0620819 1.14222e-06
threshold=-1.018004775047302 1.0000000180025095e-35 1.0577725768089297 -0.82131436467170704 -0.11354322731494902 -0.89714547991752613 1.0980024337768557 1.0000000180025095e-35 -0.8314228057861327 1.0752665996551516 1.0010107159614565 -0.31318493187427515 -0.86892336606979359 1.0273143053054812 1.0000000180025095e-35 1.0000000180025095e-35 -1.1435255408287046 -0.94695565104484547 0.98190099000930797 0.92247870564460765 0.84913882613182079 0.91948711872100841 -0.93101543188095082 -0.9661022126674651 1.0000000180025095e-35 0.96960344910621654 1.0000000180025095e-35 0.92545652389526378 -0.89732339978218068 1.0000000180025095e-35 1.147314786911011 0.6092975139617921 -0.82811021804809559 -1.2733034491538999 0.88315957784652721 1.0545352101325991 -2.2952436208724971 -1.2786329984664915 -1.2020207643508909 0.985954910516739 1.1759313941001894 -0.92551633715629567 0.81798475980758678 -0.48483532667160029 1.1413537859916689 -1.2597945928573606 -1.247667610645294 -0.9548077881336211 -0.92520210146903981 1.1796178817749026 1.1591737270355227 0.51747307181358349 0.5409618914127351 -0.90831094980239857 -0.10734576359391211 0.94574350118637096 0.87756982445716869 -1.3625664114952085 0.1013908088207245
decision_type=2 2 2 2 2 2 2 2 2 2 2 2 2 2 2 2 2 2 2 2 2 2 2 2 2 2 2 2 2 2 2 2 2 2 2 2 2 2 2 2 2 2 2 2 2 2 2 2 2 2 2 2 2 2 2 2 2 2 2
left_child=11 2 3 12 27 6 15 8 -7 31 -6 20 14 -14 -2 -4 47 19 -9 -18 21 23 36 26 25 -24 -1 -5 -8 39 -26 32 34 -34 -3 -25 37 -22 -38 -23 -31 -19 54 53 -45 49 50 48 -11 -44 -47 -49 -51 -33 55 -13 57 -56 -57
right_child=1 9 5 4 10 7 28 18 -10 16 -12 42 13 -15 -16 -17 17 41 -20 -21 22 29 24 35 30 -27 -28 -29 -30 40 -32 43 33 -35 -36 -37 38 -39 -40 -41 -42 -43 45 44 -46 46 -48 51 -50 52 -52 -53 -54 -55 56 58 -58 -59 -60
leaf_value=0.047083598218146457 0.1695236695398743 0.24197761820600952 0.18815940266069789 0.064064844373973626 0.15491707890572429 0.12782163296999952 0.020818137202477615 -0.058956338916099409 0.026574233295303912 0.3200367689920221 0.079839869402698924 -0.13816971286362195 -0.057328474238245823 0.20836805718219958 0.067637533051420604 -0.038132266835997998 0.29480267192410281 0.10463829290796015 0.074906361626831564 0.12158979720665708 0.04145369559941036 0.21593018503559552 0.17353528252024128 -0.018719942296245247 0.26567473275698728 0.088331907876598684 0.22969187117345391 -0.066848965054785367 0.27409184820995136 0.31384796139152471 -0.066065142723252604 -0.12612802395746697 0.064344344038639242 -0.06421810020857148 0.067810608581657411 0.1236910742672194 -0.066870952983114948 0.24942501989723059 0.081137446747073003 -0.13430146872323945 0.46776174100793133 -0.037026720447440091 0.42238667590449608 -0.10225250613900572 0.17173628676571323 -0.12253379779904328 0.51585741282902819 0.32105462499403925 0.0027269780710704097 0.18694691878318817 0.16805152493463885 0.43804934474532242 0.04190325017165869 -0.11749919076481413 -0.10809570376617227 -0.10540515896093634 -0.12568474330402057 -0.10386380261870738 -0.10527051212569793
leaf_weight=203.67183703929186 8118.8803939782083 182.69536843150854 6375.4848834201694 1272.1926077883691 15636.747635869309 10381.723592218012 816.47711380198598 711.43755212426186 1656.6088599227369 100.45626746118069 2412.8300916776061 3.7226174324750891 130.92562895268202 8972.904211807996 964.11956634745002 174.07733040302992 294.87958262860775 133.17567999660969 814.73545219376683 803.6531185656786 270.7537994608283 48.299736499786377 18190.372275028378 186.35624679550529 1024.3447418063879 1222.5982298664749 1741.0200074762106 484.55672385171056 105.85803528875113 672.57576639205217 41.496642358601093 137.25833999365568 534.38235124945641 539.6756399422884 572.33742182701826 376.81606151536107 194.92368297278881 170.03358978405595 273.7127841077745 29.685257200151682 104.99314009398222 294.44181858748198 9.3509551510214788 91.775141336023808 51.879149347543716 39.678257780149579 4.0572912096977225 39.065335415303707 20.448386430740356 13.087418142706158 8.6940549910068494 50.312923237681389 12.34530535712838 40.929271996021271 76.096511170268059 0.96718814596533809 3.1980897635221472 63.669298861175776 1.80727132409811
leaf_count=705 14585 476 21463 10241 45948 46984 4114 5803 11115 48 11298 20 2110 22280 4360 995 402 543 4679 3393 895 50 20332 977 1316 4112 3481 4123 121 1442 219 903 2851 3282 2244 1443 969 361 898 201 98 1672 3 536 169 395 3 24 110 5 27 27 62 332 1461 20 20 1860 38
internal_value=0 0.14164 0.145638 0.157077 0.13451 0.124979 0.165819 0.102482 0.113889 0.0809334 0.144881 0.172308 0.181654 0.204547 0.158709 0.182145 0.146546 0.122976 0.0125052 0.168085 0.174377 0.213845 0.168171 0.180475 0.172572 0.168169 0.210567 0.0279554 0.0498868 0.311659 0.252759 0.0279647 0.045239 -0.000253676 0.109954 0.0765666 0.0690635 0.121679 0.0195751 0.0826133 0.334631 0.00709293 -0.044117 -0.0702083 -0.0033045 0.0642767 -0.0249457 0.317606 0.266371 0.198762 -0.0703063 0.386913 0.116541 -0.124146 -0.107367 -0.124141 -0.106604 -0.106168 -0.105317
internal_weight=0 62916.9 59029.6 37993.2 19806.3 21036.4 7471.9 13564.5 12038.3 3887.37 18049.6 24988.3 18186.8 9103.83 9083 6549.56 1736.43 1526.15 1526.17 1098.53 24751.7 3363.42 21388.2 2507.86 20478.8 19413 1944.69 1756.75 922.335 855.554 1065.84 2150.93 1829.09 1074.06 755.033 563.172 909.424 440.787 468.636 77.985 777.569 427.617 236.674 321.842 143.654 87.2133 52.4296 210.283 120.905 34.7837 48.3723 89.3783 25.4327 178.188 149.461 6.49708 142.964 139.766 2.77446
internal_count=268644 227231 210219 114945 71610 95274 26693 68581 58099 17012 57246 41413 43335 24390 18945 22458 6219 6010 10482 3795 37499 8397 29102 6606 25979 24444 4186 14364 4235 1791 1535 10793 8853 6133 2720 2420 3123 1256 1867 251 1540 2215 3914 1940 705 495 425 209 158 70 422 51 67 1235 3419 78 3341 3321 58
is_linear=0
shrinkage=0.1


Tree=5
num_leaves=63
num_cat=0
split_feature=72 102 136 54 96 55 35 70 134 98 70 107 100 29 68 76 112 56 38 29 130 96 70 103 70 101 69 35 43 31 127 102 34 94 109 47 133 30 96 100 99 47 102 22 72 32 20 44 0 25 7 77 118 63 107 72 114 0 71 22 32 128
split_gain=1696.13 2607.03 1310.48 1464.89 1715.7 1086.33 1265.86 1316.72 1054.65 1048.75 974.598 963.759 1103.5 1455.97 1134.09 1185.38 879.922 869.534 799.178 754.074 725.755 612.646 537.782 1257.09 524.224 519.728 503.903 430.64 533.552 327.632 351.884 296.377 253.669 245.761 342.981 242.274 238.764 284.406 229.012 206.467 195.461 193.298 180.9 176.647 173.975 170.184 161.726 155.159 147.762 146.11 125.624 109.006 97.4129 93.0068 90.4514 73.8547 39.4765 0.449464 0.329651 0.0951414 0.0102923 0.00487938
threshold=-0.59141740202903736 -0.79168680310249318 1.0000000180025095e-35 0.96775543689727794 -0.95925566554069508 1.0198110342025759 0.91570651531219494 -0.29891037940978998 1.0000000180025095e-35 -0.86439767479896534 -0.28305105865001673 -0.96694275736808766 -0.78356975317001332 1.1070855855941775 0.14148461073637011 -1.1467926502227781 -1.0190721750259397 0.99106314778327953 0.96330806612968456 1.1113297939300539 1.0000000180025095e-35 -0.78438824415206898 -0.11784905567765235 -0.65922477841377247 -0.21793718636035916 -0.57172238826751698 -0.078645952045917497 0.88561308383941661 1.0531687736511233 1.0007987618446352 -1.8130323290824888 -0.76715403795242298 0.89158570766448986 -1.0763892531394956 -0.90764462947845448 1.0803526639938357 1.0000000180025095e-35 1.0493585467338564 -0.79282698035240162 -0.84577098488807667 -0.83861389756202687 1.1232771873474123 -0.79007494449615467 1.2315220236778261 -0.59859612584114064 0.95586237311363231 1.2270604968070986 1.079648017883301 0.37837131321430212 1.2127285003662112 0.58720499277114879 -1.1860259771347044 -1.3872707486152647 0.49831989407539373 -0.79023030400276173 -0.5950815975666045 -1.0621353387832639 0.77048251032829296 -0.44368892908096308 1.3002587556838991 0.96233308315277111 1.0000000180025095e-35
decision_type=2 2 2 2 2 2 2 2 2 2 2 2 2 2 2 2 2 2 2 2 2 2 2 2 2 2 2 2 2 2 2 2 2 2 2 2 2 2 2 2 2 2 2 2 2 2 2 2 2 2 2 2 2 2 2 2 2 2 2 2 2 2
left_child=1 2 5 33 10 6 7 -1 20 18 -5 21 13 17 15 -14 -16 -13 36 -6 -7 32 25 -24 27 -23 -8 28 52 30 39 -30 35 34 -4 -11 37 47 -35 -20 41 57 44 49 -29 -34 -15 -2 59 -31 -32 -45 -3 -39 -43 -44 -50 -26 -10 -38 61 -42
right_child=9 24 3 4 19 8 26 -9 58 11 -12 12 14 46 16 -17 -18 -19 29 -21 -22 22 23 -25 40 -27 -28 42 31 43 50 -33 45 38 -36 -37 48 53 -40 -41 60 54 55 51 -46 -47 -48 -49 56 -51 -52 -53 -54 -55 -56 -57 -58 -59 -60 -61 -62 -63
leaf_value=0.11695183954097362 -0.1464060337111967 0.31142263879538312 0.31958760793817365 0.083593838064490528 0.058242062708126041 0.15618988769283065 0.028492499070018548 0.16444012288490398 -0.11672350227994438 -0.039112375621811149 0.19075310928594841 0.13211748063552148 -0.076823637005199466 0.13809805402786726 0.065482790779596817 0.078802326828105701 0.17504816786468325 0.20474675510068169 0.15844298467022466 -0.082205693631754007 0.27182727105071469 0.15185050653021695 -0.0051897156412570424 0.17919697661401374 -0.14128130619768378 0.19688840711672684 0.1262680940858211 -0.052490401830232195 0.31886591417124255 0.15790239397615619 0.2404251975193481 0.0027655356819940679 -0.088143523073576299 -0.10622339526940497 -0.020486243248277646 0.13668700396810377 -0.1555355939512448 0.080427145180418408 0.36697162792761628 0.32239964478667127 -0.12793290438753077 0.099879395590276449 -0.10078776857503353 0.16394103747661232 0.16065091707998802 0.073618544468600972 -0.080154207516431708 0.15753031126341374 0.11631098491724744 -0.13528841219320653 0.17098754180672948 0.24635038347149796 -0.10746231047103715 -0.14664277701750103 0.32973916741425136 -0.023229593466897479 0.2798941406591271 -0.10402418062645953 -0.12825390239081313 -0.13702313362776436 -0.12259504334302514 -0.13195222538337811
leaf_weight=31707.828423926607 19.991924531757832 5.8688499405980101 33.964051343500614 1753.2591607458889 1218.3621312007308 1259.1824822351336 1965.6006368324161 7156.5691978726536 61.337365373969078 95.865140587091446 1645.0755316279829 5785.5216062106192 558.54467596486211 38.13607719540596 1121.340642593801 3955.5223662517965 2116.4594779536128 2305.1959136165679 88.641194567084312 557.07453787326813 953.89745764806867 17375.089600138366 671.48549805954099 822.83783537149429 4.8789559304714194 3005.4399784356356 720.22516634315252 101.67915505543351 89.093627769500017 35.035019416362047 547.8331750780344 44.465161450207233 145.11100673675537 485.19804505631328 233.85010495223105 430.0970015078783 4.7866506278514844 22.010223813354969 10.447939164936541 575.23004022985697 11.40823730826378 22.418829828500748 700.4866863489151 706.32109744474292 61.434047747403383 117.86370433494449 309.44120597094297 105.075195774436 19.501763880252838 33.013874262571335 496.83736618608236 207.70949412509799 102.7388067599386 99.957900002598763 72.422919377684593 148.87242039293051 60.575224637985229 9.6273094750940782 41.61932060867548 6.6094599068164825 2.9961259216070166 4.107958883047103
leaf_count=113280 181 14 34 8264 3826 3329 9352 21495 531 393 1992 16817 2670 125 7158 14360 2677 4185 60 3811 1448 21848 4134 557 26 882 1226 634 433 131 584 497 666 3398 2197 921 22 51 13 453 67 77 5107 1141 170 345 1508 151 41 220 772 220 2160 511 75 789 34 260 244 34 20 23
internal_value=0 0.115095 0.118856 0.0747636 0.0938445 0.124823 0.121108 0.125696 0.191478 0.142231 0.135468 0.137813 0.119179 0.144201 0.0919399 0.0595461 0.137103 0.152811 0.198904 0.0141741 0.206033 0.151124 0.154246 0.0963414 -0.0203597 0.158492 0.0547118 -0.0400175 0.0797759 0.217123 0.243579 0.213628 0.0645495 -0.0545431 0.0226417 0.104645 0.0540917 0.00298624 -0.0962487 0.300508 0.172534 0.223407 -0.06867 0.171096 0.027786 -0.0156427 -0.0562076 0.108946 0.192109 0.0156611 0.207401 0.182668 -0.084827 -0.105666 0.275405 -0.0871937 0.240055 -0.116555 -0.121385 -0.144799 -0.127961 -0.128997
internal_weight=0 51186 49803.5 5937.23 5173.77 43866.3 41550.2 38864.4 2316.04 41883.1 3398.33 38854 16190.2 8438.29 7751.87 4514.07 3237.8 8090.72 3029.13 1775.44 2213.08 22663.8 21874.9 1494.32 1382.5 20380.5 2685.83 1254.64 242.166 2690.62 1708.54 133.559 788.937 763.46 267.814 525.962 338.508 247.035 495.646 663.871 127.86 109.348 1012.47 982.079 163.113 262.975 347.577 125.067 91.4731 68.0489 1044.67 914.031 108.608 121.968 94.8417 849.359 80.077 14.5063 102.957 11.3961 18.5123 15.5162
internal_count=268644 184792 174440 23535 17893 150905 145353 134775 5552 83852 10256 79246 49500 22635 26865 17030 9835 21002 4606 7637 4777 29746 27421 4691 10352 22730 10578 9804 3104 3581 1869 930 2325 5642 2231 1314 1025 894 3411 513 548 438 6700 1712 804 1011 1633 332 131 351 1356 1361 2174 562 152 5896 75 286 775 56 110 90
is_linear=0
shrinkage=0.1


Tree=6
num_leaves=61
num_cat=0
split_feature=108 30 103 133 104 69 131 77 94 107 32 100 72 19 52 99 73 115 32 133 32 69 30 108 42 21 21 34 55 60 69 124 47 131 26 63 48 38 2 61 15 29 105 35 3 70 21 46 38 105 40 71 70 37 132 32 54 113 101 37
split_gain=1773.49 1020.15 1858.83 1388.52 1589.47 1619.51 1259.91 1343.14 1144.21 1239.52 920.802 845.121 723.895 586.292 574.157 564.047 1873.6 697.297 500.781 1194.17 484.308 477.835 427.937 380.872 527.307 365.177 372.562 356.996 334.47 351.837 356.537 309.582 235.944 195.092 194.757 231.263 177.681 161.018 246.749 140.678 135.555 128.721 101.224 81.6159 81.2292 67.308 136.516 54.9928 48.4578 44.9558 8.97149 2.62943 0.138828 0.124516 0.0963831 0.0806893 0.0550865 0.0529158 0.0019066 4.49322e-06
threshold=-1.018004775047302 1.0598058104515078 -0.83538860082626332 1.0000000180025095e-35 -0.82267636060714711 -0.11354322731494902 1.0000000180025095e-35 -1.2741270661354063 -1.0868073105812071 -0.89900580048561085 0.96305373311042797 -0.95856320858001698 -0.31318493187427515 1.2009260654449465 0.78085926175117504 -0.48240441083908076 -0.44402548670768732 -1.4482531547546384 0.92860853672027599 1.0000000180025095e-35 0.89974120259284984 -0.067739900201559053 1.1061096191406252 -1.0601513981819151 1.1360936164855959 1.2755104899406435 1.2477874159812929 0.86165449023246776 0.99397471547126781 0.72271117568016063 -0.14821454882621762 -1.1913945674896238 1.1920741796493532 1.0000000180025095e-35 1.2392227649688723 0.4749473780393601 1.1791336536407473 0.94572311639785778 0.39504604041576391 0.81798475980758678 0.5853746533393861 1.1129237413406374 -0.96445369720458973 0.94877782464027416 0.51108798384666454 -0.10187551751732825 0.97033420205116283 1.2354388833045962 0.98389646410942089 -0.96445369720458973 1.0825352668762209 -0.23660907149314878 -0.10734576359391211 0.94574350118637096 1.0000000180025095e-35 0.87756982445716869 1.1591737270355227 -1.3625664114952085 -0.78256025910377491 0.95634430646896373
decision_type=2 2 2 2 2 2 2 2 2 2 2 2 2 2 2 2 2 2 2 2 2 2 2 2 2 2 2 2 2 2 2 2 2 2 2 2 2 2 2 2 2 2 2 2 2 2 2 2 2 2 2 2 2 2 2 2 2 2 2 2
left_child=12 3 6 4 14 13 8 11 31 -10 -7 -8 15 -6 42 16 18 45 20 -20 -1 -16 -9 24 -18 26 36 51 34 30 -30 -3 -28 -31 41 -36 -5 38 -27 52 -25 -4 -2 47 -39 48 -47 49 -17 -41 -29 -19 53 -14 -49 57 58 -54 -45 -55
right_child=1 2 28 25 5 10 7 22 9 -11 -12 -13 39 -15 21 17 23 27 19 -21 -22 -23 -24 40 -26 37 32 50 29 33 -32 -33 -34 -35 35 -37 -38 44 -40 43 -42 -43 -44 56 -46 46 -48 54 -50 -51 -52 -53 55 59 -56 -57 -58 -59 -60 -61
leaf_value=0.12266299232626737 0.16287711612259095 0.24140317354118337 -0.12204081611896318 -0.12927689080771837 -0.036348366447804342 0.11797180094743483 0.23897743217230658 0.16390658545995468 0.094243102765232317 0.038399940009210223 0.072441182342939794 -0.057812984548127944 -0.13387469901226101 0.063684242799357901 0.13104125522423082 0.20234084822875698 0.075132403226074979 -0.13971776961382523 0.1647440541204267 0.027808338049340395 0.15513514742498377 0.20922886935262408 -0.09741057620277617 0.049675123327502041 -0.11334703759290171 0.034748913625605789 0.11893313415151713 0.14113584845114507 0.067860902604377035 -0.043018534906155301 0.51060164423698118 0.13457876771029492 0.45706289190011989 0.1850456259930999 -0.018598688019610243 -0.10982382443890576 0.03872966302057633 -0.13153987162422143 -0.11332153281350801 -0.12502079167835564 -0.1199355844287795 0.27074407296912167 -0.10168358393933097 -0.12319987488034706 0.19894584627087381 0.15210482206608611 -0.12602747235397424 -0.12667619710727393 0.17387508106530999 0.16978098606287423 0.22053081846684752 -0.10920434180067236 -0.10768908144512664 -0.10498644276497615 -0.10590325284932277 -0.12255766660794826 -0.1382339851669534 -0.10367822307386676 -0.12553800869678178 -0.10471921277618884
leaf_weight=8596.4582864679396 16.407156147062778 324.12424524128437 11.376437719911335 92.116903848946095 1114.696781154722 14297.00818362087 119.32929734140635 3943.455622330308 9844.7466828078032 6666.3091287426651 6443.7437120489776 489.58486368507147 3.5148803144693366 1235.1113407723606 20539.692594997585 755.79085975885391 804.62753081321716 69.564168311655521 1211.6187132708728 1342.4637832455337 9862.5118622332811 812.55253200232983 63.679704949259758 58.252329677343369 182.01170475408435 366.51955013722181 285.36833042651415 31.531631398946047 40.978184502571821 160.42169058322906 32.70591888204217 1664.3127931803465 22.245550192892551 48.953943848609924 773.85313408076763 433.6001756079495 198.80243362486362 182.21043967828155 162.41360588744283 5.7267369925975791 246.57899597287178 31.294297762215137 121.9945597294718 5.2488152049481878 7.7536306157708159 105.99946564994752 21.172321584075689 3.3915121853351575 2864.8545258119702 53.477802332490683 25.941711992025375 47.541256988421082 71.33820909447968 1.4376301951706412 6.542157519608736 2.9513825476169577 3.7599510848522177 61.037543874233961 10.393382921814919 1.1188976056873796
leaf_count=11864 32 621 85 550 9753 35202 305 9255 35013 34774 23316 3289 20 6895 45208 369 1524 420 1420 4546 12443 937 318 346 1056 2059 895 50 231 1089 27 3378 20 126 5573 3256 864 1053 991 36 1579 50 2049 36 17 97 234 21 644 161 9 898 1461 32 155 20 21 1860 65 26
internal_value=0 0.101326 0.0849167 0.110138 0.113128 0.0949122 0.0919891 0.138726 0.0803271 0.0716965 0.103826 0.000349223 0.131686 0.016231 0.132701 0.133235 0.127085 0.168206 0.13427 0.0927686 0.140013 0.134017 0.159754 0.0101769 0.0403624 0.00895997 0.0666602 -0.0271503 -0.0217129 0.0764437 0.264379 0.151992 0.143385 0.010305 -0.043938 -0.0513579 -0.0144681 -0.0390796 -0.0107174 -0.0449731 -0.0875235 0.166024 -0.0703206 0.0538729 -0.118051 0.177306 0.1058 0.104734 0.179817 0.141265 0.176972 -0.12733 -0.106868 -0.121661 -0.112995 -0.106204 -0.127366 -0.10584 -0.124753 -0.104869
internal_weight=0 70547.4 24648.7 45898.6 44581.2 23090.6 23115.5 4616.05 18499.5 16511.1 20740.8 608.914 26456.9 2349.81 21490.6 26226.9 22304.5 3922.4 21013.1 2554.08 18459 21352.2 4007.14 1291.47 986.639 1317.43 598.533 174.579 1533.18 283.06 73.6841 1988.44 307.614 209.376 1250.12 1207.45 290.919 718.897 528.933 229.939 304.831 42.6707 138.402 88.5404 189.964 3747.82 127.172 69.1382 3620.65 59.2045 57.4733 117.105 141.399 6.07141 9.93367 135.327 19.4021 132.376 15.6422 2.55653
internal_count=268644 227231 97390 129841 123392 75166 86953 13167 73786 69787 58518 3594 41413 16648 48226 37499 34778 2721 30273 5966 24307 46145 9573 4505 2580 6449 2329 1377 10437 1473 258 3999 915 1215 8964 8829 1414 4120 3050 3914 1925 135 2081 495 1070 1344 331 373 1013 197 59 1318 3419 78 176 3341 122 3321 101 58
is_linear=0
shrinkage=0.1


Tree=7
num_leaves=56
num_cat=0
split_feature=108 119 30 104 69 102 98 101 103 72 69 9 101 74 107 126 56 36 76 71 109 29 100 92 65 37 72 102 40 41 24 30 118 48 46 69 47 105 108 21 72 34 114 70 59 38 70 38 70 39 132 37 118 65 107
split_gain=1727.02 955.167 917.095 1058.69 1387.99 1307.85 1050.24 889.219 680.693 672.1 564.818 958.24 481.731 1808.33 659.175 623.704 612.721 602.779 540.311 443.511 379.58 336.993 381.624 320.956 299.672 284.715 264.107 201.556 181.77 307.251 177.991 172.43 147.428 145.481 144.707 121.33 116.127 84.2248 68.4376 60.2316 114.975 58.6737 34.7625 23.6761 13.4197 12.5655 1.75413 2.06538 1.48674 1.64642 0.316386 0.162607 0.134161 0.0464905 0.0242685
threshold=-1.0287655591964719 -1.4778506755828855 1.0555630326271059 -0.81653600931167591 -0.047212656587362282 -0.78488487005233754 -0.98924860358238209 -0.77801448106765736 -0.81723538041114796 -0.67302668094634999 -0.071944784373044954 0.6399943232536317 -0.57172238826751698 -0.50043749809265126 -0.97796928882598866 -2.9903600215911861 0.94592466950416576 0.88316214084625255 -0.72866985201835621 -0.29941801726818079 -1.1100325584411619 1.2260538935661318 -0.95354902744293202 -0.39868423342704767 0.43071860074996954 0.96472978591918956 -0.31318493187427515 -0.83673653006553639 1.0519472956657412 1.0976837873458865 1.2252063751220705 1.096778988838196 -1.579640746116638 1.2058917284011843 1.1513415575027468 -0.0034861010499298568 1.1100367307662966 -0.79208189249038685 -0.94675827026367176 1.1366968154907229 -0.4715654850006103 0.83490902185440075 -1.4421057701110838 -0.10734576359391211 0.84438842535018932 0.98338326811790477 -0.10734576359391211 0.98338326811790477 -0.10187551751732825 1.0257136225700381 1.0000000180025095e-35 0.95538994669914257 -1.6113195419311521 0.35468694567680364 -0.96129494905471791
decision_type=2 2 2 2 2 2 2 2 2 2 2 2 2 2 2 2 2 2 2 2 2 2 2 2 2 2 2 2 2 2 2 2 2 2 2 2 2 2 2 2 2 2 2 2 2 2 2 2 2 2 2 2 2 2 2
left_child=12 24 3 10 5 -5 21 -6 9 -8 11 -3 13 14 16 42 18 -18 -1 34 26 22 -4 32 30 -21 33 -12 41 -30 39 -23 44 -17 -16 -34 -10 -28 43 -2 -41 -25 -14 45 -15 -26 47 -22 49 -44 -45 -50 -48 -32 -55
right_child=1 2 6 4 7 -7 8 -9 36 -11 27 -13 15 23 19 20 17 -19 -20 25 46 31 -24 28 38 -27 37 -29 29 -31 53 -33 35 -35 -36 -37 -38 -39 -40 40 -42 -43 48 50 -46 -47 52 -49 51 -51 -52 -53 -54 54 -56
leaf_value=0.11005654005935502 0.3621375551437569 0.080315139327888474 0.16018082322124996 0.079879854339057157 0.16070483138832867 0.0046790054882361026 0.058853477090431754 0.0908232346774277 0.0135727761727132 0.08936978124253149 -0.17250420169753897 0.12457249736962127 0.096701556283343523 0.12832574636954028 -0.14032351504222154 -0.014413347535121702 0.21655670454939285 0.13064960412354285 0.024549664500914427 -0.16289981022180153 -0.12624620924932337 0.13813397991570231 0.059130691892341894 0.11596231752841094 -0.12862381833894013 0.086918340146159012 -0.10771240362344588 0.16837270669701179 0.048836032881216608 -0.1012252557009419 -0.1399522648188733 -0.098401181923941691 -0.096677028582497798 0.16235506574558284 0.12697565766674909 0.058675523793574526 -0.073889081871528303 0.13345563773497646 0.13626004308708703 0.24337322331009298 -0.13386963229989057 -0.14575998752642585 -0.12428549658087561 -0.12919803936883403 0.20955219167196062 -0.19184515135188976 -0.13401380449494554 -0.18326065850602258 -0.10444096713628276 -0.18247090877377131 -0.10519556927119125 -0.13718616966697525 -0.10517931053740533 -0.13484961229796991 -0.12706310155430808
leaf_weight=5565.195790104568 15.598303228616713 7664.88132872805 2198.7881251648068 8723.4651419557631 2672.1319491863251 3146.9308961872011 15488.300522707403 5715.9349780082703 281.56324373930693 13514.867886859924 17.506015323102474 13524.073940344155 8.1749873925000411 33.310111977159977 22.454261004924774 47.074849791824818 887.59981869906187 10235.313108772039 852.15151568502188 169.05355503410101 17.000420540571216 46.763902835547924 450.26611845940351 8.9975123852491361 52.250328958034515 62.482239082455635 48.837770193815231 1898.555016618222 300.97628561966121 249.59651941806078 5.925579488277438 90.388877563178539 61.004227325320244 4243.9259266406298 206.6112108528614 285.77656646817923 329.4183199480176 20.584713278338313 9.5166376233100873 26.640961989760395 11.595554172992708 178.47273945622146 40.155018545687199 5.7488595992326728 52.236378647387028 78.925480604171753 1.7812690753489757 10.145556852221487 42.620228046551347 5.533203348517417 122.75537519715726 1.572459103539585 17.144226903095841 6.0822650939226195 11.707377091050144
leaf_count=11037 7 20973 3903 28367 4786 16031 62052 13089 1886 46255 90 25712 56 39 123 185 949 8781 1914 752 107 132 1605 14 312 92 1046 2582 1045 1744 30 580 209 1730 345 704 2692 42 29 31 65 907 371 34 14 328 17 42 1295 34 2959 22 395 32 71
internal_value=0 0.0883656 0.0891234 0.0986336 0.0819469 0.0599435 0.0763953 0.113085 0.070873 0.0730734 0.113265 0.108563 0.119291 0.112376 0.120207 0.148718 0.123308 0.137505 0.0987022 0.00211852 0.154269 0.135092 0.143005 -0.00807148 -0.0772274 -0.0954839 0.157285 0.165258 -0.0481514 -0.0191927 0.0959776 -0.0177517 0.0603505 0.160416 0.100774 0.0313466 -0.0335834 -0.0362028 -0.127124 0.19653 0.128971 -0.133199 -0.100726 -0.136777 0.177924 -0.166663 -0.131262 -0.147555 -0.118683 -0.131332 -0.106269 -0.105606 -0.107893 -0.132281 -0.129725
internal_weight=0 76110.6 75763.8 43363.5 20258.5 11870.4 32400.4 8388.07 29614.1 29003.2 23105 21189 23675.8 19171.2 18000.9 4504.55 17540.3 11122.9 6417.35 460.601 4406.49 2786.21 2649.05 1170.37 346.747 231.536 4360.42 1916.06 738.043 550.573 77.55 137.153 432.327 4291 229.065 346.781 610.982 69.4225 269.197 53.8348 38.2365 187.47 98.0559 259.68 85.5465 131.176 46.0715 27.146 89.8809 45.6882 128.504 44.1927 18.9255 23.7152 17.7896
internal_count=268644 234633 230735 111630 62273 44398 119105 17875 112885 108307 49357 46685 34011 28669 23993 5342 22681 9730 12951 1312 3564 6220 5508 4676 3898 844 3003 2672 3710 2789 236 712 966 1915 468 913 4578 1088 3662 103 96 921 1778 3633 53 640 561 149 1722 405 2993 1317 412 133 103
is_linear=0
shrinkage=0.1


Tree=8
num_leaves=58
num_cat=0
split_feature=108 51 117 76 114 133 30 103 75 57 123 72 36 104 76 55 99 35 33 135 100 100 131 70 54 49 44 55 35 66 52 107 109 111 92 61 34 108 133 102 30 61 35 35 132 132 132 105 30 70 29 32 37 104 118 52 52
split_gain=1701.9 817.158 806.412 997.521 1562.95 770.384 1085.65 855.449 757.474 542.091 609.155 542.358 460.349 701.925 417.641 333.526 336.994 316.673 504.977 376.237 316.091 410.646 288.904 220.279 214.032 212.833 199.492 189.627 177.867 171.238 154.028 144.518 139.999 138.073 300.969 127.179 116.513 269.242 99.6215 92.2942 118.981 85.3003 56.1692 49.1177 1.82694 1.74598 1.51762 1.06579 0.270909 0.0793691 0.0760175 0.0717029 0.0705957 0.0449326 0.0379042 0.0257728 0.00973035
threshold=-1.0195595622062681 0.79193970561027538 -0.90609332919120777 -1.2120541334152219 -0.91460269689559925 1.0000000180025095e-35 1.1010950803756716 -0.8989044427871703 -1.1411759257316587 0.86553248763084423 -1.8633428812026975 -0.31318493187427515 0.87087357044219982 -0.87240540981292714 -0.71242424845695485 0.99296990036964428 -0.98029154539108265 0.82564544677734386 0.83410108089447033 1.0000000180025095e-35 -0.85352346301078785 -0.94929775595664967 1.0000000180025095e-35 -0.23059816658496854 0.89905467629432689 1.0595808029174807 0.89802452921867382 1.0863885283470156 0.8619152605533601 0.10558765009045602 1.0568582415580752 -1.0121251940727232 -0.82821843028068531 -0.92158633470535267 -1.0420762300491331 0.62965109944343578 0.82289633154869091 -1.035720646381378 1.0000000180025095e-35 -0.93456166982650746 0.9589243233203889 0.81798475980758678 0.94877782464027416 0.94300726056098949 1.0000000180025095e-35 1.0000000180025095e-35 1.0000000180025095e-35 -0.90312612056732167 1.0534828305244448 -0.10734576359391211 1.2353330850601199 0.87756982445716869 0.94574350118637096 -0.95822170376777638 -1.3685012459754942 0.7454187572002412 0.7454187572002412
decision_type=2 2 2 2 2 2 2 2 2 2 2 2 2 2 2 2 2 2 2 2 2 2 2 2 2 2 2 2 2 2 2 2 2 2 2 2 2 2 2 2 2 2 2 2 2 2 2 2 2 2 2 2 2 2 2 2 2
left_child=9 33 3 4 32 6 -5 -7 -6 10 26 12 36 27 -15 16 29 18 31 25 21 -17 -18 -22 -20 -19 -1 -14 -21 -4 46 -12 -3 34 39 -32 37 -11 -38 40 -2 49 43 -43 56 47 -28 50 -46 52 -35 -51 -13 -47 -44 -49 -36
right_child=1 2 15 5 8 7 -8 -9 -10 11 17 41 13 14 -16 20 22 19 24 28 23 -23 -24 -25 -26 -27 30 -29 -30 -31 35 -33 -34 45 44 -37 38 -39 -40 -41 -42 42 54 -45 48 53 -48 55 -50 51 -52 -53 -54 -55 -56 -57 -58
leaf_value=0.23409561485448235 0.24005619302964556 -0.090787556699677655 0.12334514411108291 0.082001014097948688 -0.020344241693457665 0.097060956157052944 -0.060245652313185696 0.0077853323869309854 0.081482366139233181 0.15698118711353562 0.082694336564817839 -0.12752285100860608 0.020729796376356569 0.14084949214229772 0.10641502859637962 0.071559519637974231 0.092657008344484287 0.0010553385047841414 0.017761979996594606 -0.078032121696135825 -0.036234364265721151 0.19682181566648616 0.015682987009477727 0.1182882312628647 0.1547937256553662 0.067784524816742742 -0.1570625731263503 0.27167728454657597 0.17330758832895973 0.2418983398924226 0.065622363130665801 -0.063294630232286209 0.1518946538204079 -0.1248756426015703 -0.11184876017819501 -0.17438173973260479 0.073770386585074885 -0.12824651614606106 0.18994539213841188 0.4097656095246498 -0.13235915746859714 0.0039266337507445686 -0.12341652587891955 0.18583913845627126 -0.15377517000773055 -0.14630918146879557 -0.17898135474236465 -0.10407615944164833 -0.12984413995373889 -0.10498838521722434 -0.11726666640613428 -0.12113399795945207 -0.10416453483911314 -0.1609210850998537 -0.13528805698149479 -0.10754270674842248 -0.11568910657978188
leaf_weight=19.877566188573837 25.412877112627029 920.26517257094383 1452.7754967957735 58584.541654093191 948.61777692660689 1644.1437659710646 541.50290092080832 3091.4692215099931 3177.8238649629056 171.12198416143656 114.84792968630791 3.1340608820319167 955.28361597657204 4731.4839792698622 13781.397536642849 339.17348314076662 2221.6341745592654 617.17556657642126 124.65943417698145 30.379884801805019 132.41064313426614 1145.9700276888907 624.71178499609232 304.20143463462591 1330.7187409549952 2119.2343968376517 89.978853918612003 31.091726928949356 384.66376134008169 132.98804260417819 75.211821347475052 165.55402832478285 24.401420786976814 19.229080066084862 12.067874692380428 31.253630176186562 79.050690688192844 41.029871739447117 1113.8382831588387 14.599072512239216 12.950454480946062 39.709111550822854 15.393081091344358 23.70228485763073 26.094322919845585 3.8868618607521057 48.6778609380126 171.59791883081198 5.7778374925255767 108.69005208089948 41.394911985844374 2.8220186531543723 2.2036530897021294 4.5893319547176343 3.2589203268289557 24.510500524193048 14.554965373128653
leaf_count=14 7 5408 2294 169965 4882 4524 2696 13009 7720 256 236 20 2606 4730 15841 646 5336 1870 413 106 492 1375 2980 381 1857 4858 405 24 303 117 145 813 33 162 134 132 140 308 1286 28 95 311 102 43 118 21 204 4870 51 3242 363 20 58 20 20 424 130
internal_value=0 0.0766071 0.0773422 0.0742 0.031511 0.0775899 0.0806983 0.0387807 0.0580737 0.106156 0.0770755 0.113256 0.11482 0.110836 0.115216 0.111431 0.0963446 0.0850823 0.119381 0.0661908 0.146225 0.168215 0.0757629 0.0714264 0.143056 0.0527343 -0.0705887 0.02864 0.15491 0.133287 -0.0952963 -0.0035 -0.0845189 -0.0703163 0.023077 -0.00483241 0.170103 0.101819 0.182247 0.195773 0.114339 -0.0510884 0.0270533 0.071923 -0.133285 -0.109566 -0.164758 -0.108092 -0.149437 -0.105967 -0.11968 -0.105397 -0.117879 -0.154221 -0.125491 -0.104509 -0.113948
internal_weight=0 75663.3 75286.6 68932.8 5071.11 63861.7 59126 4735.61 4126.44 26255.4 5152.23 21103.2 20904.3 19499.3 18512.9 6353.87 4432.11 4887.23 1735.78 3151.45 1921.76 1485.14 2846.35 436.612 1455.38 2736.41 265 986.375 415.044 1585.76 245.122 280.402 944.667 376.666 111.457 106.465 1405.04 212.152 1192.89 52.9624 38.3633 198.913 82.0634 63.4114 58.495 265.209 138.657 256.732 31.8722 116.85 60.624 111.512 5.33771 8.47619 18.652 196.108 26.6228
internal_count=268644 228281 221858 208237 18043 190194 172661 17533 12602 40363 11356 29007 25191 23201 20571 13621 10727 10456 3319 7137 2894 2021 8316 873 2270 6728 900 2630 409 2411 886 1049 5441 6423 563 277 1990 564 1426 130 102 3816 476 354 433 5860 609 5819 169 3340 525 3262 78 41 122 5294 264
is_linear=0
shrinkage=0.1


Tree=9
num_leaves=58
num_cat=0
split_feature=132 33 110 105 38 55 134 80 95 74 95 4 134 54 135 3 98 7 101 55 100 104 74 69 73 123 129 104 109 111 31 109 50 126 44 105 97 30 106 34 19 71 63 28 125 60 44 71 82 67 34 114 71 105 66 38 47
split_gain=1806.14 917.014 1331.39 1637.6 1047.03 913.385 1508.94 821.99 772.651 983.956 1642.35 1193.83 895.362 2542.63 1142.91 865.754 671.791 1011.58 614.21 571.446 704.007 569.904 1250.8 521.063 507.063 453.834 439.594 419.674 375.85 309.192 294.074 286.282 275.668 254.999 251.687 241.514 220.375 207.768 154.709 138.267 134.319 116.621 327.127 105.876 141.785 100.729 94.9731 78.7739 68.2622 46.9966 62.2757 30.393 2.6063 0.854945 0.777032 1.19694 0.298718
threshold=1.0000000180025095e-35 0.88451895117759716 -1.1878204345703123 -0.86194193363189686 0.99111509323120128 1.0285266637802126 1.0000000180025095e-35 -1.1602522134780882 -1.0495525598525999 -0.95008254051208485 -0.96976378560066212 0.57414704561233532 1.0000000180025095e-35 1.0287227630615237 1.0000000180025095e-35 0.58690574765205394 -0.82353952527046193 0.51788929104805004 -0.86807245016098011 0.77143630385398876 -0.95354902744293202 -0.74995973706245411 -0.50043749809265126 0.034579481929540641 -0.67936819791793812 -1.1086660027503965 1.0000000180025095e-35 -0.90769380331039418 -1.1017864346504209 -0.94460090994834889 1.0002665519714358 -1.1160062551498411 1.1546274423599245 -2.9903600215911861 1.1847187280654909 -0.85122212767601002 -0.91705995798110951 1.0672906041145327 -0.97164577245712269 0.90756651759147655 1.5145230889320376 -0.39321367442607874 0.57631510496139537 1.1736696362495425 -1.6971032023429868 0.73304671049118053 1.1718813776969912 -0.2195172235369682 -0.70899122953414906 0.2415122985839844 0.92211279273033153 -1.4421057701110838 -0.44368892908096308 -0.90971544384956349 0.31544098258018499 0.98389646410942089 1.1124105453491213
decision_type=2 2 2 2 2 2 2 2 2 2 2 2 2 2 2 2 2 2 2 2 2 2 2 2 2 2 2 2 2 2 2 2 2 2 2 2 2 2 2 2 2 2 2 2 2 2 2 2 2 2 2 2 2 2 2 2 2
left_child=5 2 21 7 31 8 16 37 15 10 11 -10 14 -14 -11 25 26 24 -12 53 -21 22 32 41 -18 39 29 -9 -6 -7 -27 -5 -2 51 -24 38 -28 -4 45 -1 -19 52 -43 48 -45 56 54 -35 -40 -48 -51 -23 -8 -17 -37 -56 -3
right_child=1 35 3 4 28 6 23 27 9 12 18 -13 13 -15 -16 19 17 40 -20 20 -22 33 34 -25 -26 30 36 -29 -30 -31 -32 -33 -34 47 -36 46 -38 -39 43 -41 -42 42 -44 44 -46 -47 49 -49 -50 50 -52 -53 -54 -55 55 -57 -58
leaf_value=0.22787416215956818 0.045012209510089059 -0.17787125381828517 0.14524051971616406 -0.02416425076489918 0.081576685445076513 0.10031947412502001 -0.11376463651664964 -0.01493966442149202 0.092978659756497939 0.054693187292980942 0.028673053085383191 0.039663151898070986 0.1357258952067493 0.00051661005866512249 0.11213863309443242 -0.12588477487310321 0.067243786734955319 -0.041681736406672235 -0.072261692691941201 0.12344785073664842 0.048945368083557345 0.085242807689419164 0.016461206419691857 0.2068893935454392 0.12649148715589942 0.12176427238620587 -0.123434056997372 0.072380717003046671 -0.15274592681006138 0.16802189643678792 -0.10011771732035234 -0.12839101946621045 0.1356134243954506 0.14679733914608792 -0.10355100396995805 -0.2437944294845511 0.088121347058031096 -0.072904437759029855 0.14195944799033997 0.1343480927385832 0.18643965976371266 0.1625260098488833 -0.11941995696383167 -0.13797367094757068 0.10558523201956166 0.10406296690565685 0.14015945053933268 0.052138983472516255 0.12201609391931199 -0.22619297730635313 0.15844705910310303 -0.13116326946199966 -0.1346905039214237 -0.1041344125328485 -0.16052450946926497 -0.22115992917496277 -0.20115954803249236
leaf_weight=712.05477597564459 396.72233815491199 8.4892711937427539 1754.9294432401657 439.07923725619912 777.91035276092589 930.72104769945145 77.144395940005779 644.58235677704215 5581.4290075674653 26207.983894784003 998.64445439353585 16967.360545635223 5456.3296998925507 1866.6157141029835 3990.7494218349457 20.721576422452927 3130.2685524560511 670.25706382840872 1521.3068128488958 2385.2345941290259 2708.6576327234507 7.8463353738188735 647.63338723406196 64.330160140991211 2682.2756504006684 271.72566066682339 51.428381815552711 3767.0685492604971 75.056500254198909 2450.8807364106178 76.563395097851753 659.15363741852343 2187.9655205197632 3860.308096986264 239.32189927436411 7.8190981596708324 1156.8954298906028 44.774299874901772 3941.5660966262221 203.17530803382397 26.844887226819992 59.508399367332458 133.40104354172945 33.004062250256538 86.659746952354908 21.632297806441784 19.744484856724739 89.964175816625357 3039.9261264801025 11.321035638451578 6.7007001191377631 37.539028594270349 260.51419587060809 141.33278456889093 4.3627471327781704 12.827253647148607 15.683421984314917
leaf_count=710 637 35 910 1512 1124 1929 801 2340 13391 76278 3169 64754 11447 7376 8401 157 7595 2371 9257 3983 9034 56 1736 19 5237 504 213 5259 471 2659 345 6812 1195 1277 1717 33 2188 355 1871 273 15 114 646 115 85 21 8 648 1543 49 3 504 1399 3922 21 57 63
internal_value=0 0.0992773 0.0856683 0.0577529 -0.0221631 0.067429 0.0932748 0.0828573 0.0630555 0.059643 0.0443036 0.0528602 0.0698915 0.101261 0.0622846 0.0958174 0.101591 0.0809328 -0.0322617 0.0779502 0.0838314 0.116183 0.0865451 -0.0618845 0.0945844 0.170141 0.130889 0.0596224 0.0609576 0.149388 0.0729886 -0.0867206 0.121707 0.141934 -0.015921 0.12878 0.0791172 0.139813 0.130495 0.207112 -0.0328969 -0.0944727 -0.0324457 0.131677 0.0384101 -0.0526961 -0.0665088 0.144642 0.133276 0.0335841 -0.0831791 -0.0937504 -0.12991 -0.106916 -0.217659 -0.205771 -0.192981
internal_weight=0 22839.6 15629.9 8162.55 1951.2 80804.4 11694.5 6211.35 69109.9 62590.4 25068.7 22548.8 37521.7 7322.95 30198.7 6519.47 11099.6 6509.65 2519.95 5255.95 5093.89 7467.3 3471.64 594.898 5812.54 1263.52 4589.93 4411.65 852.967 3381.6 348.289 1098.23 2584.69 3995.66 886.955 7209.74 1208.32 1799.7 7146.96 915.23 697.102 530.568 192.909 7101.16 119.664 45.805 62.7753 3950.27 6981.49 37.7662 18.0217 45.3854 337.659 162.054 25.0091 17.19 24.1727
internal_count=268644 30457 26553 18783 9919 238187 25186 8864 213001 194073 90571 78145 103502 18823 84679 18928 22207 15218 12426 17096 13017 7770 5285 2979 12832 1832 6989 7599 1595 4588 849 8324 1832 2485 3453 3904 2401 1265 3733 983 2386 2960 760 3614 200 119 171 1925 3414 60 52 560 2200 4079 111 78 98
is_linear=0
shrinkage=0.1


Tree=10
num_leaves=56
num_cat=0
split_feature=132 33 110 124 80 54 134 37 111 78 130 95 75 116 91 76 3 104 74 55 100 69 111 73 5 99 43 32 76 123 51 89 126 102 31 105 30 105 50 59 110 71 30 55 72 111 118 37 43 32 114 71 105 106 68
split_gain=1839.97 817.83 1167.54 1514.78 879.845 737.135 1418.89 665.156 642.995 768.068 627.274 616.298 928.5 1166.74 843.7 985.829 646.907 526.856 1058.71 465.214 550.754 454.884 434.237 417.773 416.506 392.885 364.902 359.199 343.571 312.547 275.633 256.766 252.121 243.455 233.173 204.48 173.484 133.647 127.039 124.738 122.655 108.332 240.211 106.196 102.837 82.4273 89.2338 81.915 78.5198 46.132 26.9592 1.96523 0.625513 0.524117 0.241296
threshold=1.0000000180025095e-35 0.88451895117759716 -1.1851772069931028 -2.2642809152603145 -1.1602522134780882 1.0626177191734316 1.0000000180025095e-35 0.95688459277153026 -0.94460090994834889 -1.2333746552467344 1.0000000180025095e-35 -1.0495525598525999 -1.1204495429992674 -0.9130570888519286 -1.171204090118408 -1.1941520571708677 0.58690574765205394 -0.74995973706245411 -0.50043749809265126 0.77143630385398876 -0.95354902744293202 0.034579481929540641 -0.906469166278839 -0.67936819791793812 0.62810811400413524 -0.91331946849822987 1.0850877165794375 0.87897363305091869 -1.1483293175697324 -1.1086660027503965 1.1299106478691103 -0.36179006099700922 -2.9903600215911861 -0.77226170897483815 1.0002665519714358 -0.85122212767601002 1.0672906041145327 -0.92551633715629567 1.1842552423477175 0.89331623911857616 -1.1629189252853391 -0.39321367442607874 1.0301776528358462 0.90846183896064769 -0.62943407893180836 -1.251569867134094 -1.579640746116638 0.93656781315803539 1.1601633429527285 0.89357051253318798 -1.4421057701110838 -0.44368892908096308 -0.90971544384956349 -0.91003096103668202 -0.087042361497879014
decision_type=2 2 2 2 2 2 2 2 2 2 2 2 2 2 2 2 2 2 2 2 2 2 2 2 2 2 2 2 2 2 2 2 2 2 2 2 2 2 2 2 2 2 2 2 2 2 2 2 2 2 2 2 2 2 2
left_child=5 2 17 7 36 11 8 39 9 26 28 16 13 25 22 -16 29 18 30 52 -21 41 -14 -11 -15 -13 -7 -6 -10 44 -2 -20 50 -12 -31 37 -5 43 -34 -4 -9 51 -43 -3 -1 46 -39 -47 49 -37 -19 -8 -18 -51 -45
right_child=1 35 3 4 27 6 21 40 10 23 33 12 14 24 15 -17 19 32 31 20 -22 -23 -24 -25 -26 -27 -28 -29 -30 34 -32 -33 38 -35 -36 48 -38 45 -40 -41 -42 42 -44 54 -46 47 -48 -49 -50 53 -52 -53 -54 -55 -56
leaf_value=0.18251717651568633 0.019117747013324287 0.10627126175942136 -0.14491773732400728 0.13403654456425759 -0.016299298334007714 0.08733816569389094 -0.11367990081376983 0.07120939094940297 0.06504075105783258 0.051220511563164386 0.18218119825267429 -0.0073721940001327414 0.0051874688690460476 0.074665605138793043 -0.0022255624962260736 0.056267174589919838 -0.12310208079527706 0.076715313786123576 0.044165381470914228 0.10861521318050038 0.043266290114114432 0.18613460620752037 0.13352003038391888 0.10369240436671456 -0.040237098579794239 -0.099309013137026947 -0.13861966688181093 0.058363330955777316 0.12248082103823357 0.10849435370150627 0.11988432428255696 -0.060448349486553581 -0.035456759072319564 0.098870379078459331 -0.092590320817727695 0.0729100624985273 -0.069140547761296356 0.12880283237455312 0.13645204301104816 -0.0532084269487757 -0.17205050568347635 -0.11535099276681478 0.11566574461010781 -0.15231047926097654 -0.003842274724811896 0.10324329032443025 -0.26790365750284045 0.12963608491003445 0.088537402191171066 -0.21661520411666635 -0.12545846599528507 -0.13108487909470248 -0.10372831103730092 -0.18951505166006188 -0.17821621383660557
leaf_weight=932.28301467746496 302.77102915197611 26.854514166712761 487.43578140065074 1713.5616428181529 771.49770213663578 98.865809559822083 84.550394993275404 309.31409216113389 2331.1989926546812 3358.0909418165684 1363.1739047318697 951.81709843873978 305.66228018701077 1845.7819808498025 3046.4240661747754 53179.306077705696 19.151608180254698 7.8466281406581393 434.65767501667142 2424.6559534519911 2755.1321718245745 64.340803161263466 1919.0039779283106 2768.1403589881957 380.50655286386609 908.47880068421364 257.91441034898162 3910.1127282753587 1881.9992769919336 268.43253637477756 2624.4988289475441 509.78679729253054 43.472691461443901 472.29275606200099 73.443617254495621 7.782519854605197 43.081739686429501 11.479159310460092 3850.719796244055 213.17107884399593 22.216053893789649 129.71194587647915 68.927218168973923 4.2650954946875599 30.581750780344009 1510.4286836758256 11.204575091600416 5310.521277345717 22.552840799093246 10.828740894794466 41.370127577334642 278.75389266014099 128.35833404026926 20.930165842175484 22.901633027940989
leaf_count=926 557 37 3904 910 2329 172 921 471 4342 9380 1136 4029 827 4190 11742 159863 157 56 777 3966 9034 19 2922 5615 1949 5553 1210 6241 2272 497 1650 2859 282 753 340 9 356 7 1902 3414 165 660 146 24 57 1180 50 2338 23 44 680 1587 3922 95 97
internal_value=0 0.0918802 0.0789421 0.0506743 0.068704 0.0594669 0.0811621 -0.061791 0.0885032 0.0666235 0.111954 0.0553398 0.0522659 0.00618336 0.0554877 0.0530979 0.0843255 0.105963 0.0797594 0.0688692 0.0738561 -0.0657304 0.115888 0.07493 0.055027 -0.0522697 -0.0760055 0.0460594 0.0906987 0.147434 0.109462 -0.0123024 0.13169 0.160744 0.0652963 0.120296 0.129054 0.121922 0.134533 -0.117014 0.0549084 -0.0945682 -0.0351888 -0.0347493 0.176598 0.123159 -0.0671494 0.123792 -0.0603608 -0.145286 -0.0932259 -0.127034 -0.106244 -0.198755 -0.174149
internal_weight=0 22245.3 15285.5 7470.39 6438.25 82327 13158 1032.14 12531.7 6483.01 6048.66 69169 62537 4086.58 58450.4 56225.7 6632.04 7815.12 3871.71 5327.3 5179.79 626.284 2224.67 6126.23 2226.29 1860.3 356.78 4681.61 4213.2 1304.74 2927.27 944.444 3943.41 1835.47 341.876 6959.75 1756.64 6897.65 3894.19 700.607 331.53 561.943 198.639 54.0212 962.865 6843.63 22.6837 6820.95 62.0943 39.5414 49.2168 363.304 147.51 31.7589 27.1667
internal_count=268644 30457 26553 17790 9836 238187 28213 7954 24880 16377 8503 209974 191075 15721 175354 171605 18899 8763 5843 17079 13000 3333 3749 14995 6139 9582 1382 8570 6614 1820 2207 3636 2920 1889 837 3904 1266 3733 2184 7318 636 3314 806 158 983 3575 57 3518 171 148 736 2508 4079 139 121
is_linear=0
shrinkage=0.1


Tree=11
num_leaves=59
num_cat=0
split_feature=132 33 109 81 32 42 71 103 99 136 102 69 35 56 134 110 69 5 104 44 124 105 62 92 37 37 33 52 127 95 31 31 30 102 32 66 105 105 56 99 83 100 65 32 72 106 55 83 37 79 127 102 43 32 70 74 81 104
split_gain=1828.07 739.019 1059.6 1259.43 614.745 1023.31 613.832 1447.62 903.685 805.031 1038.05 1509.12 750.735 703.535 949.878 1236.4 699.078 692.349 508.998 648.633 555.64 456.817 365.406 459.144 327.76 292.647 272.224 266.146 236.918 365.944 225.205 217.48 204.713 188.894 186.252 185.253 181.394 176.315 172.507 156.397 143.965 124.114 112.948 112.474 109.974 107.577 99.3521 89.7809 78.0663 215.487 98.4861 75.6433 64.7676 38.0174 2.52917 0.104866 0.0826902 0.0502348
threshold=1.0000000180025095e-35 0.88451895117759716 -1.1245991587638853 -1.1446389555931089 0.88293564319610607 1.1423543691635134 -0.41662757098674769 -0.79219874739646901 -0.83861389756202687 1.0000000180025095e-35 -0.8264268934726714 -0.12518723309040067 0.92011535167694103 0.9946964979171754 1.0000000180025095e-35 -0.98997452855110157 -0.11354322731494902 0.39007124304771429 -0.76061224937438954 1.1913043260574343 -2.3418360948562618 -0.93251100182533253 0.64840558171272289 -0.97806489467620839 0.94204890727996837 0.93698823451995861 0.94457301497459423 1.13790500164032 -1.7719162106513975 -0.97946307063102711 1.0010107159614565 1.0065867304801943 1.0577725768089297 -0.82697170972824086 0.8803527057170869 0.30832186341285711 -0.92951691150665272 -0.85122212767601002 0.98095062375068676 -0.86782529950141896 -1.2188495397567747 -0.712237387895584 0.37050041556358343 0.96419510245323192 -0.31318493187427515 -0.93803188204765309 0.9934661090373994 -1.2022305727005003 0.93656781315803539 -0.79321283102035511 -2.5879946947097774 -0.65170559287071217 1.1601633429527285 0.89357051253318798 -0.10734576359391211 -0.73505851626396168 -0.67932152748107899 -0.91012883186340321
decision_type=2 2 2 2 2 2 2 2 2 2 2 2 2 2 2 2 2 2 2 2 2 2 2 2 2 2 2 2 2 2 2 2 2 2 2 2 2 2 2 2 2 2 2 2 2 2 2 2 2 2 2 2 2 2 2 2 2 2
left_child=6 2 18 32 5 -5 7 9 24 12 11 -11 16 14 17 -16 -1 -10 19 20 -2 -6 35 -24 33 34 -12 54 30 -30 -26 -14 47 43 45 -15 55 48 -35 42 -34 -36 -27 -8 -29 -9 -41 -4 49 -38 -50 -21 53 -39 -20 57 -57 -3
right_child=1 36 3 4 21 -7 8 25 13 10 26 -13 31 22 15 -17 -18 -19 27 51 -22 -23 23 -25 28 39 -28 44 29 -31 -32 -33 40 38 41 -37 37 52 -40 46 -42 -43 -44 -45 -46 -47 -48 -49 50 -51 -52 -53 -54 -55 -56 56 -58 -59
leaf_value=0.052659998792424771 -0.061480222859141842 -0.15014770703209029 0.14366562830126986 -0.061792020210186052 -0.1302013698994107 0.095165663839425665 0.097673772005637594 0.15805530750918781 0.089508062004006267 -0.0069916549341493455 -0.10118235859567218 0.096876943483648434 -0.028222203539916529 0.12687349184214869 -0.097251454845709129 0.15135088337147323 0.092854951973699459 0.013761956064003808 -0.16850730919456214 -0.19995236356095902 0.092505949267899457 0.05644690728830009 0.09467624777901712 0.041708179802126225 0.15131921551179026 -0.11596382058129502 0.16361261906148253 0.12993620292883251 0.098094542327661211 -0.049805770486228827 0.094055445321350628 0.049714513379459049 0.1279326082919752 -0.080389791328138449 -0.0044759048984532156 0.27295826719086197 0.10448672019318661 0.066793740914004196 0.17842823756917203 -0.023001889761553297 -0.051032746549720037 0.099347100213560691 0.07351086543827258 -0.18191230674055522 -0.037493913487713297 -0.12064485877684322 -0.1119323041272986 0.099789286025396523 0.11255628017766522 -0.062742480318974489 0.14328721628046878 -0.057973058138281013 0.081339859261750469 -0.1818883660388261 -0.10800690784950095 -0.18249554063114856 -0.16434954151072495 -0.16312994865802258
leaf_weight=45634.00974586606 251.58754475414753 4.5346377417445174 964.80722960829735 1595.4466948220506 137.08212910592556 561.58933088742197 247.41506005451083 15.501511268317698 1445.1960476487875 3721.4931933004409 778.68325705453753 2241.197774766013 1385.5228136181831 599.61378408968449 237.45171283185482 1270.2130797505379 4780.2116243727505 7312.6690980792046 24.737389884889126 76.291734404861927 3416.3748998567462 3018.7413832247257 3847.0464553870261 2848.0777041763067 1766.0524571537971 45.358260467648506 40.861941084265709 3651.6305369250476 1660.2916617915034 186.0380473062396 1123.801102116704 482.80891492217779 70.8908776268363 186.81962040439248 279.05505323037505 101.50160948932171 1417.3773107677698 7.6525953374803057 29.869944050908089 153.23240138590336 122.82953211665154 196.02368078380823 102.68572834134102 15.277204766869543 39.656282424926758 129.9903925601393 697.27524985745549 902.70500595867634 3643.2905690222979 81.484147071838379 1461.069779060781 73.847880350425839 22.116739667952061 31.254643123596907 9.5878517646342498 4.4079136624932289 5.8362997993826848 8.6974037289619464
leaf_count=137890 1150 24 347 10219 678 1209 320 19 2515 16890 3855 3013 5507 1011 1011 1920 8527 23245 117 377 3180 4602 5264 7480 1635 203 79 1609 2227 689 2030 1764 89 1046 1507 48 1012 9 27 819 660 588 127 65 704 2425 4441 742 1897 212 506 620 23 139 250 19 26 37
internal_value=0 0.0852973 0.0729141 0.0459581 0.0202167 -0.0209277 0.0526648 0.0474023 0.0666239 0.0499596 0.0175455 0.0320495 0.0541644 0.0558235 0.0388824 0.112197 0.0564712 0.0262613 0.099264 0.073605 0.081944 0.0483393 0.0793366 0.0721439 0.103198 -0.0458834 -0.0879799 0.12556 0.111173 0.083192 0.129051 -0.00808202 0.112307 0.0244025 0.00804547 0.148022 0.11292 0.113897 -0.0447126 -0.0793987 0.0144586 0.0383628 0.0154589 0.0814141 0.128137 -0.0909506 -0.0959101 0.122457 0.115461 0.0953955 0.121353 -0.130118 -0.0553018 -0.132976 -0.151608 -0.164562 -0.172157 -0.158681
internal_weight=0 21605.5 14917.8 7374.09 5312.86 2157.04 83561.2 60683.9 22877.3 59064.8 6782.24 5962.69 52282.6 17661.8 10265.5 1507.66 50414.2 8757.87 7543.71 3818.1 3667.96 3155.82 7396.24 6695.12 5215.57 1619.12 819.545 3725.61 4736.18 1846.33 2889.85 1868.33 2061.23 479.382 620.571 701.115 6687.72 6664.25 216.69 998.552 193.72 475.079 148.044 262.692 3691.29 145.492 850.508 1867.51 6603.22 1498.86 5104.36 150.14 61.024 38.9072 34.3252 23.4763 10.2442 13.232
internal_count=268644 30457 26553 18546 16708 11428 238187 187654 50533 177525 23837 19903 153688 42494 28691 2931 146417 25760 8007 5327 4330 5280 13803 12744 8039 10129 3934 2680 6581 2916 3665 7271 1838 1458 4539 1059 3904 3798 1073 5590 749 2095 330 385 2313 2444 5260 1089 3627 1224 2403 997 171 148 367 106 45 61
is_linear=0
shrinkage=0.1


Tree=12
num_leaves=58
num_cat=0
split_feature=132 33 110 105 37 55 134 98 72 131 105 69 62 6 72 90 85 134 78 82 93 104 74 40 54 130 69 127 104 109 31 27 105 50 78 22 108 44 126 105 70 24 2 106 55 38 70 72 38 63 106 109 33 69 105 105 36
split_gain=1772.66 671.938 947.195 1018.95 726.463 574.422 1390.83 1001.28 823.101 651.607 625.062 774.607 1202.23 989.181 951.819 651.875 750.005 614.625 601.041 562.961 538.643 481.242 796.905 467.091 417.478 397.932 363.377 333.697 332.874 302.991 300.907 294.332 271.129 230.119 225.636 216.221 196.72 186.329 183.477 155.619 134.584 218.782 163.553 111.516 128.931 86.7475 82.5934 72.1482 68.2163 66.6306 59.483 53.1341 45.0434 22.861 5.43424 0.904697 0.182216
threshold=1.0000000180025095e-35 0.88451895117759716 -1.1878204345703123 -0.86194193363189686 0.95538994669914257 1.0191811919212344 1.0000000180025095e-35 -0.84411022067069996 -0.54875448346137989 1.0000000180025095e-35 -0.83039695024490345 -0.10548401251435278 0.58348464965820324 0.55403393507003795 -0.6398387849330901 -1.2308579087257383 -1.192504823207855 1.0000000180025095e-35 -0.78344911336898793 -1.1974391341209409 -1.0100916028022764 -0.74995973706245411 -0.50043749809265126 1.029031574726105 1.0248326659202578 1.0000000180025095e-35 0.034579481929540641 -1.7925484180450437 -0.90769380331039418 -1.1160062551498411 1.0035102963447573 1.205996632575989 -0.81997978687286366 1.1546274423599245 -1.3999786972999571 1.2887740135192873 -1.0315278768539426 1.1847187280654909 -2.9903600215911861 -0.85402411222457875 -0.23189699649810788 1.24939501285553 0.43235996365547186 -0.97164577245712269 0.89906844496727001 0.99580487608909618 -0.10187551751732825 -0.43774493038654322 0.96851208806037914 0.52803534269332897 -0.91869983077049244 -0.91732263565063465 0.89679849147796642 0.010147712193429472 -0.85122212767601002 -0.92551633715629567 0.92416894435882579
decision_type=2 2 2 2 2 2 2 2 2 2 2 2 2 2 2 2 2 2 2 2 2 2 2 2 2 2 2 2 2 2 2 2 2 2 2 2 2 2 2 2 2 2 2 2 2 2 2 2 2 2 2 2 2 2 2 2 2
left_child=5 2 21 19 29 10 7 25 9 -9 11 12 14 35 -1 24 20 -18 -14 51 -17 22 33 -10 32 27 40 -7 -21 -5 -15 -27 -12 -2 -26 -13 -6 -24 53 43 42 -42 -8 49 52 54 -40 -47 -46 55 -49 -4 -45 -23 -41 -3 -56
right_child=1 39 3 4 36 6 26 8 23 -11 15 13 18 30 -16 16 17 -19 -20 28 -22 38 37 -25 34 31 -28 -29 -30 -31 -32 -33 -34 -35 -36 -37 -38 -39 46 45 41 -43 -44 44 48 47 -48 50 -50 -51 -52 -53 -54 -55 56 -57 -58
leaf_value=0.037709882645948316 0.026679403170220828 -0.1574582652488048 0.1125335220321392 -0.013300069768052442 0.063684244809679824 0.10852190692638788 -0.12342658268824813 0.005136494769345263 0.1429802263206878 0.17120857797133812 0.079299110576139947 0.022446956873180053 -0.022767602733519989 0.12419582953653496 0.06840504087142546 0.013097792792860852 -0.02802809404744951 0.15718724684271884 0.12108400976193995 -0.013623591295890282 -0.047912588209471058 0.071798578621408635 0.012591429947625011 0.063411415881423225 0.024732867647472307 0.14859965588672655 0.16718449013115727 0.043506932774365931 0.059609231673016183 -0.12157080167885573 0.062006702820476871 -0.10010362731897929 -0.012390183650256025 0.11056007980669121 0.11370938515030132 -0.1522880177120933 -0.16848922445834896 -0.093152335209432016 0.12651981654628447 -0.29398455512726079 -0.092562510780007559 0.096685472913857207 0.23703413825428354 -0.24167596238383238 0.092989499610175108 0.12938383575878137 0.048021542660461325 0.075344325513283406 0.11646260711947531 0.080906625799735454 -0.20678296477994726 0.16045252865946813 0.074943072309163791 -0.12716176801024834 -0.15452739059502096 -0.20234744723138071 -0.17506296996409088
leaf_weight=31238.11897264421 390.3865408077836 16.663035869598392 880.6075321957469 450.30662354640663 733.98111914098263 2177.4902122244239 478.22682564333081 3684.4857427701354 838.35065507888794 252.44896663352847 505.67531714402139 1460.2940357625484 3493.4226213768125 3022.0499726776034 14930.614450762048 6022.9502623975277 262.30471709929407 565.27757003158331 316.79093846306205 733.21371609717607 1904.7108903639019 7.0033210143446913 638.5455750413239 6148.7789892815053 362.58437941968441 1838.5962054058909 62.944167762994766 1238.4531525745988 4044.0527795255184 606.71098556369543 1047.8055842071772 48.849802367389202 890.3449615817517 2016.2621047794819 1332.1181839182973 74.426452621817589 38.40361868403852 225.47762614116073 3290.1930321082473 4.1690348237752941 173.1226371973753 94.394659906625748 12.92787319421768 14.028700195252897 1700.1502724885941 36.015216618776321 139.72940443083644 13.556956276297571 4555.3504765853286 19.879435107111931 16.652827095240355 313.87340185791254 6.6104695647954932 32.930940601043403 6.5903082937002209 6.145616963505744 12.547608088701962
leaf_count=100825 637 73 559 1564 1013 3341 3252 12008 1064 374 1199 4134 11972 3068 34955 20990 2406 1073 368 2690 8564 16 1736 11896 921 1877 19 2645 5497 7079 2193 213 5767 1195 1650 358 263 1717 1180 19 837 212 6 63 1375 17 745 13 2130 21 73 118 6 544 34 25 55
internal_value=0 0.0793314 0.0674426 0.043719 -0.0215781 0.0468357 0.0632347 0.0696615 0.0523539 0.0157856 0.0426893 0.0471341 0.0431809 0.0823866 0.0476365 0.0218336 0.00789587 0.0984827 -0.0108074 0.0637223 -0.00156065 0.094899 0.0673775 0.0729585 0.0613158 0.105312 -0.0636993 0.0849507 0.0483695 -0.0754457 0.108185 0.142163 0.0208221 0.0969537 0.0946727 0.0139732 0.0521404 -0.0150037 0.120841 0.106309 -0.0828548 -0.0257855 -0.113939 0.108164 0.10926 -0.024605 0.123322 0.0337894 0.110083 -0.0529165 -0.0801754 0.125125 -0.140267 -0.0922698 -0.190528 -0.169553 -0.167991
internal_weight=0 20950 14541.7 7801.15 1829.4 84478.6 17049.1 16227.5 10924.1 3936.93 67429.5 55583.5 49978.9 5604.58 46168.7 11846 8755.24 827.582 3810.21 5971.75 7927.66 6740.53 3270.67 6987.13 3090.72 5303.39 821.616 3415.94 4777.27 1057.02 4069.86 1887.45 1396.02 2406.65 1694.7 1534.72 772.385 864.023 3469.86 6408.36 758.672 267.517 491.155 6318.83 6276.14 89.532 3429.92 66.225 6255.5 42.6881 30.2098 1194.48 20.6392 39.9343 23.307 22.8087 19.1379
internal_count=268644 30457 26553 18783 9919 238187 37744 33418 25342 12382 200443 157873 148120 9753 135780 42570 33033 3479 12340 8864 29554 7770 5285 12960 9537 8076 4326 5986 8187 8643 5261 2090 6966 1832 2571 4492 1276 3453 2485 3904 4307 1049 3258 3693 3574 211 1925 103 3505 119 86 677 69 560 108 98 89
is_linear=0
shrinkage=0.1


Tree=13
num_leaves=58
num_cat=0
split_feature=132 33 110 81 107 31 69 103 69 104 101 56 36 104 77 104 93 98 47 129 31 117 52 44 33 105 30 114 72 134 69 36 106 73 83 7 39 37 30 69 21 67 102 108 12 76 104 71 68 19 100 113 32 105 70 73 48
split_gain=1698.74 610.372 923.758 902.369 585.211 640.174 535.772 675.011 627.814 1036.94 747.294 709.135 592.205 457.76 504.788 417.838 505.885 290.474 284.962 272.99 272.703 217.756 213.003 207.978 205.552 199.319 177.959 176.391 176.282 163.042 160.454 124.258 120.389 110.837 108.588 98.4481 94.4116 94.1171 93.4502 91.1551 288.382 254.197 71.8035 65.2463 63.9313 62.4408 44.3062 33.9376 7.23196 17.5266 3.54212 3.53892 2.65952 2.26673 1.8874 1.63727 0.264162
threshold=1.0000000180025095e-35 0.88172829151153576 -1.1906303763389585 -1.1446389555931089 -0.99040311574935902 0.95116537809371959 0.010147712193429472 -0.75060582160949696 -0.052641628310084336 -0.78009012341499318 -0.77801448106765736 1.0009780526161196 0.94620758295059215 -0.76061224937438954 -0.49296644330024714 -0.76878046989440907 -1.0240318179130552 -0.75830334424972523 1.1527801752090456 1.0000000180025095e-35 0.95789858698844921 -1.4139241576194761 1.13790500164032 1.1913043260574343 0.95105215907096874 -0.84634295105934132 1.0577725768089297 -1.2594526410102842 -0.5687851309776305 1.0000000180025095e-35 -0.20548413693904874 0.93482235074043285 -0.97164577245712269 -0.37902969121932978 -1.2188495397567747 0.44792799651622778 1.0235846042633059 0.94408375024795543 1.0235005021095278 0.034579481929540641 1.1567032337188723 0.28041698038578039 -0.73660075664520253 -1.0794699788093565 0.63341704010963451 -0.41162541508674616 -0.91095951199531544 -0.32923841476440424 0.18418365716934207 1.0680024623870852 -0.72996357083320607 -1.0099219679832456 0.89247381687164318 -0.90971544384956349 -0.11784905567765235 -0.64822453260421742 1.1947669386863711
decision_type=2 2 2 2 2 2 2 2 2 2 2 2 2 2 2 2 2 2 2 2 2 2 2 2 2 2 2 2 2 2 2 2 2 2 2 2 2 2 2 2 2 2 2 2 2 2 2 2 2 2 2 2 2 2 2 2 2
left_child=6 2 13 26 20 -6 7 8 9 12 19 -12 -1 14 23 18 28 39 55 -10 -5 -18 54 -2 27 30 38 45 -17 -20 46 -11 43 -24 -28 -29 -16 -34 -4 40 41 -8 -42 -32 51 -19 -3 -27 49 -41 -50 -26 -49 -48 -15 -9 -54
right_child=1 25 3 4 5 -7 17 15 10 31 11 -13 -14 22 36 16 21 24 29 -21 -22 -23 33 -25 44 47 34 35 -30 -31 32 -33 37 -35 -36 -37 -38 -39 -40 48 42 -43 -44 -45 -46 -47 53 52 50 -51 -52 -53 56 -55 -56 -57 -58
leaf_value=0.041697983509405276 0.082714268948292577 0.04897942615883849 0.044964906608914758 0.060934083913145004 -0.045559284802435859 0.053173219864977861 -0.11720842888115582 -0.11774537109539762 0.11333105233061597 -0.041464939627705276 -0.0096456560147533798 0.082109960672619539 -0.014677994446155279 -0.16965585491310706 -0.016506221873063349 -0.093633560429979959 0.086387635142996827 -0.089816598990280549 0.10693126705171446 0.05449138281715863 -0.061971402409993319 -0.094062273076955041 0.11842117354402606 -0.10118412802859388 -0.1538581575844217 0.053759097214071343 0.10630986475664295 0.11690831750000741 0.09456213079179579 -0.12751572396020278 -0.19461493937082913 -0.12743069810178817 0.084007411890639941 -0.078926719407431248 -0.051099902113989154 -0.083875519035226623 -0.12647703065074065 0.10919203761350219 0.11649884861923961 0.072360625948765259 0.15295244281242054 0.073181453891136991 0.069436137484462451 0.033961968598207215 0.11503103890538467 0.072355387886690048 -0.17465141475925744 -0.23434978902708306 0.16839527412508984 0.15336340408257357 0.14093529457977089 -0.21841704501191295 -0.15454022928447686 -0.24888128202396229 -0.12066652130942046 -0.15507864137428376 -0.17680946191358513
leaf_weight=71245.973873807117 1824.9117533154786 11.338474810123442 207.66210548579693 2489.7592064775527 1961.904995393008 987.14838510751724 88.541222356259823 16.157185193151236 3047.2871329039335 335.76331928931177 1746.7296154685318 1626.715433139354 1913.3448688350618 15.340995199978353 217.71007460728288 60.936751060187817 71.835169553756714 90.451276607811451 393.82519613951445 1063.7675141319633 194.64253384619951 968.25772578082979 3414.0267173033208 63.642715558409691 55.063608542084694 7.5619653053581706 68.6671973913908 246.85801415145397 271.666289774701 32.078893795609474 19.51378320530057 336.79928012751043 2162.5605051368475 28.698325468227267 121.13618506491184 27.101190686225891 121.71151259914041 4728.2134502455592 1514.5998968183994 34.361257780343294 573.97709220647812 337.18232320249081 125.44306196272373 34.684405989944935 9.4107848107814771 32.191821321845055 18.616659060120583 7.7243295200169113 214.53414200991392 119.9819962233305 60.14366814494133 10.03905241191387 10.479549441486599 5.2806784808635738 16.136323570273817 43.036467976868153 10.833166588097809
leaf_count=201318 1671 34 302 3299 11429 1746 331 159 4198 2289 6113 2744 7244 70 626 640 155 393 757 2310 675 4879 1867 253 258 16 88 318 305 209 87 2012 1920 643 660 89 1247 2425 779 49 356 422 165 59 17 71 85 36 74 47 26 41 50 26 317 198 47
internal_value=0 0.0739735 0.0613427 0.0383873 0.0182403 -0.0125102 0.0417607 0.0405232 0.0418849 0.0390873 0.0694822 0.0346 0.0402236 0.0917189 0.0563378 -0.0190775 -0.0472699 0.0925793 0.0606995 0.0981058 0.0520224 -0.0815993 0.114408 0.076517 0.0237939 0.0978202 0.0977459 0.0524249 0.0600825 0.0892728 0.0990406 -0.084514 0.100121 0.116776 0.00584791 0.0970459 -0.0559401 0.101288 0.107874 0.11343 0.0984756 0.0335845 0.137974 -0.048336 -0.128596 -0.0472491 -0.113814 -0.134938 0.15265 0.13533 0.162383 -0.163813 -0.184079 -0.191054 -0.144542 -0.144888 -0.16586
internal_weight=0 20264.5 13247.7 7545.52 5633.46 2949.05 85199.5 83174.2 81316.4 73831.9 7484.5 3373.45 73159.3 5702.18 2227.98 1857.79 1372.7 2025.28 485.098 4111.05 2684.4 1040.09 3474.2 1888.55 471.116 7016.81 1912.07 396.602 332.603 425.904 6980.21 672.563 6944.97 3442.73 189.803 273.959 339.422 6890.77 1722.26 1554.16 1125.14 425.724 699.42 54.1982 74.5134 122.643 35.2358 36.599 429.021 154.343 274.678 65.1027 29.037 23.8973 31.4773 59.1937 21.3127
internal_count=268644 30457 25672 18978 17149 13175 238187 235530 228228 212863 15365 8857 208562 6694 3797 7302 5979 2657 1323 6508 3974 5034 2897 1924 1187 4785 1829 871 945 966 4636 4301 4491 2510 748 407 1873 4345 1081 1470 1274 753 521 146 316 464 145 149 196 96 100 299 133 111 387 357 97
is_linear=0
shrinkage=0.1


Tree=14
num_leaves=63
num_cat=0
split_feature=132 38 79 69 63 32 68 54 62 102 101 72 56 134 136 70 32 96 63 121 108 30 56 111 69 94 105 109 37 103 44 127 70 41 30 78 79 31 99 67 112 55 19 70 83 48 111 35 69 106 57 31 30 79 123 78 60 20 38 66 55 110
split_gain=1604.84 585.194 689.647 487.821 918.719 1086.04 1081.73 925.249 1722.3 886.66 876.23 761.757 686.049 652.585 637.161 1462.92 741.138 536.593 536.541 472.258 472.215 405.27 371.639 349.98 507.352 332.906 318.941 586.511 786.885 386.572 460.541 254.426 241.228 233.286 227.647 208.264 203.514 330.708 201.638 235.957 152.832 152.523 151.557 142.843 111.038 93.7015 88.7919 87.8441 80.478 75.4293 68.9702 57.235 53.3982 48.7645 40.111 39.2732 91.0063 31.1977 29.8892 24.4062 11.569 6.87646
threshold=1.0000000180025095e-35 0.97813692688941967 -0.79321283102035511 -0.10548401251435278 0.49740965664386755 0.92617151141166698 0.010733696632087232 1.0277645587921145 0.56105175614357006 -0.81662559509277333 -0.83465421199798573 -0.60290333628654469 0.96017760038375866 1.0000000180025095e-35 1.0000000180025095e-35 -0.21325828135013578 0.96342557668685924 -0.9734944999217986 0.51283988356590282 -1.2787632346153257 -1.0473412871360777 1.0560148358345034 0.96825313568115245 -0.94215083122253407 -0.1472172066569328 -0.65980213880538929 -0.87480437755584706 -1.1180452704429624 0.95945939421653759 -0.6908392310142516 1.1913043260574343 -1.8880370855331419 -0.17993386089801786 1.0042394995689394 1.0464851260185244 -0.73560646176338185 -1.1519197821617124 0.94657438993453991 -0.89389070868492115 0.16618902236223224 -1.3153159022331236 0.97838598489761364 1.1678535938262942 -0.10187551751732825 -1.2188495397567747 0.96429198980331432 -1.2642016410827634 0.9134298861026765 -0.12419132515788077 -0.92064425349235524 0.92722055315971386 0.96541494131088268 1.0243403315544131 -0.77947333455085743 -1.1611605882644651 -0.75206971168518055 0.75703814625740062 1.2306566238403323 0.98338326811790477 0.33591024577617651 1.0863885283470156 -1.2183094620704649
decision_type=2 2 2 2 2 2 2 2 2 2 2 2 2 2 2 2 2 2 2 2 2 2 2 2 2 2 2 2 2 2 2 2 2 2 2 2 2 2 2 2 2 2 2 2 2 2 2 2 2 2 2 2 2 2 2 2 2 2 2 2 2 2
left_child=3 2 21 4 6 23 7 8 -1 33 12 17 -7 -9 16 -16 -13 34 -12 41 25 36 -19 24 -6 48 46 29 32 30 -28 -21 -29 54 -11 -27 52 -38 47 -40 60 -8 -25 -31 51 -46 50 -35 -4 -30 61 -23 -2 -42 -5 58 -57 -56 -48 -52 -22 -3
right_child=1 26 20 9 5 10 19 13 -10 11 18 14 -14 -15 15 -17 -18 22 -20 31 40 44 -24 42 -26 35 27 28 49 43 -32 -33 -34 38 -36 -37 37 -39 39 -41 53 -43 -44 -45 45 -47 55 -49 -50 -51 59 -53 -54 -55 57 56 -58 -59 -60 -61 -62 -63
leaf_value=0.035237380429477209 0.043169168090288777 -0.15416071250074592 -0.20541056920173908 -0.22832983735989601 -0.053529264058144004 -0.015807695469873772 -0.17672221453734724 0.082269808741715092 -0.046555099622686162 0.064173142734675129 -0.012694799282189174 0.064915728717952689 0.080277749179766711 -0.13145226021001311 -0.081172648406501624 0.085274619295183221 0.021723701379393463 -0.11442062992775187 -0.083463717600790022 0.17984249692453413 0.079883486038717866 0.14263419866404492 -0.010931020794265368 -0.063381051190826224 0.073609043148273087 0.10565222016633419 0.070963729365479358 0.033818108712360732 0.1072834294412634 0.11614693997407899 -0.090625885041143051 0.09832607171835353 -0.093226398681515499 0.1561474952370937 -0.19590201785200634 0.023540567063831574 -0.0035083494410931421 0.079423352419130303 0.053948417347691326 0.10034043753894228 -0.0075133515508262715 0.097321606339493327 0.13079179935467916 0.01979187190129825 -0.1089112316914449 -0.0049474316071835339 0.15147718572600788 0.063940087134551737 0.027957364003251779 0.048993990191337267 0.12278325028228024 -0.044955728535067019 0.11662751369869927 -0.12117567977322129 -0.12614951151803808 0.036454758328081587 0.11046242096374211 0.15530405441532769 0.11603382026487363 -0.062818558783384798 0.22549218349205147 -0.30000216419762449
leaf_weight=38710.928758889437 106.8385207504034 6.5784998256713134 74.223540030419827 25.098055377602577 442.90877868980169 1681.5074344687164 71.439292538911104 4735.1494540199637 2757.8410862088203 722.3634246326983 2463.0190616995096 12820.980503477156 1331.5024847202003 147.31388437747955 1171.9209007956088 961.08685338869691 5756.4811297282577 573.01519832015038 1896.0036035552621 567.41969639062881 9.5823163613677043 57.442923218011856 879.73864247277379 42.599453881382942 1077.3737225495279 352.11246457695961 2121.3278890606016 209.5701729208231 524.00512020289898 3021.6064088288695 192.37141446769238 1177.3507035337389 521.0446276050061 542.82741765677929 35.300826292484999 2516.3707724418491 564.04405803978443 3259.8177204877138 1970.3027238175273 2471.659229926765 42.964563831686974 28.376462921500206 712.89861907064915 162.1085770111531 130.30553887784481 259.01842302083969 356.38421316444874 127.60739036276937 18.450651630759239 385.20056330226362 18.231384404003624 22.688712507486343 1341.3118264228106 310.76444021519274 11.723619099706413 180.41904363036156 2101.904959268868 5.9305338859558097 715.81800723075867 11.588240563869475 12.673399448394774 6.3572023063898087
leaf_count=119227 141 47 326 106 1701 5367 303 9644 11074 1472 8685 24620 2823 900 4632 1588 17662 2963 9995 414 45 19 3052 135 2016 313 2697 329 245 1399 1075 1828 4109 280 164 4547 1316 3188 3430 2765 103 46 829 1492 1038 1004 110 195 29 619 6 85 575 4177 270 220 900 1 230 42 2 29
internal_value=0 0.0689477 0.0503407 0.0372454 0.0319958 0.00382795 0.0376344 0.0346458 0.0297978 0.0480608 -0.0148135 0.039633 0.0266542 0.0758214 0.0455887 -0.00617513 0.0515321 -0.0161691 -0.0434765 0.112734 0.0141891 0.0713533 -0.0517508 0.0642141 0.0365694 0.0275932 0.084983 0.0729784 0.0204911 0.0886348 0.0575284 0.124836 -0.0567848 0.0855327 0.0520558 0.0336199 0.0792815 0.0671904 0.087478 0.0797625 -0.0913779 -0.0988147 0.119843 0.111241 -0.0176798 -0.0397438 0.110203 0.138597 -0.158949 0.0825881 -0.0329963 0.0895194 0.111208 -0.10737 -0.147092 0.112028 0.104612 -0.0316012 0.127815 0.0506563 0.1628 -0.225834
internal_weight=0 19613.1 9078.61 85919.7 57843.6 9647.81 48195.8 46351.2 41468.8 28076 7372.03 22920.9 3013.01 4882.46 20710.5 2133.01 18577.5 2210.42 4359.02 1844.59 3337.14 5741.47 1452.75 2275.78 1520.28 2961.16 10534.5 7137.23 1639.82 5497.41 2313.7 1744.77 730.615 5155.15 757.664 2868.48 5272.01 3823.86 5112.4 4441.96 375.985 99.8158 755.498 3183.71 469.456 389.324 3397.28 670.435 92.6742 909.206 42.7553 80.1316 1448.15 353.729 42.7522 3354.53 2282.32 17.6542 1072.2 29.8196 22.2557 12.9357
internal_count=268644 30457 16908 238187 174987 31551 143436 140845 130301 63200 26870 56153 8190 10544 48502 6220 42282 7651 18680 2591 9542 7366 6015 4681 3717 5215 13549 11965 5302 6663 3772 2242 4438 7047 1636 4860 5220 4504 6670 6195 4327 349 964 2891 2146 2042 1584 475 355 864 124 104 716 4280 377 1460 1120 271 340 48 47 76
is_linear=0
shrinkage=0.1


Tree=15
num_leaves=63
num_cat=0
split_feature=132 38 69 110 49 100 72 30 63 31 105 101 30 103 54 129 68 103 131 129 127 73 129 104 28 36 70 105 101 65 109 30 107 74 124 73 49 10 80 70 54 52 70 110 8 67 67 83 51 49 74 110 0 11 119 126 31 78 60 38 76 70
split_gain=1494.74 541.855 597.725 587.557 457.539 986.333 1181.2 915.05 701.58 731.061 658.287 651.365 650.323 662.241 620.148 561.571 560.527 828.526 602.828 491.049 487.26 427.488 403.194 386.611 363.288 357.236 330.999 294.585 545.132 536.707 344.856 294.429 306.884 275.559 267.63 261.395 233.832 212.871 203.248 197.691 191.709 189.441 183.592 154.182 139.629 105.381 103.095 102.14 114.054 90.5813 89.4153 78.3039 66.772 63.1487 52.012 57.8214 46.3976 34.101 78.8638 20.3277 2.26371 2.16963
threshold=1.0000000180025095e-35 0.9786161780357362 -0.077357418835163103 -1.2009675502777097 1.0595808029174807 -0.89942404627799977 -0.67400607466697682 1.0828837156295779 0.40489129722118383 1.003394663333893 -0.89281150698661793 -0.87710130214691151 1.1010950803756716 -0.94615733623504628 1.0009533166885378 1.0000000180025095e-35 -0.047131400555372231 -0.83774325251579274 1.0000000180025095e-35 1.0000000180025095e-35 -1.454656660556793 -0.85025331377983082 1.0000000180025095e-35 -0.82630419731140126 1.2262770533561709 0.91002133488655101 -0.32953734695911402 -0.87480437755584706 -0.57172238826751698 0.49844619631767279 -1.1100325584411619 1.0575476288795473 -1.0121251940727232 -0.69966650009155262 -2.3418360948562618 -0.77631080150604237 1.1626096963882449 0.76131489872932445 -1.1686605811119077 -0.36257511377334589 1.0424188971519472 1.0321977138519289 -0.10187551751732825 -0.914678394794464 0.70715820789337169 0.18215745687484744 0.28041698038578039 -1.2188495397567747 0.98575329780578624 0.93742123246192943 -0.46033293008804316 -1.2107507586479185 0.54632762074470531 0.71325698494911205 -1.6218440532684324 -2.727669239044189 0.96541494131088268 -0.75206971168518055 0.75703814625740062 0.98338326811790477 -0.50184461474418629 -0.10734576359391211
decision_type=2 2 2 2 2 2 2 2 2 2 2 2 2 2 2 2 2 2 2 2 2 2 2 2 2 2 2 2 2 2 2 2 2 2 2 2 2 2 2 2 2 2 2 2 2 2 2 2 2 2 2 2 2 2 2 2 2 2 2 2 2 2
left_child=4 2 31 40 7 14 11 15 39 -10 12 21 35 -14 24 16 18 -18 -1 41 25 -7 -13 45 26 -16 -6 51 29 34 42 32 33 -2 -29 -9 -25 -22 -34 -8 60 -12 -30 -26 53 -5 -31 56 -49 -46 -42 54 -21 -17 55 -3 -33 59 -59 -53 -4 -32
right_child=1 27 3 23 5 6 8 10 9 -11 19 22 13 -15 20 44 17 -19 -20 52 37 -23 -24 36 43 -27 -28 28 30 46 61 47 38 -35 -36 -37 -38 -39 -40 -41 50 -43 -44 -45 49 -47 -48 48 -50 -51 -52 57 -54 -55 -56 -57 -58 58 -60 -61 -62 -63
leaf_value=-0.025781534064678997 -0.16394826936443571 -0.19011208229247667 -0.22906606311757505 -0.14424067002553173 -0.013557978387312248 -0.065315865609045162 0.080220988937659998 0.0574388008728213 0.039947159927046817 0.009801356665594986 -0.053136705343658858 -0.076872808909186352 0.08681084175458631 -0.078550702437788042 0.12367949262094745 0.17913370998679914 0.15510186452906169 -0.12862573841392064 0.049196639848465416 0.033442958227138296 -0.017479063000501029 0.077781180261899327 0.051650017309943945 -0.17584039321220296 0.065062146141237912 -0.0017403892310180963 0.10640295442604378 -0.037839574450905133 0.11389145614193377 0.14655742709186151 -0.1407079601214308 0.14702239973947068 0.10665204960408387 0.025671186317906131 0.060307111474300013 0.12503411356093674 -0.047890398522260645 0.069555578385698313 0.06220364293064326 0.15945806772215587 0.10708493440061279 0.16652721137876392 0.0059179836114708305 0.18067762197001158 -0.14236455233407971 0.081606681222483921 -0.15098814139702413 -0.10827119479346295 0.010372547274131887 0.10054048586660434 -0.026486813423074542 0.14398614103558843 0.1446950383205734 -0.16742209315744308 -0.24684583153617232 0.12379598962617755 -0.031068236790853715 0.036222368612420779 0.10610194382312035 0.11302334188093666 -0.16494418017953796 -0.10442855851661029
leaf_weight=7278.0610962603241 87.598549723625183 8.4162723906338197 13.466216057538988 22.470073461532593 1383.6083905845881 289.70013960450888 1060.269299261272 6585.9319632276893 45553.145420633256 9769.8282917048782 1186.5818946436048 1785.749750956893 373.28022692352533 689.59662707149982 3076.0633121579885 6.378363609313964 433.83851970173419 134.93083022907376 1257.6089335065335 79.696027278900146 408.6809353493154 747.28724454343319 282.73949506133795 171.76351881586015 373.02263875305653 245.20612317323685 275.87030466645956 301.90278429444879 2626.4947276841849 12.573273360729216 27.129633583128452 44.465505003929138 1315.2459613084793 612.54753199219704 3484.7876001168042 626.51091615855694 847.96226625330746 899.58952195942402 4722.9359625652432 447.87442663311958 485.33992506563663 40.603951811790466 167.52215145993978 166.97827383875847 15.722655802965162 256.47940784692764 157.68193281069398 159.0168361403048 165.20294912904501 651.23181001842022 55.887750595808029 311.49518957734108 166.98460334539413 29.933306939899921 9.0866724476218206 19.379551827907566 21.801591910421848 176.00259450078011 1960.2150392122567 664.06288228929043 9.3133952664211375 42.009107436053455
leaf_count=30222 340 61 55 73 5084 1122 2016 16529 110345 33374 5160 9558 874 3073 4292 1 712 1885 4636 193 1159 1518 582 766 711 643 600 1589 1209 4 165 12 671 956 4081 667 5609 1370 5797 466 317 62 1666 155 167 255 1500 1363 594 812 212 95 70 129 48 10 81 213 885 230 49 1551
internal_value=0 0.064347 0.0465469 -0.003893 0.0333388 0.0372791 0.0331764 0.0198871 0.036458 0.0346235 0.0415827 -0.0268781 0.052549 -0.0204761 0.0732873 -0.00167908 -0.00832955 0.0877923 -0.0147346 -0.0199898 0.0940584 0.0378046 -0.0593052 -0.0409054 0.0295676 0.11442 0.00638422 0.0804022 0.0687219 0.0446729 0.101958 0.0597263 0.0646185 0.00194701 0.0524821 0.0633105 -0.0694424 0.0423675 0.0718855 0.103752 0.0813313 -0.0458687 0.107418 0.100813 0.0844174 0.0634141 -0.129015 -0.0246955 -0.0478175 0.0948143 0.0932922 0.105702 0.108752 -0.106547 -0.0391495 0.028748 0.0884313 0.107419 0.100345 0.12291 -0.20285 -0.118664
internal_weight=0 18960.3 8991.5 1862.68 86322.5 66765.6 59936.6 19556.9 56831.1 55323 9749.19 3105.48 8275.32 1062.88 6829.02 9807.71 9104.44 568.769 8535.67 1473.87 4629.54 1036.99 2068.49 1298.68 2199.48 3321.27 1659.48 9968.76 6820.1 3956.95 2863.16 7128.81 6738.33 700.146 3786.69 7212.44 1019.73 1308.27 6038.18 1508.14 564.007 1227.19 2794.02 540.001 703.266 278.949 170.255 390.487 324.22 666.954 541.228 3148.66 246.681 36.3117 36.8825 27.7958 66.2671 3111.78 2136.22 975.558 22.7796 69.1387
internal_count=268644 30457 17150 7336 238187 172995 158981 65192 146201 143719 26628 12780 21143 3947 14014 38564 37455 2597 34858 5485 7464 2640 10140 6703 6550 4935 5684 13307 11765 7174 4591 9814 7764 1296 5670 17196 6375 2529 6468 2482 633 5222 2875 866 1109 328 1504 2050 1957 979 529 1542 263 130 119 71 93 1423 1098 325 104 1716
is_linear=0
shrinkage=0.1


Tree=16
num_leaves=63
num_cat=0
split_feature=132 37 79 69 37 94 75 116 90 123 129 105 101 65 40 4 40 69 111 112 78 97 109 105 30 34 25 30 0 70 38 26 12 37 52 97 104 43 36 95 32 67 71 102 81 30 78 58 71 98 111 78 23 31 106 33 71 81 70 111 33 120
split_gain=1375.22 508.371 533.226 428.262 587.45 400.132 737.782 640.543 547.036 377.386 363.893 351.296 553.763 443.51 350.491 346.256 325.217 315.391 631.396 284.886 271.06 282.453 260.001 256.687 255.724 249.447 219.436 161.778 390.94 160.351 153.018 149.572 185.892 147.866 158.428 145.981 125.951 138.923 139.819 106.76 91.2689 88.271 84.3352 179.738 72.8942 63.3301 60.7103 235.092 98.546 56.824 51.8238 45.9964 38.5224 30.5134 19.5133 40.4007 16.3396 1.74014 1.55498 0.614895 0.186707 0.0299431
threshold=1.0000000180025095e-35 0.93998911976814281 -1.0617280602455137 0.010147712193429472 0.99126994609832775 -1.0795745253562925 -1.1204495429992674 -0.91152277588844288 -1.2052410840988157 -1.1173232197761533 1.0000000180025095e-35 -0.87691643834114064 -0.57172238826751698 0.49844619631767279 1.0550209879875185 0.66729223728179943 0.95169052481651317 -0.10234028100967406 -1.251569867134094 -1.0190721750259397 -1.215791583061218 -0.80536916851997364 -1.1100325584411619 -0.90971544384956349 1.0638548731803896 0.93660753965377819 1.1907616257667544 1.0251196026802065 0.70701754093170177 -0.10187551751732825 0.95770239830017101 1.1537600159645083 0.6758837401866914 1.0056246519088747 1.174807131290436 -0.82765299081802357 -0.75695550441741932 1.1727774739265444 0.9683385193347932 -0.60627362132072438 0.96932044625282299 0.28041698038578039 -0.30702205002307886 -0.73660075664520253 -1.2101370692253111 1.0496077537536623 -0.75206971168518055 0.84331485629081737 -0.3478585928678512 -0.67502897977828968 -0.99025067687034596 -1.188615024089813 1.2051029801368716 0.89844796061515819 -0.93500363826751698 0.8949747383594514 -0.39447194337844843 -1.1968373060226438 -0.10734576359391211 -1.1307985782623289 0.95105215907096874 -1.605299115180969
decision_type=2 2 2 2 2 2 2 2 2 2 2 2 2 2 2 2 2 2 2 2 2 2 2 2 2 2 2 2 2 2 2 2 2 2 2 2 2 2 2 2 2 2 2 2 2 2 2 2 2 2 2 2 2 2 2 2 2 2 2 2 2 2
left_child=3 2 24 4 5 9 7 -7 -8 15 -11 46 13 14 -13 -1 23 30 -19 36 31 26 29 35 27 -23 -22 28 -2 -14 -18 32 -6 42 40 -4 37 38 -5 -39 -35 -15 43 -21 51 -29 54 49 -49 -48 -44 -26 -33 -25 56 -56 -3 -46 -24 61 -61 -38
right_child=1 11 16 19 20 6 8 -9 -10 10 -12 12 22 41 -16 -17 17 18 -20 33 21 25 58 53 44 -27 -28 45 -30 -31 -32 52 -34 34 -36 -37 59 39 -40 -41 -42 -43 50 -45 57 -47 47 48 -50 -51 -52 -53 -54 -55 55 -57 -58 -59 -60 60 -62 -63
leaf_value=0.090292297909167887 -0.14016261344548864 0.078260064831480403 -0.10279652393279054 0.026806300039758327 -0.11919101755634907 -0.051526788828588278 0.073257618049559603 0.030617234934518039 0.028064033930797608 0.021540370909541626 0.091085828655656328 0.0042879871421805322 0.10906106784194639 0.137554334749175 0.06543776412150841 -0.089785002950576565 0.038011099287780618 0.063209818899362558 -0.054263169029379513 0.11696252896152651 0.16308028866335317 0.070049344370052211 -0.13855302566058231 -0.14236581530801481 -0.12884286488144148 -0.10776331845824821 -0.087505963277304699 0.10047301672330505 0.10958874461935778 0.007187258941374907 0.094122970863809219 -0.1846174977518511 0.12179603191870812 -0.1906329854977945 0.16509195141524391 0.011704577899173865 -0.13270684626999932 0.13567742574981567 -0.15422794025436676 -0.14778425071306597 0.052087211969401949 -0.14342030338234135 0.48293650483745765 0.030824265892735556 -0.1527416600938955 0.063531775394949516 0.05974322302985742 0.016332608217487124 0.099146391262618122 -0.26578451580743551 0.132858417410951 0.12404985870165651 -0.10116287660532652 -0.31530587100882124 0.0013116616056280206 0.10830290611067342 0.12775774057602327 -0.11008508454660622 -0.10427912197574003 -0.16619919075539227 -0.14980113961728964 -0.14281787931126963
leaf_weight=2490.2375088632107 106.14320047199726 72.096051096916199 176.88160825148225 124.57044358551502 85.117762304842472 2142.9304718561471 2785.3591010011733 1704.2332405783236 69694.938425313681 3826.8853339403868 936.49627922102809 1372.9975982289761 2390.3360317144543 12.08187462389469 2953.8603726662695 111.56086936593056 1888.2539216279984 826.69825966283679 1024.6025142176077 660.51670450903475 134.2149425521493 112.9389263689518 22.930898521095514 14.13681937754154 9.9458964541554433 261.73638835549355 47.247500114142895 1725.7297090888023 153.04379251599312 165.18338164500892 654.43272975087166 174.9005837328732 51.301191002130508 45.639355540275574 30.595179095864296 300.52981624007225 8.3407469764351827 108.66826222091913 64.883427113294601 15.137610152363775 23.453250169754028 149.96612525358796 4.2664115428924552 382.5312854219228 10.953639723360537 634.77448013424873 7.0091588050127056 154.56982713937759 2041.8890936337411 22.823386117815971 477.5221408829093 25.97476851940155 80.89287305995822 36.657374560832977 39.257080763578415 349.54405781626701 889.71336144208908 75.350958935916424 31.31327348947525 25.863027274608612 9.4916864633560163 4.514055296778678
leaf_count=4557 338 57 834 289 286 10207 4400 4344 193134 14074 902 2982 1157 4 3770 465 2739 1241 6245 479 158 212 140 79 85 1241 261 1057 134 1617 544 806 65 197 6 676 47 134 314 74 55 1504 3 630 76 744 8 227 1162 103 254 27 418 174 67 142 316 956 1252 109 44 22
internal_value=0 0.0600169 0.0403671 0.0298738 0.0287968 0.0296836 0.0275357 -0.0151383 0.0298008 0.0519426 0.0352132 0.0741238 0.061247 0.0399507 0.0460337 0.0825709 0.0206804 0.0295925 -0.00180561 0.0757756 -0.0494659 -0.00456885 0.0978776 -0.0534567 0.0757079 -0.054165 0.097835 0.0823044 0.00730966 0.102476 0.0524531 -0.113128 -0.0285663 0.0936412 -0.0243534 -0.0307182 -0.00451678 0.01864 -0.0351936 0.101019 -0.108242 -0.122472 0.101355 0.0853719 -0.065677 0.090539 0.0996788 0.0895315 0.0933186 -0.189302 0.135958 0.0540276 -0.158226 -0.267174 0.116405 0.0975 0.124047 -0.115499 -0.118768 -0.154987 -0.161797 -0.136257
internal_weight=0 18339.7 7664.11 86627 84641 83692.6 76327.5 3847.16 72480.3 7365.18 4763.38 10675.6 7098.67 4488.91 4326.86 2601.8 4922.19 4393.99 1851.3 1985.99 948.35 556.138 2609.76 528.206 2741.92 374.675 181.462 2619.69 259.187 2555.52 2542.69 392.212 136.419 1624.52 99.6878 477.411 361.469 313.26 189.454 123.806 69.0926 162.048 1524.84 1043.05 122.225 2360.5 3576.9 2226.29 2196.46 29.8325 481.789 35.9207 255.793 50.7942 1350.61 388.801 961.809 86.3046 54.2442 48.2095 35.3547 12.8548
internal_count=268644 30457 15949 238187 235530 232083 212085 14551 197534 19998 14976 14508 12426 8260 6752 5022 12532 10769 7486 2657 3447 1872 4166 1763 3417 1453 419 2273 472 2774 3283 1575 351 1624 258 1510 1033 811 603 208 252 1508 1366 1109 1144 1801 2082 1500 1389 111 257 112 1224 253 582 209 373 1032 1392 222 153 69
is_linear=0
shrinkage=0.1


Tree=17
num_leaves=62
num_cat=0
split_feature=132 33 109 81 104 74 73 100 54 53 70 56 96 126 56 103 38 100 99 45 70 34 133 107 80 68 94 127 5 33 43 4 50 75 94 32 56 37 58 70 31 30 85 105 126 34 47 29 83 127 10 60 48 50 71 50 33 29 106 114 105
split_gain=1253.68 481.875 669.442 683.018 395.596 494.737 395.117 1350.41 1608.32 858 1214.24 1196.83 720.064 973.3 678.971 620.714 568.576 547.818 533.581 681.104 656.871 528.513 1485.11 532.057 498.508 463.277 460.585 387.381 320.998 314.234 503.45 290.32 278.119 236.032 235.063 234.373 232.285 191.697 189.828 170.279 149.64 145.406 126.97 123.64 117.968 99.5021 102 94.2372 76.4055 66.7436 65.4165 80.3066 61.7001 59.3628 51.6168 44.8209 40.583 24.3284 23.4616 20.8738 8.65369
threshold=1.0000000180025095e-35 0.88451895117759716 -1.1245991587638853 -1.1278266310691831 -0.74995973706245411 -0.50043749809265126 -0.78846573829650868 -0.86091849207878102 1.0203554034233095 1.0309726595878603 -0.31098975241184229 0.95649451017379772 -0.89652171730995167 -1.7690101861953733 0.97963944077491771 -0.81361830234527577 0.94733968377113353 -0.8444070816040038 -0.96897676587104786 0.79737222194671642 -0.32953734695911402 0.86099812388420116 1.0000000180025095e-35 -0.97562310099601735 -1.280747592449188 0.070532504469156279 -0.95807400345802296 -1.8672159314155576 0.52867761254310619 0.87460967898368847 1.175597667694092 0.5395353138446809 1.1546274423599245 -1.0785126686096189 -0.9943924844264983 0.94912993907928478 0.96282860636711132 0.88636255264282238 0.89177617430686962 -0.29712395370006556 1.0009024739265444 1.0577725768089297 -1.10794061422348 -0.85452491044998158 -2.9903600215911861 0.88913574814796459 1.0524333715438845 1.1013259291648867 -1.2188495397567747 -2.191620826721191 0.30309203267097479 0.81891652941703807 1.2058917284011843 1.1765504479408266 -0.29941801726818079 1.0384284853935244 0.92882210016250621 0.96357613801956188 -0.96443524956703175 -1.4421057701110838 -0.85122212767601002
decision_type=2 2 2 2 2 2 2 2 2 2 2 2 2 2 2 2 2 2 2 2 2 2 2 2 2 2 2 2 2 2 2 2 2 2 2 2 2 2 2 2 2 2 2 2 2 2 2 2 2 2 2 2 2 2 2 2 2 2 2 2 2
left_child=6 2 4 41 5 32 7 8 18 10 35 39 14 21 15 16 -8 -13 19 -1 -20 23 -23 -14 -12 -17 27 -15 42 30 -5 -28 -2 34 -16 -9 -30 -31 -7 -11 -35 47 -10 45 59 46 55 -4 -43 -48 51 -47 -46 56 -55 -3 60 -56 -52 -6 -45
right_child=1 43 3 29 44 38 12 9 28 11 24 17 13 26 33 25 -18 -19 20 -21 -22 22 -24 -25 -26 -27 31 -29 36 37 -32 -33 -34 40 -36 -37 -38 -39 -40 -41 -42 48 -44 53 52 50 49 -49 -50 -51 58 -53 -54 54 57 -57 -58 -59 -60 -61 -62
