tree
version=v4
num_class=1
num_tree_per_iteration=1
label_index=0
max_feature_idx=136
objective=binary sigmoid:1
feature_names=Column_0 Column_1 Column_2 Column_3 Column_4 Column_5 Column_6 Column_7 Column_8 Column_9 Column_10 Column_11 Column_12 Column_13 Column_14 Column_15 Column_16 Column_17 Column_18 Column_19 Column_20 Column_21 Column_22 Column_23 Column_24 Column_25 Column_26 Column_27 Column_28 Column_29 Column_30 Column_31 Column_32 Column_33 Column_34 Column_35 Column_36 Column_37 Column_38 Column_39 Column_40 Column_41 Column_42 Column_43 Column_44 Column_45 Column_46 Column_47 Column_48 Column_49 Column_50 Column_51 Column_52 Column_53 Column_54 Column_55 Column_56 Column_57 Column_58 Column_59 Column_60 Column_61 Column_62 Column_63 Column_64 Column_65 Column_66 Column_67 Column_68 Column_69 Column_70 Column_71 Column_72 Column_73 Column_74 Column_75 Column_76 Column_77 Column_78 Column_79 Column_80 Column_81 Column_82 Column_83 Column_84 Column_85 Column_86 Column_87 Column_88 Column_89 Column_90 Column_91 Column_92 Column_93 Column_94 Column_95 Column_96 Column_97 Column_98 Column_99 Column_100 Column_101 Column_102 Column_103 Column_104 Column_105 Column_106 Column_107 Column_108 Column_109 Column_110 Column_111 Column_112 Column_113 Column_114 Column_115 Column_116 Column_117 Column_118 Column_119 Column_120 Column_121 Column_122 Column_123 Column_124 Column_125 Column_126 Column_127 Column_128 Column_129 Column_130 Column_131 Column_132 Column_133 Column_134 Column_135 Column_136
feature_infos=[-1.8014661073684692:1.9731968641281128] [-1.7160434722900391:1.9330692291259766] [-1.6382262706756592:1.893924355506897] [-1.5680137872695923:1.8557635545730591] [-1.5054070949554443:1.8185858726501465] [-1.4504051208496094:1.7823913097381592] [-1.4123568534851074:1.7519460916519165] [-1.3844102621078491:1.77842116355896] [-1.3517893552780151:2.0758624076843262] [-1.3099035024642944:2.0974209308624268] [-1.2559221982955933:1.9855276346206665] [-1.1870334148406982:2.073509693145752] [-1.1039742231369019:2.1457490921020508] [-1.0067610740661621:2.2142360210418701] [-0.90047705173492432:2.2825961112976074] [-0.78966546058654785:2.3805651664733887] [-0.67814630270004272:2.4481546878814697] [-0.65591526031494141:2.4998569488525391] [-0.65910369157791138:2.5653238296508789] [-0.66439425945281982:2.5221147537231445] [-0.6652991771697998:2.4413206577301025] [-0.67377018928527832:2.3840618133544922] [-0.78228282928466797:2.2409591674804688] [-0.70636492967605591:2.1797337532043457] [-0.68053698539733887:2.1614029407501221] [-0.79406124353408813:2.0620582103729248] [-1.1302109956741333:1.9191513061523438] [-1.6305375099182129:1.7314887046813965] [-1.9454965591430664:1.5598906278610229] [-2.2033448219299316:1.3473584651947021] [-2.6534385681152344:1.1434183120727539] [-2.9375624656677246:1.0691677331924438] [-2.8964071273803711:1.0156075954437256] [-2.6209216117858887:0.98644959926605225] [-1.9672813415527344:0.99330562353134155] [-1.2877312898635864:1.0987448692321777] [-0.66409575939178467:1.3781088590621948] [-0.66973656415939331:1.4357191324234009] [-0.67192721366882324:1.5244829654693604] [-0.67710685729980469:1.3777114152908325] [-0.67391806840896606:1.3165556192398071] [-0.67713803052902222:1.2266663312911987] [-0.67526406049728394:1.2687077522277832] [-0.67815649509429932:1.5027958154678345] [-0.67593681812286377:1.6759111881256104] [-0.67998087406158447:1.7528411149978638] [-0.67735743522644043:1.7139431238174438] [-0.67972826957702637:1.6720231771469116] [-0.67738151550292969:1.8138210773468018] [-0.6802976131439209:2.0951991081237793] [-0.67868822813034058:2.3221406936645508] [-0.68411111831665039:2.3866791725158691] [-0.68785721063613892:2.2922041416168213] [-0.6967010498046875:2.324758768081665] [-0.68777680397033691:2.0119130611419678] [-0.66555494070053101:1.663224458694458] [-0.63047897815704346:1.3767448663711548] [-0.79989981651306152:1.3603483438491821] [-0.9627259373664856:1.3460699319839478] [-0.83332031965255737:1.3262704610824585] [-0.62303602695465088:1.3006186485290527] [-0.62908732891082764:1.6912268400192261] [-0.65896600484848022:1.8743280172348022] [-0.67422842979431152:1.7138135433197021] [-0.89532732963562012:1.3433690071105957] [-1.1747497320175171:1.0728911161422729] [-1.3727543354034424:0.99044626951217651] [-1.6710461378097534:0.88485002517700195] [-1.8910553455352783:0.75389385223388672] [-2.0949718952178955:0.60495084524154663] [-1.9126988649368286:0.45876148343086243] [-1.7446892261505127:0.33052113652229309] [-1.674402117729187:0.23037496209144592] [-1.5674382448196411:0.15855956077575684] [-1.4517455101013184:0.30397361516952515] [-1.6804615259170532:0.9557119607925415] [-1.8599822521209717:1.4404212236404419] [-1.985605001449585:1.2026444673538208] [-2.0616223812103271:1.1271375417709351] [-2.1171634197235107:0.44092383980751038] [-2.1664650440216064:0.2406151294708252] [-2.193009614944458:0.28676301240921021] [-2.2026488780975342:0.33890664577484131] [-2.2012209892272949:0.39074629545211792] [-2.1849808692932129:0.43792322278022766] [-2.1524448394775391:0.47703936696052551] [-2.1025960445404053:0.50853937864303589] [-2.0367574691772461:0.53271615505218506] [-1.9560787677764893:0.67684948444366455] [-1.8642418384552002:0.56802195310592651] [-1.767259955406189:0.65060514211654663] [-1.8478662967681885:1.0689502954483032] [-1.6500253677368164:1.4172115325927734] [-1.5946441888809204:1.6287872791290283] [-1.530011773109436:1.6638903617858887] [-1.4861346483230591:1.6161158084869385] [-1.4547033309936523:1.5600550174713135] [-1.4384253025054932:1.5597559213638306] [-1.4264529943466187:1.5645072460174561] [-1.5819015502929688:1.5648646354675293] [-1.8966314792633057:1.5687597990036011] [-2.4619696140289307:1.5680602788925171] [-2.648137092590332:1.5700795650482178] [-2.5047333240509033:1.5662518739700317] [-2.1062953472137451:1.5674868822097778] [-1.4475361108779907:1.5623446702957153] [-1.1187688112258911:1.563502311706543] [-1.117332935333252:1.5619508028030396] [-1.168958306312561:1.5694600343704224] [-1.225186824798584:1.5736351013183594] [-1.369315505027771:1.5835809707641602] [-1.6010570526123047:1.5861003398895264] [-2.1400496959686279:1.5904401540756226] [-2.4733853340148926:1.5896482467651367] [-2.4289262294769287:1.5896980762481689] [-1.8361798524856567:1.5865405797958374] [-1.6131480932235718:1.5868538618087769] [-1.6272048950195312:1.611059308052063] [-1.6816561222076416:2.4495923519134521] [-1.7411720752716064:2.6529664993286133] [-1.8167120218276978:2.5047237873077393] [-1.9280952215194702:1.7488086223602295] [-2.15055251121521:1.6308574676513672] [-2.3795907497406006:1.6220458745956421] [-2.643824577331543:1.8138364553451538] [-2.951240062713623:2.1645474433898926] [-3.3299288749694824:3.0688047409057617] [-3.8750591278076172:4.2020993232727051] [0:1] [0:1] [0:1] [0:1] [0:1] [0:1] [0:1] [0:1] [0:1]
tree_sizes=6509 6399 5380 5153 6872 6419 6559 6627 6673 6765 6801 6685 6667 6654 6675 6760 6361 6754 6928 6813 6897 6922 6743 6824 6920 6817 6285 6677 6958 6523 6063 6631 6136 6658 6913 4580 5805 6320 6930 6457 6917 6477 6931 6932 6596 6919 6343 6674 6040 6128 6239 6436 6712 6904 3471 6812 6926 6572 6933 5723 6102 6184 6656 6376 3652 5619 6831 5953 6967 6168 6724 6701 6808 5270 6789 6487 6500 6966 5040 6138 6487 5696 6957 6808 6717 6659 5888 5626 6950 6845 6411 6715 6916 6674 6240 6610 5089 6673 5094 5918 6910 6482 6912 4825 6940 6953 6435 5149 6912 5501 5293 4523 6967 6367 3983 6416 5088 5136 6648 6761 6808 6825 5724 6697 6917 6927 6930 6246 4932 6549 6924 5930 6373 6963 4811 6942 6347 6275 6890 5613 6704 6259 6735 6825 5430 6786 6538 6541 6572 6281 6694 4714 5704 6484 5303 6849 6271 6703 6468 5907 5798 6737 6688 5706 5840 6554 6454 6801 6577 6837 6810 5312 5885 6054 5361 6409 4832 6792 5566 6249 5694 6619 4635 6807 6826 6481 6120 6892 6845 5785 6926 6897 6721 5806 6456 6559 4838 6482 6958 6674

Tree=0
num_leaves=60
num_cat=0
split_feature=132 70 71 105 129 100 30 53 32 69 37 61 122 91 55 78 111 34 111 104 110 31 105 102 69 84 133 101 102 106 106 43 117 70 105 73 135 29 37 90 106 81 77 104 37 72 97 111 87 29 115 74 112 103 108 2 0 0 0
split_gain=214586 100314 49419.5 36264.5 25596.3 25160 24261.5 19748.7 17494.7 20082.2 17301.2 17298.5 12781.1 12250.8 11700.2 10837.4 12547.8 10125.9 9804.93 9138.65 7544.44 5536.37 5327.35 4516.6 5080.88 4503.31 4208.48 4077.22 3882.67 3846.27 3705.72 3577.11 4608.02 3424.49 3123.03 2909.5 2632.5 2538.93 2080.49 2074.91 1278.47 1040.51 1099.62 630.26 1415.66 468.629 251.308 337.26 186.715 128.664 126.453 570.997 75.5192 642.89 20.8847 5.68434e-14 7.10543e-15 8.88178e-16 4.44089e-16
threshold=1.0000000180025095e-35 -0.10254707559943198 -0.44061161577701563 -0.90764293074607838 1.0000000180025095e-35 -0.84036269783973683 1.0636407136917116 0.90411940217018139 0.96760916709899913 -0.044964445754885667 0.94734361767768871 0.6661343276500703 -1.0503964424133299 -1.1922068595886228 0.86858862638473522 -1.0401893258094785 -1.2593448758125303 0.80504268407821666 -0.96156787872314442 -0.92306503653526295 -1.2183094620704649 1.0036528110504153 -0.87002083659172047 -0.80832031369209278 1.0000000180025095e-35 -1.1212401390075681 1.0000000180025095e-35 -0.83741629123687733 -0.83083629608154286 -0.98670813441276539 -0.89957052469253529 1.1789384484291079 -1.5655606389045713 -0.25597271323204035 -0.90697437524795521 -0.37986181676387781 1.0000000180025095e-35 1.2356457710266116 0.95634701848030101 -1.2960354685783384 -0.91007745265960682 -1.2105092406272886 -1.1621242165565489 -0.75906395912170399 0.94945853948593151 -0.34034954011440272 -0.80105033516883839 -1.1649710536003111 -0.22919289767742154 1.1520427465438845 -1.4709867835044859 -0.45216199755668635 -1.3355944156646726 -0.61873650550842274 -1.0659235119819639 -0.19762912392616269 -0.39171724021434778 -0.31007550656795496 0.5781657099723817
decision_type=2 2 2 2 2 2 2 2 2 2 2 2 2 2 2 2 2 2 2 2 2 2 2 2 2 2 2 2 2 2 2 2 2 2 2 2 2 2 2 2 2 2 2 2 2 2 2 2 2 2 2 2 2 2 2 2 2 2 2
left_child=2 6 3 14 7 17 10 30 9 11 15 -7 27 -9 25 34 -17 -4 -11 36 40 33 -22 38 -25 37 -21 -6 -23 -27 -5 43 35 -19 -2 48 -16 -1 -10 -14 -12 42 58 44 54 -46 49 -48 -33 -43 51 -34 53 -45 -3 -54 -52 -37 -8
right_child=1 31 5 4 12 8 41 13 23 18 20 -13 39 -15 19 16 -18 21 -20 26 22 28 -24 24 -26 29 -28 -29 -30 -31 -32 32 50 -35 -36 57 -38 -39 -40 -41 -42 46 -44 52 45 -47 47 -49 -50 -51 56 -53 55 -55 -56 -57 -58 -59 -60
leaf_value=-1.9911609838983151 -1.3002700063798571 -1.4997746994465389 -3.3567338253822494 -2.5702952319314498 -1.9261902739629861 -1.6943341721846279 -3.3567338253822494 -1.9954770869227985 -3.3567338253822494 -2.0893642082734702 -3.3567338253822494 -2.2357367045722745 -3.3567338253822494 -2.4569364549073747 -1.3960823593551339 -0.88521151715068225 -1.6773131096791791 -1.6313723644693656 -1.4384089130757995 -1.6714095411660432 -0.69123017387305108 -1.4350124813111609 -1.0403208508054655 -2.8518360082677421 -1.8396185428446032 -1.7423602441652597 -2.0897124714649751 -2.6935125651360563 -2.1953712044387013 -2.8194153946289164 -3.2577382197947844 -1.2504777058548586 -0.56642738161596595 -1.1123156026772536 -0.77338679939408594 -3.3567338253822494 -2.7952384258633916 -2.6715901347443092 -1.7375914276507975 -0.95725236495286392 -0.56642738161596595 -2.8094321834478917 -0.96021913148134885 -3.3567338253822494 -1.399029313037379 -3.3567338253822494 -3.3567338253822494 -0.94015749730572074 -0.58175445742526977 -3.3567338253822494 -3.3567338253822494 -3.3567338253822494 -3.3567338253822494 -0.56642738161596107 -1.0918362551764771 -3.3567338253822494 -3.3567338253822494 -3.3567338253822494 -3.3567338253822494
leaf_weight=376.91257332265377 169.79117555916309 2.785672590136528 26.87876857817173 101.9528324380517 448.38700401037931 833.93417121469975 1.1109891012310984 647.91309282928705 8.8520744517445547 306.11907143890858 14.371181599795818 2018.8589412197471 3.6913508847355834 5133.8024703338742 499.96687486767769 255.3452075868845 922.50714004039764 167.89599993824959 947.84119044989347 365.25477156043053 846.13492798805237 152.08642434328794 904.42269100248814 343.22090283036232 57.964588031172752 40.05330765992403 704.26739144325256 81.896110251545906 120.26197607070208 192.54430304467678 339.64862074702978 6.1398992389440563 0.92693763971328724 523.18403917551041 333.39870111644268 2.9387453645467785 13.819027215242384 64.175561673939228 76.675852283835411 151.98619191348553 1.8538752794265754 4.7258035987615576 4.3170026466250411 7.5618935599923134 1.3211595788598085 16.41396801173687 1.2543425336480143 1.0702910721302021 13.048803672194483 47.163279265165329 4.4081180468201664 3.5121590942144421 60.351795047521591 0.92693763971328547 2.2839355766773251 134.71638811379671 18.743461288511753 2.8312302902340853 2.3294932767748833
leaf_count=5569 1381 28 750 2074 6345 9942 31 9600 247 4812 401 34576 103 98841 4527 1058 10847 1900 8968 4274 1928 1434 5096 7911 772 496 11073 1763 2013 4378 9154 47 1 3310 1023 82 311 1368 946 735 2 107 21 211 12 458 35 5 16 1316 123 98 1684 1 14 3759 523 79 65
internal_value=-3.25287 -1.29029 -2.13401 -2.27687 -2.39055 -1.89949 -1.14524 -2.45446 -1.99805 -1.93086 -1.10999 -2.07747 -1.81081 -2.40522 -1.92886 -1.33964 -1.50559 -1.44232 -1.59732 -1.78034 -0.891482 -1.38891 -0.871587 -2.56493 -2.70559 -2.27791 -1.94686 -2.04469 -1.77077 -2.63395 -3.09903 -3.11563 -2.37235 -1.23842 -0.951173 -1.38778 -1.43371 -2.09016 -1.90517 -1.01415 -3.03791 -3.10632 -2.02309 -3.28818 -2.78965 -3.2109 -3.26132 -2.24411 -0.795729 -3.30689 -3.26299 -2.77408 -3.34403 -3.05205 -1.31599 -3.35673 -3.35673 -3.35673 -3.35673
internal_weight=0 3788.71 14750 9166.27 6909.28 5583.77 3509.8 6223.32 4593.47 4106.75 3447.82 2852.79 685.961 5781.72 2256.99 1681.04 1177.85 990.307 1253.96 1583.31 1766.78 963.428 1750.56 486.713 401.185 673.686 1069.52 530.283 272.348 232.598 441.601 278.911 52.5494 691.08 503.19 24.9587 513.786 441.088 85.5279 155.678 16.2251 61.9712 7.75749 226.362 22.8047 17.7351 54.2137 2.32463 19.1887 51.8891 27.5907 4.4391 203.557 8.48883 5.06961 195.068 23.1516 5.76998 3.44048
internal_count=268644 30452 238192 160611 128615 77581 23316 119669 68174 58298 21736 44518 8946 108441 31996 14309 11905 9407 13780 20185 7427 8657 7024 9876 8683 11811 15347 8108 3447 4874 11228 7136 969 5210 2404 224 4838 6937 1193 838 403 1580 117 6167 512 470 1463 40 63 1423 745 99 5655 212 42 5443 646 161 96
is_linear=0
shrinkage=1


Tree=1
num_leaves=59
num_cat=0
split_feature=104 67 50 100 73 125 69 105 134 62 29 68 5 100 103 123 130 97 72 101 98 32 56 53 52 129 41 104 31 55 106 100 61 18 100 6 85 129 68 100 28 6 29 4 133 44 14 32 1 116 114 29 109 105 102 70 70 71
split_gain=4262.37 5290.78 4978.75 6045.43 4794.15 3130.31 2975.09 3995.96 3525.87 2848.09 3076.88 2906.31 2688.79 3081.82 2602.89 2555.16 2364.74 2330.29 2031.1 2303.47 2024.88 1880.7 1826.42 1582.56 1530.63 1544.13 1446.88 1392.23 1154.73 1138.87 1048.06 949.422 904.646 866.546 815.598 703.882 684.419 649.956 804.049 636.51 606.473 527.768 506.015 497.655 466.139 451.449 325.028 267.314 246.069 238.236 134.748 127.396 101.624 93.303 87.8715 71.1416 1.42112 0.0356584
threshold=-0.81823936104774464 0.13923283666372302 1.0733258128166201 -0.88433283567428578 -0.81767541170120228 -1.2887165546417234 -0.15841585397720334 -0.88960686326026905 1.0000000180025095e-35 0.56466010212898265 1.111025393009186 -0.007049471139907836 0.59503877162933361 -0.87053361535072316 -0.82572141289710987 -2.2257832288742061 1.0000000180025095e-35 -1.0043482184410093 -0.6053764522075652 -0.79070127010345448 -0.96121886372566212 0.95938134193420421 0.98088055849075328 1.0392896533012392 1.0495345592498782 1.0000000180025095e-35 1.0351723432540896 -0.79240176081657399 0.98900729417800914 0.94298782944679271 -0.91250762343406666 -0.88433283567428578 0.61537986993789684 1.1582829356193545 -0.90473875403404225 0.62574854493141185 -1.2824119329452512 1.0000000180025095e-35 0.0068279919214546689 -0.87993454933166493 1.177747428417206 0.65159571170806896 1.1209570169448855 0.622765213251114 1.0000000180025095e-35 1.0937619805336001 1.1972700953483584 0.87936481833457958 -0.69210967421531666 -0.88356146216392506 -1.4418361186981199 1.0409533381462099 -1.073791980743408 -0.87002083659172047 -0.83446022868156422 -0.10804664716124533 -0.10254707559943198 -0.44061161577701563
decision_type=2 2 2 2 2 2 2 2 2 2 2 2 2 2 2 2 2 2 2 2 2 2 2 2 2 2 2 2 2 2 2 2 2 2 2 2 2 2 2 2 2 2 2 2 2 2 2 2 2 2 2 2 2 2 2 2 2 2
left_child=2 30 6 5 12 20 7 17 31 11 -11 -6 13 -5 32 48 18 29 26 -20 36 27 -23 -22 25 -9 -17 -18 -19 -1 45 42 -10 46 35 -7 -4 38 -35 -14 -39 -16 -8 -26 -33 53 54 51 -3 -36 55 -47 -49 -2 -32 -50 -52 -55
right_child=1 15 3 4 9 34 8 24 14 10 -12 -13 39 -15 41 16 21 28 19 -21 23 22 -24 -25 43 -27 -28 -29 -30 -31 33 44 -34 37 49 -37 -38 40 -40 -41 -42 -43 -44 -45 -46 47 -48 52 50 -51 56 -53 -54 57 -56 -57 -58 -59
leaf_value=0.40794071115203628 0.37178488072776111 0.90797765331180824 0.60133206624105862 0.63330338827046462 0.38811758267545599 -0.0082546218679353748 0.61799554759245501 0.16548751241197324 1.0579942094355308 0.35126090346308181 0.20057181974489047 0.59457483840422287 0.18586865703642208 0.099020370341750416 0.4938116718668325 0.24135539508363696 0.55611049037418303 0.26946458834788317 0.37692426363277376 0.27582076093115149 0.38021358111131476 0.13191764900735178 0.38776850915874106 0.57513457043099669 0.65153824609870703 0.32662230637226208 0.029973240782905787 0.34832422594643209 0.34556055459765211 0.68899817550557896 0.020768651353698726 0.2737636254575691 0.47059178748329561 -0.023622526237557395 -0.11443537617702393 0.39185985343570656 0.90894013028205001 0.25447969468615284 0.29131776432473999 -0.045621806408111101 0.97972397212172924 -0.10936241781662713 0.29227057284167446 0.20165121694588289 -0.066028445444730591 0.45388317277980389 1.2157003552318526 0.57947013726852603 0.34234969578955626 0.19983848704329021 -0.12340063936162707 -0.11432488905974419 0.91891485595972977 -0.10876648189615863 -0.096825436268209483 -0.10754242603333852 -0.10352895581743236 -0.11837215677147073
leaf_weight=1063.5271121151745 5.2742855101823833 2.5348451137542716 115.88720922917128 191.25366773456335 3801.3078331016004 46.636468209326267 129.99390683323145 3569.8186381459236 163.98185692727566 12094.028647359461 1525.9964709505439 830.8722900711 157.08107203990221 247.89331854507327 29.934513658285141 936.86657155677676 762.9142699688673 5188.3487900495529 2698.8250434584916 13655.482388935983 588.66535680741072 435.60099084675312 776.17346336692572 1424.4155680648983 98.395569778978825 713.58799634128809 494.8544757924974 558.53927624225616 3239.0977778173983 166.78169334679842 76.361102178692818 254.90582754462957 31.208230689167976 271.38653054088354 42.476700901985168 768.25606197863817 192.44891027361155 60.751352120190859 115.59084179997444 487.12220982834697 14.231427948921917 28.145913019776344 75.332777619361877 32.779019057750702 47.970568962395191 8.8267028480768186 1.9531061500310887 29.721721291542053 10.696334838867186 55.816914148628712 50.863295517861843 7.1358620673418036 12.541392296552656 6.8212807327508935 378.59285447373986 5.2351333647966376 123.05887607485056 8.9159955978393519
leaf_count=4819 17 1 412 972 20478 350 306 34292 360 31631 12482 3130 1468 2702 192 4248 2725 27689 12415 38806 3971 3316 2976 6277 468 1485 4441 2283 15913 226 1118 756 234 3524 410 2484 334 221 927 6106 38 373 369 232 338 3 2 54 2 245 355 72 17 93 5503 143 3772 68
internal_value=0 0.281006 0.336874 0.366451 0.345283 0.492987 0.291871 0.281453 0.484392 0.357414 0.334378 0.42515 0.140897 0.331707 0.789204 0.291947 0.295381 0.31748 0.282506 0.292505 0.554687 0.385775 0.295797 0.518136 0.202636 0.192332 0.168294 0.468285 0.298712 0.446041 0.0561764 0.332485 0.964077 0.0260849 0.336139 0.368961 0.793327 0.122664 0.0704507 0.0108243 0.392128 0.201512 0.49849 0.539117 0.219946 0.40513 -0.0715618 0.548518 -0.0707748 0.0640279 -0.0838426 0.199873 0.680199 0.00778463 -0.077088 0.194514 -0.10934 -0.114209
internal_weight=0 21509.7 37404 22570.2 19335.6 3234.6 14833.8 14072.3 761.474 18252.2 13620 4632.18 1083.35 439.147 253.271 20511.6 20319.3 9657.76 17786 16354.3 2321.42 2533.23 1211.77 2013.08 4414.58 4283.41 1431.72 1321.45 8427.45 1230.31 998.104 508.203 195.19 918.867 913.186 814.893 308.336 461.96 386.977 644.203 74.9828 58.0804 205.327 131.175 302.876 79.2372 456.907 58.2257 192.388 98.2936 189.854 15.9626 42.2631 21.0116 454.954 15.9315 173.922 15.7373
internal_count=268644 87140 181504 93452 78969 14483 88052 85124 2928 67721 44113 23608 11248 3674 1159 75483 71210 48647 59910 51221 10994 11300 6292 10248 36477 35777 8689 5008 43602 5045 11657 1769 594 11333 3489 2834 746 4710 4451 7574 259 565 675 700 1094 324 6623 146 4273 655 4272 75 71 178 6621 145 4127 161
is_linear=0
shrinkage=0.1


Tree=2
num_leaves=49
num_cat=0
split_feature=52 131 77 30 103 104 56 100 106 134 54 73 29 56 103 7 106 69 135 71 63 35 77 87 99 99 64 129 78 114 74 89 55 31 132 104 70 99 8 78 105 35 6 75 114 104 107 114
split_gain=2460.19 1573.74 6049.87 2217.93 3697.15 2474.31 2284.25 3639.94 2265.39 1745.28 1377.47 1200.89 1192.16 2499.84 1527.79 1275.56 1045.99 2308.2 1348.66 724.647 1132.52 527.454 512.742 769.664 508.295 461.414 432.248 403.094 340.736 115.775 136.224 105.434 209.439 40.4329 0.705188 0.185323 0.103229 0.0638941 0.0542524 0.0478291 0.0262855 0.0237102 0.0219021 0.00463929 0.00125581 0.000701778 0.000350703 6.23286e-05
threshold=0.74459499120712291 1.0000000180025095e-35 -1.2723824977874754 1.058898448944092 -0.83918046951293934 -0.81617555022239674 0.97956094145774852 -0.80443331599235524 -0.86888444423675526 1.0000000180025095e-35 1.0008380413055422 -0.71109366416931141 1.1087312102317812 0.95007342100143444 -0.85732263326644886 0.50888347625732433 -0.8971382975578307 -0.17712027579545972 1.0000000180025095e-35 -0.48301316797733301 0.46231569349765783 0.94890424609184276 -1.3178837299346922 -1.3135689496994016 -0.8543458580970763 -0.98456943035125721 0.41848547756671911 1.0000000180025095e-35 -1.3460876345634458 -1.0313804149627683 -0.96858942508697499 -1.3110888600349424 0.97708448767662059 0.98900729417800914 1.0000000180025095e-35 -0.94660609960556019 -0.1352359130978584 -0.91147869825363148 0.99580997228622448 -1.0401893258094785 -0.90837275981903065 0.72539046406745922 1.0104583501815798 -0.93520265817642201 -1.057107627391815 -0.92457327246665943 -0.80396068096160878 -0.98460224270820607
decision_type=2 2 2 2 2 2 2 2 2 2 2 2 2 2 2 2 2 2 2 2 2 2 2 2 2 2 2 2 2 2 2 2 2 2 2 2 2 2 2 2 2 2 2 2 2 2 2 2
left_child=29 3 22 5 16 8 9 -8 11 -7 -10 -2 15 14 -14 21 18 -18 -5 27 -21 -4 31 28 -17 -25 -15 -6 -24 30 -1 32 -3 -33 35 40 41 -38 44 -36 42 -37 -31 -40 -32 47 -42 -41
right_child=1 2 12 4 19 6 7 -9 10 -11 -12 -13 13 26 -16 24 17 -19 -20 20 -22 -23 23 25 -26 -27 -28 -29 -30 34 38 33 -34 -35 39 36 37 -39 43 45 46 -43 -44 -45 -46 -47 -48 -49
leaf_value=0.42016415594718093 0.20223671197709114 -0.11376199669640237 0.56134539046904863 0.20176447833907454 -0.080743613721181967 0.14695919186796819 0.3625698462185003 0.21765583698033295 0.39641187780975379 0.29189991628459072 0.28425538946497503 0.2572724348887403 0.36378035602837133 0.62035080514972896 0.15976417894954828 0.24703484811116458 0.1416097365779396 0.28892537401699087 0.28197904288716064 0.27966398784550045 0.049601595723111576 -0.1189244389081293 0.16254554897452356 0.28839636914770339 0.081131726290882902 0.013642782002790633 0.34508242571970887 0.15376658834349244 0.43082827817491343 -0.11034770942584343 -0.10763368975271322 0.10988799228589136 0.38678513761028516 -0.08402030704183705 -0.13510272760561443 -0.10441520978696728 -0.10484719214074022 -0.13126759439167102 -0.12892080084520319 -0.12446691876128563 -0.10772967962836902 -0.12215294152691898 -0.12040749164484266 -0.12352007740541918 -0.11185058644151012 -0.12231814540351138 -0.10522306565779403 -0.12384228877258541
leaf_weight=9.4020201973617095 6023.5654075741768 18.371688842773438 144.80450486019254 5225.9825875014067 428.69440390914679 6066.7130287513137 1966.167590495199 14634.638166436926 1282.4454984776676 962.59527496248484 7493.8880698047578 11599.691765729338 2276.3050148263574 401.17612724751234 437.62613444030285 637.66953441500664 4224.6622017845511 1421.4554731138051 3499.6375982016325 274.1864262893796 974.27936140447855 12.371614038944243 107.20870945602655 70.012562841176987 259.96137009561062 481.38829628378153 66.501492537558079 88.412841308861971 84.774748548865318 2.7765516936779013 1.4982479177415373 11.28466774523258 15.338345192372797 228.3762566447258 5.7594121880829325 189.1183183118701 1.4957135505974295 2.3589715808629981 3.2224889546632767 3.1586486101150504 1.0719348788261416 0.75661074370145698 9.8142295852303487 3.1407600566744804 1.3359200656414012 3.1034400090575209 1.1645700931549061 3.2322063073515892
leaf_count=6 19292 253 293 22276 4881 30345 4725 37702 4258 3965 25052 21068 7473 1034 3643 2386 31825 6817 17244 1473 7986 100 440 276 1809 3974 235 296 240 39 23 62 42 1842 35 4937 34 13 19 20 19 14 70 21 18 22 25 22
internal_value=0 0.231878 0.284561 0.227695 0.195459 0.238094 0.214588 0.234819 0.259134 0.166807 0.300644 0.238461 0.337135 0.367679 0.330882 0.245004 0.212235 0.178698 0.233937 0.0588967 0.100128 0.5078 0.0655054 0.108569 0.198988 0.0485288 0.581209 -0.040648 0.281012 -0.0872352 0.152495 -0.0515986 0.113991 -0.0748899 -0.107158 -0.105639 -0.104815 -0.121016 -0.121129 -0.127913 -0.116415 -0.104486 -0.118189 -0.126255 -0.109621 -0.123552 -0.106424 -0.124151
internal_weight=0 71420.2 5253.17 66167 16137.3 50029.7 23630.1 16600.8 26399.6 7029.31 8776.33 17623.3 4236.42 3181.61 2713.93 1054.81 14371.7 5646.12 8725.62 1765.57 1248.47 157.176 1016.76 743.384 897.631 551.401 467.678 517.107 191.983 242.41 18.5994 273.371 33.71 239.661 223.811 208.557 193.73 3.85469 9.19742 15.2537 14.8273 189.875 12.5908 6.36325 2.83417 9.49429 2.2365 6.39085
internal_count=268644 263307 24102 239205 92798 146407 76737 42427 69670 34310 29310 40360 16973 12385 11116 4588 78162 38642 39520 14636 9459 393 7129 4930 4195 4250 1269 5177 680 5337 87 2199 295 1904 5250 5151 4998 47 81 99 153 4951 109 40 41 64 44 42
is_linear=0
shrinkage=0.1


Tree=3
num_leaves=47
num_cat=0
split_feature=52 123 31 104 68 100 72 71 69 103 63 104 99 116 76 44 111 33 71 71 100 114 29 79 105 70 100 70 105 132 111 132 132 78 70 69 29 99 84 106 82 42 52 105 78 107
split_gain=1654.82 1361.78 1321.99 1866.92 1107.55 1014.98 3611.77 1076.11 937.411 2326.37 1070.62 929.68 695.469 430.528 385.083 354.797 351.947 918.235 248.553 175.597 174.249 96.6111 90.0077 67.9573 52.5844 47.007 46.2455 1.76173 0.575765 0.480235 0.474151 0.184326 0.102128 0.0732502 0.072084 0.055123 0.0462412 0.045458 0.0349971 0.0301714 0.0107534 0.00981341 0.00896691 0.0057081 0.00545653 0.00140806
threshold=0.78041243553161632 -2.2257832288742061 1.0010321736335757 -0.82419711351394642 0.011718624737113716 -0.51083761453628529 -0.35472568869590754 -0.48301316797733301 -0.13779117166995999 -0.85361629724502552 0.49436829984188085 -0.80323082208633412 -0.53747382760047901 -0.93161469697952259 -1.0741057395935056 1.0526958107948305 -1.2420983910560606 0.77990126609802257 1.0000000180025095e-35 -0.22023260593414304 -0.97861817479133595 -1.4418361186981199 1.2356457710266116 -1.1319344639778135 -0.96444028615951527 -0.10804664716124533 -0.99835920333862294 -0.10254707559943198 -0.90627655386924733 1.0000000180025095e-35 -1.2593448758125303 1.0000000180025095e-35 1.0000000180025095e-35 -1.0401893258094785 -0.1352359130978584 0.034119518473744399 1.2356457710266116 -0.91147869825363148 -1.1082799434661863 -0.89957052469253529 -1.1441113352775572 0.62843912839889537 0.74459499120712291 -0.89863222837448109 -1.0345223546028135 -0.86437159776687611
decision_type=2 2 2 2 2 2 2 2 2 2 2 2 2 2 2 2 2 2 2 2 2 2 2 2 2 2 2 2 2 2 2 2 2 2 2 2 2 2 2 2 2 2 2 2 2 2
left_child=13 18 5 8 15 6 7 -3 9 -4 -10 -6 -8 14 22 -5 19 -18 21 -7 24 25 23 43 -16 -2 -26 30 31 40 -23 36 34 -31 39 -27 41 -36 -33 -30 -22 -15 -38 -1 -40 -29
right_child=1 2 3 4 11 16 12 -9 10 -11 -12 -13 -14 28 20 -17 17 -19 -20 -21 29 27 -24 -25 26 35 -28 45 32 33 -32 38 -34 -35 37 -37 42 -39 44 -41 -42 -43 -44 -45 -46 -47
leaf_value=-0.11442774559970906 0.238431573139125 0.17021999106209595 0.19187779366080404 0.13698203949011103 0.14241646648698572 0.25692772182998991 0.11849867993932937 0.19994934001118153 0.29484865169912816 0.087224056269582267 0.1836886677650108 -0.0016488625952406242 -0.046667311863836228 -0.11661078811950953 0.33209984104712958 -0.087587736516063469 0.37576484172932806 -0.099568402125717881 0.45118832297105993 0.11733380586047684 -0.11745601659788914 -0.14424457826621764 0.70065781768858859 0.52195026260896771 0.25339790234077197 -0.1316604587832344 -0.12518794905608616 -0.10391838457870584 -0.11294262529872906 -0.13821954810683862 -0.12065707829528111 -0.13672703455576304 -0.12041381486895104 -0.12415814276161002 -0.10441392418027651 -0.10384990174005199 -0.1077090664209584 -0.12742114178592676 -0.12760955015905856 -0.10396672993431849 -0.10857401002428141 -0.12288941181239964 -0.1120301169836649 -0.10564222167242006 -0.12212904756354555 -0.1083556116744615
leaf_weight=1.4622609913349163 12.596214294433596 17307.270019799471 6772.521641600877 85.828243494033813 2523.9520436227322 2992.2717363834381 389.57924964278936 41062.157469399273 1208.2216696292162 3094.6526527293026 3062.9640876613557 544.5838130377233 737.66375763714314 12.093343608081339 16.394646778702739 390.16527229174972 70.900406159460545 95.221809864044189 8.885279178619383 92.910335514694452 1.496636707335713 10.625268802046774 12.729402791708706 4.005949020385744 6.3908413425087947 0.83542963862419028 6.5166461803019011 135.74708136171103 3.8224533051252356 10.829884998500349 43.056918554008007 3.3568707183003426 4.0756308287382117 5.6309088580310336 1.4104802384972575 4.8519372716546059 6.4513301514089134 2.1955632120370856 3.13259257376194 184.58607754297554 15.276321429759262 3.1346345245838156 18.790079075843096 1.4962537139654157 4.3246257528662664 0.71893869340419669
leaf_count=15 2 74474 24578 373 11310 892 1026 98632 3300 20183 8989 4380 4443 111 6 3936 47 882 2 519 15 50 35 1 6 7 55 3758 38 68 305 22 29 39 35 136 98 13 26 5295 221 21 197 30 30 14
internal_value=0 0.183202 0.183878 0.159727 0.0948328 0.190683 0.18771 0.191134 0.175996 0.159055 0.215133 0.116849 0.0104147 -0.0413231 0.156906 -0.0470947 0.245089 0.103302 -0.0667866 0.252724 0.0354653 -0.0888675 0.542528 0.253503 0.213236 0.130689 0.06226 -0.109979 -0.107217 -0.121275 -0.125326 -0.11665 -0.104749 -0.133409 -0.104417 -0.107935 -0.113551 -0.118422 -0.128248 -0.104149 -0.109367 -0.117903 -0.110926 -0.109985 -0.124431 -0.103942
internal_weight=0 80648.2 80430.9 17682.9 3544.53 62748 59496.7 58369.4 14138.4 9867.17 4271.19 3068.54 1127.24 329.603 82.2298 475.994 3251.3 166.122 217.317 3085.18 62.5359 208.432 19.6939 6.96446 29.3021 18.2836 12.9075 190.148 247.374 33.2338 53.6822 51.2835 196.09 16.4608 192.015 5.68737 40.4694 3.60604 10.8141 188.409 16.773 15.228 25.2414 2.95851 7.45722 136.466
internal_count=268644 262238 257964 77049 19999 180915 178575 173106 57050 44761 12289 15690 5469 6406 491 4309 2340 929 4274 1411 410 4272 81 46 67 145 61 4127 5915 343 355 505 5410 107 5381 143 427 48 78 5333 236 132 295 45 56 3772
is_linear=0
shrinkage=0.1


Tree=4
num_leaves=63
num_cat=0
split_feature=71 103 55 32 136 61 68 100 136 70 102 123 102 54 99 73 97 73 100 98 101 35 100 62 39 113 105 48 125 62 68 44 91 33 28 102 127 99 101 31 135 38 131 99 55 106 33 31 72 38 37 129 76 71 52 67 129 71 46 26 33 13
split_gain=1167.62 4157.41 1771.19 1663.18 1567.8 1235.38 1566.09 1115.78 1354.81 2519.94 1280.33 1092.56 813.115 803.285 1297.41 778.653 1138.76 1775.15 1074.44 791.603 683.51 643.938 598.888 598.552 556.797 522.134 521.708 450.2 469.923 423.029 876.478 810.602 630.084 414.912 390.334 386.755 381.607 376.599 373.507 343.059 326.464 324.487 323.527 320.528 477.129 306.958 298.172 283.55 263.966 251.892 234.077 203.722 197.31 177.077 162.139 158.441 155.626 147.548 133.057 108.638 105.42 43.9925
threshold=-0.4748570173978805 -0.83615976572036732 0.97604489326477062 0.96182838082313549 1.0000000180025095e-35 0.5969786047935487 -0.046854458749294274 -0.86116746068000782 1.0000000180025095e-35 -0.25083325803279871 -0.80428007245063771 -2.2257832288742061 -0.84411528706550587 0.95073506236076366 -0.93662947416305531 -0.79173004627227772 -0.8969224989414214 -0.762713462114334 -0.86495694518089283 -0.83076903223991383 -0.56380510330200184 0.90659019351005565 -0.89643430709838856 0.54424440860748302 0.946018546819687 -1.0927573442459104 -0.89804151654243458 1.124010503292084 -1.5128352046012876 0.54006326198577892 -0.030882852151989933 1.0729894042015078 -1.2057973742485044 0.91340380907058727 1.2029145359992983 -0.82717031240463246 -1.5073810815811155 -0.86423578858375538 -0.79613170027732838 1.0145477056503298 1.0000000180025095e-35 0.92425665259361278 1.0000000180025095e-35 -0.86585977673530568 0.99694859981536876 -0.92067569494247425 0.93574100732803356 1.0066285729408266 -0.66201928257942189 0.90107941627502453 0.92905229330062877 1.0000000180025095e-35 -1.1288611888885496 1.0000000180025095e-35 1.1547670960426333 0.096044100821018233 1.0000000180025095e-35 -0.48690602183341974 1.0759453773498537 0.91080841422081005 0.94097280502319347 0.92288032174110424
decision_type=2 2 2 2 2 2 2 2 2 2 2 2 2 2 2 2 2 2 2 2 2 2 2 2 2 2 2 2 2 2 2 2 2 2 2 2 2 2 2 2 2 2 2 2 2 2 2 2 2 2 2 2 2 2 2 2 2 2 2 2 2 2
left_child=1 2 4 7 5 6 -1 24 11 35 -11 53 21 45 -15 18 27 38 46 -19 -13 26 -7 48 39 59 -4 37 -29 30 31 51 36 41 58 -10 57 -17 -18 49 -33 -32 -36 44 -20 -6 50 -27 -14 -2 -5 -3 -23 -9 -25 -35 -38 -31 -34 -26 -48 -41
right_child=3 29 12 15 13 22 -8 8 9 10 -12 20 23 14 -16 16 17 19 43 -21 -22 52 -24 54 25 47 -28 28 -30 32 33 40 34 55 42 -37 56 -39 -40 61 -42 -43 -44 -45 -46 -47 60 -49 -50 -51 -52 -53 -54 -55 -56 -57 -58 -59 -60 -61 -62 -63
leaf_value=0.14677411445915853 -0.11943095949556078 -0.055010060054307142 0.14978654996289917 -0.0070505665964281346 0.1428963916408654 0.12004340105436823 0.49420763724061667 -0.08747148678999131 0.019999563880918985 0.20256553476945838 -0.0036761240047350147 0.16326311587680331 -0.11638021044655605 0.20953776916120881 0.0050885773873876154 0.17111684679295036 0.022909180993864527 0.16867424238087472 -0.088679932929376024 0.096503917908081299 0.20630181591624025 -0.12794801315453916 0.016581722341746551 -0.1017497874631535 0.15221300439705743 0.24292456683960581 0.24214896310319825 0.28023832448897379 0.16775512583715083 -0.12722764625024144 0.1491923345949667 -2.1859003582703147e-05 0.093777643544890141 -0.061838155096136715 -0.024812649699777728 -0.11865502257165567 -0.070040458332925326 0.022451261091458504 -0.11730306782182634 0.24001649921402257 0.46654448063672516 0.5214536890478475 0.49473921185871872 -0.11657345525298878 0.12045069483133247 -0.1102860908072926 -0.12929374680953434 0.13058039218587467 0.25180785752659662 0.11092659771112111 0.23987496894306656 0.16064063898713182 0.16408923459631622 0.32709808882631053 0.5538055020510475 0.38636351840328548 0.12172894789079268 0.29860234258848423 -0.10083574398120719 -0.16210622778627473 0.12302683129485528 0.41250965505363624
leaf_weight=19535.94963793084 55.27368020825088 524.95164858736098 767.17811023443937 43.917875409126282 55.057662297040224 1174.248398989439 130.60689975135028 191.70457711815834 374.60618251562119 1401.8780180290341 383.30020995438099 36507.85852445662 23.121219754219055 493.46580726653337 836.62185713648796 767.74416887760162 614.70286858081818 2895.0093585178256 206.17019713670015 3199.4532118476927 4104.9004970416427 68.574113994836807 1068.6538196727633 156.44746828824282 15.191378679126499 3263.6496939621866 3014.846886690706 759.74238327145576 726.6275305300951 9.0021324604749662 36.778969557955861 21.680439528077841 36.59390003234148 38.438936669379473 28.122762452811003 434.51674041897058 104.36435604840517 219.00171998515725 274.97627164050937 26.708596378564835 48.650485828518867 64.443133253604174 20.887161195278168 269.87445335462689 231.6930521056056 367.64954981952906 38.486469313502312 241.26943673193455 123.36839755624533 336.18012019246817 305.05151426792145 47.794518753886223 34.914413396269083 10.888239383697508 3.8660806939005843 9.9232829958200437 71.179820597171783 84.6650420576334 878.90541249513626 39.817924231290817 29.061724759638309 33.120386227965355
leaf_count=72032 1187 5814 1671 250 153 4111 354 4272 1658 1791 2005 81225 206 1919 5815 1534 3556 9041 1502 12111 3238 443 6862 1270 17 6511 7508 1375 1688 58 296 149 234 279 214 2727 745 1107 1941 26 103 87 10 2452 830 3753 258 1016 341 1218 760 76 110 2 12 6 106 163 8168 190 72 16
internal_value=0 0.134335 0.144396 0.158668 0.133782 0.141062 0.149081 0.166667 0.162004 0.0919313 0.158283 0.166458 0.204304 0.0427762 0.0809397 0.12282 0.132173 0.111524 0.0441431 0.130786 0.167613 0.216679 0.070748 0.0475772 0.217128 0.230393 0.223413 0.190487 0.22525 -0.00395839 0.0530435 0.00232828 -0.0405819 0.271073 -0.0783378 -0.054461 0.0946869 0.138122 -0.0204267 0.112486 0.322719 0.386193 0.196611 -0.0308529 0.0219804 -0.077309 0.171575 0.235191 0.193695 0.0783999 0.208799 -0.0370144 -0.029422 -0.0651907 -0.0859406 0.0301269 0.00771838 0.257677 -0.0930568 -0.0753038 -0.0207361 0.335506
internal_weight=0 29881 27854.6 58002.4 23662.3 21909.5 19666.6 47420.9 43409.7 2594.3 1785.18 40815.4 4192.32 1752.79 1330.09 10581.5 9457.26 6984.14 1124.26 6094.46 40612.8 3885.51 2242.9 306.803 4011.21 3559.93 3782.02 2473.12 1486.37 2026.38 792.661 643.077 1233.72 149.584 964.509 809.123 269.211 986.746 889.679 451.283 70.3309 101.222 49.0099 707.738 437.863 422.707 416.518 3504.92 146.49 391.454 348.969 572.746 103.489 202.593 160.314 48.3622 175.544 93.6672 915.499 55.0093 67.5482 59.829
internal_count=268644 123068 106560 145576 94999 83359 72386 107099 96918 8181 3796 88737 11561 11640 7734 38477 32353 26649 6124 21152 84463 9732 10973 1829 10181 7734 9179 5704 3063 16508 6810 6142 9698 668 8626 4385 1072 2641 5497 2447 252 383 224 4784 2332 3906 1340 7527 547 2405 1010 5890 553 4274 1282 285 851 221 8402 207 330 42
is_linear=0
shrinkage=0.1


Tree=5
num_leaves=59
num_cat=0
split_feature=108 122 73 100 69 103 101 67 45 103 74 46 35 133 35 57 73 103 107 28 134 89 97 114 48 117 132 34 30 133 38 71 109 116 34 63 105 118 46 66 69 39 107 34 34 70 70 6 111 70 70 66 113 132 123 69 127 70
split_gain=1321.89 2121.88 1210.64 1546.76 1065.77 2501.98 1915.89 930.351 911.557 761.2 2521.99 577.277 550.247 1022.06 649.098 590.442 543.785 517.902 472.188 430.215 411.718 405.787 375.39 370.417 368.859 357.08 473.154 350.554 309.613 291.937 232.376 187.461 177.127 246.306 140.234 335.514 130.748 120.65 154.386 117.976 85.9398 66.2084 63.7853 63.1074 105.1 56.4323 49.685 49.4448 35.7584 25.2645 23.9799 20.1745 14.3439 2.07815 0.722571 0.371387 0.201797 0.0920119
threshold=-1.0457596778869627 -1.8097917437553404 -0.68552726507186879 -0.76321846246719349 -0.071963634341955171 -0.79244008660316456 -0.79525765776634205 0.25968480110168463 1.2203218936920168 -0.67743608355522145 -0.49188855290412897 1.0845546126365664 0.85890254378318798 1.0000000180025095e-35 0.89208239316940319 0.86547067761421215 -0.50753545761108387 -0.80382663011550892 -0.98816502094268788 1.206474840641022 1.0000000180025095e-35 -0.3675414770841598 -0.7985151708126067 -1.1481514573097227 1.2056339383125307 -1.4113227128982542 1.0000000180025095e-35 0.95382636785507213 1.0603068470954897 1.0000000180025095e-35 0.99641385674476635 -0.21408266574144361 -1.1096396446228025 -1.3698742389678953 0.86488592624664318 0.64255288243293773 -0.83524245023727406 -1.5836839675903318 1.1897603273391726 0.24887581169605258 -0.0034468756057322021 1.0305660963058474 -0.96677854657173146 0.83935832977294933 0.83709329366683971 -0.091602709144353853 -0.1133051961660385 0.16448414325714114 -1.2637865543365476 -0.10254707559943198 -0.10804664716124533 0.15788182616233828 -1.0696481466293333 1.0000000180025095e-35 -2.2257832288742061 0.029348662123084072 -3.1811743974685665 -0.10254707559943198
decision_type=2 2 2 2 2 2 2 2 2 2 2 2 2 2 2 2 2 2 2 2 2 2 2 2 2 2 2 2 2 2 2 2 2 2 2 2 2 2 2 2 2 2 2 2 2 2 2 2 2 2 2 2 2 2 2 2 2 2
left_child=9 8 3 4 5 -3 -6 17 16 10 12 28 15 18 -15 19 25 -5 -14 -1 27 37 -9 -22 41 26 -2 -13 39 -17 49 43 45 40 35 -23 -32 -12 -39 -4 -34 54 56 44 -26 50 -45 -36 -47 -18 -10 -30 -35 -27 57 -56 -33 -11
right_child=1 2 11 7 6 -7 -8 22 32 24 21 20 13 14 -16 29 30 -19 -20 -21 23 34 -24 -25 31 53 -28 -29 51 -31 36 42 33 52 47 -37 -38 38 -40 -41 -42 -43 -44 46 -46 48 -48 -49 -50 -51 -52 -53 -54 -55 55 -57 -58 -59
leaf_value=0.066140847935559452 0.27550927265642411 0.1199529813978954 -0.063405240544296623 0.14183909482069337 0.20544926626729115 -0.015425933318219016 0.1161653647577745 0.14418141627041298 0.19750637630037746 -0.12079120593152148 0.19749980366170433 0.17302127164268702 0.15918337264640525 0.092561979953373369 -0.098713165558213842 0.1670102427852608 -0.15358350509206797 -0.055012928921277973 0.074825308217733782 0.19957411593257648 -0.10638259027532004 -0.11659569847727021 -0.14556143780444714 0.18217431882746937 -0.15502569961937157 -0.1274423759485013 0.0010259324668081488 0.019466099062633468 0.35507092312132282 0.30233192450104623 0.15263543024348858 -0.1067847990698174 0.11311746828789489 0.13231570020875069 -0.13945661443900154 0.089500789898047384 -0.1018832241258829 -0.15881544606103445 0.07123884195150719 0.25298518727239311 -0.13558123292285904 0.20803455310463259 0.15322624803420204 0.20190293101919826 0.16237415467845273 0.1734175263495692 0.17178564538551333 -0.039533609029049704 -0.12681316549727795 -0.10513868871259005 0.12702385576966801 0.20691122916217505 0.24374428083203498 -0.16244354730701949 -0.14815567751962885 -0.11289738276686048 -0.13556480454266734 -0.10313477025623466
leaf_weight=370.52486877143383 96.297763273119926 53185.021799221635 184.67869095690548 155.06649535894394 4013.3853820487857 1401.116777561605 5991.1776988096535 600.38544375449419 195.78623269498348 10.793042205274102 61.72321130335331 7152.3580431900918 9076.2315950915217 684.82067342102528 239.45038720220327 217.41633896529675 359.51891798526049 967.67295943945646 715.8660558834672 694.6279208958149 103.70331826806068 170.16681779175997 48.313764661550522 77.906647183001041 13.18649012967944 62.581206925213337 180.54736424982548 151.82679656147957 15.978773996233938 597.69596166908741 46.463147357106209 24.250353498384356 17.840499065816402 18.314498275518417 223.76152585819364 147.4205713942647 35.685056038200855 33.376020714640617 231.52272261679173 12.588837441056965 62.822155261412263 6.5796567369252434 14.031892232596872 3271.7702545598149 49.952676508575678 6.5055894497782019 657.91259815916419 63.595426443964243 10.16648720577359 153.66128802672029 64.066145282238722 21.633795280009508 31.289174556732178 23.271273270249367 22.871508523821834 3.4363227114081374 2.7084139212965992 4.0623622070997962
leaf_count=1077 206 184015 1868 666 7724 8376 16611 962 77 81 34 11571 7523 1882 1093 316 1742 5577 1289 1256 566 781 237 129 78 388 470 648 15 535 41 450 28 45 1665 487 159 156 558 10 870 5 38 758 35 4 533 243 154 4043 112 25 5 103 109 50 27 138
internal_value=0 0.121533 0.123809 0.119449 0.121977 0.116478 0.151982 0.0272613 -0.00202152 0.151961 0.140541 0.161288 0.152283 0.143528 0.0430084 0.202179 -0.0552754 -0.0278248 0.153016 0.153158 0.166131 -0.0182301 0.122602 0.0174019 0.189812 0.0412476 0.0965022 0.169829 0.0069187 0.266237 -0.114081 0.193083 0.123396 0.0272551 -0.0667262 -0.020928 0.0420729 0.0715907 0.0422531 -0.0432144 -0.0805755 -0.0865129 -0.0196796 0.195267 0.0960858 0.168686 0.196861 -0.117342 -0.00966054 -0.139078 0.180129 0.269853 0.202603 -0.13693 -0.133594 -0.14355 -0.109676 -0.115963
internal_weight=0 75447.6 74082.8 66362.1 64590.7 54586.1 10004.6 1771.44 1364.82 17609.8 13528.2 7720.67 12596.6 10716.4 924.271 1880.27 958.026 1122.74 9792.1 1065.15 7485.79 931.566 648.699 181.61 4081.56 362.698 276.845 7304.18 234.88 815.112 595.328 4033.81 406.791 130.266 604.944 317.587 82.1482 326.622 264.899 197.268 80.6627 47.7429 40.9907 3992.82 63.1392 276.524 3929.68 287.357 16.6721 513.18 259.852 37.6126 49.6037 85.8525 41.1632 26.3078 26.9588 14.8554
internal_count=268644 247447 239000 224168 216726 192391 24335 7442 8447 21197 18895 14832 14971 11787 2975 3184 7152 6243 8812 2333 12914 3924 1199 695 2302 1167 676 12219 1918 851 5985 1919 1295 948 3176 1268 200 748 714 1878 898 383 515 1404 113 347 1291 1908 158 5785 189 40 50 491 378 159 477 219
is_linear=0
shrinkage=0.1


Tree=6
num_leaves=60
num_cat=0
split_feature=132 70 54 134 62 49 94 75 117 131 4 101 14 30 70 70 98 111 76 32 109 105 105 26 73 34 105 106 79 136 71 71 63 120 121 99 106 36 78 108 96 105 83 105 102 36 73 70 38 124 70 127 105 72 75 70 70 29 92
split_gain=1515.54 1250.55 1062.05 1774.93 945.175 889.371 921.279 1847.03 1196.63 1026.75 804.388 1260.94 745.914 726.481 676.295 660.099 767.903 564.388 522.948 512.053 824.41 1631.72 527.628 436.198 496.557 420.147 378.754 250.373 240.845 226.11 169.017 134.113 392.604 123.348 145.459 118.06 91.6947 209.607 118.667 71.9223 66.5915 46.0588 45.1403 42.5387 41.4503 22.6901 21.8413 10.9135 2.03572 1.45252 0.827426 0.566788 0.504714 0.375266 0.223141 0.191506 0.135448 0.0562412 0.0220744
threshold=1.0000000180025095e-35 -0.10804664716124533 1.0654922723770144 1.0000000180025095e-35 0.6483384668827058 0.79025846719741832 -1.0580071210861204 -1.1117739677429197 -0.93451014161109913 1.0000000180025095e-35 0.60957360267639171 -0.93511497974395741 0.43269872665405279 1.0573787093162539 -0.11866108700633048 -0.19451320171356198 -0.82735353708267201 -1.2512255311012266 -1.2118493914604185 0.91241613030433666 -1.1221290230751035 -0.85912895202636708 -0.83358803391456593 1.2251533865928652 -0.6777798831462859 0.95382636785507213 -0.92723530530929554 -0.91683232784271229 -0.86085641384124745 1.0000000180025095e-35 -0.20800592750310895 -0.39328737556934351 0.58114731311798107 -0.94830137491226185 -0.98084774613380421 -0.79901832342147816 -0.90929913520812977 0.91415041685104381 -0.42343863844871515 -1.0548245906829832 -0.97007757425308216 -0.94685247540473927 -1.1823420524597166 -0.91809716820716847 -0.95082873106002797 0.9091913402080537 -0.90881881117820729 -0.10254707559943198 0.98594713211059581 -2.4283001422882076 -0.10254707559943198 -3.160003542900085 -0.9056686758995055 -0.60785734653472889 -0.4489856213331222 -0.10254707559943198 -0.1352359130978584 1.2356457710266116 -1.0455650091171262
decision_type=2 2 2 2 2 2 2 2 2 2 2 2 2 2 2 2 2 2 2 2 2 2 2 2 2 2 2 2 2 2 2 2 2 2 2 2 2 2 2 2 2 2 2 2 2 2 2 2 2 2 2 2 2 2 2 2 2 2 2
left_child=2 13 5 4 23 33 10 8 -8 -9 18 -12 17 19 31 16 -6 30 -7 20 22 -22 -2 29 -25 -17 41 35 -28 -4 45 53 -33 34 58 43 37 38 -14 -39 44 -21 -42 -15 -29 -3 -36 48 -38 55 -51 -49 57 -5 -32 -19 -54 -35 -1
right_child=1 12 3 14 15 6 7 9 -10 -11 11 -13 36 27 -16 25 -18 49 -20 26 21 -23 -24 24 -26 -27 28 40 -30 -31 54 32 -34 52 46 -37 47 39 -40 -41 42 -43 -44 -45 -46 -47 -48 51 -50 50 -52 -53 56 -55 -56 -57 -58 -59 -60
leaf_value=-0.12010559372116165 0.12991187131402163 0.084286970239745851 0.23334352169621392 -0.11902492280341084 0.13237344506384641 0.14083202497775146 -0.070642365137474711 0.092136177310523759 0.080745611613571439 0.14591968497806992 0.15434228248589527 0.073328450086565966 0.20954771936663713 -0.10453125876534877 0.22167077995481482 0.14816832716475975 0.019233213149155388 -0.12073666633450653 0.22844735935533775 0.072161014541220397 0.12980013132184529 0.017162565777635069 0.17742594604968931 0.11568457896759198 0.25071710667864966 -0.034997264947134531 0.18885763083770504 0.11732666553975785 0.14332054392077725 0.10118504726933197 -0.1437317917706433 0.20653573479264054 -0.12775181478238379 -0.11986070196022791 0.1695061762552488 0.21814395415172441 -0.1396742989445213 -0.13657006415635781 -0.13989878997411639 0.17726238705908104 0.14853237432660235 -0.15374035034024158 0.020650680025784109 -0.00036011206328973012 -0.15450036978789347 0.17942854983966061 0.38616298050336112 -0.1063660876832187 -0.16744835116564932 -0.18977217224643725 -0.12639560559598276 -0.12424069446006379 -0.10431106395622057 -0.12635442042117381 -0.10551727643606792 -0.1032866282791519 -0.12245729025256485 -0.11320247331219897 -0.11051773271618759
leaf_weight=2.8461357951164272 5431.2714551016688 27.172597546130419 1512.4341504052281 102.15627538412809 1253.706277474761 2977.7887400090694 1110.5993341244757 44682.9382303413 985.3896118029952 3855.7844288423657 3176.415608856827 4861.8195273987949 41.803607527166605 170.64405917003751 83.124927639961243 4431.4898077771068 1150.3057556971908 6.7778813168406478 883.31566169857979 11.672670915722845 6252.3552075177431 1619.1741751134396 4102.4687244296074 1150.190420947969 356.80841657519341 128.87347055226564 2835.2898803204298 8.6654335372149962 1967.409194752574 141.5768685862422 1.6462688893079782 54.053196713328362 100.37071868777275 20.168437466025352 8.7228361964225769 14.068317264318464 53.76276059448719 97.859575781971216 12.660987522453068 7.8912981525063506 117.99346514046192 39.799227684736252 36.031294088810682 50.890920802950859 15.90829613804817 323.41854537650943 9.9727402441203594 101.59018613211811 51.832777440547943 2.8777648508548737 7.2495446093380433 21.492871955037117 182.05104730278254 220.91254100948572 21.269104650244117 87.215843735262752 4.208484072238206 34.197025071829557 15.363732460886238
leaf_count=25 5525 112 2189 815 2459 6159 7742 150511 3132 11856 6963 19748 34 1452 23 7479 4539 54 1173 28 6773 3949 1374 3551 620 592 1328 20 1041 416 16 142 603 172 35 18 306 1084 125 17 114 176 125 261 134 111 7 2150 219 12 88 284 5282 1358 506 3016 50 354 197
internal_value=0 0.131644 0.102489 0.131633 0.141223 0.0975311 0.0983238 0.0924398 0.000529833 0.0964086 0.123362 0.105342 0.0137435 0.13615 -0.0415696 0.120639 0.0782365 0.0974628 0.160876 0.138592 0.130582 0.106631 0.150358 0.186573 0.147656 0.142992 0.167312 0.00492929 0.170204 0.222031 0.154857 -0.0873962 -0.0107407 -0.0810866 0.0891434 -0.0627625 -0.089078 -0.0310661 0.128314 -0.113151 0.0942268 -0.102511 0.118617 -0.0806011 -0.058646 0.172055 0.285077 -0.129722 -0.153308 -0.108422 -0.144405 -0.109487 -0.107195 -0.124037 -0.108263 -0.104545 -0.104721 -0.115673 -0.112016
internal_weight=0 23540.2 73497.6 10686 10125.4 62811.6 62534.1 50634.7 2095.99 48538.7 11899.3 8038.24 866.522 22673.6 560.618 6964.38 2404.01 477.628 3861.1 22259.4 17405.3 7871.53 9533.74 3161.01 1507 4560.36 4854.17 414.202 4802.7 1654.01 373.507 477.493 154.424 277.53 36.9054 235.603 388.894 160.215 54.4646 105.751 178.598 51.4719 154.025 221.535 24.5737 350.591 18.6956 228.679 105.596 104.121 10.1273 123.083 240.625 323.069 22.9154 93.9937 186.26 54.3655 18.2099
internal_count=268644 30452 238192 24786 21845 213406 207284 173241 10874 162367 34043 26711 8134 22318 2941 15069 6998 3915 7332 20194 17621 10722 6899 6776 4171 8071 2573 2124 2369 2605 745 2918 745 6122 264 1731 4219 1260 159 1101 393 204 239 1713 154 223 42 2959 525 3170 100 2434 5858 2173 522 3070 5332 526 222
is_linear=0
shrinkage=0.1


Tree=7
num_leaves=61
num_cat=0
split_feature=132 70 30 103 69 103 82 98 56 14 33 109 81 32 105 75 113 110 89 111 104 52 48 127 46 30 135 47 86 71 55 30 15 65 109 2 2 70 35 39 106 38 47 104 48 108 40 34 70 70 55 71 126 36 105 127 73 70 21 91
split_gain=1697.7 969.578 873.434 848.864 824.837 1060.31 938.858 1202.32 702.552 636.3 607.206 1174.16 1261.04 680.606 489.057 1269.66 476.868 414.101 538.429 283.115 249.873 237.114 222.964 210.375 267.908 203.512 193.098 188.081 173.706 160.227 159.738 162.589 159.284 139.163 125.981 121.911 294.562 112.64 363.858 93.6038 83.8157 178.858 145.026 58.6151 40.5752 33.0641 19.6864 13.5522 7.42 4.17743 3.08541 2.07776 1.24866 0.689173 0.520226 0.441242 0.411628 0.179401 0.12712 0.0231453
threshold=1.0000000180025095e-35 -0.10804664716124533 1.1011573076248171 -0.9463510513305663 0.010134552605450155 -0.75094062089920033 -0.82283973693847645 -0.83188602328300465 0.89890542626380932 0.43269872665405279 0.88393697142601024 -1.1244153976440427 -1.1451940536499021 0.88314226269721996 -0.83358803391456593 -0.51638117432594288 -1.3624380826950071 -1.1265178322792051 -1.2271402478218076 -0.97270765900611866 -0.8893928825855254 0.86469075083732616 1.1495557427406313 -2.483299612998962 1.1307249665260317 1.0575924515724184 1.0000000180025095e-35 1.2099747061729433 -1.2728205919265745 -0.20800592750310895 1.0765462517738345 0.96032449603080761 0.8224627971649171 -0.13248349726200101 -0.89682936668395985 0.60760968923568737 0.61974516510963451 -0.12430869787931441 0.95848247408866893 0.95589405298233043 -0.90929913520812977 0.99176257848739635 1.2073970437049868 -0.89394688606262196 1.0935814976692202 -0.86789509654045094 0.8577064871788026 0.85083630681037914 -0.10254707559943198 -0.10254707559943198 0.86858862638473522 -0.23180175572633741 -2.9030406475067134 0.91033849120140087 -0.92009606957435597 -3.160003542900085 -0.37986181676387781 -0.10254707559943198 1.6149305105209353 -1.0807995796203611
decision_type=2 2 2 2 2 2 2 2 2 2 2 2 2 2 2 2 2 2 2 2 2 2 2 2 2 2 2 2 2 2 2 2 2 2 2 2 2 2 2 2 2 2 2 2 2 2 2 2 2 2 2 2 2 2 2 2 2 2 2 2
left_child=2 10 4 21 5 6 7 -1 -8 16 11 14 25 -14 15 -2 29 22 -19 30 43 58 -7 24 -22 -13 33 -16 46 47 32 -32 -6 -23 -28 50 -37 38 -21 -25 41 42 -11 54 -45 -39 -5 -3 52 -43 -30 53 -42 -18 -12 -50 -31 -53 -4 -60
right_child=1 9 3 28 19 17 8 -9 -10 40 20 12 13 -15 27 -17 51 18 -20 37 23 26 -24 39 -26 -27 34 -29 35 56 31 -33 -34 -35 -36 36 -38 45 -40 -41 48 49 -44 44 -46 -47 -48 -49 55 -51 -52 57 -54 -55 -56 -57 -58 -59 59 -61
leaf_value=0.093056135516430272 0.13492289411629374 0.10472513600762118 -0.13505980692886099 0.2639974176648518 -0.081846530732921585 -0.13626193192793207 0.039542035332279013 0.05798760078520071 0.15457365981936264 -0.13885743977657641 -0.14709189729808181 0.15624767739339529 0.0096278646821813911 0.08485798108132464 0.00018897713013679343 -0.036876381119868448 -0.1350483810572701 0.11430364441353016 -0.037930165875607498 0.17574005062620474 -0.059266148073616257 0.52638032022242476 0.18258797866031493 0.12387104921087584 0.13899708278499626 0.053166818294907159 -0.084119997866694982 0.1666404542511648 -0.12411848553877525 -0.14268898813395933 0.025158722433555603 0.19238539158380558 0.10872397149468992 0.1764559006310244 0.27835153852664679 0.15297148847745792 -0.081836951542863801 0.28823771050905361 -0.0055776869224507548 0.1809304128302241 -0.13126521725205717 -0.15337748897705814 0.16948571370681798 -0.16013257994401869 0.13973252234130537 0.20442351416592652 0.10058480768422139 0.16752117615956871 -0.10575958292046342 -0.10706070237344162 -0.15465805516466122 -0.12345796430724115 -0.15452780978131708 -0.20028171232757816 -0.18213940819113847 -0.12222575854028597 -0.10502803973075375 -0.10330494917321427 -0.12357130791165749 -0.11690370175586301
leaf_weight=55926.020343514159 3426.8271939009428 38.769054681062698 5.4619260132312766 12.015770912170412 93.232470192015171 24.999545611441135 629.18858707696199 11847.620495453477 3400.0849493071437 21.339911753311753 27.469045750796795 1933.9731205403805 2021.7080214507878 2968.0847867131233 69.134678937494755 491.92839080095291 3.8774086590856305 287.88261055015028 1203.9799419716001 982.38904702290893 69.046202726662159 11.946905985474585 178.68510159105062 336.74485706165433 5283.8976996093988 212.58116743341088 46.227088823914528 3753.3582026362419 43.336627751588821 3.396900292485955 91.038625977933407 160.89301997423172 82.820462837815285 233.38096687197685 12.098104253411291 61.405552193522453 411.10623611882329 53.172498807311058 124.72704568505287 1966.0297197550535 36.127348661422729 45.887904342263937 53.484268642961979 6.2265637665987041 16.391119956970215 409.94330905005336 19.076148122549057 302.70150031149387 92.422865089029074 33.828386757522821 139.79958918690681 4.6632516458630553 63.862780034542084 2.7811890207231045 5.0072703883051863 19.751813929527998 19.926773797720671 83.711581196635962 6.7695068866014507 22.544425487518311
leaf_count=176201 2969 95 32 2 433 136 1992 39592 6137 201 138 1109 5435 5146 195 1621 29 886 5989 855 213 5 393 251 2566 782 222 1012 302 29 309 258 208 380 5 179 2122 26 408 812 232 245 109 28 18 175 38 95 2150 705 673 41 293 12 23 284 514 3100 44 190
internal_value=0 0.119119 0.0883467 -0.00333628 0.0895916 0.0878682 0.0897139 0.0869257 0.136611 0.0127392 0.123011 0.111208 0.0819483 0.0543771 0.138181 0.113357 0.0910933 0.00970668 -0.00855382 0.152984 0.145785 0.126287 0.143453 0.147312 0.13644 0.146039 0.154614 0.16363 -0.0672154 0.143071 0.0808854 0.131956 0.00780342 0.193496 -0.00893433 -0.0781675 -0.0513223 0.172636 0.155313 0.172586 -0.0855125 -0.0294955 0.081546 -0.0664174 0.0571808 0.214047 0.163737 0.160392 -0.126315 -0.133723 -0.147431 -0.108427 -0.146123 -0.162295 -0.152496 -0.108659 -0.110513 -0.104368 -0.121053 -0.118443
internal_weight=0 23414.9 76521.8 1025.17 75496.7 73498.5 71802.9 67773.6 4029.27 826.533 22588.4 14877.6 7136.35 4989.79 7741.25 3918.76 459.828 1695.55 1491.86 1998.22 7710.81 338.429 203.685 7655.72 5352.94 2146.55 303.653 3822.49 686.74 364.794 427.985 251.932 176.053 245.328 58.3252 655.648 472.512 1570.23 1107.12 2302.77 366.705 154.54 74.8242 55.094 22.6177 463.116 31.0919 341.471 212.165 79.7163 183.136 95.0334 99.9901 6.6586 32.4763 112.175 23.3237 88.3748 34.7759 29.3139
internal_count=268644 30452 238192 4194 233998 231326 223922 215793 8129 8134 22318 18269 12472 10581 5797 4590 3915 7404 6875 2672 4049 878 529 3842 2779 1891 612 1207 3316 733 1208 567 641 385 227 3276 2301 1464 1263 1063 4219 1260 310 207 46 201 40 190 2959 950 975 3182 525 41 161 2434 543 3141 266 234
is_linear=0
shrinkage=0.1


Tree=8
num_leaves=61
num_cat=0
split_feature=132 55 134 98 73 70 103 69 63 68 101 71 33 97 33 110 105 37 82 14 58 104 74 70 36 100 69 109 126 98 30 62 45 76 104 35 105 45 71 63 126 32 71 106 38 47 77 104 71 111 70 70 111 70 111 127 72 105 73 123
split_gain=1835.53 865.501 1230.36 793.36 1250.37 763.794 680.704 1356.49 1421.22 1381.03 1180.59 1014.46 814.829 1010.38 565.779 1098.77 1679.11 941.605 571.056 545.726 536.657 531.83 1284.01 486.498 482.286 466.902 457.828 434.109 407.687 386.521 303.041 306.322 252.928 241.222 207.703 206.339 163.262 232.685 152.614 351.992 133.656 125.818 118.62 77.3461 153.052 116.422 70.6531 50.3925 19.4404 15.4884 5.10275 2.83616 0.858421 0.705176 0.534167 0.341715 0.336583 0.335382 0.212417 0.0177057
threshold=1.0000000180025095e-35 1.0284711718559267 1.0000000180025095e-35 -0.82372960448265065 -0.72896423935890187 -0.10804664716124533 -0.79396739602088917 -0.096386317163705812 0.51248043775558483 0.020552578382194046 -0.83171260356903065 -0.41591793298721308 0.93609541654586803 -0.86357975006103505 0.88393697142601024 -1.1824296116828916 -0.86430922150611866 0.95684772729873668 -1.1827444434165952 0.43269872665405279 0.8378187119960786 -0.75032216310501088 -0.49188855290412897 -0.11866108700633048 0.89175167679786693 -0.78110486268997181 -0.064780108630657182 -1.0688154697418211 -2.988351464271545 -0.89868989586830128 1.0679439902305605 0.63910779356956493 1.195985019207001 -1.1492026448249815 -0.8893928825855254 0.88147112727165233 -0.85403162240982045 1.1912978887557986 -0.39328737556934351 0.58114731311798107 -2.3118888139724727 0.88068100810050975 -0.20800592750310895 -0.90929913520812977 0.99176257848739635 1.2073970437049868 -1.1509314179420469 -0.89394688606262196 -0.52175152301788319 -1.2593448758125303 -0.10254707559943198 -0.10254707559943198 -1.2593448758125303 -0.10254707559943198 -1.2551162242889402 -3.160003542900085 -0.60785734653472889 -0.92009606957435597 -0.37986181676387781 -2.2257832288742061
decision_type=2 2 2 2 2 2 2 2 2 2 2 2 2 2 2 2 2 2 2 2 2 2 2 2 2 2 2 2 2 2 2 2 2 2 2 2 2 2 2 2 2 2 2 2 2 2 2 2 2 2 2 2 2 2 2 2 2 2 2 2
left_child=1 6 3 30 33 14 7 8 9 -1 -10 27 20 -14 15 21 18 -18 -17 28 -13 22 -2 38 -6 26 -9 41 53 -29 31 -3 -23 -5 47 -27 40 -38 56 -40 -36 -8 49 44 45 -21 -32 57 -49 -30 52 -46 -45 54 -7 -52 -4 -16 -44 -55
right_child=5 2 23 4 24 19 11 25 10 -11 -12 12 13 -15 34 16 17 -19 -20 43 -22 32 -24 -25 -26 35 -28 29 42 -31 46 -33 -34 -35 36 -37 37 -39 39 -41 -42 -43 58 50 51 -47 -48 48 -50 -51 55 -53 -54 59 -56 -57 -58 -59 -60 -61
leaf_value=0.070498866663388768 0.12359963480114677 0.18690924326987204 -0.11773024385906504 -0.11614640167812838 0.18201247529328904 -0.16944104476963884 -0.062637817902950019 0.10811329022289035 0.076127367031780149 0.13651357562670657 -0.028945845548686608 -0.061127745442703163 0.076882945743435918 -0.028665552064364282 -0.14086129132221495 0.1470477456405877 -0.10108642174673182 0.08313019985713184 0.074848790412691962 -0.13448636974066369 0.12774953171839878 -0.04939124314930031 -0.036131021622191527 0.1801970931418217 0.092707656050488335 0.17586084731529328 0.17428286215272559 0.048359743600287455 0.15680383621541916 -0.07860759861617167 -0.14553065034967358 0.12831517948719634 0.15544567892679795 0.0053042435115488095 0.12788704673060755 -0.0813790819041455 -0.20376193806202281 0.10931746716243905 0.17286458194257825 -0.12619221305684683 0.15610164540200189 0.15615378998877336 -0.13123810511186634 -0.16749886453213914 -0.14609884357572228 0.14764815576492646 0.086021440847149841 0.19784581024836503 -0.0074114330985198505 0.094854342060833818 -0.10521300360248496 -0.10642933128089385 -0.13683555448018972 -0.10240317705614232 -0.11630103801739136 -0.12034809049658701 -0.12484991242462073 -0.16951451972276865 -0.10520348787240892 -0.10709210734052904
leaf_weight=44608.617196977139 3516.2576582059264 1211.6609282791615 95.712963722646236 219.78520980477333 692.37977490574121 2.7317999601364136 32.005085200071335 6274.4644416943192 1858.3254383131862 3411.3248923160136 2518.6256687007844 163.2419168446213 2287.5018077716231 1502.740958340466 25.896584287285808 1504.5229101404548 779.8325235247612 430.71769779920578 4029.779147207737 19.90416357666254 1916.8582786545157 61.237752594053745 587.31984284520149 83.305665239691734 4776.400380782783 38.312307476997375 1254.7555450238287 313.33298400044441 285.12793704122305 1021.2140861488879 44.402716301381588 3384.2146231755614 3858.1028912961483 639.01377573609352 4766.731112383306 167.54867029190063 33.587988972663879 80.955504477024078 66.849172830581665 95.701182045042515 2591.8981505855918 147.01751127839088 3.9808209538459804 10.245149970054625 43.48043230548501 55.153948578983545 18.738637417554855 6.4653334617614773 16.117334119975567 47.012390229851007 84.03995949588716 30.781525213271379 83.863995671272278 70.551069628447294 6.1504804342985135 18.13680823892355 216.81749029457569 4.8500625379383555 14.730592371895908 9.0908479541540128
leaf_count=150318 2971 1663 801 888 1301 13 166 11983 4620 5300 10899 969 5932 6998 138 1000 3043 563 7377 201 4302 234 1924 23 10612 42 1895 1252 78 7407 223 5078 1157 2411 2414 718 141 77 144 600 1210 232 48 44 245 109 30 1 45 97 2150 705 481 3105 58 284 1385 23 342 174
internal_value=0 0.0767951 0.102097 0.109457 0.0863984 0.108849 0.0724685 0.0759871 0.0702163 0.0751885 0.0156652 0.0438145 0.0626355 0.0350355 0.112263 0.10089 0.0711411 -0.0355415 0.0944764 0.0119003 0.112927 0.1259 0.100738 -0.0427077 0.104014 0.115078 0.119141 -0.0291826 0.0858489 -0.0487974 0.140774 0.143763 0.152245 -0.0257776 0.134578 -0.0335048 0.135981 0.0175121 -0.0817942 -0.00320448 0.137825 0.117039 0.134234 -0.082112 -0.0278727 0.0728308 -0.0768123 -0.0620727 0.0513529 0.148035 -0.123373 -0.129656 -0.140174 -0.105919 -0.132645 -0.1079 -0.12267 -0.145381 -0.110742 -0.102938
internal_weight=0 79060.9 11545 10986.6 6327.58 23079.3 67515.9 60132 52396.9 48019.9 4376.95 7383.91 5870.34 3790.24 22294.3 14767.8 6744.85 1210.55 5534.3 784.982 2080.1 8022.92 4103.58 558.386 5468.78 7735.08 7529.22 1513.57 439.376 1334.55 4659.02 4595.88 3919.34 858.799 7526.5 205.861 7473.17 114.543 475.081 162.55 7358.63 179.023 350.852 345.606 149.32 75.0581 63.1414 53.3293 22.5827 332.14 196.286 74.262 94.1091 88.5242 8.88228 102.177 312.53 30.7466 18.7114 79.6419
internal_count=268644 238192 25159 22206 15212 30452 213033 185775 171137 155618 15519 27258 18201 12930 22318 18269 11983 3606 8377 8134 5271 6286 4895 2953 11913 14638 13878 9057 3915 8659 6994 6741 1391 3299 4049 760 3842 218 2930 744 3624 398 565 4219 1260 310 253 207 46 175 2959 950 525 3350 71 2434 2186 161 390 3279
is_linear=0
shrinkage=0.1


Tree=9
num_leaves=62
num_cat=0
split_feature=132 69 103 109 69 35 101 136 33 109 81 42 32 103 105 75 57 100 57 69 102 101 44 52 94 39 52 30 106 105 115 63 43 25 134 108 129 57 109 106 34 111 82 8 31 124 36 60 127 79 105 47 108 51 105 69 40 39 32 99 100
split_gain=1898.43 755.377 1572.45 1044.59 805.707 1562.8 1019.22 937.333 684.47 1138.57 1210.45 699.43 1270.73 600.532 494.377 1020.64 425.188 393.004 651.841 378.761 332.224 329.308 313.152 300.473 295.074 283.306 239.888 235.156 232.118 229.313 223.465 223.461 217.413 206.683 198.853 196.815 171.581 297.469 183.308 171.312 149.843 146.842 122.551 112.569 109.664 145.907 110.908 84.3113 78.3604 66.4293 62.1625 40.3734 38.8099 2.58108 1.17106 0.996531 0.233886 0.223877 0.205035 0.192939 0.131566
threshold=1.0000000180025095e-35 -0.020605996251106259 -0.76540660858154286 -1.0567946434020994 -0.071963634341955171 0.92384955286979686 -0.80744507908821095 1.0000000180025095e-35 0.88121038675308239 -1.1244153976440427 -1.1289638876914976 1.1423681378364565 0.87936481833457958 -0.80933654308319081 -0.83229351043701161 -0.51638117432594288 0.94535222649574291 -0.76887530088424672 0.97194764018058788 0.0030044126324355607 -0.72679781913757313 -0.84602391719818104 1.1262805461883547 1.1062649488449099 -1.0260096192359922 1.0305660963058474 1.1391279101371767 1.0673635601997378 -0.96989127993583668 -0.84493583440780629 -1.3230300545692442 0.60706970095634472 1.0956013798713686 1.1980684995651247 1.0000000180025095e-35 -1.034177780151367 1.0000000180025095e-35 0.95841026306152355 -1.1155842542648313 -0.91335651278495777 0.95382636785507213 -1.2637865543365476 -1.1977758407592771 0.61129713058471691 0.98365524411201488 -1.8706510066986082 0.90303492546081554 0.7172757387161256 -3.3044012784957881 -0.71593689918518055 -0.84228447079658497 1.1784182786941531 -0.89471358060836781 1.0834542512893679 -0.92723530530929554 0.025277760811150077 1.053305506706238 0.99030381441116344 0.91393548250198375 -0.83874040842056263 -0.84036269783973683
decision_type=2 2 2 2 2 2 2 2 2 2 2 2 2 2 2 2 2 2 2 2 2 2 2 2 2 2 2 2 2 2 2 2 2 2 2 2 2 2 2 2 2 2 2 2 2 2 2 2 2 2 2 2 2 2 2 2 2 2 2 2 2
left_child=1 2 4 22 5 7 21 -1 9 14 27 12 -12 -7 15 23 -8 32 19 31 -21 -6 39 -2 43 -17 55 42 47 44 41 -19 53 -26 -24 -13 38 -38 -34 -4 -32 -20 -11 -5 45 -30 -46 54 -28 -49 -31 -51 -29 60 58 -16 -52 -56 -10 -55 -3
right_child=8 17 3 24 6 13 16 -9 28 10 11 35 -14 -15 26 25 -18 18 30 20 -22 -23 34 -25 33 -27 48 52 29 50 40 -33 36 -35 -36 -37 37 -39 -40 -41 -42 -43 -44 -45 46 -47 -48 49 -50 51 56 -53 -54 59 57 -57 -58 -59 -60 -61 -62
leaf_value=0.071404742232679438 0.029869307809844415 -0.10473110271041329 0.072683385148178445 0.11307330864273278 -0.21985523324568068 0.034246462389239632 0.045489592351108284 0.034343055040850889 -0.16808052526860595 0.14442532288923102 -0.06663751578285966 0.13440102197150511 0.053234957399153654 -0.059253750378297276 -0.15495311015712232 0.0089662032952228157 0.099840616172394384 0.015364162091975423 0.27400579987619639 0.096703196657630913 -0.079166307221124513 0.14852245977646766 0.17296896510305637 0.12339199674315081 -0.12606096031650368 -0.14811765332407012 0.016940581916885768 -0.11439360752508132 0.11959380901769223 0.034811843012699663 0.13907021412347984 -0.11807788112246076 -0.15120839075984613 -0.046469087518589823 -0.13218436031873415 -0.13757366546582914 0.025509809013878587 0.14864206414482548 0.15911007109767294 -0.13185591785084419 -0.040423169401805285 -0.10099766361605728 0.097042300178180926 -0.071748603656750745 -0.10083138078083505 0.15125100569506247 0.12019827527753453 0.17752291076269322 0.14272023511945914 -0.21798701020125619 -0.17265304427453695 0.10370269427930677 0.13150243950989485 -0.19347376630986501 -0.18109598995716397 -0.11394709518892532 -0.19635670113117962 -0.20765298799081724 -0.1465085244097418 -0.1709730573210495 -0.13076599014458734
leaf_weight=54332.013134429231 394.91752804070711 6.3082028664648551 101.27355071157217 128.05307788774371 24.479368323460221 1444.1298278681934 2954.4002538509667 7804.2877814806998 6.2973546087741878 1178.2268377393484 1355.9939087834209 631.13075627014041 2542.3521341979504 1310.1027830503881 21.648587135598067 461.05743540078402 2806.7699544355273 311.58766930550337 12.428409218788145 711.5333451628685 126.5089175850153 2797.0748310312629 345.13473964482546 2640.373370680958 487.00428646802902 152.8852059263736 50.192524770274758 49.912832126021385 6192.6682008355856 21.761927902698517 1379.6728598549962 210.11702167242765 19.267346903681755 988.48495717719197 22.763319775462151 27.778446555137634 328.58522590994835 486.97209204733372 1582.8330437466502 68.743024028837681 48.131815932691097 65.330040939152241 1016.9998648688197 44.373783081769943 42.674132633954287 1903.3875819146633 48.506573803722858 19.129831299185753 3757.3580666184425 10.287549406290056 5.1287193000316647 6.2848282828927031 7.3658074289560309 5.8949426412582424 9.106169179081915 8.1604460775852186 22.099930562078953 4.8729988932609549 14.670355081558226 10.779568061232565 2.8037398383021355
leaf_count=162562 788 150 261 154 123 4193 9692 25924 27 551 9296 637 4943 7131 110 1415 5856 1131 10 1189 475 3357 533 2001 3411 1351 244 611 3571 38 1550 928 92 4536 130 568 872 516 1734 420 189 305 1087 681 164 841 26 9 1669 48 26 7 13 25 37 193 90 20 71 46 16
internal_value=0 0.0673629 0.0648044 -0.0187779 0.0672909 0.0634825 0.0960849 0.0667498 0.10014 0.0868756 0.0572857 0.0276449 0.0115387 -0.0102287 0.11379 0.0874391 0.0719687 0.103827 0.0787009 0.0285122 0.0701543 0.145326 0.10222 0.111224 -0.058274 -0.0301511 0.13885 0.117255 0.122969 0.124517 0.124029 -0.0383797 0.13329 -0.0727394 0.154088 0.122935 0.136371 0.0990325 0.155378 -0.0100183 0.133019 -0.0410595 0.122474 0.0655097 0.125808 0.127036 0.0167526 -0.057518 0.141062 0.0505623 -0.0911887 -0.095991 -0.0827723 -0.15554 -0.167934 -0.143727 -0.191892 -0.190353 -0.152987 -0.178928 -0.112742
internal_weight=0 80967.8 75659.1 2185.83 73473.3 64890.5 8582.72 62136.3 22603.2 14296.4 6809.76 4557.26 3898.35 2754.23 7486.59 3649.23 5761.17 5308.75 2865.31 1359.75 838.042 2821.55 537.915 3035.29 1647.92 613.943 3837.36 2252.51 8306.88 8236.23 1505.56 521.705 2443.44 1475.49 367.898 658.909 2417.66 815.557 1602.1 170.017 1427.8 77.7585 2195.23 172.427 8187.24 8096.06 91.1807 70.6491 3807.55 35.7022 48.9906 16.5724 57.2786 25.7865 34.9469 29.809 27.2286 13.9792 20.9677 16.6745 9.11194
internal_count=268644 238192 228964 10126 218838 199810 19028 188486 30452 25477 17706 15444 14239 11324 7771 5555 15548 9228 5777 3723 1664 3480 1344 2789 8782 2766 2216 2262 4975 4756 2054 2059 3451 7947 663 1205 3214 1388 1826 681 1739 315 1638 835 4602 4412 190 219 1913 64 154 55 624 237 155 303 116 57 98 71 166
is_linear=0
shrinkage=0.1


Tree=10
num_leaves=62
num_cat=0
split_feature=132 70 104 136 28 102 30 32 102 101 69 33 101 136 68 103 33 109 69 40 103 99 104 76 69 79 33 101 80 104 101 33 134 35 51 39 101 45 36 3 106 105 71 90 108 109 126 30 31 124 37 60 79 105 49 33 105 123 3 32 40
split_gain=1920.22 750.787 1116.56 842.086 1045.01 1635.65 709.68 691.581 683.168 679.039 718.58 1298.63 1087.4 1012.11 647.371 868.937 613.873 1029.48 1628.73 901.381 601.637 580.659 556.7 978.192 473.04 424.725 389.468 386.833 495.957 332.217 319.233 305.909 300.211 296.508 284.022 278.725 270.96 255.42 226.92 210.613 195.368 193.301 186.765 165.308 160.624 144.508 113.5 102.366 93.2892 113.604 92.4999 71.3952 54.8538 51.6523 33.8879 10.3296 0.70361 0.558797 0.145184 0.127411 0.119027
threshold=1.0000000180025095e-35 -0.25492399930953974 -0.82240676879882801 1.0000000180025095e-35 1.1754621267318728 -0.83695107698440541 1.1011573076248171 0.95920008420944225 -0.86532968282699574 -0.80744507908821095 -0.025787062011659142 0.93687164783477794 -0.77440342307090748 1.0000000180025095e-35 0.011718624737113716 -0.79626131057739247 0.88121038675308239 -1.1197202205657957 -0.099497821182012544 1.0701190829277041 -0.9463510513305663 -0.97477611899375904 -0.75032216310501088 -0.50482076406478871 -0.078836321830749498 -1.1609946489334104 0.95489153265953075 -0.83741629123687733 -1.3239636421203611 -0.90460526943206776 -0.76470574736595143 0.87766802310943615 1.0000000180025095e-35 0.8916500210762025 1.1303632855415346 0.9753878414630891 -0.82509338855743397 1.1934738755226137 0.92372074723243724 0.50397083163261425 -0.96989127993583668 -0.84493583440780629 -0.32545922696590418 -0.3741829097270965 -1.034177780151367 -1.1155842542648313 -2.988351464271545 1.0575924515724184 0.98365524411201488 -1.8706510066986082 0.91460633277893078 0.7172757387161256 -0.71593689918518055 -0.84228447079658497 1.1675074100494387 0.88869631290435802 -0.92723530530929554 -2.2257832288742061 0.34408515691757208 0.91393548250198375 1.053305506706238
decision_type=2 2 2 2 2 2 2 2 2 2 2 2 2 2 2 2 2 2 2 2 2 2 2 2 2 2 2 2 2 2 2 2 2 2 2 2 2 2 2 2 2 2 2 2 2 2 2 2 2 2 2 2 2 2 2 2 2 2 2 2 2
left_child=1 2 3 6 5 -5 21 14 -6 24 11 13 -13 -11 33 -16 17 22 25 31 -8 -1 23 34 27 47 30 39 -29 -27 -12 -20 36 -4 -2 55 -9 57 -34 -3 51 48 -28 -25 -21 -37 -39 -19 49 -42 -50 56 -53 -43 -54 -26 59 -24 -58 -18 -55
right_child=16 9 7 4 8 -7 20 32 -10 10 26 12 -14 -15 15 -17 40 18 19 44 -22 -23 37 43 35 29 42 28 -30 -31 -32 -33 38 -35 -36 45 -38 46 -40 -41 41 53 -44 -45 -46 -47 -48 -49 50 -51 -52 52 54 60 -56 -57 58 -59 -60 -61 -62
leaf_value=0.10535417121736246 0.027471683821462624 0.013052981894326 0.016313135871158277 0.11738737230496177 0.0079206381636685152 -0.054994177384224165 0.088615157365537156 -0.022603022907673243 -0.10450666304613312 0.086281703932329021 0.12618097696900332 0.031012944017079894 -0.090028244854642767 -0.088023237711844032 0.081316063901694879 -0.033114849212772648 -0.15775367917730054 0.13401481941221358 -0.10427574266763406 0.10860098143104949 -0.072118837963832061 0.061350331746158518 -0.11558200863399744 0.097743467466443967 -0.1043031356596132 0.0048723723013032764 -0.12763696230359747 -0.015272642692110913 0.078953216922414526 0.080635390629951384 0.077302737387224957 0.026038382522984717 -0.12176322958022356 -0.070480545246885684 0.10599961463374813 -0.14966816134140074 -0.11711008282190245 -0.043042672471916406 0.090710709966664124 0.12765171638856673 0.11173153601715252 0.031348956122515995 0.037211923545850782 -0.075170918332070541 -0.14371878506069571 0.12462444430810855 0.13508466936160007 0.046136535044412043 -0.12007541247602851 0.14007543132967973 0.092072987903701498 0.16255353392836558 -0.20087614944037041 -0.16218770230127444 0.098005824695940658 -0.21580500460439792 -0.18903951674669717 -0.14300591229952728 -0.16749765634972258 -0.14035503309563488 -0.17940288747932537
leaf_weight=3234.6581539139152 532.75271604210138 182.54087598621845 917.23825307376683 1841.9617033824325 2008.3239865265787 785.03409546613693 348.93299724906683 656.22428015619516 739.50138872116804 5830.6539746019989 2151.67137176916 3533.8674994148314 939.53168731182814 353.31230069696903 2880.5978054441512 862.21896609477699 6.0511331260204342 1279.5536069869995 993.24282862059772 377.45072453096509 700.12934151291847 41116.652666836977 10.520272977650164 63.319314442574978 15.050927523523567 831.21196788549423 106.11003952473402 804.61216379515827 1827.0043482072651 1905.724797770381 3525.7613856866956 220.04849225282669 63.884016431868076 689.47091440483928 3399.7772086635232 19.297295048832893 564.20677249878645 36.119036255404353 235.77162733674049 1320.4683856945485 5976.8897095173597 21.749786615371704 195.07382917404175 435.89697172492743 27.036716129630804 4111.3434633538127 3715.7136114388704 147.87196590006351 32.149054314941168 1852.3254166990519 56.976561635732651 18.817193038761616 10.096554681658747 4.9241471886634853 6.0767395719885817 18.54641030728817 4.8394151180982581 25.295421920716763 8.8499973714351636 13.825649656355379 21.783195652067661
leaf_count=5806 1067 341 6376 4064 9134 3211 855 3131 4324 13719 2843 11896 4761 1651 6888 3912 27 578 8298 483 3271 121748 175 95 507 2673 758 2541 3957 2811 6377 398 290 4127 3093 95 3994 330 584 1153 3571 38 580 2653 405 5221 1821 450 144 841 46 9 48 26 7 77 20 147 37 71 90
internal_value=0 0.0593577 0.0530866 0.0582058 0.0207775 0.065874 0.0626368 0.0152493 -0.0223361 0.0738554 0.0621999 0.0466335 0.00559111 0.076323 0.0321627 0.054955 0.0925826 0.0799388 0.0476095 -0.0375426 -0.0186564 0.0645596 0.102682 0.078622 0.09722 0.0806895 0.0899483 0.0732599 0.0501438 0.057626 0.0958269 -0.0806413 -0.0442729 -0.0209318 0.0953612 0.12101 -0.0662938 0.130833 0.0454131 0.113734 0.114614 0.116061 -0.020866 -0.0532389 0.0917354 0.123343 0.13337 0.124911 0.117279 0.118437 0.0155476 -0.0534752 0.0464755 -0.0830584 -0.0885782 -0.165854 -0.157667 -0.134951 -0.175113 -0.145652 -0.176229
internal_weight=0 82579.7 57644.8 50775.2 5374.82 2627 45400.4 6869.61 2747.83 24934.8 16636 10657.4 4473.4 6183.97 5349.53 3742.82 22036.9 14001.5 5782.14 1617.78 1049.06 44351.3 8219.39 4431.75 8298.86 4164.36 5978.62 4134.63 2631.62 2736.94 5677.43 1213.29 1520.09 1606.71 3932.53 4164.24 1220.43 3787.65 299.656 1503.01 8035.35 7966.8 301.184 499.216 404.487 4130.64 3751.83 1427.43 7918.34 7829.22 89.1256 68.5567 34.9905 48.4571 16.1733 33.5973 33.5662 35.8157 13.6894 19.8768 26.7073
internal_count=268644 238192 181715 152413 20733 7275 131680 29302 13458 56477 42585 32027 16657 15370 21303 10800 30452 25477 16096 9584 4126 127554 9381 6908 13892 6512 10558 7992 6498 5484 9220 8696 7999 10503 4160 5900 7125 2473 874 1494 4975 4756 1338 2748 888 5316 2151 1028 4602 4412 190 219 64 154 55 584 155 322 57 98 116
is_linear=0
shrinkage=0.1


Tree=11
num_leaves=61
num_cat=0
split_feature=132 51 100 71 103 62 69 104 69 129 97 4 105 102 56 30 131 30 33 109 126 40 105 127 108 104 75 42 43 36 79 104 58 38 51 45 72 111 29 50 41 62 105 35 30 108 71 105 45 30 28 16 124 65 105 125 105 104 105 52
split_gain=1884.73 717.059 1132.97 972.005 1467.16 1024.4 1145.98 901.776 1107.69 1199.03 1104.85 883.184 882.347 743.938 642.267 677.218 745.868 644.471 568.275 866.094 967.951 820.505 544.513 539.891 512.855 460.154 912.613 402.388 395.727 355.702 351.909 309.06 297.027 293.961 267.509 258.301 249.897 219.394 213.993 217.025 208.383 183.012 178.504 140.634 119.672 113.46 112.951 108.054 178.794 93.1648 75.0784 104.836 80.4255 33.2917 1.19789 0.809317 0.712802 0.109102 0.0325384 0.00998779
threshold=1.0000000180025095e-35 1.0639505386352541 -0.90261995792388905 -0.4748570173978805 -0.83615976572036732 0.55909502506256115 -0.12547895312309262 -0.89168855547904957 -0.17019855231046674 1.0000000180025095e-35 -0.88120111823081959 0.58036866784095775 -0.84115177392959584 -0.82961189746856678 0.88149243593215953 1.0823860764503481 1.0000000180025095e-35 1.1011573076248171 0.88464534282684337 -1.1221290230751035 -2.5021018981933589 1.071649491786957 -0.85260429978370655 -1.4554210901260374 -1.0518407821655271 -0.75508910417556752 -0.52941197156906117 0.99364963173866283 1.1641205549240115 0.90346199274063121 -1.1609946489334104 -0.90780949592590321 0.81079494953155529 0.90425047278404247 1.1303632855415346 1.1934738755226137 -0.63847863674163807 -0.95399305224418629 1.0409533381462099 1.1101906299591067 0.87611207365989696 0.74419453740119945 -0.92590284347534169 0.90491482615470897 1.0833655595779421 -1.034177780151367 -0.22023260593414304 -0.85403162240982045 1.1912978887557986 1.0575924515724184 1.1766249537467959 1.138545870780945 -1.8706510066986082 0.4658734798431397 -0.84605750441551197 -2.6172122955322261 -0.92723530530929554 -0.89623370766639698 -0.93804401159286488 1.0391163825988772
decision_type=2 2 2 2 2 2 2 2 2 2 2 2 2 2 2 2 2 2 2 2 2 2 2 2 2 2 2 2 2 2 2 2 2 2 2 2 2 2 2 2 2 2 2 2 2 2 2 2 2 2 2 2 2 2 2 2 2 2 2 2
left_child=1 7 23 4 11 13 -7 14 9 22 12 -4 -10 -5 15 16 -1 -17 19 25 21 24 -9 29 -21 26 34 -11 -28 37 49 -32 -6 36 -2 55 -16 -3 41 -40 -12 -25 56 -31 -35 -23 -37 50 54 -22 52 -52 -44 -50 -49 -27 57 58 -20 -59
right_child=18 2 3 5 32 6 -8 8 10 27 40 -13 -14 -15 33 17 -18 -19 42 20 30 45 -24 38 -26 35 28 -29 -30 43 31 -33 -34 44 -36 46 -38 -39 39 -41 -42 -43 47 -45 -46 -47 -48 48 53 -51 51 -53 -54 -55 -56 -57 -58 59 -60 -61
leaf_value=-0.0019389386106536391 0.033466526917411962 0.08210777786065819 0.068247397456825579 0.054815921076868848 0.067211083172699929 0.016197713785575048 0.062637662812205494 -0.0026739293235929643 0.14055237208679347 0.11673616391433679 0.2181364161872649 -0.018321806567453393 0.0082899487293839978 0.14144354838846815 0.10114854004072558 0.074529817566782661 0.11510423416097999 -0.012054599744011726 -0.1249395761492199 0.02522950197150782 0.12533380861116492 0.11205009798549284 -0.076518449983586478 0.10871724983180382 -0.085924409749972661 -0.13259985260549054 0.018232779253760985 -0.12907296756490858 -0.15031436814223023 0.066570012829070824 0.0015935044861396901 0.074384073520712912 -0.067894862251215771 0.0064490582413847201 0.11085718688561932 0.1285656906022225 0.18776382502296141 0.15544773754066735 0.042219945014505912 -0.11025101828335789 -0.12152579342193857 -0.11369556627002737 0.107682466680995 -0.097957065013372674 0.1276447093751529 -0.13601808794522016 0.0038726021493373261 -0.20667788370054541 0.13962531406138326 0.041431684518291885 -0.21365939524464769 0.085289736133675242 0.13365978742915116 -0.0049574543694750374 -0.1679031394553443 -0.17163795898721809 -0.17874206806477475 -0.13994355019413948 -0.13418624460767772 -0.14688864803722221
leaf_weight=3799.0710180476308 527.49521863460541 497.44639829546213 4609.5700842216611 1626.8438502848148 180.03252243250608 6269.6247442886233 34849.941327769309 6225.7183050625026 1566.7612457126379 973.15743946284056 19.226176738739014 1583.2651516124606 743.8635339140892 2537.7754345685244 1346.8031542003155 6878.4441495388746 635.54863052070141 982.43833281099796 7.4451889768242863 717.98342776298523 1268.7125405371189 513.85595051571727 1189.3112637586892 686.93394197523594 983.94941921252757 30.621176857501268 750.90317613910884 71.488246768712997 171.02817554585636 337.97651205211878 771.97330842167139 2386.6381783783436 1692.3572651222348 363.64999911934137 2914.0442977398634 3564.6943066325039 442.55155639350414 2265.6566105037928 705.49097329378128 107.59165786206722 298.32395558059216 39.102296322584152 4786.1269235350192 61.390343949198723 104.99780677258968 19.12353085167706 74.156347689218819 14.95280137658119 52.752130821347237 147.75778184086084 16.490083456039429 40.641237340867519 1586.983072951436 22.813108969479799 17.055065833032131 6.4248133450746527 4.3545803204178801 3.6784850582480431 7.7848499752581128 4.7374867647886276
leaf_count=14483 988 849 12144 4258 692 22148 81900 28189 3181 1267 3 6576 3782 4076 2311 17750 984 3890 50 1496 588 535 9140 786 8368 306 1932 291 1355 680 2535 3436 10593 986 2076 1365 451 2978 1556 392 1318 146 2720 234 158 308 822 61 23 452 74 45 657 46 77 28 20 19 47 23
internal_value=0 0.0526424 0.0587942 0.0546469 0.0226628 0.0603434 0.0555568 0.0387151 0.0172299 -0.000387239 0.0739367 0.046115 0.0979729 0.107604 0.0550839 0.0460814 0.0148351 0.0637087 0.0858883 0.0750563 0.0488162 -0.00512523 -0.014518 0.105854 -0.0390326 0.0972839 0.0753252 0.0999147 -0.0130345 0.129494 0.0751664 0.0565939 -0.0549043 0.104105 0.0989953 0.12335 0.122571 0.142244 0.0572792 0.0220441 -0.100961 0.0967387 0.110386 0.041279 0.0336022 0.103149 0.126025 0.111465 0.0120702 0.116582 0.113128 -0.000997366 0.114151 0.0959758 -0.186017 -0.13937 -0.141562 -0.134715 -0.129666 -0.143853
internal_weight=0 83692.4 58051 53349.4 8065.23 45284.2 41119.6 25641.4 11087.9 8459.68 2628.17 6192.84 2310.62 4164.62 14553.5 12295.5 4434.62 7860.88 21415.2 14849.4 6809.99 2234.91 7415.03 4701.59 1701.93 8039.37 4363.47 1044.65 921.931 3162.47 4575.08 3158.61 1872.39 2258 3441.54 3675.9 1789.35 2763.1 1539.12 813.083 317.55 726.036 6565.82 399.367 468.648 532.979 3638.85 6537.81 107.573 1416.47 6430.24 57.1313 6373.11 75.5652 32.0079 37.046 28.0006 23.646 15.23 8.41597
internal_count=268644 238192 150008 142387 30005 112382 104048 88184 47171 38887 8284 18720 6963 8334 41013 37107 15467 21640 30452 26590 17718 10707 37329 7621 9864 8872 6351 1558 3287 4741 7011 5971 11285 3906 3064 2521 2762 3827 2880 1948 1321 932 3862 914 1144 843 2187 3703 207 1040 3496 119 3377 69 138 334 159 139 97 42
is_linear=0
shrinkage=0.1


Tree=12
num_leaves=61
num_cat=0
split_feature=132 53 98 31 103 69 71 97 102 5 107 30 33 109 81 32 40 105 74 29 103 105 39 51 5 131 100 55 121 67 30 48 105 101 73 53 29 91 118 38 104 133 127 72 11 81 39 108 75 100 30 105 105 104 51 49 105 105 72 32
split_gain=1819.86 604.854 591.078 670.846 875.964 712.254 673.796 1191.49 1140.32 614.521 571.334 682.765 523.094 769.802 823.967 505.419 679.4 443.931 746.785 431.686 380.567 328.718 292.685 252.119 234.946 270.555 260.227 220.803 305.253 200.824 183.081 179.546 152.224 151.807 156.108 116.026 115.44 96.6733 97.5128 86.1781 300.661 75.9139 69.3249 61.9979 88.6799 49.2801 35.6445 32.117 31.3137 29.0378 25.3654 19.0527 7.06469 2.50385 1.56701 0.907147 0.479021 0.0732896 0.0689688 0.00551798
threshold=1.0000000180025095e-35 0.88199019432067882 -0.99855852127075184 1.0034226775169375 -0.83152014017105091 -0.11478284373879431 -0.48023201525211329 -0.86473482847213734 -0.84547525644302357 0.64446741342544567 -0.89735412597656239 1.0915359258651736 0.88464534282684337 -1.1221290230751035 -1.1289638876914976 0.89038908481597911 1.0701190829277041 -0.82810890674591053 -0.50305715203285206 1.2120645046234133 -0.93241500854492176 -0.93301221728324879 1.0305660963058474 1.1303632855415346 0.68409216403961193 1.0000000180025095e-35 -0.96557316184043873 0.77958878874778759 -0.95892882347106922 0.049805510789155967 1.0673635601997378 1.2056339383125307 -0.92590284347534169 -0.94232237339019764 -0.83016139268875111 0.86802849173545849 1.0989695787429812 -0.4619013369083404 -1.5637974739074705 0.99176257848739635 -0.83418825268745411 1.0000000180025095e-35 -3.3044012784957881 -0.81491452455520619 0.97340023517608654 -1.2314592003822324 1.0305660963058474 -0.89471358060836781 -0.54318150877952565 -0.95503422617912281 1.0939643383026125 -0.85452693700790394 -0.90697437524795521 -0.80098953843116749 0.79198768734931957 0.79025846719741832 -0.92723530530929554 -0.93625685572624195 -0.61609554290771473 0.92495530843734752
decision_type=2 2 2 2 2 2 2 2 2 2 2 2 2 2 2 2 2 2 2 2 2 2 2 2 2 2 2 2 2 2 2 2 2 2 2 2 2 2 2 2 2 2 2 2 2 2 2 2 2 2 2 2 2 2 2 2 2 2 2 2
left_child=1 10 24 6 9 -6 8 -8 -4 -5 11 19 13 17 30 16 -16 18 23 29 -21 -17 -20 -2 43 41 -27 52 45 -1 36 46 56 34 -13 -30 -15 39 48 40 -34 -26 -33 44 -3 -29 -19 -32 -39 -45 -35 -41 54 -40 -12 -54 57 59 -59 -14
right_child=12 2 3 4 5 -7 7 -9 -10 -11 27 33 32 14 15 21 -18 31 22 20 -22 -23 -24 -25 25 26 -28 28 35 -31 47 42 37 50 -36 -37 -38 38 53 51 -42 -43 -44 49 -46 -47 -48 -49 -50 -51 -52 -53 55 -55 -56 -57 -58 58 -60 -61
leaf_value=-0.084265961973346071 0.029071245553282478 -0.20287239478135122 0.045658313757498528 0.059381731887368464 -0.054813201640007539 0.025090485826854976 0.07599419961643189 0.042385223884746179 -0.025121673450000936 0.010601317041772531 -0.119751862410443 -0.026139975649283421 -0.12693758534818617 -0.08333599118892554 -0.042319752763302021 -0.1130086280069918 0.085118843769038069 -0.13241986416499735 0.02212277775725123 -0.072449643811579117 0.12887247449399661 0.063175344838107689 -0.10972237457994945 0.10355503447146852 0.10943062713347969 0.068278568286280136 -0.07866036366017537 -0.11634860782557654 0.39788107895366531 0.21069522030559967 -0.11401390952395862 0.0014097921220198272 0.10942014491006419 -0.06026226478163587 0.36434909864959775 0.033104791771257747 0.10327427698329937 0.139929390506212 -0.37307261634600186 0.12346957730111059 0.035794801369044407 0.20073157069643327 0.12275545099195893 0.18282035498140442 0.18614386993082666 0.031834252559347125 0.13906340033929895 0.11207263100452042 -0.070398005302567485 0.084856255128678643 -0.13395634550218835 0.07348831889606218 -0.10536622825398115 -0.27282721404906979 -0.1492116083226824 -0.11490278288638223 -0.16731939361916748 -0.11970196485619063 -0.1388305444071736 -0.12187311507335506
leaf_weight=197.87600842863321 538.24404167383909 10.791766434907915 18887.65413659811 7848.9438750520349 1913.151353251189 2675.9703598953784 20722.02933492884 21484.797106143087 2588.0720789022744 3848.9503115341067 24.920685179531574 454.87484194710851 3.3742255643010175 33.690620049834251 1770.5789983673021 111.44614761322737 547.75174398906529 33.815899604931474 761.70591107476503 106.41032943129539 798.42488610371947 2127.4232771322131 216.15318178851157 2918.9303446859121 833.34720474481583 602.49262483417988 150.66489699482918 64.55736880004406 24.556222572922707 26.130875326693058 47.886071443557739 47.77420361712575 3329.4501078985631 63.059173539280891 10.47351787984371 13.520837910473345 2066.3641493394971 15.59574604034424 4.0044631958007795 2150.1450069025159 665.52451632544398 102.24212720990181 3242.14938711375 378.21559025347233 12.822414875030516 34.402332223951817 5.6433009300380936 7.2322178483009329 12.961377926170824 32.888351783156395 180.10719907283783 79.072972908616066 199.06218943558633 6.5951613429933786 65.544648192822933 199.92282323539257 4.1947981640696517 2.2998072654008892 10.447725690901276 5.9361525401473045
leaf_count=1038 1009 45 56094 20144 10423 8719 43633 54850 13017 12833 203 1880 21 94 10635 540 1043 358 1921 491 1894 3216 1659 2109 1190 904 618 592 40 13 614 246 1983 281 14 44 1563 3 21 696 838 51 1566 189 2 253 4 13 39 79 1090 93 5409 30 316 1843 20 20 54 44
internal_value=0 0.0468343 0.0482995 0.0469168 0.028806 -0.00822043 0.0515487 0.058886 0.0371285 0.0433315 -0.00198565 0.0261332 0.0798733 0.069412 0.0446109 0.020517 -0.0122098 0.0908526 0.0701351 0.0744276 0.105197 0.0544053 -0.00702125 0.0919587 0.100372 0.0834956 0.0388843 -0.0844524 0.0277449 -0.0498581 0.0955587 0.11845 0.103952 -0.0508119 -0.0173513 0.268352 0.100281 0.104959 -0.0516756 0.105945 0.0971549 0.119408 0.120993 0.165932 0.00836203 -0.0648343 -0.0935934 -0.0843485 0.0444669 0.174983 -0.114846 0.121697 -0.115866 -0.310699 -0.141096 -0.110145 -0.136344 -0.130453 -0.13538 -0.123709
internal_weight=0 84556.9 82093 79969.6 16287 4589.12 63682.6 42206.8 21475.7 11697.9 2463.84 1837.36 20766.4 14476.8 6712.37 4557.2 2318.33 7764.42 4435.03 1128.84 904.835 2238.87 977.859 3457.17 2123.46 1688.75 753.158 626.487 137.037 224.007 2155.17 3329.38 6289.6 708.515 465.348 38.0771 2100.05 6263.35 39.1567 6224.19 3994.97 935.589 3289.92 434.718 23.6142 98.9597 39.4592 55.1183 28.5571 411.104 243.166 2229.22 489.45 10.5996 90.4653 398.985 26.2527 22.0579 12.7475 9.31038
internal_count=268644 238192 222791 219713 52119 19142 167594 98483 69111 32977 15401 6701 30452 26590 17718 15434 11678 8872 6698 3436 2385 3756 3580 3118 3078 2763 1522 8700 929 1051 2284 2174 3862 3265 1894 84 1657 3703 93 3610 2821 1241 1812 315 47 845 362 627 42 268 1371 789 7771 51 519 7252 159 139 74 65
is_linear=0
shrinkage=0.1


Tree=13
num_leaves=61
num_cat=0
split_feature=132 82 69 102 69 63 102 38 126 108 30 47 57 31 41 52 84 33 107 96 71 56 108 70 101 53 6 57 62 71 52 69 106 71 63 31 92 101 66 57 100 97 61 80 97 101 38 116 107 32 87 107 74 96 117 121 121 118 105 52
split_gain=1735.42 593.396 661.34 1541.86 660.179 1304.79 766.175 519.209 506.687 1377.71 471.855 413.024 409.148 496.618 366.615 351.838 346.762 326.643 307.192 306.198 301.121 289.622 287.32 250.236 743.258 237.845 237.424 214.979 694.152 289.606 206.368 201.208 198.338 281.833 198.031 193.932 179.329 176.042 626.078 172.501 384.873 165.621 165.07 162.498 149.446 130.559 115.965 96.8081 95.6124 92.8755 81.3186 69.4255 51.211 41.0264 39.8644 11.6478 18.8123 9.9268 7.40777 3.24721
threshold=1.0000000180025095e-35 -0.82283973693847645 -0.009741097688674925 -0.75872200727462757 -0.10052724555134772 0.51248043775558483 -0.78499695658683766 0.98594713211059581 -2.4111207723617549 -1.056485056877136 1.0544709563255312 1.2201468348503115 0.86547067761421215 0.95575597882270824 1.0703947544097903 1.0890371203422549 -0.62314099073410023 0.86476004123687755 -0.95677492022514332 -0.8045925199985503 -0.40487453341484064 1.0260422825813296 -1.0427626967430113 -0.1133051961660385 -0.54137411713600148 1.0381340980529787 0.51263460516929638 0.89663198590278637 0.55909502506256115 -0.4748570173978805 1.1391279101371767 -0.020605996251106259 -0.96467444300651539 -0.41388310492038721 0.53575649857521068 0.9471326768398286 -1.0860833525657652 -0.57315990328788746 0.38721811771392828 0.97194764018058788 -0.7704729139804839 -0.50889798998832692 0.69124338030815136 -1.132291257381439 -0.95748484134674061 -0.67955663800239552 1.0197215080261233 -1.5009263753890989 -0.85700321197509755 0.93104922771453869 -0.63705614209175099 -0.95524483919143666 -0.807939052581787 -0.73621875047683705 -1.5494674444198606 -1.8364705443382261 -1.8438397049903867 -1.5688890218734739 -0.8487756848335265 1.037453353404999
decision_type=2 2 2 2 2 2 2 2 2 2 2 2 2 2 2 2 2 2 2 2 2 2 2 2 2 2 2 2 2 2 2 2 2 2 2 2 2 2 2 2 2 2 2 2 2 2 2 2 2 2 2 2 2 2 2 2 2 2 2 2
left_child=1 2 3 4 5 -1 -6 8 9 15 32 16 13 42 27 17 -11 -2 23 39 25 52 -13 37 41 -15 31 28 -14 -29 -17 -5 33 -10 50 -34 -28 38 -9 40 -4 -25 53 44 -12 -23 -36 55 -41 58 -16 -45 -21 -3 -26 56 -20 -39 -49 -22
right_child=7 12 19 26 6 -7 -8 18 10 11 43 22 14 20 34 30 -18 -19 47 21 59 45 -24 24 54 -27 36 29 -30 -31 -32 -33 35 -35 46 -37 -38 57 -40 48 -42 -43 -44 51 -46 -47 -48 49 -50 -51 -52 -53 -54 -55 -56 -57 -58 -59 -60 -61
leaf_value=0.038964363566862857 0.050516383295526573 0.03342563700358183 0.11777304655528489 -0.058173583679552367 0.068227798519869973 -0.014621965784165542 0.024952987927531031 0.10178977021876022 -0.052315693436907833 -0.0087461718766908957 -0.12211170673834655 0.10572250259685259 0.12674803951007524 0.075783382678407715 0.049208612003169373 0.058601955942916756 -0.12430791259909189 -0.19003123887773049 -0.12491476622411607 -0.15749570993949014 -0.1503485843708891 0.09916407045762704 -0.11263900487149581 0.15004909138269049 0.12117915146967427 -0.17493671316778181 0.011939370947679077 -0.068699001499800377 -0.032737169046917078 0.1310956105971218 0.10854752086140358 0.037173461485028446 0.058147423768162378 0.12747780088396471 -0.029110209789708338 0.10155042948854121 -0.13769101581222976 0.12951737481435163 -0.040874735491108906 -0.022243993294419388 0.032308202567260323 -0.1101710179544952 0.2559160687993185 -0.038383709546777049 0.065361940411150607 -0.1661772195492571 0.065838830392072556 -0.29684736020708941 0.12872787631561031 0.11256802855052091 0.18814239028782687 -0.16042265006433604 -0.049275183643754356 -0.14619124605354622 -0.004383223813176281 0.15088071899421984 0.1405373680756952 0.092397752953866555 -0.14500717958418297 -0.20054771481213216
leaf_weight=50091.624142037705 134.27061715722084 13.622138634324072 1041.1301958411932 779.08819524385035 13854.781923734583 4997.2365807965398 5805.6553557254374 4888.7604080475867 228.94897313416004 439.52816797792912 50.066139679402113 243.99759727995843 774.66222744435072 936.730384349823 79.253305099904537 2305.0322861010209 634.50296986475587 97.40079652518034 4.922490471974017 77.442738957703114 22.263670682907104 201.95215970277786 80.019665854051709 27.001887418329716 495.06629510875791 39.429606691002846 97.101647837087512 75.290663879364729 421.34096902608871 1993.3224712088704 1290.3954914864153 309.14874890446663 1332.9599664658308 140.80512484908104 411.90103167295456 4521.3845069259405 457.34164494276047 1866.7311307787895 328.26220685616136 43.63018211722374 1066.8549052774906 259.6918237702921 11.449333116412161 172.50371101126075 282.14846783131361 20.418567419052124 187.04263599216938 3.3503725640475741 1088.6951590180397 15.950802329927681 89.934397824108601 63.875216007232666 100.43493165075779 191.28753295354545 26.64610309060663 17.78541874140501 5.8336885124444962 74.936848074197769 78.376685935072601 30.592880815267563
leaf_count=152567 223 38 1239 3684 27317 17744 16552 3075 696 890 428 344 962 1874 161 3288 4798 381 88 355 103 309 2553 20 370 168 272 455 1135 2653 920 723 1861 120 1325 3384 2373 501 859 108 2324 2599 7 865 548 87 394 16 754 13 48 545 366 1971 95 10 6 62 894 124
internal_value=0 0.0417379 0.0395961 0.0376116 0.0397177 0.0341034 0.0554489 0.0743926 0.061207 0.0377955 0.0792158 -0.0471623 0.074214 0.0241125 0.0896861 0.0688308 -0.0770163 -0.0506162 0.0939722 0.0812369 0.0530684 -0.00128058 0.0517957 0.0964244 0.043686 0.0656562 -0.0582236 0.104311 0.0705629 0.123824 0.0765274 -0.0310872 0.0871819 0.016151 0.0275273 0.0916681 -0.111486 0.10238 0.0928131 0.0914296 0.0745191 -0.0856625 -0.113604 -0.00798506 0.0371089 0.0747999 0.000541191 -0.0608127 0.122911 -0.108153 0.123061 -0.0713615 -0.0963912 -0.134251 0.114766 0.101201 0.019055 0.128085 -0.151232 -0.179403
internal_weight=0 85310.7 80032.5 76392 74749.3 55088.9 19660.4 20111.2 12017.8 5225.15 6792.69 1398.05 5278.12 1245.38 4032.75 3827.1 1074.03 231.671 8093.32 3640.56 1029.02 400.248 324.017 7967.1 808.406 976.16 1642.68 3264.62 1196 2068.61 3595.43 1088.24 6224.1 369.754 768.131 5854.34 554.443 7158.69 5217.02 3240.31 2107.99 286.694 216.359 568.594 332.215 222.371 598.944 126.219 1132.33 97.6779 169.188 236.379 177.878 204.91 521.712 28.5416 10.7562 1941.67 81.7271 52.8566
internal_count=268644 238192 226774 221232 214180 170311 43869 30452 21844 13397 8447 8585 11418 4285 7133 4812 5688 604 8608 5542 2269 1117 2897 7581 3084 2042 7052 5205 2097 3108 4208 4407 6061 816 1928 5245 2645 4497 3934 4425 3563 2619 2016 2386 976 396 1719 1027 862 923 209 1410 721 2009 465 104 94 563 910 227
is_linear=0
shrinkage=0.1


Tree=14
num_leaves=61
num_cat=0
split_feature=132 53 134 106 133 84 35 55 35 95 135 30 96 127 5 57 38 104 109 69 96 30 129 133 52 70 29 24 124 109 107 38 109 106 30 71 36 37 1 68 31 70 101 102 83 53 41 35 116 32 106 58 54 55 88 121 121 111 102 54
split_gain=1636.64 565.704 1174.78 638.119 969.398 1324.61 1082.74 1151.56 677.729 614.256 610.672 579.429 542.951 522.491 668.909 503.06 496.387 425.203 1125.37 418.749 403.375 382.754 372.618 363.058 359.175 354.5 333.371 313.453 304.344 264.951 245.414 244.022 223.245 222.502 204.951 198.291 190.159 178.596 160.784 147.913 228.371 143.847 533.173 133.667 126.067 179.763 116.769 114.638 81.9436 79.9019 78.7802 47.5471 33.2333 52.6879 25.2307 9.61381 16.1646 6.18287 3.76667 1.54097
threshold=1.0000000180025095e-35 1.0899149775505068 1.0000000180025095e-35 -0.96989127993583668 1.0000000180025095e-35 -0.94166678190231312 0.86546671390533458 0.96164658665657055 0.85566893219947826 -0.9231952130794524 1.0000000180025095e-35 1.0994584560394289 -0.95952129364013661 -1.9644961357116697 0.57968518137931835 0.78262102603912365 0.98647779226303112 -0.83464092016220082 -1.1176514029502866 -0.099497821182012544 -0.87638220191001881 1.0573787093162539 1.0000000180025095e-35 1.0000000180025095e-35 1.1062649488449099 -0.23210629075765607 1.17192679643631 1.2095660567283633 -1.4529054164886472 -1.1478573083877561 -0.95677492022514332 0.95970225334167492 -1.1478573083877561 -0.92773228883743275 1.0641341805458071 -0.2919927835464477 0.90213876962661754 0.92493286728858959 0.46322147548198706 0.17260141670703891 0.98694369196891796 -0.1133051961660385 -0.54137411713600148 -0.62127473950386036 -1.218846797943115 0.94129198789596569 1.0940555334091189 0.86122062802314769 -1.5009263753890989 0.93104922771453869 -0.91089764237403859 0.8863227665424348 1.0590454936027529 1.0216069817543032 -1.1579495668411253 -1.8364705443382261 -1.8438397049903867 -1.2593448758125303 -0.74023583531379689 1.0654922723770144
decision_type=2 2 2 2 2 2 2 2 2 2 2 2 2 2 2 2 2 2 2 2 2 2 2 2 2 2 2 2 2 2 2 2 2 2 2 2 2 2 2 2 2 2 2 2 2 2 2 2 2 2 2 2 2 2 2 2 2 2 2 2
left_child=1 3 9 8 5 11 7 -6 15 22 -7 -5 -8 20 -15 26 17 21 24 31 -11 29 38 -17 27 52 -1 -19 -24 57 32 -20 46 -21 37 -26 -31 -10 -3 40 -27 43 -43 -34 54 -46 51 -36 55 58 -48 -18 53 -4 -23 56 -32 -2 -50 -54
right_child=16 2 25 4 6 10 12 -9 34 13 -12 -13 -14 14 -16 23 30 18 19 33 -22 44 28 -25 35 39 -28 -29 -30 36 48 -33 41 -35 47 -37 -38 -39 -40 -41 -42 42 -44 -45 45 -47 50 -49 49 -51 -52 -53 59 -55 -56 -57 -58 -59 -60 -61
leaf_value=-0.068461364381999706 -0.29005604625160991 0.11460022042496106 -0.13879131827733596 0.03429500689140641 -0.013192051065047526 -0.047476205954591295 0.12660242151078269 0.08432895332712001 0.050547870929738482 0.12308965689153305 0.14062315856209961 -0.042401470969198149 -0.066114724295867219 -0.057599449391557471 0.12215908515388939 -0.18497858801217881 -0.099285676048796581 -0.16641872617466016 -0.076242186912890919 -0.017662181246696398 0.048205447182161312 -0.029875706054811629 0.11594465923009255 0.13460419453458072 0.10086079452353088 -0.11232338172339336 0.071489467161205286 0.066837597562655934 0.013089603502915954 0.0661947853118771 -0.12318095609953839 0.15762450920306115 0.090564515747296306 -0.11596941725415894 0.0076016339985148507 0.049621724734428586 0.10093882361210299 -0.0530219414238867 0.04034048925616162 0.14037925460227704 0.082998450383873101 -0.073507294934010481 0.11108213734649196 0.12296438872466937 -0.13226829586888419 0.017905950279433556 -0.12157170480157459 -0.1796342690591454 -0.24179777476882475 0.10685287981650322 0.11010260195344937 0.1223124641226121 -0.13770792628624876 0.23074606711258602 0.12381715886712563 0.14332654616518384 0.13302868564935766 -0.19360413501639828 -0.14006528494478931 -0.12471053954320913
leaf_weight=221.07580050453544 11.903580427169802 3144.2672645747662 9.0266010016202909 56592.245774460956 3118.4888401031494 193.50941214337945 155.47987951338291 1979.4337223619223 556.45165325701237 794.62671907991171 1597.1088266856968 1002.4781801700592 2446.9130287468433 897.33521801233292 269.08402759581804 36.253393352031708 11.723125860095022 123.84760191198438 66.823264881968498 371.63230116665363 7591.3580885566771 13.086408343166111 420.04368004947901 1825.6169830411673 1304.6724180430174 130.10271561145782 739.7171668857336 107.71982762217522 912.94875667989254 4661.829244337976 4.4196299687027949 134.25431859493256 4726.5164064988494 605.0945238629356 51.513959303498268 1793.5343599915504 2379.2429759427905 237.58549173176289 321.36580610275269 72.587935209274292 110.87289960682392 229.81193840783089 490.3701721476391 1742.8405301570892 148.2502052038908 172.40688942372799 90.547837984748185 89.536020383238792 3.8418177030980578 15.164764832705258 17.517374542541802 55.627963784150779 131.00029189884663 6.7385885417461386 58.116548400372267 16.918010253459215 5.5608378648757935 15.04773038625717 69.099975167773664 300.37864172831178
leaf_count=796 55 3702 49 169443 10157 1755 199 3925 1075 951 1842 3768 8202 2841 301 159 65 498 207 801 17495 69 479 1818 1101 737 1807 163 1867 5669 83 61 3345 6663 114 3186 1600 696 564 24 269 1752 401 539 1385 630 1125 382 17 13 39 44 701 5 33 9 6 63 830 2069
internal_value=0 0.0372579 0.054823 0.033511 0.0312648 0.0355934 -0.00211791 0.0246736 0.0736117 0.0612423 0.120296 0.03296 -0.0546008 0.0465789 -0.0161305 0.0980551 0.0693823 0.0567516 0.0325027 -0.0515105 0.0553012 0.0714038 0.0904321 0.128381 0.0622198 -0.0662798 0.0392872 -0.0579133 0.0455006 0.0767373 0.0895906 0.0799046 0.0918541 -0.0785647 -0.000173187 0.0711988 0.0779351 0.0195585 0.107714 0.0152395 -0.0224558 0.0945736 0.0521792 0.099293 -0.0247967 -0.0515245 -0.0196065 -0.111252 -0.0553621 -0.102002 -0.0840173 0.0837411 -0.123446 0.0191618 0.0955699 0.0974084 0.0195719 -0.236204 -0.145423 -0.128658
internal_weight=0 85955.1 15111.7 70843.4 67085.7 59385.3 7700.32 5097.92 3757.75 14351 1790.62 57594.7 2602.39 9552.4 1166.42 2822.66 19447.4 11967.5 4507.58 1177.8 8385.98 7459.88 4798.63 1861.87 3329.77 760.708 960.793 231.567 1332.99 7068.02 7479.96 201.078 7364.96 976.727 935.087 3098.21 7041.07 794.037 3465.63 313.564 240.976 7189.54 720.182 6469.36 391.86 320.657 175.416 141.05 115.005 88.1066 108.065 67.3511 447.144 15.7652 71.203 26.8985 9.98047 26.9513 72.9418 431.379
internal_count=268644 238192 32054 206138 199291 176808 22483 14082 6847 28200 3597 173211 8401 21588 3142 4580 30452 22184 12680 7732 18446 9504 6612 1977 4948 3854 2603 661 2346 7387 8268 268 7310 7464 2267 4287 7269 1771 4266 1030 1006 6037 2153 3884 2117 2015 1273 496 958 860 1164 109 2824 54 102 98 89 118 847 2770
is_linear=0
shrinkage=0.1


Tree=15
num_leaves=62
num_cat=0
split_feature=132 69 103 84 99 55 73 39 105 108 53 70 57 70 31 107 30 104 92 35 111 70 101 44 106 31 31 102 66 47 72 37 27 39 116 50 104 68 102 40 55 134 34 83 53 125 13 125 36 115 67 75 31 117 99 60 105 81 71 97 75
split_gain=1513.04 510.284 595.979 527.476 570.673 1176.74 1053.06 476.995 603.909 645.869 408.01 408.355 403.604 391.299 346.682 331.471 309.508 289.053 267.274 258.71 225.13 223.604 612.685 285.92 194.737 201.703 193.044 175.351 401.125 170.491 155.516 150.65 146.861 145.978 130.516 122.885 131.863 116.192 258.221 122.925 113.827 113.193 103.558 101.488 159.34 92.2524 84.3611 122.824 72.1667 71.1797 29.6466 27.3265 20.274 16.1065 6.91447 11.7827 3.42817 2.19425 0.526206 0.484379 0.0794238
threshold=1.0000000180025095e-35 0.0064940634183585652 -0.75094062089920033 -0.80720767378807057 -0.81287771463394154 1.0148048400878908 -0.74861991405487049 1.019588887691498 -0.87616342306137074 -1.056485056877136 1.0810686945915224 -0.187853068113327 0.86547067761421215 -0.23862567543983457 0.95575597882270824 -0.95828732848167408 1.0573787093162539 -0.76904553174972523 -1.0732256174087522 0.88733589649200451 -0.97270765900611866 -0.11866108700633048 -0.54137411713600148 1.1847037672996523 -0.96989127993583668 0.95312523841857921 0.95575597882270824 -0.62916299700736988 0.37312655150890356 1.1487622857093813 -0.56903669238090504 0.95259612798690807 1.1334987282752993 1.0071222782135012 -1.5009263753890989 1.1818083524703982 -0.75711706280708302 0.18369059264659884 -0.72679781913757313 1.082675635814667 1.0437203049659731 1.0000000180025095e-35 0.95382636785507213 -1.218846797943115 0.94129198789596569 -2.7766363620758052 0.69096961617469799 -1.8612616062164304 0.89394861459732067 -1.4580971598625181 0.32567183673381811 -0.81268018484115589 0.96894526481628429 -1.5183365345001218 -0.74564111232757557 0.84913820028305065 -0.84228447079658497 -1.3482570052146909 -0.44061161577701563 -0.78983554244041432 -0.4489856213331222
decision_type=2 2 2 2 2 2 2 2 2 2 2 2 2 2 2 2 2 2 2 2 2 2 2 2 2 2 2 2 2 2 2 2 2 2 2 2 2 2 2 2 2 2 2 2 2 2 2 2 2 2 2 2 2 2 2 2 2 2 2 2 2
left_child=1 2 3 4 5 -1 -6 8 16 10 31 -12 14 48 -5 21 24 29 30 -14 35 27 23 -23 26 -26 -2 28 -9 58 -19 -10 -20 -15 50 46 42 38 39 -22 -40 -31 -37 52 -45 -38 59 -48 -11 -24 -17 -36 -18 -29 57 -56 -53 -39 -4 -3 -52
right_child=7 20 17 12 6 -7 -8 15 9 13 11 -13 19 33 -16 34 43 18 32 -21 37 22 49 -25 25 -27 -28 53 -30 41 -32 -33 -34 -35 51 36 45 54 40 -41 -42 -43 -44 44 -46 -47 47 -49 -50 -51 60 56 -54 -55 55 -57 -58 -59 -60 -61 -62
leaf_value=0.02937439733953472 0.037986674883394217 -0.17895316013403259 -0.11546868636311432 -0.10569559081799458 -0.068457745269085712 0.068124133852593735 0.022354983275530167 0.097921819146995978 -0.18777031709700376 -0.009943629339291566 0.13188075299254051 0.024366706435098792 0.099472069945214014 -0.14199675549063837 0.039227120754506087 0.12038811406840232 0.1307842046402832 -0.12511911558537198 -0.047719667048354703 0.038885718344914222 0.10432964531359255 0.05690503507273275 0.11335160767707796 -0.086336280354246342 0.055969927581735801 0.088150188244520936 -0.13563238323066021 0.12148540917014339 0.017020758718370457 0.080645698871576285 0.06513841093514304 0.10172932745393207 -0.13037221403654453 -0.05283631998698729 0.10007782868136557 0.085687795649262266 0.1510801232820396 0.14400650097746448 -0.18381994100113674 -0.10456378991731739 0.012063843606421988 -0.12437915295520063 -0.1442257152670188 -0.12736116156611652 0.016491370228184556 -0.1531195764876721 0.17159116640791708 -0.098227010273144066 0.11355024936177414 -0.043532413740505774 -0.12704331907449271 -0.22320429809168882 0.0057758545947140518 0.069712617770373325 0.087013073272807939 0.14655855200804338 -0.12970593111935694 0.16527873480918012 -0.13825745147984744 -0.14615697781499234 -0.1038950100355046
leaf_weight=57962.736101290211 258.00740855187178 4.9045947641134253 14.150715097784994 193.07049018889666 1484.2654051221907 9062.1425380781293 9139.9204499572515 3424.7525054477155 93.344341391697526 72.19037689641118 549.5966432094574 988.95088801905513 2563.0256372317672 271.93637149501592 1138.0137244686484 36.037454564124346 42.833336148411036 52.570703154429793 544.16534766741097 972.11445746570826 1211.1227515377104 234.96276441030204 762.07052612863481 342.44750418327749 3944.4779828637838 3847.7073354050517 85.186172634363174 1878.7087780237198 746.45568538457155 351.17571093887091 235.07335193268955 22.26216708868742 355.37037884071469 565.4787672907114 5.2694676518440238 338.46851451694965 12.66577263176441 75.632800851017237 37.538465708494186 28.84100653231144 141.43944972753525 29.164496019482613 20.794585555791855 139.04583327099681 172.55665943026543 46.825169004499912 28.699738427996635 40.933549642562866 137.35542398691177 30.060810828581452 2.3003926873207083 4.0847663059830657 18.610528588294983 62.074780933558941 45.531283289194107 123.01380299031734 98.125160242430866 135.12297834455967 35.682344056665897 55.050953790545464 4.1674250848591328
leaf_count=169831 447 20 134 820 7291 16416 25479 2054 419 155 308 1686 3627 2125 2551 34 18 637 2957 1948 1147 931 570 2594 4940 3107 356 612 1283 780 310 14 1859 4282 3 552 6 26 171 99 273 209 102 1385 629 221 25 152 78 141 26 18 74 73 45 28 1893 26 188 262 197
internal_value=0 0.0333065 0.0320236 0.033202 0.0312004 0.0346136 0.00966788 0.0645797 0.0514512 0.0102562 0.0491587 0.0627726 0.0651399 -0.0512082 0.0182064 0.0838635 0.0645291 -0.0280935 -0.0535413 0.0828117 0.0793019 0.0868144 0.0502929 -0.0280478 0.0686133 0.0718602 -0.00510837 0.0949979 0.0834442 0.0421366 0.0303664 -0.132022 -0.0803724 -0.0817897 -0.0633301 0.0232104 0.0495451 0.096406 0.0832637 0.0994709 -0.0290204 0.0649244 0.0723801 -0.0245383 -0.0476997 -0.0883547 -0.0618875 0.01298 0.0710055 0.107398 0.0850073 -0.121994 0.0929208 0.119829 0.145571 0.130473 -0.133443 0.157645 -0.131786 -0.14884 -0.112128
internal_weight=0 86479.2 84132.6 82515.3 77649.1 67024.9 10624.2 18841.1 11209.5 2701.11 1654.15 1538.55 4866.22 1046.96 1331.08 7631.52 8508.43 1617.35 1187.18 3535.14 2346.59 7481.53 1369.54 577.41 8135.38 7792.19 343.194 6111.99 4171.21 430.173 287.644 115.607 899.536 837.415 149.985 548.343 418.754 1798.24 1418.94 1239.96 178.978 380.34 359.263 373.046 311.602 59.4909 129.589 69.6333 209.546 792.131 42.5053 107.479 61.4439 1940.78 379.301 168.545 102.21 210.756 49.8331 59.9555 6.46782
internal_count=268644 238192 235037 227963 219017 186247 32770 30452 20023 9067 2427 1994 8946 6640 3371 10429 10956 7074 5763 5575 3155 8258 4236 3525 8850 8047 803 4022 3337 1311 947 433 4816 6407 2171 1340 881 1815 1690 1246 444 989 654 2106 2014 227 459 177 233 711 257 1914 92 685 125 73 1911 52 322 282 223
is_linear=0
shrinkage=0.1


Tree=16
num_leaves=58
num_cat=0
split_feature=132 37 95 73 101 56 99 73 80 135 53 47 75 55 134 131 80 129 52 98 53 79 108 57 107 124 44 30 116 31 31 2 76 109 32 74 82 105 102 66 98 79 4 69 107 34 38 31 0 57 76 60 69 30 89 58 123
split_gain=1391.21 469.213 451.788 878.064 1281.79 1381.68 988.607 1018.51 811.006 687.532 687.336 574.1 523.18 522.895 445.815 439.061 1150.87 400.741 364.576 306.316 300.746 293.33 715.189 508.275 610.817 426.169 346.358 336.882 317.387 280.333 278.914 436.738 265.882 213.218 195.938 185.685 147.299 135.71 293.386 536.01 118.578 115.016 86.9091 85.9071 74.9418 74.6955 71.2797 65.4483 52.1894 43.0945 139.594 27.9565 38.882 22.4467 17.0616 9.76113 6.39122
threshold=1.0000000180025095e-35 0.95259612798690807 -1.0493283867835996 -0.82307705283164967 -0.87724557518959034 0.90918102860450756 -0.87831449508666981 -0.7933959662914275 -1.246104300022125 1.0000000180025095e-35 1.0614155530929568 1.1080837845802309 -1.2074759006500242 0.96437722444534313 1.0000000180025095e-35 1.0000000180025095e-35 -1.3059592247009275 1.0000000180025095e-35 1.0338657498359682 -0.90679356455802906 1.0403962135314944 -0.87036997079849232 -1.0486871004104612 0.9571579396724702 -0.99363943934440602 -2.0204613208770748 1.1983380913734438 1.0544709563255312 -1.3219253420829771 1.0064602494239809 0.95312523841857921 0.68913096189498912 -1.2133730649948118 -1.1478573083877561 0.96364033222198497 -1.0287937521934507 -1.1365182995796201 -0.87270030379295338 -0.62127473950386036 0.38721811771392828 -0.9355371594429015 -1.4270660877227781 0.15026059001684192 0.044290179386734969 -0.99705538153648365 0.83826878666877758 0.93322810530662548 1.004110634326935 0.3027638047933579 0.90860110521316539 -0.73296299576759327 0.78421640396118175 -0.054052142426371567 1.0676538944244387 -0.3675414770841598 0.87439224123954784 -1.0032809972763059
decision_type=2 2 2 2 2 2 2 2 2 2 2 2 2 2 2 2 2 2 2 2 2 2 2 2 2 2 2 2 2 2 2 2 2 2 2 2 2 2 2 2 2 2 2 2 2 2 2 2 2 2 2 2 2 2 2 2 2
left_child=2 21 12 4 5 8 11 13 -4 -9 17 14 47 -8 -5 20 35 -6 -18 -12 29 27 23 24 -23 26 -24 30 -27 -14 31 -2 -7 42 -13 -17 40 49 39 -39 -29 -22 44 -40 54 -25 -32 53 -38 50 -35 52 -44 56 -3 -51 -1
right_child=1 33 3 6 10 32 7 9 -10 -11 19 34 15 -15 -16 16 18 -19 -20 -21 41 22 25 45 -26 28 -28 36 -30 -31 46 -33 -34 37 -36 -37 48 38 43 -41 -42 -43 51 -45 -46 -47 -48 -49 -50 55 -52 -53 -54 -55 -56 -57 -58
leaf_value=-0.14879239418541709 -0.054795696715691782 -0.24943028078389498 -0.027646878395555914 0.038628786644122115 -0.063607097688423195 -0.0015567843132278322 0.035614197515864622 0.029666707571060293 0.0271485719182901 0.078234714863240809 0.076309463284456702 0.11149779609744517 0.046472086692489152 -0.032801673879734448 0.12404407499296316 -0.061852424472800274 0.03462522664481589 0.035795438735995319 0.14157525666552914 -0.031074022838239464 0.053781323464787749 0.041380814310987245 -0.1117460404187723 -0.082182993362788531 -0.10615665222067228 0.071034811770030057 0.064950338948410777 -0.082154292213983071 -0.10189023061907168 0.1090337947834657 0.078269938964726893 0.075878347249475162 0.088711063980205021 0.098332569298524714 0.040126303171478694 0.029103178662900749 0.2005203423551819 0.073350738419858494 0.11320671655564103 -0.050475623967629051 0.06601937305683403 0.14361355142949583 0.081502063403445846 -0.029602578939939297 0.1049132879488428 0.094342354136912387 0.10856671491153597 0.12290624915510449 -0.088462982976169668 0.089020329939138845 -0.12740962426863076 0.11056553930663671 -0.24839742643259091 0.042258202697918176 -0.1250255601751433 0.10913346164601208 -0.10614118685425591
leaf_weight=44.942667059600353 371.62058617174625 13.82560236006975 4147.2839160710573 6133.3564021661878 3595.3928731009364 363.94899748265743 1576.9607450850308 40708.35304767359 7745.7656457908452 3139.4749144241214 703.91649223864079 2443.7270338013768 2579.8274344950914 3831.0351216830313 678.67453724890947 998.1149239577353 589.88346952199936 457.13979994878173 693.39371387660503 426.64741635322571 174.57253788411617 3345.6535354619846 617.96687233168632 24.271539401262999 306.30276275891811 474.54943390190601 135.20749027095735 69.752285409718752 136.71686894446611 991.51273517310619 1717.4402247220278 820.40202240645885 3154.705474562943 145.13459837436676 456.50897867232561 289.56378035247326 6.4660563468933097 1995.8359438851476 1381.8850458208472 423.812633972615 239.28611646592617 776.40848329663277 8.6962436437606794 43.447056658565998 13.848277451470492 1933.7511418778449 1417.4859644919634 12.953047364950178 186.49653153680265 274.46853473782539 33.766289338469505 34.30139596760273 6.0637186057865611 9.4385878592729551 54.406432605348527 1996.1228624358773 160.97111782524735
leaf_count=236 915 65 16737 14835 18830 1059 5035 101091 24755 5608 1272 3002 6373 16063 1378 3820 1138 1184 499 1858 303 5121 6694 112 1487 497 1119 571 387 1464 1599 860 5367 71 987 752 1 1784 635 1699 410 628 7 564 35 1732 748 9 1308 159 91 19 37 18 945 780 3891
internal_value=0 0.0602088 0.0298227 0.0276353 0.00985912 0.0243268 0.0338436 0.0280941 0.00804058 0.0331441 -0.0331599 0.0630026 0.0535938 -0.0128517 0.0471386 0.0583896 0.0253928 -0.0523941 0.0924136 0.0357855 0.0771484 0.0483713 0.0352539 0.0510465 0.0290063 -0.0296782 -0.0800261 0.0673167 0.0323581 0.0638411 0.0763132 0.0351399 0.0793743 0.0819532 0.100264 -0.041399 -0.0102279 0.0845826 0.0728629 0.051662 0.0325755 0.127123 -0.0442479 0.108854 -0.107186 0.0921542 0.0919689 -0.095407 -0.0787793 0.102979 0.0557253 0.0610481 -0.0540279 -0.108538 -0.150233 0.106702 -0.11545
internal_weight=0 18229 86884.5 79562.9 20594.8 15411.7 58968.1 49255.8 11893 43847.8 5183.1 9712.27 7321.58 5408 6812.03 7093.28 2570.96 4052.53 1283.28 1130.56 4522.32 11803.4 6974.42 5609.98 3651.96 1364.44 753.174 4828.95 611.266 3571.34 4326.95 1192.02 3518.65 6425.61 2900.24 1287.68 502.001 6294.47 3844.98 2419.65 309.038 950.981 131.142 1425.33 82.0803 1958.02 3134.93 228.305 192.963 2449.49 178.901 49.0614 14.76 215.352 68.232 2270.59 205.914
internal_count=268644 30452 238192 219061 71062 47918 147999 127797 41492 106699 23144 20202 19131 21098 16213 14977 6209 20014 1637 3130 8768 23561 17149 8452 6608 8697 7813 6412 884 7837 4122 1775 6426 6891 3989 4572 2290 5783 4682 3483 981 931 1108 1199 1045 1844 2347 4154 1309 1101 162 63 44 4145 1010 939 4127
is_linear=0
shrinkage=0.1


Tree=17
num_leaves=62
num_cat=0
split_feature=132 69 103 37 82 99 55 135 57 135 36 73 79 34 80 109 111 26 120 30 109 62 105 101 66 50 45 104 82 69 102 35 56 70 69 128 107 125 4 107 13 69 30 72 96 30 116 58 20 75 109 104 60 69 90 59 6 105 94 107 96
split_gain=1269.17 443.723 518.645 438.984 426.97 579.923 825.243 603.213 340.527 444.559 332.111 296.308 280.846 300.129 333.875 609.462 246.457 200.101 229.966 185.038 182.568 168.255 137.015 278.98 438.549 136.961 129.436 124.764 124.659 117.169 281.82 189.784 113.563 113.376 101.419 86.9779 83.0719 78.8038 75.033 64.8988 62.5669 115.488 62.4237 59.9653 56.2541 52.0318 197.626 41.2217 146.499 36.9132 25.9271 24.9794 24.0181 31.9171 13.5822 12.8065 27.2812 10.7435 10.665 2.83796 0.872105
threshold=1.0000000180025095e-35 0.0030044126324355607 -0.74674022197723378 0.95259612798690807 -0.82283973693847645 -0.8014758527278899 1.0196911096572878 1.0000000180025095e-35 0.89663198590278637 1.0000000180025095e-35 0.91340133547782909 -0.61196285486221302 -1.1609946489334104 0.83709329366683971 -0.86365509033203114 -1.1176514029502866 -0.97270765900611866 1.5487168431282046 -1.0265238881111143 1.0497110486030581 -1.1478573083877561 0.67454472184181224 -0.87270030379295338 -0.57315990328788746 0.38721811771392828 1.1818083524703982 1.150053143501282 -0.75711706280708302 -1.1551288366317747 0.038965728133916862 -0.72679781913757313 0.95848247408866893 1.0518868565559389 -0.091602709144353853 1.0000000180025095e-35 1.0000000180025095e-35 -0.84199586510658253 -2.7766363620758052 0.15026059001684192 -0.99705538153648365 0.69096961617469799 0.013567605987191202 1.0575924515724184 -0.51423233747482289 -0.97007757425308216 1.0279893875122073 -1.0064825415611265 0.86119318008422863 1.155503571033478 -1.0277492403984068 -0.91041705012321461 -0.75906395912170399 0.78421640396118175 -0.054052142426371567 -1.108884811401367 0.88965728878974926 0.46656386554241186 -0.88680201768875111 -0.42033773660659784 -0.79849308729171742 -0.8258867859840392
decision_type=2 2 2 2 2 2 2 2 2 2 2 2 2 2 2 2 2 2 2 2 2 2 2 2 2 2 2 2 2 2 2 2 2 2 2 2 2 2 2 2 2 2 2 2 2 2 2 2 2 2 2 2 2 2 2 2 2 2 2 2 2
