tree
version=v4
num_class=1
num_tree_per_iteration=1
label_index=0
max_feature_idx=136
objective=binary sigmoid:1
feature_names=Column_0 Column_1 Column_2 Column_3 Column_4 Column_5 Column_6 Column_7 Column_8 Column_9 Column_10 Column_11 Column_12 Column_13 Column_14 Column_15 Column_16 Column_17 Column_18 Column_19 Column_20 Column_21 Column_22 Column_23 Column_24 Column_25 Column_26 Column_27 Column_28 Column_29 Column_30 Column_31 Column_32 Column_33 Column_34 Column_35 Column_36 Column_37 Column_38 Column_39 Column_40 Column_41 Column_42 Column_43 Column_44 Column_45 Column_46 Column_47 Column_48 Column_49 Column_50 Column_51 Column_52 Column_53 Column_54 Column_55 Column_56 Column_57 Column_58 Column_59 Column_60 Column_61 Column_62 Column_63 Column_64 Column_65 Column_66 Column_67 Column_68 Column_69 Column_70 Column_71 Column_72 Column_73 Column_74 Column_75 Column_76 Column_77 Column_78 Column_79 Column_80 Column_81 Column_82 Column_83 Column_84 Column_85 Column_86 Column_87 Column_88 Column_89 Column_90 Column_91 Column_92 Column_93 Column_94 Column_95 Column_96 Column_97 Column_98 Column_99 Column_100 Column_101 Column_102 Column_103 Column_104 Column_105 Column_106 Column_107 Column_108 Column_109 Column_110 Column_111 Column_112 Column_113 Column_114 Column_115 Column_116 Column_117 Column_118 Column_119 Column_120 Column_121 Column_122 Column_123 Column_124 Column_125 Column_126 Column_127 Column_128 Column_129 Column_130 Column_131 Column_132 Column_133 Column_134 Column_135 Column_136
feature_infos=[-1.8014661073684692:2.1873281002044678] [-1.7160434722900391:2.0962586402893066] [-1.6382262706756592:2.0136351585388184] [-1.5680137872695923:1.9394575357437134] [-1.5054070949554443:1.8737261295318604] [-1.4504051208496094:1.8164401054382324] [-1.4123568534851074:1.7937201261520386] [-1.3844102621078491:1.9274762868881226] [-1.3517893552780151:2.0758624076843262] [-1.3099035024642944:2.0974209308624268] [-1.2559221982955933:2.0118343830108643] [-1.1870334148406982:2.0267508029937744] [-1.1039742231369019:2.0742456912994385] [-1.0067610740661621:2.1771299839019775] [-0.90047705173492432:2.2825961112976074] [-0.78966546058654785:2.4052433967590332] [-0.67814630270004272:2.5269482135772705] [-0.65620064735412598:2.5277442932128906] [-0.66012513637542725:2.5653238296508789] [-0.66667592525482178:2.5221147537231445] [-0.66619455814361572:2.4413206577301025] [-0.67410272359848022:2.3840618133544922] [-0.78228282928466797:2.2409591674804688] [-0.7797551155090332:2.1797337532043457] [-1.0841877460479736:2.1696581840515137] [-1.4308524131774902:2.0883691310882568] [-1.6366665363311768:1.9448176622390747] [-1.8254417181015015:1.7314887046813965] [-1.9202775955200195:1.5598906278610229] [-2.2033448219299316:1.3462176322937012] [-2.6534385681152344:1.1459542512893677] [-2.9375624656677246:1.0691677331924438] [-2.8855924606323242:1.0182701349258423] [-2.1581358909606934:1.0153312683105469] [-1.5155016183853149:1.0222163200378418] [-0.8696785569190979:1.0559519529342651] [-0.66342759132385254:1.2523990869522095] [-0.67049169540405273:1.345354437828064] [-0.67192721366882324:1.4165236949920654] [-0.67710685729980469:1.3777114152908325] [-0.67375040054321289:1.3165556192398071] [-0.67713803052902222:1.2273765802383423] [-0.67526406049728394:1.2681889533996582] [-0.67822211980819702:1.361575722694397] [-0.67593681812286377:1.5217618942260742] [-0.67998087406158447:1.6664869785308838] [-0.67735743522644043:1.7291663885116577] [-0.68056988716125488:1.8940913677215576] [-0.67851173877716064:2.0411467552185059] [-0.68057990074157715:2.1347439289093018] [-0.67633002996444702:2.3221406936645508] [-0.68208664655685425:2.3866791725158691] [-0.6882440447807312:2.2922041416168213] [-0.69760811328887939:2.1755821704864502] [-0.68820065259933472:1.8716312646865845] [-0.66498374938964844:1.5468263626098633] [-0.63047897815704346:1.3939603567123413] [-0.61600887775421143:1.3641012907028198] [-0.79368972778320312:1.3483799695968628] [-0.69688475131988525:1.3266682624816895] [-0.62303602695465088:1.2987289428710938] [-0.62908732891082764:1.5017008781433105] [-0.65896600484848022:1.6292674541473389] [-0.67422842979431152:1.4128085374832153] [-0.93073725700378418:1.1385354995727539] [-1.1305865049362183:1.0728911161422729] [-1.2528316974639893:0.99044626951217651] [-1.6713657379150391:0.88485002517700195] [-1.706031322479248:0.75389385223388672] [-1.8947262763977051:0.60495084524154663] [-1.7363165616989136:0.45876148343086243] [-1.7446892261505127:0.33052113652229309] [-1.674402117729187:0.23037496209144592] [-1.5674382448196411:0.15855956077575684] [-1.4517455101013184:0.30397361516952515] [-1.6804615259170532:0.84510332345962524] [-1.8599822521209717:1.3364263772964478] [-1.985605001449585:1.0853415727615356] [-2.0616223812103271:0.99276179075241089] [-2.1152210235595703:0.52897804975509644] [-2.168381929397583:0.2406151294708252] [-2.1978850364685059:0.28676301240921021] [-2.2107267379760742:0.33890664577484131] [-2.208972692489624:0.39074629545211792] [-2.1915850639343262:0.43792322278022766] [-2.1574652194976807:0.47703936696052551] [-2.1063995361328125:0.50853937864303589] [-2.0390708446502686:0.53271615505218506] [-1.9571486711502075:0.59374678134918213] [-1.8642418384552002:0.56802195310592651] [-1.767259955406189:0.64887344837188721] [-1.8478662967681885:1.0685811042785645] [-1.6472604274749756:1.4172115325927734] [-1.5846540927886963:1.6290324926376343] [-1.5245249271392822:1.6649528741836548] [-1.4861346483230591:1.6171708106994629] [-1.4547033309936523:1.5605852603912354] [-1.4384253025054932:1.5595740079879761] [-1.4264529943466187:1.5645072460174561] [-1.5388252735137939:1.5648646354675293] [-2.0638625621795654:1.5687597990036011] [-2.4396805763244629:1.5680602788925171] [-2.4470291137695312:1.5700795650482178] [-2.3072562217712402:1.5645555257797241] [-1.9470208883285522:1.5674868822097778] [-1.4475361108779907:1.5623446702957153] [-1.2213733196258545:1.563502311706543] [-1.1215335130691528:1.5619508028030396] [-1.168958306312561:1.5697338581085205] [-1.225764274597168:1.5736351013183594] [-1.3317182064056396:1.5835809707641602] [-1.6010570526123047:1.5860384702682495] [-2.1418814659118652:1.5904537439346313] [-2.465855598449707:1.5896482467651367] [-2.5047738552093506:1.5896980762481689] [-2.0072333812713623:1.5865405797958374] [-1.6131480932235718:1.5868538618087769] [-1.6319060325622559:1.611059308052063] [-1.6864286661148071:2.2395215034484863] [-1.7459897994995117:2.2136995792388916] [-1.8207311630249023:2.1617026329040527] [-1.9280952215194702:1.6493175029754639] [-2.15055251121521:1.6308574676513672] [-2.3795907497406006:1.6220458745956421] [-2.6463632583618164:1.8138364553451538] [-2.9497678279876709:2.1645474433898926] [-3.3559722900390625:3.0688047409057617] [-3.8750591278076172:4.2020993232727051] [0:1] [0:1] [0:1] [0:1] [0:1] [0:1] [0:1] [0:1] [0:1]
tree_sizes=6697 4804 4105 6847 6347 5663 5792 6786 6865 6889 6906 6746 6883 6888 6903 6697 6752 6669 6786 6557 6887 6896 6646 6575 6804 6576 5835 6862 6837 6694 6832 6337 6284 6715 6586 6957 5904 5767 6138 6560 6212 6461 6674 6330 6702 6813 6358 6210 6669 6596 6535 6935 6488 5691 6602 6095 6506 6083 6591 6607 6042 5606 6230 5609 5274 6995 6083 6107 6246 6539 5831 6933 6901 5391 6720 6625 5172 6128 6267 6550 5803 6953 6496 6476 6820 6174 6290 6851 6449 4187 6599 6633 6934 6057 6167 6942 6461 6947 6144 6880 5913 5707 6289 6677 6966 5466 4183 6727 6957 6978 6737 5237 6064 6006 6745 6455 6422 6841 6009 6603 5090 6707 6539 6739 6605 6148 6589 6419 6921 6566 6391 6932 5411 6078 6900 6166 6899 6767 6476 6309 6225 4868 2789 6460 6880 6522 6452 6671 6120 6140 6136 6708 6594 6772 6947 5859 6793 6382 5696 6360 6924 6599 5933 5857 4619 6894 6091 6492 6315 6015 4870 6026 6580 6932 6245 6846 5244 6704 3458 6712 6529 6706 6816 6953 6152 6826 6931 6608 4385 5346 6813 6022 5454 6373 5477 5910 5349 6614 5040 5890

Tree=0
num_leaves=62
num_cat=0
split_feature=132 70 71 105 30 129 32 52 100 69 33 101 125 61 115 54 103 122 37 111 102 104 69 31 29 98 131 117 62 34 119 70 57 43 106 38 68 106 90 105 105 18 24 71 105 35 106 113 100 97 92 105 67 79 112 71 49 0 70 76 0
split_gain=206480 99357.5 47280.7 39782 24913.9 24415.3 22373.7 18710.3 16913.2 19697.9 15870.8 17713.4 19439.8 14913.1 13834.9 12661.4 11812.6 11778.3 10943.8 10247.6 8234.51 7601.13 6141 5114.51 4556.58 4567.27 4305.72 4006.05 7247.62 3669.27 3539.37 3173.34 2823.27 2709.26 2489.13 2477.92 2268.66 2211.26 2148.14 1979.3 1855.6 1552.83 979.665 652.128 531.674 1081.12 520.343 494.935 500.117 280.508 637.9 180.416 522.832 135.631 109.933 608.474 17.5622 5.68434e-14 1.42109e-14 7.10543e-15 4.44089e-16
threshold=1.0000000180025095e-35 -0.10280039906501769 -0.44140714406967158 -0.90456369519233693 1.0610606670379641 1.0000000180025095e-35 0.96650782227516185 0.92839661240577709 -0.84027045965194691 -0.037200734019279473 0.88525032997131359 -0.57388263940811146 -2.566280603408813 0.6660960614681245 -1.4480957388877866 0.9123874604701997 -0.8117535114288329 -1.0500659346580503 0.92249932885169994 -0.96510773897171009 -0.81332445144653309 -0.92464265227317799 0.0031016082502901558 1.0054166316986086 1.2413332462310793 -0.9325582981109618 1.0000000180025095e-35 -1.5653643012046812 0.75773391127586376 0.91188994050025951 -1.064312160015106 -0.24999651312828061 0.9477801024913789 1.1433055400848391 -0.8977735936641692 0.89992067217826854 0.19704283028841021 -0.90640112757682789 -1.2951146364212034 -0.92987436056137074 -0.85456010699272145 1.1274237036705019 1.5966421961784365 -0.42083284258842463 -0.83533674478530873 0.88458615541458141 -0.91175442934036244 -0.9855104088783263 -0.96310141682624806 -0.90362963080406178 -0.9826693832874297 -0.79232993721961964 0.31011627614498144 -1.2245752215385435 -1.3199441432952879 -0.22629681974649427 1.2277311086654665 -0.14478611946105954 -0.056498682126402848 -1.1006842851638792 0.38976739346981054
decision_type=2 2 2 2 2 2 2 2 2 2 2 2 2 2 2 2 2 2 2 2 2 2 2 2 2 2 2 2 2 2 2 2 2 2 2 2 2 2 2 2 2 2 2 2 2 2 2 2 2 2 2 2 2 2 2 2 2 2 2 2 2
left_child=2 4 3 15 10 7 8 34 18 13 11 12 -2 -10 -13 24 -9 29 30 -11 31 35 32 -20 25 -1 -23 28 51 -7 -4 41 -22 -24 -5 -17 56 49 -19 60 -41 -8 -26 -33 45 -29 -47 53 -49 59 -51 58 -53 -39 55 -46 -30 -56 -3 -6 -12
right_child=1 27 6 5 37 17 20 16 9 19 39 14 -14 -15 -16 21 -18 38 23 -21 22 26 33 -25 42 -27 -28 44 36 -31 -32 43 -34 -35 -36 -37 -38 47 -40 40 -42 -43 -44 -45 54 46 -48 48 -50 50 -52 52 -54 -55 57 -57 -58 -59 -60 -61 -62
leaf_value=-2.0549111814415557 -2.773264519067693 -3.3567338253822494 -1.7060692422619126 -2.6340578509410935 -3.3567338253822494 -1.9587591779921361 -3.0790135885562915 -2.3697224547161886 -1.6853487570267021 -2.1150268030908506 -3.3567338253822494 -0.67850760757287309 -1.346908385855685 -2.180493797615402 -2.3107192546410333 -1.3710582306328096 -2.8747615667408848 -3.3567338253822494 -1.2637693167755131 -1.3497366046790149 -2.8259741228863544 -1.9671665885603524 -1.3131028363227799 -2.1254732062352533 -1.6190081159095602 -2.6531584611870951 -1.2680525421870701 -1.2463716713384994 -0.58429261452211501 -2.8512184262717502 -3.2910572935263209 -2.6876567007936094 -2.2864515477528071 -2.6974363496704514 -3.2642033920061375 -2.0746980651662055 -3.3567338253822494 -0.60193053472552416 -0.96922835753014036 -0.77470652639837434 -1.9728518650205507 -2.0150501460086376 -3.1517440487059805 -1.3622082761403216 -0.56642738161596595 -3.3567338253822494 -1.1607526982053811 -0.67029370335531313 -3.3567338253822494 -1.4997746994465406 -3.1103071421811377 -0.56642738161596506 -3.3567338253822494 -1.4997746994465389 -3.3567338253822494 -3.3567338253822494 -0.76670489807512032 -3.3567338253822494 -3.356733825382249 -3.3567338253822494 -3.3567338253822494
leaf_weight=558.28623260557652 101.9558714479208 31.752785280346867 21.936716482043266 78.73747506737709 8.3144990801811165 462.53343611955643 18.626226872205734 5057.5195804685354 849.56819634139538 227.04386982321739 2.2578165605664249 597.78609891235828 1521.113277554512 2141.7334623858333 56.871216952800751 438.95906540751457 509.80487394332886 3.8705426752567282 772.36142157018185 762.91711074113846 399.59342177957296 1157.745865277946 50.624404951930046 75.623179234564304 4.4652157500386229 165.42620596289635 95.350059829652309 3.6767718717455891 11.194928392767912 51.164417020976543 39.381495885550976 3.8656830042600623 128.07959780842066 19.615121886134148 307.4754945114255 56.488535016775131 3.6913508847355834 2.816651277244091 142.99866271018982 1078.840628631413 13.082821369171141 52.049438282847404 63.087050266563892 93.367410130798817 0.92693763971328724 12.865970559418201 1.1778061464428873 0.96277599781751666 2.4728467091917974 2.7856725901365307 20.991558507084846 0.9269376397132868 2.4370083510875702 4.178508885204792 187.61380467563868 4.9815317764878264 9.9861435592174512 9.8913868367671949 1.1468274593353296 31.000179760158066 0.75260552018880833
leaf_count=8591 2273 886 264 1650 232 6690 470 93132 10055 3625 63 1289 13054 35543 1015 3869 11863 108 6011 6568 9111 16839 418 1215 50 3497 746 28 14 1179 1074 83 2256 423 8306 880 103 4 708 3324 191 781 1636 815 1 359 8 2 69 28 536 1 68 42 5235 139 30 276 32 865 21
internal_value=-3.25287 -1.29644 -2.12903 -2.26948 -1.14869 -2.39866 -1.90173 -2.46266 -1.82303 -1.91191 -1.109 -1.2594 -1.43651 -2.03987 -0.820301 -1.93307 -2.41597 -1.82186 -1.43391 -1.52525 -2.40432 -1.78287 -2.57809 -1.34062 -2.26497 -2.19166 -1.91397 -3.10017 -2.38369 -2.04765 -2.72402 -1.78554 -2.69502 -1.69969 -3.13574 -1.45128 -1.06899 -2.96977 -1.03215 -0.796122 -0.789062 -2.29545 -3.05043 -1.4149 -3.29825 -2.77291 -3.17256 -1.621 -2.6039 -3.19275 -2.92162 -3.28541 -2.58786 -1.13825 -3.34402 -2.91898 -0.670294 -3.35673 -3.35673 -3.35673 -3.35673
internal_weight=0 3728.45 14810.3 9153.91 3446.18 6614.1 5656.39 5953.54 4890.57 3981.26 3372.66 2277.73 1623.07 2991.3 654.657 2539.81 5567.32 660.567 909.303 989.961 765.821 1748.54 597.913 847.985 791.265 723.712 1253.1 282.27 61.136 513.698 61.3182 167.909 527.673 70.2395 386.213 495.448 24.8724 73.5227 146.869 1094.93 1091.92 70.6757 67.5523 97.2331 221.134 17.7205 14.0438 10.4308 3.43562 63.0919 23.7772 36.2636 3.36395 6.99516 203.414 5.90847 21.1811 197.505 32.8996 39.3147 3.01042
internal_count=268644 30188 238456 159744 23008 123636 78712 114951 64355 55791 21230 17631 15327 45598 2304 36108 104995 8685 8564 10193 14357 22334 12208 7226 13774 12088 17585 7180 1134 7869 1338 2149 11367 841 9956 4749 147 1778 816 3599 3515 1251 1686 898 6046 395 367 117 71 1661 564 987 69 46 5651 140 44 5511 918 1097 84
is_linear=0
shrinkage=1


Tree=1
num_leaves=44
num_cat=0
split_feature=52 93 131 78 75 116 74 54 97 123 101 91 129 94 3 129 58 104 126 54 3 75 34 118 26 30 70 98 94 122 22 1 112 112 132 69 8 105 29 103 30 68 118
split_gain=3770.52 3151.41 4349.12 3737.42 3247.19 2883.97 2850.67 2456.47 3401.55 2451.43 2388.13 2384.45 2146.11 1478.63 1460.99 1379.05 1265.57 1237.87 1059.11 991.422 964.663 783.478 862.28 725.321 588.47 549.378 484.987 285.446 228.799 204.145 86.1382 76.1075 55.232 90.0941 0.708361 0.064911 0.0533159 0.0517964 0.0259543 0.0135632 0.00199861 0.00175779 7.31983e-05
threshold=0.74550583958625805 -1.1151514649391172 1.0000000180025095e-35 -1.2898806929588316 -1.1180929541587827 -0.91183921694755543 -1.0397172570228574 1.0021635890007021 -0.9329797327518462 -2.2256146669387813 -0.93660807609558094 -1.1665463447570799 1.0000000180025095e-35 -1.0912943482398985 0.58203947544097911 1.0000000180025095e-35 0.78841260075569164 -0.86125290393829335 -1.504800498485565 1.0053248405456545 0.59473428130149852 -1.1284920573234556 0.87569594383239757 -0.950322926044464 1.3033951520919802 1.0882171392440798 1.0000000180025095e-35 -0.96227756142616261 -1.0733986496925352 -1.0904644131660459 1.2254126071929934 0.53041934967041027 -1.0131739974021909 -1.0149245262145994 1.0000000180025095e-35 0.013709751423448326 0.99498689174652111 -0.90456369519233693 1.2413332462310793 -0.65013211965560902 1.0490177869796755 0.10190676152706148 -1.0549433231353758
decision_type=2 2 2 2 2 2 2 2 2 2 2 2 2 2 2 2 2 2 2 2 2 2 2 2 2 2 2 2 2 2 2 2 2 2 2 2 2 2 2 2 2 2 2
left_child=32 6 4 21 5 23 10 17 -9 26 16 -11 13 20 -15 19 24 -5 -7 -12 -8 27 -23 -3 -2 -18 -6 -4 29 -14 -30 -17 33 36 35 37 42 38 -34 -37 -36 -39 -1
right_child=1 2 3 7 9 18 12 8 -10 11 15 -13 28 14 -16 31 25 -19 -20 -21 -22 22 -24 -25 -26 -27 -28 -29 30 -31 -32 -33 34 -35 40 39 -38 41 -40 -41 -42 -43 -44
leaf_value=-0.10427774662302339 -0.11129656164847068 -0.049390486769336668 0.31744744284606141 0.37482545088307978 -0.0719378621564392 0.44458916201564663 0.77643580138729418 0.72402170595155546 0.43537579337667415 0.4449160472337248 -0.043651072752593133 0.30741323494144868 -0.12114975168036331 0.55125674962820448 0.26351139559980963 0.15395456783527148 0.87432742197693791 -0.042370576190120336 0.19533303961664292 0.29228570776736995 0.54393964397170369 0.68133824047102298 0.1818199741679932 0.12634465140564727 0.41067419727146848 0.2809048641119124 0.92898080669718697 -0.1101921753342628 0.65632230026057459 0.2823081699811491 0.38878886981766414 0.32826905861574157 -0.11225143646230727 0.48455181544542691 -0.1260043004405613 -0.11267367533882154 -0.12462468901942857 -0.10382472501219885 -0.1042777466230235 -0.12593085612937291 -0.12339464813037504 -0.1087864589358272 -0.10549047939710897
leaf_weight=1.2195325121283533 22.492183037102222 375.52664374187589 18.181224383413792 913.09894161298871 187.98244833573699 360.88563197851181 331.34987626224756 636.6573059335351 1138.0914192087948 1294.5574649013579 275.92638841643929 48863.176697921008 12.981142733246086 514.27827475965023 268.62080880999565 26.628923982381821 86.435224637389183 77.12822613120079 323.08803654834628 128.88532911986113 386.77289235219359 39.259929455816746 288.5333658978343 627.0017072930932 543.84351723641157 19.036564379930496 4.9689359664916983 110.31511814147234 20.056326478719711 370.10614952072501 30.090915970504284 421.69839288294315 11.751436419785025 4.2362036705017072 14.08551859855652 1.6226264685392382 3.9394650906324387 171.84842932596803 6.255021594464778 1.4716178476810444 3.7070599980652323 0.71698400378227134 0.84087116271257389
leaf_count=31 390 4385 159 4225 4306 897 997 2143 6265 4851 3419 207302 110 1878 2199 69 171 937 2420 1244 2154 214 2461 5709 1653 61 2 1433 28 874 45 247 128 1 86 32 27 4855 159 9 33 17 18
internal_value=0 0.317798 0.312002 0.424759 0.305022 0.16853 0.410391 0.468516 0.538922 0.309594 0.308153 0.310962 0.490995 0.547585 0.452528 0.197104 0.449175 0.34233 0.326848 0.0633056 0.651216 0.159605 0.241647 0.0605179 0.389944 0.767221 -0.0461619 -0.0496845 0.29493 0.268637 0.495789 0.317915 -0.0953837 0.131479 -0.106365 -0.104611 -0.117807 -0.104378 -0.109482 -0.118979 -0.125461 -0.103845 -0.104773
internal_weight=0 58717.7 55258.5 3221.27 52037.2 1686.5 3459.2 2764.98 1774.75 50350.7 1524.95 50157.7 1934.26 1501.02 782.899 853.139 671.807 990.227 683.974 404.812 718.123 456.29 327.793 1002.53 566.336 105.472 192.951 128.496 433.235 383.087 50.1472 448.327 221.695 10.2361 211.459 193.666 5.99987 190.572 18.0065 3.09424 17.7926 172.565 2.0604
internal_count=268644 263248 247709 17837 229872 13411 15539 13570 8408 216461 7254 212153 8285 7228 4077 4979 2275 5162 3317 4663 3151 4267 2675 10094 2043 232 4308 1592 1057 984 73 316 5396 77 5319 5200 76 5159 287 41 119 4872 49
is_linear=0
shrinkage=0.1


Tree=2
num_leaves=37
num_cat=0
split_feature=52 123 30 103 100 74 97 69 55 72 102 134 71 135 71 62 107 115 1 36 112 112 70 115 132 111 64 70 105 8 100 29 30 106 120 0
split_gain=2160.1 1428.87 1384.49 4363.5 2733.62 2918 3413.08 2282.37 2163.81 2013.26 3037.17 1677.89 1506.25 1293.84 1108.45 1282.7 266.57 255.128 129.413 74.3032 47.2153 55.9182 1.22586 1.25416 0.505544 0.0626295 0.0522909 0.0474561 0.0383108 0.0377616 0.0288779 0.0191521 0.00127187 0.000839697 5.37486e-05 3.55271e-15
threshold=0.74550583958625805 -2.2256146669387813 1.0585352778434756 -0.83681705594062794 -0.86113208532333363 -0.95006650686264027 -0.86256775259971608 -0.066511046141386018 0.99488544464111339 -0.65387016534805287 -0.86458066105842579 1.0000000180025095e-35 -0.44140714406967158 1.0000000180025095e-35 -0.48233900964260096 0.54719790816307079 -0.82535302639007557 -1.4883382320404051 -0.69113492965698231 0.89882603287696849 -1.0131739974021909 -1.0149245262145994 -0.10280039906501769 -1.4480957388877866 1.0000000180025095e-35 -1.2699600458145139 0.5651443898677827 -0.1357338950037956 -0.90456369519233693 0.99498689174652111 -0.84027045965194691 1.2413332462310793 1.0490177869796755 -0.8977735936641692 -1.0848522186279295 0.6509305238723756
decision_type=2 2 2 2 2 2 2 2 2 2 2 2 2 2 2 2 2 2 2 2 2 2 2 2 2 2 2 2 2 2 2 2 2 2 2 2
left_child=20 17 4 9 8 7 -7 -6 13 10 -4 -11 -10 -3 16 -16 -5 19 -19 -2 21 29 23 -20 27 -24 -21 28 31 34 -29 -22 35 -30 -1 -26
right_child=1 2 3 14 5 6 -8 -9 12 11 -12 -13 -14 -15 15 -17 -18 18 22 26 24 -23 25 -25 32 -27 -28 30 33 -31 -32 -33 -34 -35 -36 -37
leaf_value=-0.10385398668782755 0.31270942497422061 0.2733942025930689 0.22694425908802032 -0.069093527567613111 0.085305838492979499 0.29270085368537785 0.22337190909775409 0.26601278965674158 0.44638730699100776 0.26795474589584373 0.096819574862071447 0.51038468454088171 0.24833278559976499 -0.052998207196772146 0.29558986847903612 0.063529502068886592 0.17217447602352332 0.42741097817923762 -0.14611799404602843 -0.13423240489636576 -0.11104662226492357 0.33687361042266478 -0.11875020270706445 -0.10925484314659249 -0.12292567616211121 -0.10337228848769189 -0.10324299905186135 -0.10332816263208905 -0.10647072068103369 -0.12177234995658864 -0.12297868786097299 -0.10385413706373842 -0.12076010467989128 -0.103429646212003 -0.10494400366988413 -0.12292567616211135
leaf_weight=1.1077099069952963 22.710319008678201 5642.8666811399162 11812.122371315956 529.82671197131276 2262.1669159010053 9224.481403645128 30846.223850078881 1011.4348651170731 1345.0681845135987 4060.3627557642758 2114.8400340527296 307.08067930489779 537.42285036668181 124.12238486111164 309.97691215574741 1028.5156865417957 50.127032075077295 4.6355824470520011 15.665514916181563 0.61826830729842086 10.626187086105348 5.3986492156982404 2.7118024211376897 22.463534764945507 3.1860768646001842 113.28165102563798 4.5636973343789577 1.1533649303019049 0.91329753398895164 3.6437467709183693 2.1270625591278067 5.6816855147480956 3.4236834198236457 155.46286841481924 0.76465263962745655 9.8616664856672269
leaf_count=31 22 16199 61142 5108 14851 31538 78400 2732 4040 16496 15341 1207 700 1242 1827 7936 181 1 78 8 124 1 57 290 21 3702 150 37 16 27 14 159 33 4850 18 65
internal_value=0 0.232139 0.232863 0.210716 0.241642 0.231916 0.239332 0.141138 0.296756 0.225762 0.207185 0.285 0.389846 0.266369 0.0672368 0.117272 -0.0482401 -0.0441821 -0.0931869 0.234745 -0.0942471 0.10808 -0.108845 -0.1244 -0.105723 -0.103732 -0.10694 -0.104155 -0.103928 -0.115841 -0.11607 -0.108541 -0.122476 -0.103447 -0.104299 -0.122926
internal_weight=0 71393.3 71206.6 20212.9 50993.8 43344.3 40070.7 3273.6 7649.48 18294.4 13927 4367.44 1882.49 5766.99 1918.45 1338.49 579.954 186.65 158.758 27.8923 203.351 10.9148 154.123 38.129 192.436 115.993 5.18197 175.964 172.684 5.51611 3.28043 16.3079 16.4714 156.376 1.87236 13.0477
internal_count=268644 263248 258940 109238 149702 127521 109938 17583 22181 94186 76483 17703 4740 17441 15052 9763 5289 4308 4128 180 5396 77 4127 368 5319 3759 158 5200 5149 76 51 283 119 4866 49 86
is_linear=0
shrinkage=0.1


Tree=3
num_leaves=63
num_cat=0
split_feature=55 98 72 104 99 38 134 39 56 98 30 103 55 71 130 83 135 87 136 22 72 69 72 134 54 100 31 71 55 56 108 135 70 104 104 107 106 99 36 74 95 51 117 31 57 124 42 127 131 6 31 100 30 111 32 58 114 76 5 61 41 4
split_gain=1554.71 3103.64 2574.1 2496.84 2192.36 1979.23 1796.81 1859.9 1800.63 2616.54 1611.99 2483.04 1545.45 1427.8 1401.37 1336.77 1658.05 1733.78 1311.89 1351.15 1312 1282.11 1238.29 1228.18 2862.69 1056.26 1019.04 932.856 1259.88 906.835 891.722 770.385 751.852 683.039 650.288 627.453 605.843 581.45 546.226 504.49 532.657 493.334 492.907 411.916 402.322 395.52 380.76 360.325 351.196 293.248 273.319 256.935 238.977 209.774 202.703 193.875 152.195 176.099 101.231 89.5604 208.949 30.4122
threshold=1.0195930004119875 -0.84424754977226246 -0.54747948050498951 -0.81976401805877674 -0.80436360836029042 0.95293921232223522 1.0000000180025095e-35 0.97653490304946911 0.95415931940078746 -0.86298659443855275 1.057860851287842 -0.83393135666847218 0.99791628122329723 -0.22039132565259931 1.0000000180025095e-35 -1.1780058145523069 1.0000000180025095e-35 -0.9607534110546111 1.0000000180025095e-35 1.3232763409614565 -0.67489907145500172 -0.084002863615751253 -0.57271635532379139 1.0000000180025095e-35 1.0131931900978091 -0.85092478990554798 0.98253595829010021 -0.47329050302505488 0.96296662092208873 0.99636930227279674 -1.0177610516548155 1.0000000180025095e-35 -0.2285344526171684 -0.80403161048889149 -0.7769624888896941 -0.86862066388130177 -0.90285199880599964 -0.78791621327400196 0.88498732447624218 -0.92534330487251271 -0.92623957991600026 1.1436604857444765 -0.9241085648536681 0.98769924044609081 0.93482708930969249 -1.5112611651420591 1.1447935700416567 -1.6442499160766599 1.0000000180025095e-35 0.53047734498977672 1.0002043247222903 -0.83960145711898793 1.0198681950569155 -0.94224810600280751 0.96704900264740001 0.90017235279083263 -0.88690927624702443 -1.2150665521621702 0.48933415114879614 0.63371536135673534 1.0099034905433657 0.52675458788871776
decision_type=2 2 2 2 2 2 2 2 2 2 2 2 2 2 2 2 2 2 2 2 2 2 2 2 2 2 2 2 2 2 2 2 2 2 2 2 2 2 2 2 2 2 2 2 2 2 2 2 2 2 2 2 2 2 2 2 2 2 2 2 2 2
left_child=3 14 4 10 29 36 8 59 31 32 15 18 37 33 39 23 26 -18 20 -20 -12 -14 -11 25 -25 -1 -17 50 -29 49 38 42 -10 -7 35 58 44 -9 -6 43 51 -32 -5 53 -4 -42 -15 -45 -31 -3 -13 -41 -33 -2 -37 -38 57 -36 -16 60 -8 -58
right_child=1 2 5 6 30 13 7 12 9 22 11 27 21 46 34 16 17 -19 19 -21 -22 -23 -24 24 -26 -27 -28 28 -30 48 41 52 -34 -35 56 54 55 -39 -40 40 45 -43 -44 47 -46 -47 -48 -49 -50 -51 -52 -53 -54 -55 -56 -57 61 -59 -60 -61 -62 -63
leaf_value=0.22832571554892922 0.13355060804696414 0.18015548256879177 0.2083850320105588 -0.023898346077049302 0.36594586183611211 0.23828790439861336 -0.11354784741911256 0.3450672348816583 0.16556895557604137 -0.027982765190703102 0.16101787436595058 0.049093582569458262 -0.044292087153020528 -0.06939446066422443 0.20847415738764125 0.18132152534044832 -0.070838486197905226 0.34610586066826626 0.20804120095256168 0.033114813975297384 0.21393071188850762 0.30992463840627554 0.11267970840229419 0.37828779576056243 0.13479314283884328 0.14694971980889462 0.10119935216483088 0.29019846153343604 0.039704456782929644 0.25458335709871943 -0.070538864932752118 0.38083082964090403 0.27070650752193631 0.19088446321690045 -0.1285102115740735 0.42987183050347028 -0.12147042539891269 -0.12310619697796191 -0.12086500003510987 0.22214794916774472 0.23583370015942631 0.04797905325648183 0.079449349914284054 0.17723947025915321 0.53097787422929221 -0.07432028544213401 0.13142029212588607 -0.12450813592271348 0.5046420667027135 0.070910603875656106 -0.091116832756404059 0.36795099120669061 -0.11702015379906777 0.29422465922436014 0.15601417907211904 0.27513711090194287 0.29373491386729467 0.22955393485652398 -0.12061555865177838 -0.12222013225066415 0.47717423112787083 0.1643732793973201
leaf_weight=7207.9343250263482 96.00399486720562 505.71832707896829 45.008807152509689 1233.9135555196553 111.71590776741505 4154.6989080533385 18.754817511886362 951.10860112681985 2279.9842525683343 947.60468769073486 12388.989492468536 202.57817041128874 246.02082198858261 236.54827147722244 15.683821290731428 10127.968772003427 111.86575928889215 919.55155312269926 681.96426542103291 1252.6129332184792 7536.9549688622355 174.7801323980093 1843.13785706833 1401.5895109660923 736.5720331966877 2048.3536408357322 1882.4452759847045 273.3056460544467 756.7118591144681 616.72264413535595 572.9147524908185 76.440196365118027 969.34565640985966 11326.005128998309 27.341060809791088 962.6378758251667 13.6391384601593 27.288767270743847 29.040599688887596 149.08289957046509 217.16774858161807 907.60825472325087 737.21419111825526 792.55543903633952 274.08312879502773 50.718867719173431 157.14360272139311 41.653574157506227 61.792497962713242 477.92941699922085 443.20026061311364 638.48813620209694 11.033475697040556 528.98771395161748 27.808602310717106 127.95996125414968 70.601556777954102 27.601122222840786 23.135649800300598 139.72793524712324 8.7962827757000905 24.472922638058662
leaf_count=18526 288 2342 97 8445 344 4645 202 1592 8643 7032 59210 1575 1831 4931 66 15849 987 1776 3345 8441 27051 574 7846 3209 3183 6441 8011 1197 5336 1537 3836 135 2209 18501 191 1307 100 199 211 254 565 5278 6350 2330 283 321 1135 346 68 2254 4171 1013 111 871 150 383 48 33 180 1162 55 42
internal_value=0 0.204347 0.188514 0.173742 0.10772 0.204754 0.127372 0.22541 0.108409 0.135937 0.183084 0.164406 0.263086 0.198824 0.288434 0.201074 0.179212 0.300885 0.173399 0.0947787 0.181032 0.102832 0.0649174 0.226097 0.294407 0.210318 0.168764 0.047094 0.106171 0.188422 0.0249836 0.0276413 0.196934 0.203607 0.378376 0.406725 0.409083 0.332009 0.265508 0.246254 0.298919 0.00211643 0.0147543 0.208161 0.485475 0.177112 0.0107615 0.162173 0.277356 0.127076 -0.0471334 0.340351 0.318034 0.269544 0.422183 0.236935 0.183867 0.0513693 0.0123431 -0.089729 0.0750529 0.260436
internal_weight=0 23312.5 19618.5 57637.7 3283.44 16335.1 9665.15 1566.48 8098.67 6040.07 47972.6 23536.3 1399.2 15874.4 3693.94 24436.3 13041.8 1031.42 21860.5 1934.58 19925.9 420.801 2790.74 11394.4 2138.16 9256.29 12010.4 1675.8 1030.02 1662.16 1621.28 2058.6 3249.33 15480.7 1179.28 1029.27 460.691 978.397 140.757 2514.66 1055.46 1480.52 1971.13 1459.2 319.092 267.887 393.692 834.209 678.515 983.648 645.778 787.571 87.4737 624.992 990.446 141.599 150.017 54.9422 38.8195 167.279 27.5511 95.0745
internal_count=268644 53950 45945 214694 15870 30075 46386 5615 40771 25730 168308 110326 4196 29212 8005 57982 26623 2763 98047 11786 86261 2405 14878 31359 6392 24967 23860 12279 6533 6201 9669 15041 10852 23146 2017 1703 863 1791 555 5988 2153 9114 14795 3835 380 886 6066 2676 1605 4596 5746 1267 246 1159 1457 483 314 224 246 1419 257 90
is_linear=0
shrinkage=0.1


Tree=4
num_leaves=58
num_cat=0
split_feature=30 103 52 32 71 102 68 68 98 72 102 54 53 134 100 71 20 105 71 63 130 43 123 71 68 37 49 104 27 15 68 68 63 48 69 69 38 107 129 113 54 79 100 34 96 55 110 132 71 52 5 52 105 70 49 28 31
split_gain=1438.42 1632.51 1275.43 1241.04 1099.81 1463.81 1768.88 1273.38 1087.48 1445.84 3238.32 3006.54 1232.91 2343.96 1613.97 964.978 1398.68 866.161 840.959 923.901 788.955 727.205 639.418 521.862 445.653 422.42 385.311 372.714 341.623 329.994 539.851 314.937 299.812 298.536 292.797 254.316 240.196 215.625 206.839 199.571 186.342 113.104 106.936 74.3812 235.465 10.611 7.03316 1.60922 0.910608 0.400435 0.168539 0.130584 0.0982117 0.045568 0.00664038 0.00309409 4.70365e-07
threshold=1.0517474412918093 -0.81854906678199757 0.78158289194107067 0.96234253048896801 -0.41988287866115565 -0.78531277179718006 0.11748392134904863 0.085253179073333754 -0.99877560138702381 -0.65024733543395985 -0.84833261370658863 1.0059521198272707 1.0321593284606936 1.0000000180025095e-35 -0.86411398649215687 -0.23807688802480695 0.9376891851425172 -0.91067972779273976 -0.45400384068489069 0.50079897046089183 1.0000000180025095e-35 1.0588797330856325 -2.2256146669387813 -0.48233900964260096 0.021541182883083824 0.91083621978759777 1.1229361891746523 -0.81976401805877674 1.4172987341880801 1.0048981308937075 -0.0061974315904080859 0.039810286834836013 0.47979030013084417 1.0936768651008608 -0.12907193601131436 -0.094266854226589189 0.91525009274482738 -0.97797104716300953 1.0000000180025095e-35 -1.0050730705261228 0.98879340291023265 -1.0802649855613706 -1.0169976353645322 0.89383506774902355 -0.92617583274841297 0.97023454308509838 -0.93264731764793385 1.0000000180025095e-35 -0.44140714406967158 0.74550583958625805 0.69556158781051647 0.74550583958625805 -0.90456369519233693 -0.1357338950037956 0.74431690573692333 1.3237266540527346 0.80427363514900219
decision_type=2 2 2 2 2 2 2 2 2 2 2 2 2 2 2 2 2 2 2 2 2 2 2 2 2 2 2 2 2 2 2 2 2 2 2 2 2 2 2 2 2 2 2 2 2 2 2 2 2 2 2 2 2 2 2 2 2
left_child=2 8 39 15 27 7 -7 -6 28 10 11 -10 13 -11 -14 17 22 25 29 21 -19 32 -17 -12 48 -4 -26 31 36 43 38 -5 -20 -32 -23 -29 40 -18 -31 41 -2 -1 46 44 -3 -45 -30 52 -21 56 -44 55 54 -54 -41 -43 -49
right_child=1 18 3 4 5 6 -8 -9 9 12 23 -13 14 -15 -16 16 37 20 19 24 -22 34 -24 -25 26 -27 -28 35 42 30 33 -33 -34 -35 -36 -37 -38 -39 -40 47 -42 51 50 45 -46 -47 -48 49 -50 -51 -52 -53 53 -55 -56 -57 -58
leaf_value=0.21374679937901525 0.20691001407968532 0.3144208416242853 0.14743213318318563 -0.012310595460444792 0.14932029620398166 0.013328565610992479 0.15138807361252662 0.29873188387563049 0.11336897309999286 0.15652919274472163 -0.035297217158577476 0.2255558852528553 0.20921299224313572 0.30120561202341056 0.099961561712708452 -0.055691354370663672 0.0037595612015628131 0.17082870795829866 0.25700174797653347 -0.11553347168617312 0.21870896202697945 0.046160691822468992 0.17823341357916225 0.10419648905052248 -0.0050930763330519543 0.077290141465677295 0.12954330856548463 -0.12119974219323225 0.26432143684586301 -0.076620989875837583 -0.11861129960258687 0.21773121648213742 -0.036615553155663692 0.47727222459939622 0.31773193601429933 0.022029519558321824 0.49242726573709228 -0.13216016875373968 0.27850437486090496 -0.11202072338011287 0.30064798841507412 -0.12420205098990361 -0.1482877746247557 -0.064001169179803044 -0.11476978692642054 -0.11499041094053937 0.12950529550237636 -0.12430430354377105 -0.13176052991323292 -0.15591005467000596 -0.123930945811844 -0.1434826196835812 -0.10371151334417486 -0.11608320474011967 -0.11807002052784069 -0.12008881083055495 -0.12435091978669555
leaf_weight=34.851856347173452 1289.1626489721239 17.957228038460016 3159.202251330018 110.81638185679913 2014.2113999389112 1533.4808963984251 2350.549447208643 795.7677609808743 14313.53698967956 3888.2645612284541 1452.7178033478558 2867.3555731512606 1949.306346591562 1572.8160713016987 4414.3434448987246 130.84995311312377 340.39883265830576 35737.336510956287 46.421996276825666 103.82375145331025 3808.1507835425436 45.67219028621912 1092.2220818251371 328.9151086397469 419.72087057307363 1179.0251565501094 430.67067785188556 219.47348784655333 6.4226335361599949 131.48331456258893 10.730759613215922 128.54812172055244 138.62874794751406 38.836108081042767 303.65093944966793 284.8826445043087 33.642926216125488 177.61973838694394 18.738360621035099 10.369336100295184 253.82579769194126 5.5435342453420144 3.1057547330856314 46.400305401533842 44.361162066459656 338.95143318921328 9.7347310632467252 6.9209145903587359 51.853926595300436 6.6698184460401526 33.315616365522146 4.8715143725275984 171.27672547660768 3.0298212617635718 2.1995207965373984 2.729121059179306 3.1495302319526672
leaf_count=35 2709 82 6040 608 6550 8751 5458 1702 66273 11563 10869 8504 5107 3622 18012 3650 2312 65777 111 975 10525 276 1396 1637 2001 3095 1913 1932 12 1196 91 261 802 49 504 1488 36 2283 37 119 198 36 15 372 435 3361 31 44 308 29 249 30 5065 45 18 25 20
internal_value=0 0.134468 0.16065 0.161715 0.123837 0.136655 0.0968798 0.191633 0.140111 0.135897 0.118785 0.132092 0.16334 0.198197 0.133427 0.167889 0.0948766 0.170786 0.0508632 0.0910568 0.175439 0.19732 0.153207 -0.00954467 0.0346153 0.128369 0.0630919 0.00847149 0.219731 -0.0447659 0.0621004 0.111231 0.0370415 0.348269 0.282225 -0.0402975 0.228094 -0.042845 -0.0323233 -0.0639635 0.22233 0.119473 -0.031021 -0.0924588 0.00890276 -0.108851 0.183095 -0.107203 -0.120938 -0.136906 -0.126008 -0.130494 -0.104542 -0.103927 -0.113079 -0.122845 -0.124319
internal_weight=0 34604.4 53314.1 53062.5 7437.73 6694.01 3884.03 2809.98 32416.5 30787.3 18962.5 17180.9 11824.7 5461.08 6363.65 45624.8 1741.09 43883.7 2187.9 1540.44 39545.5 534.374 1223.07 1781.63 1006.07 4338.23 850.392 743.721 1629.21 647.459 199.789 239.365 185.051 49.5669 349.323 504.356 1576.63 518.019 150.222 251.612 1542.99 47.996 52.5787 447.67 62.3184 385.352 16.1574 203.616 155.678 16.7403 36.4214 13.1442 186.875 174.307 12.5689 8.27266 10.0704
internal_count=268644 141350 127294 121828 26750 22461 14209 8252 128837 125587 87283 74777 38304 15185 23119 95078 9641 85437 12513 6890 76302 1693 5046 12506 5197 9135 3914 4289 3250 5623 1373 869 913 140 780 3420 2943 4595 1233 5466 2907 126 307 4250 517 3733 43 5340 1283 93 264 91 5247 5110 137 61 64
is_linear=0
shrinkage=0.1


Tree=5
num_leaves=52
num_cat=0
split_feature=108 122 41 30 102 104 71 103 99 96 73 132 109 105 12 38 35 72 58 9 70 105 50 107 108 3 81 133 133 14 68 69 129 57 69 42 10 31 73 105 121 36 36 44 1 109 57 59 116 125 61
split_gain=1643.15 1042.09 1736.65 1012.36 1223.3 1164.8 1262.68 1767.12 1019.58 908.865 1160.01 829.233 739.247 727.432 650.04 646.6 1065.64 463.717 573.744 429.68 424.662 461.9 416.354 920.084 411.867 411.346 324.152 313.491 270.58 276.911 248.311 240.944 237.574 211.111 209.26 206.476 187.59 159.536 118.616 111.629 91.6472 78.3034 90.8228 85.4845 76.1575 41.1128 16.5467 72.1429 12.2882 2.08208 0.0635724
threshold=-1.0487158894538877 -1.8494594097137449 1.1034234166145327 1.0533896088600161 -0.81799694895744313 -0.8182866871356963 -0.41893327236175532 -0.79489082098007191 -0.80069231986999501 -1.0299475789070127 -0.81930324435234059 1.0000000180025095e-35 -1.1562805771827696 -0.91067972779273976 1.1182481646537783 0.98037788271904003 0.84504699707031261 -0.61624559760093678 0.84029749035835277 0.88809779286384594 -0.10835893824696539 -0.80808898806571949 1.1796951889991762 -0.99371710419654835 -1.0355767011642454 0.60460081696510326 -0.5800565481185912 1.0000000180025095e-35 1.0000000180025095e-35 1.075694799423218 0.14415408670902255 -0.041383942589163773 1.0000000180025095e-35 0.87775656580924999 -0.018188617192208763 1.1359034180641177 0.79134005308151256 1.0027726292610171 -0.44598220288753504 -0.80808898806571949 -1.721667408943176 0.93080589175224315 0.93127557635307323 1.2009651064872744 -0.69113492965698231 -1.1098965406417844 0.95349064469337474 0.85803166031837474 -1.5220600962638853 -2.566280603408813 0.66684114933013927
decision_type=2 2 2 2 2 2 2 2 2 2 2 2 2 2 2 2 2 2 2 2 2 2 2 2 2 2 2 2 2 2 2 2 2 2 2 2 2 2 2 2 2 2 2 2 2 2 2 2 2 2 2
left_child=12 2 11 5 9 13 7 -7 -8 25 -11 26 32 19 -15 16 28 37 -19 -3 27 35 23 -18 30 -5 50 38 29 -14 -4 -24 36 -30 -29 -22 46 -6 -17 -32 -28 43 -43 -13 -26 -46 49 -48 -23 -1 -2
right_child=1 3 24 4 17 6 8 -9 -10 10 -12 41 15 14 -16 20 22 18 -20 -21 21 48 31 -25 44 -27 40 34 33 -31 39 -33 -34 -35 -36 -37 -38 -39 -40 -41 -42 42 -44 -45 45 -47 47 -49 -50 -51 -52
leaf_value=-0.12390623278148097 -0.13731721537025807 0.07899350791830316 0.3520985538971535 0.23748468062339684 -0.0077618960280923244 0.10908864181519029 0.15299702572565602 -0.024108298737624646 0.10020897219139867 0.087969691647931336 0.12807664354738382 -0.1388909952079535 0.065230651771620796 0.1577457091956439 -0.089665372123971326 0.18853228518566492 0.10835359425935008 0.16299835912710711 2.629063953472623e-05 0.15600066227800566 0.079434032240599806 0.17464443979397515 0.24434693374609395 -0.11292765401908032 0.27146161586204348 0.14630821284437759 0.12034753788535944 -0.13230403264486695 0.21593144517066035 0.58658560914648072 0.053992943659496674 0.1343821339789982 0.29131056213280854 0.32664933303014887 0.25046460410569449 -0.12837210954609657 0.28962054490593964 -0.1148111759994962 0.16529795564753513 0.1758525583575643 0.29940638397603397 0.22889958458971058 -0.16568609945212262 0.073988956700730274 0.10605614174931254 -0.12849001878533953 0.24047725113245894 -0.12405113414584888 0.1139792662101822 -0.15467642621214084 -0.12710044383908925
leaf_weight=32.991167180240154 7.8935114592313758 2140.9307221956551 72.738283678889275 590.82583635300398 393.50205342844129 3544.2806971855462 8415.9898937512189 1385.3705167174339 6473.1700874269009 14389.786982133985 14456.208543132991 542.69566238671541 139.87261997163296 18858.829845946282 106.79585779830813 6062.0448116585612 3484.0073688123375 369.09338026493788 520.86542491987348 1095.2477583568543 85.264011461287737 227.17193490825593 308.30747456848621 198.61718120239675 6.0180039405822745 3044.9033851921558 51.567964904010296 52.810540363192558 578.82589798420668 10.987938180565832 90.586910665035248 563.31894114427269 18.299889624118805 245.15720681101084 19.57762910425663 108.85891531221569 12.014693081378935 215.43599777668715 3446.4758117347956 441.75815231725574 64.134006187319756 13.180884137749674 10.464303575456141 19.542579434812069 8.5283834747970086 60.416794501245022 6.3705530464649192 36.738976379856467 39.14274675026536 65.950759768486023 26.660868927836418
leaf_count=357 40 4874 29 1000 2935 13548 22007 10109 18534 67754 46399 6321 348 35842 2089 3216 6848 1029 2813 1543 605 108 183 1030 1 8340 168 295 1022 24 251 648 29 181 24 1248 10 2214 2086 453 49 6 47 161 50 874 2 351 85 302 162
internal_value=0 0.121183 0.0361894 0.122766 0.109932 0.133145 0.115523 0.0716566 0.130047 0.114008 0.108069 -0.0702456 0.156623 0.148875 0.156353 0.158903 0.13144 0.0216069 0.0676158 0.105056 0.174024 0.0802154 0.111129 0.0964191 0.151404 0.161125 0.139333 0.178532 0.22633 0.103204 0.178796 0.173278 -0.0493353 0.248873 -0.0287829 -0.0370981 -0.089797 -0.0456348 0.180111 0.155116 0.2196 -0.123994 0.0542736 -0.131492 -0.0696984 -0.0994771 -0.121888 -0.0701826 0.165728 -0.144416 -0.129434
internal_weight=0 77417.4 1416.19 76001.2 33980.6 42020.6 19818.8 4929.65 14889.2 32481.7 28846 736.14 15742.8 22201.8 18965.6 15570.4 5529.09 1498.9 889.959 3236.18 10041.3 460.438 4554.25 3682.62 680.047 3635.73 150.256 9580.91 974.844 150.861 605.083 871.626 172.366 823.983 72.3882 194.123 154.066 608.938 9508.52 532.345 115.702 585.883 23.6452 562.238 74.9632 68.9452 142.051 43.1095 266.315 98.9419 34.5544
internal_count=268644 249642 8612 241030 132484 108546 64198 23657 40541 123493 114153 6954 19002 44348 37931 17951 10284 8991 3842 6417 7667 2046 8709 7878 1658 9340 419 5621 1575 372 733 831 1051 1203 319 1853 1022 5149 5302 704 217 6535 53 6482 925 924 1012 353 193 659 202
is_linear=0
shrinkage=0.1


Tree=6
num_leaves=53
num_cat=0
split_feature=108 102 30 103 71 55 30 62 129 32 88 134 5 69 104 99 38 36 109 57 30 70 101 71 107 54 135 115 133 60 135 113 69 56 133 32 45 40 40 109 108 57 32 133 133 68 54 127 74 48 73 71
split_gain=1703.89 1187.34 944.175 1197.23 1909.52 1724.15 1528.79 1458.28 1194.84 967.033 942.146 1381.64 804.774 756.342 1083.22 737.418 648.799 1156.19 598.829 509.87 441.951 429.233 743.347 395.573 393.132 464.542 451.07 379.946 337.661 282.236 237.721 262.556 221.63 201.136 199.821 171.526 141.874 141.661 130.524 130.513 130.266 103.482 103.239 86.1144 85.0312 82.1575 79.9154 78.0865 37.6045 37.1081 1.52158 0.151638
threshold=-1.0397804379463194 -0.67973288893699635 1.0565591454505923 -0.85375797748565663 -0.49199609458446497 0.96159765124320995 1.0814589262008669 0.53544428944587719 1.0000000180025095e-35 0.96179947257041942 -1.0768473744392393 1.0000000180025095e-35 0.89795508980751049 -0.11944647505879401 -0.82388332486152638 -0.91241860389709462 0.97844398021698009 0.86320212483406078 -1.1562805771827696 0.83085635304451 1.0655062794685366 -0.1138363480567932 -0.5411713421344756 1.0000000180025095e-35 -0.98371151089668263 1.084101736545563 1.0000000180025095e-35 -1.458378732204437 1.0000000180025095e-35 0.82927268743515026 1.0000000180025095e-35 -1.2274480462074278 -0.050727207213640206 0.86663594841957103 1.0000000180025095e-35 0.8927477002143861 0.87106826901435863 1.0879932045936587 1.0731603503227236 -1.1222578883171079 -1.03132688999176 0.85318806767463695 0.96198138594627391 1.0000000180025095e-35 1.0000000180025095e-35 0.15538654476404193 1.0169951915740969 -3.3031841516494747 -0.52750250697135914 1.2054525613784792 -0.403878703713417 -0.44060049951076502
decision_type=2 2 2 2 2 2 2 2 2 2 2 2 2 2 2 2 2 2 2 2 2 2 2 2 2 2 2 2 2 2 2 2 2 2 2 2 2 2 2 2 2 2 2 2 2 2 2 2 2 2 2 2
left_child=16 2 9 5 8 6 -4 -6 -5 10 12 -12 -2 42 -15 -7 17 19 37 20 33 28 27 30 25 26 -19 -23 39 41 38 49 -30 -1 35 -21 -22 48 43 -20 -40 -26 -11 -3 -27 -31 -36 -24 -18 -32 -50 -33
right_child=1 23 3 4 7 15 -8 -9 -10 13 11 -13 -14 14 -16 -17 18 24 21 34 36 22 47 -25 29 44 -28 -29 32 45 31 51 -34 -35 46 -37 -38 -39 40 -41 -42 -43 -44 -45 -46 -47 -48 -49 50 -51 -52 -53
leaf_value=-0.031449929229712771 0.13401371545303029 -0.11506951063549789 0.057647218574190119 -0.047325924925831299 0.1855167321341798 0.20336586684186103 0.11663394824704035 0.064401486417925979 0.1555923087060046 0.11825419248330614 0.11047431308798826 0.0048259106502624464 -0.10619479784012138 0.1591349137151836 0.074772412064009905 0.12017471337555599 0.062084618543327169 0.07490862029477198 0.16837217443159042 0.16043790873576838 0.51778423425110043 -0.14388416861669326 -0.0082440290394532982 0.22248882895147123 0.30303881329902121 0.16688168376183021 0.19279279800508761 0.062224926152230721 -0.1325645719527529 0.13203187757862178 0.34017439022904156 -0.11177865951859101 0.16061595787348038 0.12394648136348896 0.21370756273521857 -0.15344949326559382 0.17123343943427791 0.2220208173314637 0.12627703021560555 0.14560848357360562 -0.12830679985447965 -0.13019470861298837 -0.11293291940618905 -0.0012301571867029499 0.2760007169888683 -0.070205054358675342 0.27240769202049614 0.15764420152187122 -0.145614495665531 0.15485653208285519 -0.12001221132948062 -0.13039485105930224
leaf_weight=198.66983068734407 23510.959450677037 382.27388148568571 8196.4962752759457 2003.8226573057473 1227.9922528080642 2047.8708454221487 9470.492568898946 5220.1874034442008 339.31785760819912 21.25397115200758 10836.262645630166 1397.4919341951609 140.30754485167563 1866.4293300509453 8247.8186538219452 2221.2277613952756 11.33552500605583 4119.7127191144973 6917.5334954932332 87.478197000920773 12.083929121494291 152.37120841257274 29.561627879738808 57.496596336364746 5.7185373306274405 416.38101456873119 352.34921506047249 216.55003778263927 65.696506805717945 93.765171878039837 27.236984938383102 5.4793055504560497 42.441970780491829 143.42389800399542 500.0055203512311 21.734817400574684 527.43332308530807 14.582744430750607 57.521611716598272 3960.746437035501 30.893434159457684 153.70295369997621 211.84827233850956 80.430272288620472 86.19647128880024 25.564179873093963 432.57926467061043 707.24999328702688 39.348289556801319 17.910565413534641 56.610520301386714 21.719929195940495
leaf_count=735 51705 6729 34729 13756 3320 4164 31030 23046 678 99 22898 6636 4018 3313 28333 6127 27 8820 3459 97 5 1650 245 9 1 313 425 1224 372 69 20 59 94 308 725 113 864 34 147 2858 286 1099 1566 387 63 229 380 362 205 46 643 124
internal_value=0 0.102976 0.104139 0.0905528 0.0593726 0.103049 0.0892674 0.0874667 -0.0179407 0.113169 0.120935 0.0984058 0.132589 0.0862358 0.0903402 0.160081 0.136115 0.112252 0.150136 0.178585 0.122616 0.152359 0.0929711 -0.0284899 0.0879653 0.0944408 0.0841966 -0.0229019 0.158336 -0.0275985 -0.0516354 0.118793 -0.0174977 0.0337005 0.225948 0.0979702 0.178995 -0.0704169 -0.0740079 0.160084 0.0373219 -0.114654 -0.0918536 -0.0952812 0.185597 0.0887062 0.240936 0.150989 -0.110163 0.266657 -0.130511 -0.126645
internal_weight=0 77640.7 76959.8 30727.4 8791.32 21936.1 17667 6448.18 2343.14 46232.4 35885 12233.8 23651.3 10347.4 10114.2 4269.1 19390.8 7176.8 12214 1923.41 881.611 12092.2 1105.73 680.963 5253.39 4974.64 4472.06 368.921 10986.4 278.751 623.466 72.3468 108.138 342.094 1041.8 109.213 539.517 121.877 551.119 10878.3 88.415 159.421 233.102 462.704 502.577 119.329 932.585 736.812 107.294 45.1476 95.9588 27.1992
internal_count=268644 243225 235418 116850 40800 76050 65759 26366 14434 118568 85257 29534 55723 33311 31646 10291 25419 14246 11173 3227 1912 10264 3481 7807 11019 9621 9245 2874 6783 1398 7798 249 466 1043 1315 210 869 909 7549 6317 433 1100 1665 7116 376 298 1105 607 875 66 848 183
is_linear=0
shrinkage=0.1


Tree=7
num_leaves=62
num_cat=0
split_feature=108 133 106 135 30 31 103 91 101 130 38 135 34 133 109 56 32 106 35 88 96 70 101 32 82 78 69 34 106 8 104 70 105 103 54 133 128 46 54 95 103 51 109 122 98 114 113 117 33 31 72 106 119 111 74 41 70 84 102 54 72
split_gain=1729.58 1478.26 1261.12 2210.56 1398.86 1110.99 1251.02 1058.75 967.449 804.228 750.029 728.926 1011.96 699.308 1143.77 797.773 689.899 657.603 627.881 619.058 561.018 537.464 756.935 513.001 503.196 871.948 457.468 472.775 434.689 402.437 412.215 354.117 308.689 304.67 380.278 279.315 259.2 250.704 230.185 220.382 218.754 218.032 206.56 199.335 195.353 155.75 148.433 119.509 100.566 99.4023 157.581 98.3881 77.347 58.2437 48.9362 47.4073 40.7914 36.7394 1.01151 0.593661 0.0302248
threshold=-1.0177610516548155 1.0000000180025095e-35 -0.8971847891807555 1.0000000180025095e-35 1.0994464755058291 1.0029940605163576 -0.82948419451713551 -0.99252086877822865 -0.87628361582756031 1.0000000180025095e-35 0.98330345749855053 1.0000000180025095e-35 0.86105224490165722 1.0000000180025095e-35 -1.1270673871040342 0.92076295614242565 0.93163141608238231 -0.92996546626090992 0.8571767807006837 -1.1545098423957822 -1.0629128813743589 -0.1138363480567932 -0.5411713421344756 0.90537366271018993 -1.2491819858551023 -1.2048883438110349 -0.106732040643692 0.87060999870300304 -0.92996546626090992 0.70716798305511486 -0.90718290209770192 -0.24680045247077939 -0.92345881462097157 -0.82892137765884388 1.0661219954490664 1.0000000180025095e-35 1.0000000180025095e-35 1.2183008193969729 1.0813909173011782 -0.91132846474647511 -0.91420206427574147 1.1751566529273989 -1.1562805771827696 -1.6256207823753355 -0.9835103154182433 -1.4129369854927061 -1.2931167483329771 -1.2594853639602659 0.93841978907585155 1.0104161500930788 -0.71433579921722401 -0.93515467643737782 -0.88845729827880848 -1.2640068531036375 -0.95400026440620411 1.1195823550224306 -0.091833591461181627 -0.9034857153892516 -0.90600889921188343 0.9123874604701997 -0.54349371790885914
decision_type=2 2 2 2 2 2 2 2 2 2 2 2 2 2 2 2 2 2 2 2 2 2 2 2 2 2 2 2 2 2 2 2 2 2 2 2 2 2 2 2 2 2 2 2 2 2 2 2 2 2 2 2 2 2 2 2 2 2 2 2 2
left_child=10 2 4 5 9 7 -7 -4 19 23 11 12 13 14 -1 -15 17 -14 51 49 52 32 37 -2 44 -26 27 28 -10 30 -21 -11 57 48 -35 -18 -22 41 46 -29 -31 -23 53 -44 -5 56 -20 -39 -28 50 -3 59 -6 -34 -51 -47 -24 -12 -59 -13 -40
right_child=1 8 3 24 20 6 -8 -9 26 31 21 18 16 15 -16 -17 35 -19 38 29 36 22 45 -25 25 -27 33 39 -30 40 -32 -33 42 34 -36 -37 -38 47 60 -41 -42 -43 43 -45 -46 55 -48 -49 -50 54 -52 -53 -54 -55 -56 -57 -58 58 -60 -61 -62
leaf_value=0.13919328568058104 0.10671114105597811 0.22335436067297373 0.10157921774081771 0.031396531131485758 0.095511762982748452 0.085060327494402316 0.017675208199933928 0.043926207599810169 0.048236348701301737 -0.063811565914745905 0.077189482753735855 -0.12256673750094703 0.095393015165302533 0.1145793145349112 0.0083527721918985401 0.20113185906040917 0.12804136014042111 -0.0072070891581586943 -0.0019387229687651494 0.14527861078790424 -0.056224772786838399 -0.048528544633071019 0.15092653315981552 0.14564808675160915 0.13899882439416095 -0.050726986913314037 0.19192057666055246 0.021994943630938978 -0.083134865689855966 0.043867262681749619 -0.03088809991987403 0.16788341881350205 -0.1373418887577906 -0.11652280600542241 0.074525105617076023 -0.030612739360495897 0.18803646099208324 -0.12584709238482913 -0.13009506340116 -0.10861015472040743 -0.073929641435466445 0.15258703564273399 0.14701992676565129 -0.088053925186582338 -0.093594489070831927 -0.13636472347335321 0.21526666286726059 0.36042834569665128 0.030472323792607659 0.19658450329808552 -0.13159314464462596 0.25003323229887231 0.23968591496285163 0.17754761282975318 0.28517707500327799 0.07701540581364251 0.047725429060763151 -0.18175251281846913 -0.13558987398427919 -0.15384658899829634 -0.13891139060793709
leaf_weight=1500.5461142044514 5963.7805877588689 34.696784302592278 36008.191124815494 148.83504026383162 70.329276919364929 8049.5668012499809 4188.7661208771169 3494.4072827789932 919.5671771094203 315.05041951686144 9.4055088907480222 6.8175407126545897 4496.7508771494031 3050.8935857713223 1204.3640977032483 1635.9684287682176 127.45285437256098 725.47970412857831 32.525298535823822 718.74126450717449 688.37076785042882 121.97672560065985 655.48299626819789 7821.417507275939 416.50588903576136 578.94299709424376 186.82742960005999 158.93329977244139 346.88316557556391 732.07968306541443 162.93413808941841 83.434323508292437 32.953245930373669 144.27799584716558 374.95255131274462 857.85806410014629 46.370028793811798 200.009869704023 5.3223323896527317 690.55898415669799 200.91359330713749 96.591411747038364 10201.138566404581 36.200310580432415 782.25607150048018 25.891363257542253 962.67515511065722 5.1850481033325186 48.623525969684124 114.89818240702152 19.558035060763359 6.8101061657071105 79.019531682133675 7.1481537073850623 136.3293651342392 17.415687222033739 40.676836799830198 5.4643312245607367 36.141946323215961 55.150316998362541 14.434627026319502
leaf_count=1577 15593 35 99582 769 139 27641 19625 16345 2949 1486 15 47 6799 6570 5822 2264 169 2156 92 1200 3199 1208 193 14184 2068 4347 256 611 2195 2599 618 166 229 754 1144 3128 97 2006 32 3282 956 385 6099 159 5072 461 916 1 106 107 110 17 62 5 70 67 307 23 207 251 72
internal_value=0 0.0877685 0.0915841 0.0844068 0.117148 0.088323 0.0619967 0.0964792 0.0352188 0.124755 0.117691 0.102716 0.0964261 0.121424 0.0809364 0.144791 0.0666589 0.0811397 0.181644 0.08645 -0.0048944 0.136826 0.0723839 0.128803 -0.020771 0.0286562 -0.00261898 -0.0264598 0.0122535 0.0642794 0.112723 -0.0152995 0.144083 0.064225 0.0214388 -0.0100904 -0.0408093 -0.0341761 0.201458 -0.084175 0.0185005 0.0403501 0.145301 0.146189 -0.0736147 0.13345 0.208168 -0.113559 0.15858 0.218151 0.0954012 -0.110756 0.171793 -0.0812122 0.24466 -0.0505551 0.144896 -0.101303 -0.141653 -0.150405 -0.136536
internal_weight=0 73726 68735.2 53667.5 15067.8 51740.9 12238.3 39502.6 4990.78 14183.7 26174.7 14683 13599.3 7391.77 2704.91 4686.86 6207.54 5222.23 1083.74 2120.15 884.09 11491.7 1163.23 13785.2 1926.54 995.449 2870.62 2115.94 1266.45 1814.67 881.675 398.485 10328.5 754.682 519.231 985.311 734.741 423.763 1014.96 849.492 932.993 218.568 10277.4 10237.3 931.091 739.467 995.2 205.195 235.451 305.482 54.2548 68.778 149.349 40.1014 251.228 43.3071 696.16 51.0118 41.6063 61.9679 19.757
internal_count=268644 227367 210375 175449 34926 163193 47266 115927 16992 31429 41277 29912 28485 16233 7399 8834 12252 8955 1427 5695 3497 11365 4628 29777 12256 6415 11297 9037 5144 5373 1818 1652 6737 2260 1898 3297 3296 3600 1112 3893 3555 1593 6492 6258 5841 1028 1008 2007 362 322 145 315 201 234 177 528 500 245 230 298 104
is_linear=0
shrinkage=0.1


Tree=8
num_leaves=63
num_cat=0
split_feature=132 71 103 136 94 57 78 100 37 79 110 105 109 35 70 69 105 69 33 70 136 107 77 109 54 31 102 29 136 42 99 30 70 101 10 21 101 36 69 107 43 65 32 70 31 100 105 115 60 75 54 115 105 30 1 31 67 51 125 92 105 113
split_gain=1865.44 857.384 1686.96 1145.11 1458.66 1816.44 1047.03 874.356 784.095 1101.05 939.051 1259.42 1043.75 748.636 929.818 742.904 725.294 695.687 814.673 1168.4 925.184 477.242 445.292 433.435 400.591 373.439 372.637 382.368 350.348 345.738 326.117 296.557 252.817 550.884 579.79 227.579 224.747 218.856 292.883 222.401 205.188 188.444 130.316 125.374 125.322 122.956 467.526 161.779 118.121 108.718 100.022 99.0121 89.7883 87.9035 315.541 58.246 36.8865 10.1615 9.07455 1.97992 0.774327 0.454702
threshold=1.0000000180025095e-35 -0.41698172688484186 -0.79261460900306691 1.0000000180025095e-35 -1.0275838375091551 0.82772818207740795 -0.86319091916084278 -0.81764939427375782 0.95038762688636791 -1.146533131599426 -1.1974419951438902 -0.86626312136650074 -1.1159849166870115 0.92059108614921581 -0.29739353060722346 -0.072126585990190492 -0.91818049550056446 0.010201864875853063 0.93687388300895702 -0.2153220325708389 1.0000000180025095e-35 -0.96946418285369862 -1.2857555150985716 -1.1481882929801939 1.0381507873535158 1.0066315531730654 -0.82024043798446644 1.1056092977523806 1.0000000180025095e-35 1.0509960651397707 -0.8680610954761504 1.0674647092819216 -0.11921801045536994 -0.55338940024375904 0.25134256482124334 1.255749583244324 -0.85024824738502491 0.98082861304283153 0.049777759239077575 -0.86903727054595936 1.1540181636810305 0.37101165950298315 0.8794945776462556 -0.15815823525190351 0.891677886247635 -0.55138063430786122 -0.84497621655464161 -1.4480957388877866 0.68539351224899303 -0.62788814306259144 1.0503078699111941 -1.4531790614128111 -0.83739617466926564 1.0237805247306826 0.72384381294250499 0.98117291927337658 0.28411735594272619 1.1478161215782168 -2.566280603408813 -0.44304935634136194 -0.90264657139778126 -0.9855104088783263
decision_type=2 2 2 2 2 2 2 2 2 2 2 2 2 2 2 2 2 2 2 2 2 2 2 2 2 2 2 2 2 2 2 2 2 2 2 2 2 2 2 2 2 2 2 2 2 2 2 2 2 2 2 2 2 2 2 2 2 2 2 2 2 2
left_child=1 2 3 13 5 -5 -6 15 9 31 24 16 -13 14 -1 26 -12 18 20 -20 -9 42 29 40 49 -15 27 -3 -28 -17 41 53 45 34 -34 -32 -24 39 -39 -19 50 -23 44 -26 -4 46 -25 -47 -44 -11 59 -35 58 54 -2 -55 -54 -52 -42 -10 -33 -62
right_child=8 7 21 4 6 -7 -8 17 23 10 11 12 -14 25 -16 22 -18 37 19 -21 -22 30 36 32 43 -27 28 -29 -30 -31 35 60 33 51 -36 -37 -38 38 -40 -41 52 -43 48 -45 -46 47 -48 -49 -50 -51 57 -53 56 55 -56 -57 -58 -59 -60 -61 61 -63
leaf_value=0.072910287824208331 -0.19921320585638799 0.13580187547218248 0.48983011978975721 -0.079200249476068851 -0.041280490053083048 0.10050152437753186 0.240288506389991 0.106636964215858 -0.22010666114619637 0.067157382231042034 0.0092169528961469557 0.044742847454974921 -0.12932141184541793 -0.016239206475999381 0.10538658807783695 -0.1566289083024287 0.097132874842462302 0.042963013446551991 -0.03892377958493845 0.068608317682892592 -0.051662845651298167 -0.042262158366872464 -0.055547934875257311 0.1397208649638543 0.17322648625368403 0.091812211986278702 0.080788745701665388 -0.026630155196381622 -0.045415035358350543 0.11678676036811592 -0.10727179076023774 -0.11094427392462468 -0.12667554024523026 0.14086660023810507 0.1251126582494245 -0.01486033769562998 0.18737885169179366 -0.090489933421500912 0.16417906823336126 0.1594399737930367 -0.11256134809915025 0.14584653926599797 -0.14485972904724237 0.12483534413740532 -0.08297083220982486 0.15261519657709657 0.018290800788205115 0.24880341649203597 0.18843919338001114 -0.16794853024063452 0.17308480373311769 -0.067385803045766399 0.14954319505747751 0.17334337426330315 0.17183987840474965 0.070854590128637193 -0.11672547302598335 0.094378829324599331 -0.17545152563320685 -0.1356373692121359 -0.16422107145622752 -0.11039789972121612
leaf_weight=35959.378512540832 29.983329147100449 1287.9696694612503 4.2022976875305167 672.76641447469592 2377.4911177903414 3431.727153211832 139.8326093070209 6783.4405489861965 4.5561997145414335 31.253787860274315 1134.1965305022895 920.28608185425401 550.59566729143262 1211.7381283827126 11679.136027723551 48.525740031152964 5435.26965232566 182.26496866345406 1216.9856909886003 5953.9408087059855 390.45626796782017 97.617183608934283 38.749739240854979 6566.9487863630056 802.76601706445217 434.57119449228048 643.64878206700087 163.29750233888626 334.1662600338459 985.62784829735756 736.44917310960591 30.496639858931303 199.42110772803426 829.32538157515228 168.91835264116526 417.60119973495603 2216.6244181990623 93.615268222987652 87.243992209434509 1629.554241925478 43.24515295214951 117.18769375234842 11.548470474779604 1607.4973954875022 41.944429278373718 1401.5029469430447 333.15400789678097 199.78074773401022 134.15194573998451 53.06043023429811 48.85282501578331 23.476400297135115 17.189021110534672 1843.5163934230804 97.264148756861687 57.171164900064468 7.4609046820551148 24.69628981128335 48.872584994882345 7.0977563001215458 4.9802616387605667 2.2919342666864386
leaf_count=116612 120 1170 1 4404 9924 9380 103 15276 19 55 3283 2791 6436 5053 30045 604 6026 647 6288 15473 1670 928 116 3045 419 1768 1749 501 1274 1560 5925 354 1744 466 300 2752 2688 458 137 1354 665 128 66 1360 211 321 718 117 191 251 33 216 3 792 41 81 166 37 222 54 26 27
internal_value=0 0.0769052 0.0704725 0.0733351 0.0342907 0.0710467 -0.0256399 0.0936656 0.109505 0.0929468 0.0798572 0.0632273 -0.0204147 0.0785811 0.0808722 0.127319 0.0819545 0.081886 0.074195 0.0503589 0.0980211 -0.0320722 0.158291 0.130528 0.133458 0.0122828 0.0853752 0.117525 0.0376589 0.103957 -0.052774 0.159703 0.13354 0.0909922 -0.0112069 -0.0738321 0.183205 0.137252 0.0323589 0.147723 -0.0144673 0.0603613 0.115638 0.140953 -0.0308094 0.139651 0.133858 0.164616 0.162021 -0.0807989 0.103528 0.135134 -0.100566 0.164874 0.0844086 0.170261 0.0689505 0.146657 -0.145927 -0.168661 -0.117936 -0.147258
internal_weight=0 79523.5 57467.3 55906.6 6621.82 4104.49 2517.32 22056.1 22525.1 12600.6 10534.9 8040.35 1470.88 49284.8 47638.5 5718.61 6569.47 16337.5 14344.8 7170.93 7173.9 1560.7 3289.53 9924.5 2494.58 1646.31 2429.08 1451.27 977.815 1034.15 1368.86 2065.7 9722.53 1221.14 368.339 1154.05 2255.37 1992.68 180.859 1811.82 201.971 214.805 191.847 2410.26 46.1467 8501.39 6900.1 1601.28 145.7 84.3142 85.2031 852.802 116.768 2027.94 127.247 1900.69 24.6499 73.5491 92.1177 11.654 37.7688 7.2722
internal_count=268644 238456 187491 177289 23811 13784 10027 50965 30188 22062 20621 18536 9227 153478 146657 9662 9309 41303 38707 21761 16946 10202 4968 8126 2085 6821 4694 1671 3023 2164 9733 1441 6927 2726 2044 8677 2804 2596 595 2001 1199 1056 469 1779 212 4201 3763 438 257 306 143 682 1056 1034 161 873 169 70 887 73 407 53
is_linear=0
shrinkage=0.1


Tree=9
num_leaves=63
num_cat=0
split_feature=132 38 79 70 136 102 27 35 101 72 95 69 70 35 30 103 36 103 32 108 70 102 104 81 40 70 101 103 102 30 38 7 34 115 43 101 53 135 52 36 35 36 105 101 105 69 112 33 30 1 30 69 23 106 68 104 115 37 38 113 101 106
split_gain=1919.62 768.77 1056.56 762.981 1168.8 1448.03 2120.79 1061.02 837.994 1048.49 734.64 730.31 666.606 909.367 637.568 833.906 634.017 626.979 600.084 1180.2 725.611 588.726 465.008 437.912 466.061 427.836 654.006 399.06 369.249 348.764 331.111 324.801 255.694 242.464 240.946 229.994 214.429 207.001 196.911 367.293 189.833 179.143 175.702 175.602 537.34 565.628 177.696 155.351 126.231 228.02 101.049 97.059 85.5836 73.4014 68.8508 40.4 25.781 17.1193 4.35772 1.36134 0.890006 0.330333
threshold=1.0000000180025095e-35 0.98037788271904003 -1.1201598048210142 -0.2550882995128631 1.0000000180025095e-35 -0.83705431222915638 1.2189668416976931 0.91567817330360424 -0.79103463888168324 -0.58514496684074391 -1.0376605391502378 0.010201864875853063 -0.22713099420070645 0.92438131570816051 1.1011847257614138 -0.94199880957603443 0.96848222613334667 -0.89993542432785023 0.90942275524139415 -1.0564689040184019 -0.25202238559722895 -0.80021610856056202 -0.82024055719375599 -0.8032885193824767 1.017676889896393 -0.11921801045536994 -0.5411713421344756 -0.78487330675125111 -0.84620970487594593 1.0674647092819216 0.91099005937576305 0.18762864172458651 0.91933828592300426 -1.4531790614128111 1.0640923380851748 -0.81038236618041981 1.0633871555328371 1.0000000180025095e-35 1.0722366571426394 0.92097613215446483 0.89530506730079662 0.98082861304283153 -0.83926337957382191 -0.58262246847152699 -0.85918590426444996 -0.023385049775242802 -1.3199441432952879 0.95474845170974743 1.0158631205558779 0.72384381294250499 0.89334386587142955 0.049777759239077575 1.2824220061302187 -0.92182523012161244 0.11988682299852373 -0.75056400895118702 -1.4480957388877866 0.9295577108860017 0.93035691976547252 -1.354029595851898 -0.89437049627304066 -0.90640112757682789
decision_type=2 2 2 2 2 2 2 2 2 2 2 2 2 2 2 2 2 2 2 2 2 2 2 2 2 2 2 2 2 2 2 2 2 2 2 2 2 2 2 2 2 2 2 2 2 2 2 2 2 2 2 2 2 2 2 2 2 2 2 2 2 2
left_child=3 2 29 4 7 6 28 14 12 52 -8 16 13 27 17 -16 -11 -1 19 36 -21 -15 37 30 -25 43 31 -5 -6 48 -20 40 -24 51 58 -36 -4 -9 39 -7 -27 -13 -33 44 46 -46 -3 -40 49 -2 56 -28 54 -50 -10 -52 -45 -54 -14 -35 61 -31
right_child=1 25 18 8 5 38 10 22 9 11 -12 41 34 21 15 -17 -18 -19 23 20 -22 -23 32 24 -26 26 33 -29 -30 60 -32 42 -34 59 35 -37 -38 -39 47 -41 -42 -43 -44 50 45 -47 -48 -49 53 -51 55 -53 57 -55 -56 -57 -58 -59 -60 -61 -62 -63
leaf_value=0.091177490160278055 -0.18730989890262884 -0.056342740606811416 0.025510323738554969 0.10497397544059313 0.17929101862489591 -0.080810309128594326 0.070074149957953677 0.02233956647362537 -0.10241849062555713 0.065597755662488641 -0.038582074502884096 0.13380841670225468 -0.10323896956863986 0.05779994921129588 0.10124209976016954 -0.078316503161550838 -0.027173394530813379 0.06434933975664163 -0.024000063927228213 0.032135520108924669 -0.085119632941742143 -0.066784923368454027 -0.005699135867181522 -0.21540619954407259 0.057832813447086961 -0.0082132446599285959 0.13543699161031977 -0.057627721445338169 0.082003235773238273 -0.10978487020501909 0.122817893657333 0.16715095892751858 -0.11433663667667192 -0.17382652864898082 0.15585569837742952 0.11166028120288661 0.099040140225267789 0.14648107333373148 -0.12108408613009228 0.11912421094024105 -0.14756190866658123 0.02607584936618125 -0.1480362519818619 0.13843692123060666 0.13985064975060216 0.015314336315792527 0.13380777392560195 0.48358811375007199 0.090662557808862732 0.12745140974490163 0.25242677030533367 -0.056516095122014803 0.25231846424051735 0.15342798065888572 0.10986084454621002 0.17770365451669992 0.19820973965368693 0.053432310868389815 -0.17634954253593971 -0.11087195896850671 -0.15379385006797858 -0.1360146972873359
leaf_weight=11496.485198123381 31.754756554961205 49.559077121317387 481.03670023567975 5831.575613072142 898.43616848811507 398.02128906920552 887.38202348537743 1433.3715539239347 419.71752872690558 8934.8632557597011 2082.6400288045406 1808.2330028600991 15.717220125719903 1226.7879527062178 429.57953736186028 650.00844345241785 802.86952364444733 35954.071926936507 164.11288336664438 1418.4110094979405 840.4974450878799 549.05821015685797 458.09103475138545 81.477584980428219 266.95541525632143 370.30613568611443 990.09454324655235 154.94468157738447 689.53858578577638 41.07845439389348 2399.8951862081885 127.60597744956613 411.05746884271502 3.7802813351154319 2127.5991430804133 2636.8305882960558 2259.5721267256886 148.20757045596838 652.22665618732572 119.46121253073215 132.82759580202401 168.75432679057121 20.532241854816675 2009.4572407007217 610.96987780928612 904.80050783604383 5887.566732391715 4.2767421677708617 204.09520887583494 83.620956048369408 95.359563708305359 27.06179079785943 6.4571859985590008 2139.5449436157942 15.856152325868605 299.93673993647099 74.846964374184608 13.124520301818846 16.939101159572601 37.594100744463503 5.9932725727558127 5.4367867186665526
leaf_count=29063 128 228 1038 9568 1943 1949 3504 5048 2388 23143 9925 1913 542 3450 1046 3072 3202 115603 554 3158 6319 3014 2048 372 328 3025 352 877 1491 509 1430 103 3157 41 2345 5600 2828 134 3468 267 1153 557 147 483 425 1976 2488 6 302 63 29 429 5 1005 15 128 108 40 73 953 38 48
internal_value=0 0.100708 0.0809812 0.0674563 0.0610649 0.0182513 0.0437596 0.0658786 0.082114 0.0634134 -0.00611781 0.069199 0.100235 0.0821237 0.0691205 -0.00686823 0.0579488 0.0708494 0.0630435 0.0420237 -0.0114929 0.0192807 0.00168148 0.0991262 -0.00606141 0.118369 0.0721656 0.100765 0.137046 0.13749 0.113421 -0.00668194 -0.0570785 0.120677 0.129541 0.131396 0.0861341 0.0339727 -0.0807843 -0.0346553 -0.0450014 0.124612 0.123465 0.126323 0.118653 0.0655119 0.132221 -0.117145 0.142935 0.0408199 0.149375 0.13033 -0.0854968 0.147962 -0.0946909 0.19573 0.140583 0.119016 -0.141162 -0.116624 -0.117524 -0.112851
internal_weight=0 22065.8 10423.5 81442.2 56712.9 5731.98 4558 50980.9 24729.3 12169.9 2970.02 11714.7 12559.5 7762.37 48530.1 1079.59 9737.73 47450.6 7911.96 4999.52 2258.91 1775.85 2450.73 2912.44 348.433 11642.3 1709.8 5986.52 1587.97 2511.52 2564.01 651.272 869.149 1058.53 4797.09 4764.43 2740.61 1581.58 1173.99 517.483 503.134 1976.99 148.138 9932.5 7452.9 1515.77 5937.13 656.503 2459.02 115.376 2479.6 1017.16 455.155 2343.64 435.574 395.296 2084.3 19.5817 32.6563 41.3744 52.5085 46.5152
internal_count=268644 30188 18120 238456 181724 22553 16863 159171 56732 31263 13429 28815 25469 16909 148784 4118 26345 144666 16027 13343 9477 6464 10387 2684 700 12068 6203 10445 3434 2093 1984 4428 5205 1775 8560 7945 3866 5182 5690 2216 4178 2470 250 5865 5117 2401 2716 3474 1498 191 748 781 2448 1307 2403 157 591 45 615 994 595 557
is_linear=0
shrinkage=0.1


Tree=10
num_leaves=63
num_cat=0
split_feature=132 71 103 54 106 129 100 31 101 72 63 71 133 38 77 107 105 83 63 127 102 73 102 5 42 70 63 69 51 96 13 69 3 4 104 30 112 108 31 64 109 107 51 35 32 0 101 68 111 34 79 108 0 37 7 35 115 47 111 15 75 123
split_gain=1930.23 759.632 2601.29 1240.29 1716.83 1025.92 944.738 881.961 803.113 796.981 738.656 2024.05 1177.4 726.514 1011.9 787.215 553.284 545.008 519.987 499.76 462.673 463.659 434.056 628.351 420.599 402.549 402.468 583.224 390.901 384.831 375.668 367.473 446.444 664.459 543.659 316.064 298.782 280.429 220.721 204.898 201.684 203.705 287.639 194.575 181.595 172.508 166.871 162.137 161.836 116.009 114.511 114.37 73.0865 66.0146 62.9705 114.416 62.0188 61.1209 46.1765 23.9799 0.592767 0.0270764
threshold=1.0000000180025095e-35 -0.47329050302505488 -0.8410801589488982 1.0008432269096377 -0.8971847891807555 1.0000000180025095e-35 -0.85966297984123219 1.0029940605163576 -0.87716975808143605 -0.67301946878433216 0.49716016650199896 -0.42552730441093439 1.0000000180025095e-35 0.97844398021698009 -0.85052752494812001 -0.98371151089668263 -0.91818049550056446 -1.1731907129287718 0.43351078033447271 -1.4978110790252683 -0.82665219902992237 -0.79091817140579213 -0.84417021274566639 0.61428275704383861 1.0458579659461977 -0.10835893824696539 0.45994071662426 -0.16816800087690351 1.0950661897659304 -1.0111923217773435 0.34026980400085455 -0.11944647505879401 0.5856897532939912 0.5681636929512025 -0.83571770787239064 1.0050764679908755 -1.3105233311653135 -1.0640107989311216 0.95720922946929943 0.41080218553543096 -1.1562805771827696 -0.95814380049705494 1.1295983791351321 0.90181922912597667 0.8927477002143861 0.4983398318290711 -0.58262246847152699 0.19704283028841021 -1.1601311564445493 0.83720326423645031 -1.171337842941284 -1.0254556536674497 0.67007684707641613 0.94530248641967785 0.12413123250007631 0.88458615541458141 -1.4708659648895261 1.1643759012222292 -1.2640068531036375 0.52954450249671947 -0.47100022435188288 -2.2256146669387813
decision_type=2 2 2 2 2 2 2 2 2 2 2 2 2 2 2 2 2 2 2 2 2 2 2 2 2 2 2 2 2 2 2 2 2 2 2 2 2 2 2 2 2 2 2 2 2 2 2 2 2 2 2 2 2 2 2 2 2 2 2 2 2 2
left_child=1 2 3 4 18 -6 31 10 19 -10 12 -12 -8 14 16 28 17 52 -1 -5 24 -22 23 43 -9 40 27 -24 44 -28 47 32 33 -3 -34 51 49 -30 57 -40 58 46 -43 -4 -16 -25 -42 56 -19 -17 -37 -18 -2 -38 59 -56 -27 -33 60 -32 -15 -49
right_child=13 6 22 8 5 -7 7 20 9 -11 11 -13 -14 25 15 36 35 48 -20 -21 21 -23 26 45 -26 30 29 -29 37 -31 54 38 34 -35 -36 50 53 -39 39 -41 41 42 -44 -45 -46 -47 -48 61 -50 -51 -52 -53 -54 -55 55 -57 -58 -59 -60 -61 -62 -63
leaf_value=0.070443436765318973 -0.019621318967357082 0.11657344087590008 0.18935785172658973 0.136077623108356 0.0011300950721598521 0.099823018917466713 0.13054551884718057 0.0058934845053901412 -0.049269286653755788 0.075177732701204633 0.0060853384017760751 0.073991868625022439 0.046612307363313343 -0.14114946221956479 0.053302533568572522 -0.18506322307339157 0.086102163783369642 0.14781556994685441 -0.12960312364144783 0.07345488545529516 -0.090266187568342274 0.016623864697930479 -0.040013458903974425 -0.068281662822866074 0.10112519484126439 0.12648816893978529 0.05642732437523218 0.10642591987360567 0.091030084494391095 -0.092749136218434405 0.057046343961296292 -0.13815051901380243 0.20189500119029119 0.013010277398712368 -0.050306143425103839 0.14501541120777833 -0.13695173436286043 0.027829530479437245 0.20587226535272807 0.12365175536481113 0.10852238009591848 0.15093582619307022 -0.11573544104592942 -0.14196789541239471 -0.075537575305633639 0.047564663822030832 0.13547684908813989 -0.10234983856114854 -0.019651095791019632 0.093114862584131625 0.10907705631962875 -0.19633934691025567 0.14620243514699816 0.015245702640947998 0.12607066866151589 -0.089216647965745896 -0.036944119936248618 0.045123604029705756 0.15084260414724754 -0.12522179618461646 -0.11694198679844484 -0.1077717636807273
leaf_weight=13804.953608285636 28.582688599824905 1163.2866826206446 244.75819151848555 3527.5949165523052 8366.4784654323012 1204.9711774885654 4210.2738493103534 775.10748801380396 638.24170225858688 2656.6700077652931 5438.0084156468511 22761.232650842518 2771.4820735454559 23.254486925899982 165.4813456684351 17.465807488188148 21.391699284315109 62.465725995600224 131.17093931138515 1995.1349267065525 474.43093165755272 2805.7486154176295 1149.5963627938181 328.40179250389338 1154.6179189383984 315.08154300786555 194.78063682466745 356.24997895956039 1695.5233493242413 1541.4940548315644 7.6693025138229123 35.099599804729223 490.23258293420076 1325.3628821745515 103.52322358451784 1232.970025639981 359.19983066897839 1198.2230663280934 341.86265333369374 2672.6692038401961 7856.735409244895 73.39008504152298 90.111703604459763 19.108343966305256 322.77467123419046 211.21390311792493 3245.5615454316139 16.696034455671906 757.25141475349665 105.82451681979001 3156.0896518975496 43.473148256540298 379.21096864715219 30.954659074544907 38.802662054076791 67.854345638304949 25.066421832889318 37.7852453738451 6.790515571832656 122.69950222223997 17.903080318123102 20.543545320630074
leaf_count=35730 118 2329 389 5761 40181 1839 7989 2812 2926 6945 20110 50387 6994 124 308 139 19 71 587 3785 3501 11236 7519 1645 2550 272 522 1087 2118 9865 68 937 522 4615 515 642 4533 2275 266 3527 6059 17 436 100 989 1229 1221 851 2595 172 2519 190 222 60 290 824 201 56 3 2286 213 353
internal_value=0 0.0595285 0.0486998 0.0581609 0.0461641 0.0135548 0.0679873 0.0624201 0.0901438 0.0510717 0.0681065 0.0608966 0.0972273 0.0931488 0.0726359 0.0333797 0.0995517 0.0401083 0.0685605 0.113455 0.0240209 0.00116375 -0.0268958 0.0389014 0.0628737 0.109618 -0.0432021 -0.00536914 0.0508955 -0.0760141 0.0307874 0.104433 0.0800087 0.0614195 0.157923 0.115934 -0.0819943 0.0648604 0.128818 0.132976 0.113899 0.11477 0.00396372 0.165364 -0.0318707 -0.0229376 0.116402 0.0927566 -0.00688947 0.053707 0.119173 -0.103193 0.13458 -0.124876 -0.0678787 -0.0108934 0.114444 -0.0431368 -0.0907582 -0.114499 -0.130619 -0.105341
internal_weight=0 82931.5 36370.8 32325.2 23507.6 9571.45 46560.7 40390.9 8817.64 3294.91 35181 28199.2 6981.76 21505 9576.88 3895.45 5681.44 1227.51 13936.1 5522.73 5209.9 3280.18 4045.6 803.482 1929.73 11928.2 3242.12 1505.85 3382 1736.27 614.413 6169.82 3082.41 2488.65 593.756 4453.92 513.445 2893.75 3087.42 3014.53 11313.7 11265.8 163.502 263.867 488.256 539.616 11102.3 377.388 819.717 123.29 4389.06 64.8648 407.794 390.154 237.026 106.657 340.148 72.8848 47.9481 130.369 41.1576 37.2396
internal_count=268644 238456 120110 97754 78337 42020 118346 105579 19417 9871 85480 70497 14983 30188 16970 10594 6376 3006 36317 9546 20099 14737 22356 3363 5362 13218 18993 8606 5690 10387 5145 12767 7981 6944 1037 3370 4904 4393 4786 3793 8073 7733 453 489 1297 2874 7280 1677 2666 311 3161 209 340 4593 3468 1114 473 993 340 2354 337 1204
is_linear=0
shrinkage=0.1


Tree=11
num_leaves=62
num_cat=0
split_feature=132 83 99 55 73 69 135 134 94 75 37 80 4 110 70 105 109 111 56 109 28 54 62 105 101 66 40 108 107 19 44 54 33 73 61 116 108 30 31 2 57 63 127 78 51 56 75 111 105 81 30 1 30 58 20 81 118 105 109 106 70
split_gain=1877.44 697.41 740.313 1568.69 1289.68 948.253 829.539 794.334 721.232 851.217 688.551 740.73 599.922 558.316 965.394 541.107 492.054 449.862 436.775 461.419 426.015 301.543 294.012 284.775 408.419 556.105 363.037 283.396 279.273 334.442 252.847 212.419 205.66 205.089 185.493 158.352 143.247 140.71 135.439 133.756 125.244 122.866 173.531 109.51 97.6817 92.1077 89.6752 75.8434 61.7017 58.9399 51.1834 217.364 45.4282 28.3473 82.5573 27.1103 15.6624 2.17927 1.84815 0.418561 0.36615
threshold=1.0000000180025095e-35 -0.79948881268501271 -0.80069231986999501 1.0195930004119875 -0.74046722054481495 0.013709751423448326 1.0000000180025095e-35 1.0000000180025095e-35 -1.0719866156578062 -1.1072666049003599 0.94738429784774791 -1.161097466945648 0.60932302474975597 -1.1974419951438902 -0.20674071460962293 -0.91818049550056446 -1.1159849166870115 -0.95479282736778248 0.89893713593482982 -1.1222578883171079 1.2050623297691347 1.0381507873535158 1.0000000180025095e-35 -0.87419697642326344 -0.58262246847152699 0.38686943054199224 1.054826617240906 -1.084461987018585 -0.96681052446365345 1.1644290685653689 1.1844691634178164 0.9772966504096986 0.88388094305992138 -0.38018752634525294 0.67553254961967479 -1.274500787258148 -1.0383813977241514 1.0627350211143496 0.97370499372482311 0.42665046453475958 0.97169533371925365 0.53567498922348034 -2.6369845867156978 -0.4241145104169845 1.1598135232925417 0.86663594841957103 -0.62788814306259144 -1.2640068531036375 -0.87834578752517689 -1.2104525566101072 1.0286579728126528 0.72384381294250499 1.0677431225776675 0.83768939971923839 1.2301324009895327 -1.2326921820640562 -1.5256845355033872 -0.90009647607803334 -1.1562805771827696 -0.95091241598129261 -0.10280039906501769
decision_type=2 2 2 2 2 2 2 2 2 2 2 2 2 2 2 2 2 2 2 2 2 2 2 2 2 2 2 2 2 2 2 2 2 2 2 2 2 2 2 2 2 2 2 2 2 2 2 2 2 2 2 2 2 2 2 2 2 2 2 2 2
left_child=1 2 3 8 22 6 -6 17 12 -10 11 37 -1 21 15 -15 -16 -5 20 41 27 46 -4 47 25 26 -25 38 32 -30 -27 -29 -21 36 -24 45 -26 50 -3 -9 -7 42 -20 -43 -23 -22 -13 48 58 52 51 -2 -39 54 -49 -52 -55 -51 -12 -37 -35
right_child=10 18 4 7 5 40 -8 39 9 -11 23 13 -14 14 16 -17 -18 -19 19 28 35 44 34 24 33 30 -28 31 29 -31 -32 -33 -34 60 -36 59 -38 49 -40 -41 -42 43 -44 -45 -46 -47 -48 53 -50 57 55 -53 -54 56 -56 -57 -58 -59 -60 -61 -62
leaf_value=0.11846061675044212 -0.10273891575653982 -0.078566972448697869 0.34381732212554705 0.05711017766803899 0.011929782712907368 0.068641936430140119 0.12007556386516952 -0.10376501408598181 0.0054905640835068046 0.048175283698027128 -0.13749268696796668 0.049847267682579827 0.059364555375288043 -0.0003635851598449535 0.0098967883150717206 0.077540659216491614 -0.11750167785083798 0.11075354814782412 0.12332824874658121 0.14048219605663811 0.050260807634736053 0.070274664007799179 -0.024841900693708355 0.018047270941857346 0.12744051497369588 0.069917746763818428 0.10358514456060286 -0.14386361324570851 0.079320429537526521 -0.12969966469527433 -0.079689752516831844 0.01526402292081609 0.088873073934423369 -0.13997475490513031 -0.11552386445906936 -0.15350859942419151 -0.052274740818521508 0.1326956092940467 0.19308846061522819 0.21357442632535648 0.1319303498799437 -0.1213253939296714 -0.10655706939261694 0.1544301286139699 0.12738659440233935 0.18369237681210901 -0.16550961693906907 -0.087995200127510401 0.086752029312828077 -0.11208460625250759 0.15339432748531254 0.1431042637823596 -0.12145980873040499 0.14101745318659095 0.13750642083338013 0.12659721050853159 0.12461436683773869 -0.18264202341800478 -0.20721057235473139 -0.12425138181024126 -0.10878513269088193
leaf_weight=2309.7636060044169 47.93410861492157 25.669877648353577 16.138993844389915 2040.078954949975 6766.4099658243358 458.71346664428711 792.33574417233467 228.29732172936201 5202.0751942787319 45842.423100013286 9.2532344274222833 31.553039833903313 6702.9584290273488 1111.3387240059674 948.20830925181508 4508.8198391385376 445.65760908275843 6689.4682050943375 93.915433928370476 2122.4309235960245 75.668571092188358 384.90230825170875 332.71002286672592 633.44111118838191 2518.2329331645742 171.25494437664747 2289.6667197812349 219.18783909827471 482.77999543398619 90.974904350936413 331.90580957382917 135.90129278600216 1213.6797694936395 4.2499935291707507 700.50659270212054 13.692708402872087 45.147302743978798 26.80881729722023 64.387994095683098 14.102465897798536 982.23549985140562 122.29227615147829 50.489090941846371 16.323795258998871 1349.3012249898165 163.55902235955 49.935731859877706 23.892548091709614 25.006484091281891 23.609694719314579 591.78472826629877 144.02114775776863 9.5337694063782674 704.45215032994747 50.656734019517899 1042.8074112534523 3351.8615590706468 5.3738782629370681 6.4546707384288302 7.6059947051107875 32.90871477406472
leaf_count=3672 150 82 13 5066 20687 735 1301 1164 21518 134999 54 55 21543 3319 2842 5176 5845 10291 118 2787 196 661 1899 1100 1621 549 2002 2024 1138 682 1586 340 2085 36 4090 63 565 26 53 13 858 610 200 22 760 150 238 60 39 287 154 56 105 235 13 537 1194 25 28 57 870
internal_value=0 0.052833 0.0505648 0.0542565 0.0252058 0.0374386 0.023266 0.0932589 0.04843 0.0438252 0.0863144 0.0686205 0.0745096 0.0564538 0.0436599 0.0621358 -0.030836 0.0982172 0.0894479 0.101698 0.0166617 0.105877 -0.0797075 0.104916 0.0910136 0.0683343 0.085049 -0.0427791 0.110623 0.0461781 -0.0287696 -0.0829616 0.121707 0.120894 -0.086323 0.118225 0.124275 0.125405 0.115656 -0.0853027 0.111783 -0.021602 0.042952 -0.0888517 0.114711 0.141487 -0.0821219 0.125001 -0.010816 -0.0188031 0.130562 0.0817135 0.0660229 0.12634 0.0652347 0.136299 0.127463 -0.125167 -0.166141 -0.143061 -0.112352
internal_weight=0 83976.8 79078.2 69029.2 10049.1 8999.69 7558.75 8971.95 60057.2 51044.5 20920 10721.6 9012.72 8829.72 7014.02 5620.16 1393.87 8729.55 4898.56 4192.89 705.673 1815.69 1049.36 10198.4 6026.81 3426.27 2923.11 445.147 3909.87 573.755 503.161 355.089 3336.11 2600.54 1033.22 260.526 2563.38 1891.87 90.0579 242.4 1440.95 283.021 144.405 138.616 1734.2 239.228 81.4888 4171.58 40.7144 65.3262 1826.55 191.955 36.3426 4130.86 74.5493 1634.59 4056.31 28.9836 15.7079 21.2987 37.1587
internal_count=268644 238456 227849 198266 29583 23581 21988 16534 181732 156517 30188 20236 25215 18896 17182 8495 8687 15357 10607 7642 2965 1714 6002 9952 8329 5237 3102 2499 6692 1820 2135 2364 4872 3092 5989 466 2186 1340 135 1177 1593 950 318 632 1421 346 293 1623 121 443 897 206 131 1502 73 691 1429 312 82 120 906
is_linear=0
shrinkage=0.1


Tree=12
num_leaves=63
num_cat=0
split_feature=132 37 69 136 95 67 104 102 78 71 32 32 136 69 80 110 105 109 105 30 102 98 5 100 70 99 69 38 109 32 52 72 105 100 66 18 70 0 72 29 127 43 73 30 57 28 91 114 105 64 81 30 1 30 65 46 67 81 58 73 54 109
split_gain=1814.74 649.367 592.776 919.44 1119.78 1123.14 844.564 836.047 759.457 665.383 624.7 609.227 1064.54 899.129 571.664 647.978 869.866 749.295 524.395 509.44 663.384 529.859 389.194 376.832 348.775 337.393 695.244 375.747 310.646 298.907 266.576 248.842 173.841 281.99 404.03 168.278 156.392 152.69 168.112 146.916 138.624 130.677 121.875 117.215 92.8231 66.679 65.1168 61.6809 58.7992 52.447 51.3774 44.9527 182.041 38.3109 28.0843 70.0675 25.0493 24.6459 19.1446 7.23539 3.07877 2.20738
threshold=1.0000000180025095e-35 0.95129501819610607 -0.10575296729803084 1.0000000180025095e-35 -1.0096965432167051 0.073715597391128554 -0.81926330924034108 -0.80772989988327015 -0.86319091916084278 -0.42737978696823115 0.95697107911109935 0.96179947257041942 1.0000000180025095e-35 -0.047100069001317017 -1.161097466945648 -1.1974419951438902 -0.87631535530090321 -1.1159849166870115 -0.91818049550056446 1.1011847257614138 -0.95094814896583546 -0.98936226963996876 0.63504692912101757 -0.90592569112777699 -0.29739353060722346 -0.87970805168151844 -0.078939855098724351 0.96020117402076732 -1.1481882929801939 0.96326455473899852 1.0947631001472475 -0.51067271828651417 -0.87075895071029652 -0.54166793823242176 0.39215144515037542 1.1421710252761843 -0.091833591461181627 0.47454369068145758 -0.6408577263355254 1.1027696132659914 -1.9056389331817625 1.1540181636810305 -0.38018752634525294 1.0627350211143496 0.93207833170890819 1.1481973528862002 -0.61234128475189198 -1.2847372293472288 -0.83739617466926564 0.41365739703178411 -1.2104525566101072 1.0286579728126528 0.72384381294250499 1.0677431225776675 0.45671871304512029 1.2008722424507143 0.28411735594272619 -1.2267287969589231 0.87354069948196422 -0.41146372258663172 1.058303236961365 -1.1562805771827696
decision_type=2 2 2 2 2 2 2 2 2 2 2 2 2 2 2 2 2 2 2 2 2 2 2 2 2 2 2 2 2 2 2 2 2 2 2 2 2 2 2 2 2 2 2 2 2 2 2 2 2 2 2 2 2 2 2 2 2 2 2 2 2 2
left_child=2 14 3 6 5 22 19 25 29 35 24 12 -11 -13 43 30 18 -18 -17 21 -21 -1 -5 -7 -8 37 27 -27 41 -6 46 -28 54 34 -34 39 -35 38 -4 -9 -12 44 -32 51 61 -37 -16 -10 59 -39 53 52 -2 -45 58 -56 -50 -53 -30 -43 -46 -3
right_child=1 28 7 4 8 23 10 9 47 11 40 13 -14 -15 15 16 17 -19 -20 20 -22 -23 -24 -25 -26 26 31 -29 32 -31 42 -33 33 36 -36 45 -38 49 -40 -41 -42 48 -44 50 60 -47 -48 -49 56 -51 -52 57 -54 -55 55 -57 -58 -59 -60 -61 -62 -63
leaf_value=0.092132268823894775 -0.092577259108288373 -0.12581355826844212 0.20763960124823147 0.13564566940597331 -0.073427091617950371 0.20406497113179306 -0.04058948944013005 -0.07841136647480243 0.12811486156477875 0.073344429216542065 -0.0093266188070748237 -0.016450466238054916 -0.061104112385488109 0.054916589795285548 0.15417387262761872 -0.00037800969699340093 0.031495157076836158 -0.097623571796829664 0.075661120538881771 0.084496995578333733 -0.076071877760132162 0.047488570174523889 -0.038658142204859358 0.079064976807323648 0.04435244584104938 -0.037824350449988532 0.12338383137401397 0.058407027315289586 0.10822600149656135 0.046707829901175939 0.11029846028650461 -0.011296512545273817 0.084615631796313956 0.12479195247902475 -0.037866896343195705 0.185966493256849 -0.10936294540438268 0.034700420684841457 0.11468578104770089 0.097902432870655046 -0.10011156760540166 -0.17787950471549643 -0.096908755930792664 0.12186288892953163 0.1512958707520109 0.0069057862111562493 -0.16559033673967588 0.26888250307186717 0.12761141734875533 -0.18646266328220415 -0.1223872369449277 0.14255930316719839 0.13347219147196737 -0.11980524963898831 0.13741880266807227 -0.083990575645052024 -0.1197615347102623 0.11710717008736915 0.12608154592236021 -0.11705659336230059 0.10496888315491751 -0.20697680543142122
leaf_weight=2828.2835984043777 47.87709629535675 6.6285170260816795 217.68700381368399 142.84731521457434 2104.4899501986802 302.60235652327538 654.28576710633934 583.71413721702993 110.59303475171328 10856.760999523103 228.12725950777531 2727.7015503756702 622.6886790394783 5003.5854096934199 7.4181291908025733 1111.5326399467885 1242.7497057821602 704.07099978718907 4927.6824962943792 402.34234803915024 713.75196170806885 44291.274505263194 1240.9089443534613 1188.0139702856541 1850.7459541652352 467.68322329968214 2272.819935053587 3064.1596282124519 763.84212191402912 229.71546901389956 2272.4818789772689 146.00049398094416 2177.6657913923264 1812.0194835094735 307.32571790926158 37.345433969050646 28.98011844791472 23.73433256521821 1831.7173413522542 51.423957623541355 640.21369341760874 36.477362815290689 28.745029401034117 26.299118809401989 25.156876435503364 46.930320285260677 45.005969664081931 43.320541687309742 13.123434066772463 19.558423088863492 26.783416729420424 641.81253448873758 139.21977595984936 8.7395653389394266 37.807846367359161 22.980787090957165 5.9491228936240068 934.23971410095692 2807.7189887315035 42.166740846820176 33.379154544323683 6.7766149993985891
leaf_count=5851 150 57 230 389 9954 316 5897 3325 89 21432 1110 11726 2429 11449 5 3320 3298 7115 5299 855 3264 125320 6811 2912 6746 1328 2385 6313 364 831 1632 423 2137 1024 1293 48 680 359 1708 119 4568 171 349 26 10 144 214 31 3 94 312 184 56 105 11 62 160 507 883 696 32 33
internal_value=0 0.0802477 0.0469622 0.0411086 0.00169807 0.0442136 0.0452036 0.0588837 -0.0474175 0.0479011 -0.00316967 0.051437 0.0660514 0.0297373 0.0656253 0.0565179 0.0429275 -0.0152008 0.0616659 0.0485866 -0.0181882 0.0501682 -0.0206645 0.104441 0.0221666 0.0860968 0.0739512 0.0456642 0.102132 -0.0616043 0.102631 0.115254 0.104986 0.0914434 0.0694679 -0.0465187 0.121106 0.120633 0.124559 -0.0641361 -0.0762609 -0.0317634 0.10771 0.117225 0.0705207 0.0862536 -0.120343 0.167735 -0.107067 -0.0652147 -0.0181182 0.12197 0.0756273 0.0615845 0.121116 0.0537163 0.0504507 0.127472 0.122263 -0.145268 0.124879 -0.166844
internal_weight=0 20292.7 84945 56971.5 5362.49 2874.37 51609 27973.5 2488.12 19930.2 3373.37 19210.7 11479.4 7731.29 12164.7 10339.7 7986.04 1946.82 6039.22 48235.7 1116.09 47119.6 1383.76 1490.62 2505.03 8043.36 5950.66 3531.84 8128 2334.21 2353.65 2418.82 7958.34 4325.99 2484.99 719.414 1841 2092.7 2049.4 635.138 868.341 169.658 2301.23 1824.97 71.9412 84.2758 52.4241 153.914 97.7167 43.2928 61.8221 1763.15 187.097 35.0387 3632.35 60.7886 19.0726 1576.05 3571.56 78.6441 58.536 13.4051
internal_count=268644 30188 238456 174944 21333 10428 153611 63512 10905 50672 18321 47036 23861 23175 22572 21232 19032 10413 8619 135290 4119 131171 7200 3228 12643 12840 10449 7641 7616 10785 2200 2808 6454 5134 3430 3636 1704 2391 1938 3444 5678 1162 1981 1340 132 192 219 120 1030 453 443 897 206 131 1320 73 163 691 1247 867 42 90
is_linear=0
shrinkage=0.1


Tree=13
num_leaves=63
num_cat=0
split_feature=132 37 81 71 103 56 106 99 117 33 133 59 57 33 129 30 101 71 102 69 40 30 81 96 136 105 40 108 71 107 41 72 105 30 79 111 46 30 109 2 31 127 44 105 54 31 31 110 30 1 30 114 116 55 57 22 57 38 55 109 98 106
split_gain=1723.97 633.577 735.56 575.15 2099.21 1098.27 1206.63 861.968 808.595 767.411 1741.18 1386.39 605.979 551.236 451.74 431.639 422.398 415.386 628.021 343.526 332.847 306.469 354.982 426.297 303.715 298.549 602.746 293.487 295.541 283.797 279.302 273.375 264.35 262.563 259.237 360.704 343.017 233.878 233.706 226.518 135.097 133.511 132.168 130.906 126.776 109.783 99.6247 81.6441 78.4047 231.897 86.0875 62.2173 52.6582 52.2779 45.0125 188.524 42.2883 29.7514 27.6101 1.22028 0.951119 0.398482
threshold=1.0000000180025095e-35 0.94279947876930248 -1.1292622089385984 -0.47774815559387201 -0.84751674532890309 0.92359268665313732 -0.8971847891807555 -0.87970805168151844 -0.90169331431388844 0.89124825596809398 1.0000000180025095e-35 0.76779949665069591 0.83221977949142467 0.82420745491981517 1.0000000180025095e-35 1.1011847257614138 -0.88696780800819386 -0.50263702869415272 -0.84417021274566639 -0.106732040643692 0.97044551372528087 1.0647075772285464 -1.3482531905174253 -0.98834970593452443 1.0000000180025095e-35 -0.87419697642326344 1.054826617240906 -1.0661382079124448 -0.3085260391235351 -0.95658659934997547 1.0700732469558718 -0.69774955511093129 -0.9314109981060027 1.0923575162887575 -0.98516151309013356 -1.2595915198326109 1.0344367027282717 1.0674647092819216 -1.1481882929801939 0.54770800471305858 0.99454441666603099 -1.7856596708297727 1.1581507325172427 -0.96497729420661915 1.027176082134247 1.0046179294586184 0.99406453967094432 -1.2106558084487913 1.02925580739975 0.72384381294250499 1.0572103857994082 -1.4417141675949094 -1.5011833310127256 0.85629719495773327 0.87921997904777538 1.2713901400566103 0.93009930849075328 0.98486855626106273 1.018368184566498 -1.1562805771827696 -0.89453458786010731 -0.90640112757682789
decision_type=2 2 2 2 2 2 2 2 2 2 2 2 2 2 2 2 2 2 2 2 2 2 2 2 2 2 2 2 2 2 2 2 2 2 2 2 2 2 2 2 2 2 2 2 2 2 2 2 2 2 2 2 2 2 2 2 2 2 2 2 2 2
left_child=3 2 37 4 5 6 15 21 -8 12 11 -11 32 43 17 -1 33 46 -19 -12 45 22 23 -5 41 47 27 42 -29 38 -14 -18 -9 -7 36 -36 -15 48 -28 -24 -22 -23 -27 53 -26 -16 -6 56 49 -2 -50 -45 -31 -4 55 -49 59 -56 -58 -3 61 -39
right_child=1 25 13 7 14 16 8 9 -10 10 19 -13 30 34 20 -17 31 18 -20 -21 40 24 39 -25 44 26 29 28 -30 52 -32 -33 -34 -35 35 -37 -38 60 -40 -41 -42 -43 -44 51 -46 -47 -48 54 50 -51 -52 -53 -54 -55 57 -57 58 -59 -60 -61 -62 -63
leaf_value=0.056082922384040307 -0.05695276849330088 -0.13710501238599188 -0.0047463202140991985 0.098332357841762794 -0.053301413404930754 0.1151477217239399 -0.0074358690266825844 0.039069693568123967 0.057858611110392991 0.10471555858072064 -0.065070510880222865 0.038114285201417519 0.095537163248817239 -0.036260136087612645 0.1401258903045392 -0.010264478183750918 -0.08666293666095462 0.04557761183393888 -0.051157034919708716 0.0096119505219510008 0.071386393725467998 -0.043958550919906608 0.10664753189293928 0.030366328517252301 -0.12211094452522009 -0.13655432723326577 -0.030050838959279472 0.026363393721952011 -0.11363034964052293 0.068375744241999534 -0.012042536580595566 0.061898350327307949 -0.14278183450491153 -0.11235765633101663 0.095149519816266848 0.019953100105550695 0.10428474185709452 -0.10857171628140171 0.096129389164918227 0.19497427549791216 -0.099864875907759221 0.084593576393768799 0.09283625995167083 0.10418077752630528 0.1715159934583089 -0.047607588260247906 -0.10840999880114287 -0.27190445134564828 0.11987788095684578 0.11771276594345695 0.046552298985146845 -0.12379127845945198 -0.12920874619302533 0.27921634497329184 0.10304188806039075 0.11305430700888924 0.15907247079470918 0.12047743208868544 -0.044305467214527536 -0.19739841859980944 -0.16535743590791269 -0.13585661813389899
leaf_weight=14104.51059396565 111.33086989820004 11.13334686309099 14.828816905617716 2209.3885323721915 563.29432638175786 2662.7050963640213 8232.5541256852448 158.47333765029907 2464.3460694737732 3468.8318578414619 1743.7375027611852 31578.832073098049 4406.111848205328 205.65153092890978 294.98584680259228 1053.8199030980468 130.37019280344248 1011.6327843442559 1993.9758770354092 952.27850983291864 69.687985554337502 101.93453796207905 2019.7257971912622 1584.8039409145713 159.95016162097454 27.145266830921173 150.87973681185395 328.40827768296003 278.83780143037438 16.76539403013885 255.31507294625044 2482.2804674729705 161.29746497422457 51.713553130626678 762.58204646222293 3901.785928751342 1116.1120992824435 38.392041105777025 5411.3723082067445 339.09375835955143 135.8985712043941 389.48075360059738 336.24127636104822 12.52782343700528 16.192937538027763 34.827001303434372 785.46829405426979 15.739135958254336 1844.0012888759375 239.59970106184483 175.33851037174463 269.57815347146243 69.007890149950981 11.519887469708918 1554.8529659286141 66.350889548659325 12.48902712762356 2640.9926158562303 14.339086066931484 4.8057115375995627 3.6668093986809245 6.2197360657155505
leaf_count=33154 294 71 48 4697 4574 3554 34980 353 7218 5956 6337 84937 7718 663 317 3886 577 3440 11010 2575 126 319 3360 3966 811 96 1211 532 1228 117 782 5898 695 206 746 9143 834 547 6003 299 589 736 339 15 26 108 5252 70 897 161 350 3696 1105 6 947 30 3 895 46 20 18 57
internal_value=0 0.0747362 0.0546175 0.0418944 0.0322888 0.0418416 0.033323 0.0488879 0.00760664 0.0436178 0.0387491 0.0447061 0.0805095 0.0366074 -0.0286301 0.0514704 0.0831874 -0.0392881 -0.0185979 -0.0386914 0.0580509 0.0819 0.0888821 0.0699435 0.0175451 0.0907606 0.077413 0.00461771 -0.0379195 0.0899231 0.0896448 0.0544852 -0.0526591 0.110813 0.0433249 0.032247 0.0824175 0.101491 0.0927067 0.119345 -0.0418156 0.0579279 0.0757006 -0.093758 -0.0951176 0.120302 -0.0853946 0.111207 0.105929 0.062301 0.113511 -0.113667 -0.0905885 0.119405 0.112582 0.0392461 -0.0262752 0.114016 0.0503711 -0.155284 -0.1164 -0.112376
internal_weight=0 19652.5 8713.14 85617.5 36072.1 31182.3 25855.2 49545.4 10696.9 42724.9 37743.7 35047.7 4981.2 6294.59 4889.77 15158.3 5327.07 4354.37 3005.61 2696.02 535.399 6820.57 6153.01 3794.19 667.558 10939.4 6618.66 970.633 607.246 5648.03 4661.43 2612.65 319.771 2714.42 5986.13 4664.37 1321.76 2418.55 5562.25 2358.82 205.587 491.415 363.387 308.455 176.143 329.813 1348.76 4320.7 2370.27 350.931 2019.34 282.106 85.7733 26.3487 4277.94 82.09 42.7672 4195.85 26.8281 15.9391 48.2786 44.6118
internal_count=268644 30188 17475 238456 114889 89473 79238 123567 42198 109353 99805 90893 9548 15151 25416 37040 10235 24276 14450 8912 1140 14214 12322 8663 1892 12713 10631 2195 1760 8436 8500 6475 1048 3760 11386 9889 1497 2324 7214 3659 715 1055 435 3765 837 425 9826 2082 1702 455 1247 3711 1222 54 1942 100 140 1842 49 91 622 604
is_linear=0
shrinkage=0.1


Tree=14
num_leaves=63
num_cat=0
split_feature=132 37 78 69 63 136 104 95 30 54 69 102 69 33 82 101 88 69 69 107 133 34 97 40 126 108 30 105 40 107 108 88 79 57 103 68 3 40 109 71 57 83 50 30 0 46 63 56 39 110 29 38 105 12 65 56 47 59 109 109 104 106
split_gain=1604.91 579.697 665.07 526.345 984.226 907.606 827.236 807.707 760.557 657.139 651.428 687.31 942.962 640.048 634.444 605.345 590.827 568.954 526.804 460.477 625.202 472.57 402.962 337.749 365.07 481.988 318.468 290.858 528.132 290.101 286.403 375.762 269.459 263.186 247.155 582.032 227.092 219.193 194.734 182.969 175.994 175.42 153.119 141.624 234.541 133.437 121.281 89.2886 82.6674 70.9853 46.2952 45.3216 72.8353 41.5767 39.5072 35.2106 24.1674 14.4559 4.13099 1.95229 0.453489 0.117462
threshold=1.0000000180025095e-35 0.94239959120750438 -1.0410808920860288 -0.12526527792215345 0.50079897046089183 1.0000000180025095e-35 -0.82618397474288929 -1.0376605391502378 1.0452421307563784 0.95874258875846874 -0.10575296729803084 -0.78436732292175282 -0.015487956814467905 0.91923025250434887 -0.7763269543647765 -0.83496522903442372 -0.8295975625514983 -0.065038345754146562 -0.15042313188314435 -1.0018998384475706 1.0000000180025095e-35 0.86289125680923473 -0.94890826940536488 0.95347124338150036 -2.1987617015838619 -1.0564689040184019 1.0674647092819216 -0.87419697642326344 1.054826617240906 -0.90707889199256886 -1.0564689040184019 -0.59203654527664173 -1.3111492395400999 0.88276797533035289 -0.66983893513679493 0.15142275393009189 0.47142739593982702 0.99702793359756481 -1.1098965406417844 -0.46389719843864435 0.89650219678878795 -0.82120981812477101 1.1571425795555117 1.0246045589447024 0.70620718598365795 1.0359937548637392 0.49045488238334661 0.95839840173721325 0.89846923947334301 -1.2106558084487913 1.0932502746582033 0.98486855626106273 -0.88552349805831898 0.97797283530235302 0.42771904170513159 0.95313671231269848 1.2022695541381838 0.67684754729270946 -1.0539808869361875 -1.1562805771827696 -0.90318253636360157 -0.90567052364349354
decision_type=2 2 2 2 2 2 2 2 2 2 2 2 2 2 2 2 2 2 2 2 2 2 2 2 2 2 2 2 2 2 2 2 2 2 2 2 2 2 2 2 2 2 2 2 2 2 2 2 2 2 2 2 2 2 2 2 2 2 2 2 2 2
left_child=3 2 26 5 8 6 19 9 33 29 14 17 -13 18 15 -6 22 -12 -8 21 -21 -1 -9 39 25 -25 43 49 30 -7 42 -32 -11 57 35 -30 47 -38 -36 45 -16 -26 -29 44 -2 -4 -15 -10 -45 54 -35 52 -51 -18 56 -53 -3 -5 -41 -56 61 -28
right_child=1 27 23 4 10 7 13 16 36 32 11 12 -14 46 40 -17 53 -19 -20 20 -22 -23 -24 24 41 -27 60 28 34 -31 31 -33 -34 50 38 -37 37 -39 -40 58 -42 -43 -44 48 -46 -47 -48 -49 -50 51 -52 55 -54 -55 59 -57 -58 -59 -60 -61 -62 -63
leaf_value=0.092835275060615327 -0.088931082396097816 -0.0359539097684385 -0.074316487791572391 -0.1068263414703345 0.045447737126004695 0.16992207424300965 -0.050860315977215409 -0.019590911592014194 -0.16630651481000319 0.077131180267814278 0.05031303855158617 0.0088759844827512955 0.06651142213885923 -0.043572387037756233 -0.038677985162007558 -0.03143225105405343 0.10004158635858509 0.093561934502823241 0.060185641235655812 0.040819197991924516 0.0079505336087704395 0.017148753761222196 -0.097405550646995145 0.050032166492538367 0.092688529967071942 -0.025232854037819837 -0.10908755643726456 -0.11910458704208822 0.08838502175061666 -0.10727000800958127 0.032480211097568532 -0.1543484379563447 0.23221563502344844 0.14561256234792327 0.11312551884318374 -0.014830700682143634 0.095819760145244154 0.1550739526600898 -0.12045742482069249 -0.18796881000637586 0.14209783439847909 -0.12385651974583936 0.067410022439255632 0.083569322574082283 0.099539251758885824 0.027233427794006934 -0.11135008595444232 0.23124522693779173 0.11890880552743228 0.10716249399141523 -0.050966777724848381 0.047662220610724532 0.059580261614834817 0.20435142626684991 -0.12643723270941851 0.11766328585352857 0.15363175082697975 -0.18038476884099547 -0.24162051297673337 -0.20139968811040629 -0.13020958684631417 -0.133180235613549
leaf_weight=2816.2465311810374 109.72028933465481 15.71948476880789 264.06978406012058 36.261721255257726 1610.1000911705196 43.942205429077148 680.98894554935396 1491.0428400225937 37.440484322607517 710.52660945057869 11531.339239880443 7719.2895817309618 4489.7031379789114 506.06935765594244 61.976306900382042 2814.4335478451103 85.355566956102848 4131.6343062184751 1146.3896552957594 32679.00601625815 7032.3793327212334 1166.7128364518285 1201.9505234435201 2265.4573805611581 1149.0766560658813 1362.5994051573798 61.566925801336765 48.082728572189808 2556.8143457360566 268.19718971475959 226.25395994633436 205.36874475516379 133.00835390388966 42.860420450568199 2224.8938087048009 694.79052931629121 1381.4380085803568 1139.0430905483663 36.272879510186613 33.163433939218521 410.91679400205612 38.668528404086828 520.33629807271063 1441.541915435344 165.81351681053638 253.71667827665806 551.95520375669003 6.6534355133771887 1223.9515523612499 1165.4695473238826 16.627790957689285 74.067266076803207 444.35455004870892 69.184325933456421 7.4324372783303243 2407.1228288523853 11.749682426452635 101.49514581263065 25.299147963523865 6.5235963091254234 13.256907083094118 2.0923790261149398
leaf_count=4142 328 53 996 1053 3997 34 6169 6332 163 1773 25431 23187 7159 2725 158 11662 88 6613 3851 94185 19578 2723 6643 3460 914 7384 859 169 2254 2368 341 1136 250 27 1652 3607 2300 1132 1040 137 390 160 651 1475 139 561 3820 4 566 611 49 76 462 27 57 828 2 423 105 28 115 22
internal_value=0 0.0695226 0.0498992 0.0374506 0.0467788 0.0308982 0.0348251 -0.0147939 0.104108 0.0557143 0.041947 0.0478572 0.0300707 -0.017034 0.00831144 -0.00345541 -0.0434097 0.0617214 0.0188034 0.0382497 0.0349986 0.0706647 -0.0543215 0.0288608 0.0375182 0.0217647 0.0874879 0.0850255 0.0718587 -0.0682476 0.00499923 -0.056414 0.101585 -0.0851141 0.0839873 0.0663303 0.118662 0.122598 0.109378 -0.043491 0.118406 0.0856386 0.0516327 0.0927413 0.0244885 -0.0245568 -0.078931 -0.106319 0.0997966 0.105777 0.0906659 0.107096 0.0940285 0.146739 -0.0244692 0.115574 0.0451396 -0.161022 -0.211186 -0.161478 -0.113383 -0.109879
internal_weight=0 19055.2 8409.99 86114.2 35531.2 50583 46579.7 4003.21 2761.82 1155.67 32769.4 27872 12209 2885.4 4897.43 4424.53 2847.53 15663 1827.38 43694.3 39711.4 3982.96 2692.99 5392.05 4815.8 3628.06 3017.94 10645.3 6512.81 312.139 1000.04 431.623 843.535 197.245 5512.77 3251.6 2564.58 2520.48 2261.17 576.249 472.893 1187.75 568.419 2941.03 275.534 517.786 1058.02 44.0939 2665.49 4132.44 59.4882 4091.01 1609.82 154.54 41.4252 2481.19 27.4692 137.757 58.4626 13.956 76.9162 63.6593
internal_count=268644 30188 17221 238456 83748 154708 137193 17515 5151 4425 78597 62390 30346 16565 16207 15659 13090 32044 10020 120628 113763 6865 12975 13717 11918 10844 3504 12967 10850 2402 2297 1477 2023 1552 8553 5861 3599 3432 2692 1799 548 1074 820 2508 467 1557 6545 167 2041 2117 76 1977 1073 115 140 904 55 1476 242 85 996 881
is_linear=0
shrinkage=0.1


Tree=15
num_leaves=61
num_cat=0
split_feature=132 38 77 55 134 61 70 95 72 102 4 135 99 68 80 131 77 107 55 54 105 106 33 70 57 101 35 70 101 93 51 82 7 101 105 69 46 70 113 101 30 116 79 44 105 35 35 70 108 34 126 31 40 33 126 70 117 80 71 43
split_gain=1488.91 545.86 630.771 493.983 967.064 695.958 588.09 491.386 639.06 1391.54 977.28 913.351 1257.52 666.367 620.323 532.153 787.871 487.433 431.2 417.924 369.393 345.823 336.261 326.331 314.57 306.419 302.814 289.941 474.724 268.441 260.109 259.516 247.518 238.113 546.919 505.204 223.804 213.271 197.435 186.405 182.351 180.24 169.228 135.557 121.65 115.974 93.7265 145.02 89.616 81.9622 76.5364 72.6113 52.7535 42.0626 39.5925 37.4486 58.9377 12.4174 3.19777 1.94393
threshold=1.0000000180025095e-35 0.97844398021698009 -0.85052752494812001 1.029825031757355 1.0000000180025095e-35 0.72650435566902172 -0.20498786121606824 -1.0495724678039549 -0.6400141417980193 -0.84417021274566639 0.58100625872612011 1.0000000180025095e-35 -0.86191755533218373 0.034722920507192619 -1.0711768865585325 1.0000000180025095e-35 -1.2625895738601682 -0.98371151089668263 0.77205523848533641 0.98879340291023265 -0.91067972779273976 -0.83385351300239552 0.8925662934780122 -0.11921801045536994 0.95462736487388622 -0.940923511981964 0.9392606019973756 -0.11921801045536994 -0.5411713421344756 -1.1259587407112119 1.0950661897659304 -1.1977911591529844 0.18762864172458651 -0.58262246847152699 -0.85918590426444996 -0.023385049775242802 1.0344367027282717 -0.18576658517122266 -1.3677818179130552 -0.77356395125389088 1.0050764679908755 -1.5011833310127256 -0.80975127220153797 1.1912263631820681 -0.83926337957382191 0.89530506730079662 0.91617307066917431 -0.22982270270586011 -1.0254556536674497 0.83720326423645031 -2.9874893426895137 0.98500362038612377 1.0245971679687502 0.85351073741912853 -1.3555714488029478 -0.15005348622798917 -1.5234232544898985 -0.4122196733951568 -0.42737978696823115 0.74941998720169078
decision_type=2 2 2 2 2 2 2 2 2 2 2 2 2 2 2 2 2 2 2 2 2 2 2 2 2 2 2 2 2 2 2 2 2 2 2 2 2 2 2 2 2 2 2 2 2 2 2 2 2 2 2 2 2 2 2 2 2 2 2 2
left_child=3 2 20 7 5 21 26 15 9 10 -9 12 -10 -11 -13 18 25 30 59 -18 31 22 -5 46 -8 -17 -7 33 32 -20 42 54 45 34 43 -36 -33 -32 49 -23 48 50 -4 -3 -34 -29 58 -48 -22 -19 -30 -42 -40 -43 -2 57 -57 -35 -6 -1
right_child=1 27 17 4 23 6 24 8 11 13 -12 14 -14 -15 -16 16 19 38 29 -21 40 39 -24 -25 -26 -27 -28 28 41 -31 37 36 44 55 35 -37 -38 -39 52 -41 51 53 -44 -45 -46 -47 47 -49 -50 -51 -52 -53 -54 -55 -56 56 -58 -59 -60 -61
leaf_value=-0.10582399339504411 0.015316197321193374 0.09675024345918086 0.031661676634463419 0.11297647007262315 -0.12192793205544267 -0.0026158961898432895 -0.0080019224220943107 0.060664964651167136 0.062535232743622812 -0.047692331027236204 0.014345123486580133 -0.092730436958988499 0.020857239097530813 0.13448483721923635 0.10775701762345316 0.060320179546983446 0.021444284061894102 -0.18783690177761331 0.099768066157872953 0.14091279508576324 0.080374663633978299 0.13711795775902541 0.039621199646380577 0.15004948898606488 0.062488340184048509 -0.05700367109336664 -0.14692902918793443 -0.03182336268257601 -0.086242297690922329 0.047377520660922275 0.056233818389653925 -0.024674782876637599 0.125938987657395 0.15766387273404339 0.096313027449730443 -0.021327806858201587 0.059097463369023197 -0.008740942335514406 -0.18318335077468212 -0.057493154966435145 0.093823492720787494 -0.13688405967257544 -0.088270877527610647 -0.082763491003620016 -0.14599293129225355 -0.14545295209761824 -0.13744677453119294 0.025550648024217783 -0.19295360734070388 0.076766044364543623 0.10973055943144119 -0.024063709848163362 -0.094579694300730502 0.11818365268447986 0.11956564963992689 0.11578440733070948 0.0055556095439831862 0.11349373847984201 -0.14291339870336081 -0.15000836404677831
leaf_weight=109.77267157658935 41.254767585545778 4840.3627628851682 200.64840736240149 1065.9848233349621 121.54568913951516 1081.5910988897085 723.85459037125111 5995.761629126966 9975.1750036180019 3790.3312555197626 18955.071072231978 165.17278990149498 26395.616794444621 212.01334978640079 2350.3990201689303 280.67781908810139 605.77077526599169 13.519301463849841 2847.2812815234065 566.7779695391655 18.582548558712006 1441.1782697401941 1510.2478995285928 58.884775295853615 5048.3580876365304 1075.9858099017292 167.9818430095911 364.58689220622182 20.513042175211012 1489.7057119905949 2113.4786089509726 754.72676983475685 124.12348108552396 284.27390910685062 614.24005326628685 899.82007379829884 552.27144308388233 663.85511521622539 90.691162082366645 50.95821925252676 3238.4648811407387 40.307478510774672 284.42772753536701 42.434427171945572 18.964456521905959 119.18412649072707 100.20440104603767 119.89344936609268 33.839797914028168 87.299152644351125 699.44329809118062 53.104889970272779 259.38679731963202 7.7003805115818968 311.53982505574822 1511.8872253596783 50.114744480699301 82.006662517786026 180.36095941066742 10.950662083923815
leaf_count=2960 88 2936 377 1731 961 2941 1708 12725 19359 21522 63437 663 74502 524 3091 1066 1261 101 4278 423 15 1483 3905 19 8033 4638 839 3228 326 4312 2810 2666 105 69 492 2129 872 1583 423 216 2253 1283 920 106 155 1153 564 358 156 151 480 130 4229 3 196 559 165 29 881 56
internal_value=0 0.064829 0.0466595 0.0335289 0.0526638 0.0592518 0.0401836 0.0305443 0.0279436 0.0166955 0.0254759 0.0363185 0.032288 -0.038042 0.094593 0.0557955 0.0191569 0.0154334 0.0765835 0.0791921 0.0698325 0.0921624 0.0699739 -0.0731113 0.0536486 -0.0327307 -0.0220161 0.0811237 0.038929 0.0817725 0.0289027 0.0312668 -0.0256433 0.0881932 0.0789079 0.026398 0.0107231 0.0407032 -0.0820225 0.130472 0.0889746 0.0916369 -0.0386616 0.0951902 0.0898979 -0.0598177 -0.098285 -0.0486575 -0.0960649 0.041284 0.104147 0.0919215 -0.117533 -0.0959716 0.107375 0.118996 0.112248 0.147775 -0.134465 -0.109832
internal_weight=0 18437.1 8717.09 86497.5 11671 11090.2 7021.79 74826.5 67839.5 28953.2 24950.8 38886.4 36370.8 4002.34 2515.57 6986.92 2529.21 3713.31 4457.71 1172.55 5003.78 4068.37 2576.23 580.889 5772.21 1356.66 1249.57 9719.96 1394.82 4336.99 3262.41 1659.79 626.859 8325.14 6396.86 1514.06 1307 2777.33 450.896 1492.14 3343.99 767.964 485.076 4882.8 143.088 483.771 522.004 220.098 52.4223 100.818 719.956 3291.57 350.078 48.0079 352.795 1928.28 1562 366.281 301.907 120.723
internal_count=268644 30188 16970 238456 23639 20856 13521 214817 195823 98208 76162 97615 93861 22046 3754 18994 7388 10594 11606 1684 6376 7335 5636 2783 9741 5704 3780 13218 6733 8590 5690 3822 4641 6485 5663 2621 3538 4393 4904 1699 2554 2092 1297 3042 260 4381 2764 922 171 252 806 2383 4652 1286 284 822 724 98 1842 3016
is_linear=0
shrinkage=0.1


Tree=16
num_leaves=62
num_cat=0
split_feature=132 37 83 99 55 69 103 111 135 77 96 125 3 82 110 124 104 54 69 112 55 105 109 53 82 70 107 48 57 105 101 7 36 69 106 97 117 73 28 70 114 49 43 22 100 58 31 31 107 80 65 46 30 30 1 56 68 80 40 73 113
split_gain=1371.68 519.293 420.645 563.488 1050.95 913.235 742.27 581.413 511.986 480.089 453.744 744.04 548.248 399.483 509.107 1215.9 418.574 360.105 327.723 271.645 268.916 359.154 236.96 236.291 227.428 213.546 173.867 239.512 189.72 160.65 232.997 275.063 158.846 224.854 152.969 146.739 156.111 123.208 119.444 119.065 85.6393 79.8122 79.5338 62.3109 57.9036 55.637 45.4715 88.8152 44.8003 38.8183 32.9226 74.5315 22.4667 21.6799 117.213 19.7472 19.4456 13.274 12.7227 4.99552 1.47248
threshold=1.0000000180025095e-35 0.95259451866149913 -0.79948881268501271 -0.80069231986999501 1.0195930004119875 0.010201864875853063 -0.7491028606891631 -0.95479282736778248 1.0000000180025095e-35 -1.2217746973037718 -1.0147316455841062 -1.3242892622947691 0.58690604567527782 -1.1977911591529844 -1.1906770467758176 -2.187349677085876 -0.90551578998565663 1.0480450987815859 -0.045263828709721558 -1.25778591632843 0.93372508883476268 -0.93792289495468129 -1.1481882929801939 1.0864987373352053 -0.50996378064155568 -0.16555774211883542 -0.9654368758201598 1.1658341288566592 0.90232339501380932 -0.87015673518180836 -0.58262246847152699 0.16989909112453463 0.98082861304283153 0.049777759239077575 -0.82978308200836171 -0.61674422025680531 -1.4657577872276304 -0.38018752634525294 1.2050623297691347 -0.091833591461181627 -1.3029739856719968 0.96353521943092357 1.1540181636810305 0.93167820572853099 -0.68326935172080983 0.88765493035316478 0.977453112602234 0.98381963372230541 -1.0031342506408689 -0.59598854184150685 0.45671871304512029 1.2008722424507143 1.0572103857994082 1.0237805247306826 0.72384381294250499 0.95313671231269848 0.15538654476404193 -1.2194788455963133 0.93839809298515331 -0.41978503763675684 -1.3677818179130552
decision_type=2 2 2 2 2 2 2 2 2 2 2 2 2 2 2 2 2 2 2 2 2 2 2 2 2 2 2 2 2 2 2 2 2 2 2 2 2 2 2 2 2 2 2 2 2 2 2 2 2 2 2 2 2 2 2 2 2 2 2 2 2
left_child=2 13 3 4 10 6 8 18 -5 -9 12 -12 -1 46 17 23 -17 24 -6 35 21 40 42 -16 -15 -8 28 -28 -22 50 31 -31 34 -34 -7 41 43 -19 -23 -32 -21 -4 45 -37 -43 60 53 58 59 -38 55 -52 -49 54 -2 -24 -50 -55 -48 -44 -3
right_child=1 22 19 5 7 32 25 9 -10 -11 11 -13 -14 14 15 16 -18 37 -20 20 26 38 29 -25 -26 -27 27 -29 -30 30 39 -33 33 -35 -36 36 49 -39 -40 -41 -42 44 48 -45 -46 -47 47 52 56 -51 51 -53 -54 57 -56 -57 -58 -59 -60 -61 -62
leaf_value=0.10735972406085659 -0.16147668769313236 -0.12805855490073317 0.11260061858126823 -0.0059685629812129513 0.003945267645704892 -0.076690254277737513 -0.13828595297828158 0.057196079727454642 0.074609448246583762 0.11198424478940035 0.02788908144146833 -0.0077932944933660694 0.03741518536098358 0.050746299684749085 -0.17526070089175994 -0.023474486260611653 0.054605525535977084 0.090111389645436038 0.10549992193633372 0.19391363623123847 0.058349067777191094 -0.13773925562486405 0.074118861547867745 -0.048226030665990377 -0.13745757188250235 -0.039443753514676799 -0.10622098468438015 0.053811608279825666 0.10365181862084927 -0.053050198739920597 0.10926863863288841 0.063897293594117596 -0.11071673664655542 0.11500439287554297 0.092364192489743202 0.17620966657638043 0.009374605785280125 -0.10227638000804906 0.0076495089407402966 -0.1111039419867129 0.04594454073252334 -0.16035253402497524 -0.18025351726785091 -0.15673914712842432 0.14997963939613976 0.10486200772999354 0.0017015065910391807 -0.50288848517700557 0.12002611877583674 0.11904026224851011 0.12003925867670828 -0.11475843175204632 -0.16487893823878902 0.12512277771934516 0.1130439577894147 0.10855496717596756 -0.10939321659508233 0.10130209702500018 0.1209387721558885 -0.1232600407179324 -0.20663281264617367
leaf_weight=1325.7863498330116 18.586191922426224 6.0302619114518148 13.742114737629889 6830.0076319761574 1971.3686289936304 55.652854830026627 482.37545820884407 4206.8481105715036 891.46454747393727 2580.3818614892662 47067.199483161792 6672.0941211860627 7242.6386634297669 139.64869111776352 173.08149342285469 782.63146370276809 5594.4630896113813 2684.5586588811129 378.83019989728928 62.564068958163261 1966.6787169724703 164.83410071581602 178.35625707358122 950.56872679200023 118.85435875039548 399.68968330323696 118.73962515965104 440.34231078997254 1744.2846703082323 226.1906365044415 1279.3978767376393 1814.3743133563548 102.64482183754444 77.418118387460709 1399.3932111561298 6.3482351303100577 50.362305402755737 33.705543177202344 85.983452133834362 24.996158214751631 104.35422037541866 105.84417462348938 23.706480614840984 49.062936633825302 6.3745584338903418 39.963186280801892 14.282292347401379 2.8542800992727262 10.74102306365967 89.883287653326988 35.06530699133873 22.001983307301998 6.3218278288841248 521.12231609597802 95.317979991436005 2510.2860878407955 5.631620353087782 424.4879532828927 23.962043285369873 43.781369443051517 3.9454527795314789
leaf_count=1657 82 51 10 22702 5677 183 2209 6909 1662 3409 133181 24337 22557 202 946 2883 6915 2507 539 34 3333 1839 134 8125 500 1041 716 1007 2278 1021 897 2017 449 79 1258 1 116 529 238 593 217 510 109 228 2 32 44 18 3 78 12 65 71 178 46 1020 169 292 7 702 18
internal_value=0 0.0605621 0.0300918 0.0283668 0.031511 0.00642664 -0.00659318 0.063182 0.00333438 0.0780255 0.0268664 0.0234589 0.0482377 0.0480451 0.0420092 0.0281226 0.0450231 0.0770001 0.0203149 0.0582199 0.0643194 -0.0122562 0.0838577 -0.0677938 -0.035786 -0.0934976 0.0718107 0.0198234 0.079643 0.0867496 0.0720353 0.050934 0.0749337 -0.0136679 0.0858982 -0.0306841 0.0235126 0.0877258 -0.0878981 0.105046 0.101406 -0.114869 -0.0477834 -0.118595 -0.142724 0.0521264 0.105177 0.00937403 -0.10728 0.0796592 0.104675 0.0295143 -0.270019 0.109465 0.0682493 0.106271 0.0411138 0.11443 0.0764098 -0.14328 -0.159135
internal_weight=0 17808.9 86693.2 81683.8 71445.1 10238.6 8603.54 9137.43 7721.47 6787.23 62307.7 53739.3 8568.43 11584.4 10477.5 7500.74 6377.09 2976.77 2350.2 5009.4 4687.78 417.736 6224.47 1123.65 258.503 882.065 4270.05 559.082 3710.96 6090.67 3344.96 2040.56 1635.11 180.063 1455.05 321.618 195.657 2718.26 250.818 1304.39 166.918 125.961 133.799 55.4112 112.219 49.9389 1106.93 47.4204 83.8605 140.246 2745.71 57.0673 9.17611 1059.51 113.904 2688.64 16.3726 945.61 38.2443 67.4879 9.97571
internal_count=268644 30188 238456 227849 198266 29583 27614 16534 24364 10318 181732 157518 24214 23345 22607 18869 9798 3738 6216 10607 9662 2328 6843 9071 702 3250 7334 1723 5611 5759 4528 3038 1969 528 1441 945 423 3036 2077 1490 251 522 1084 229 512 101 738 140 983 194 1231 77 89 598 128 1154 172 470 51 811 69
is_linear=0
shrinkage=0.1


Tree=17
num_leaves=61
num_cat=0
split_feature=132 37 81 55 134 39 61 70 106 133 79 35 33 56 47 79 31 55 111 70 105 40 135 31 133 55 69 128 70 103 66 106 30 109 105 100 118 63 58 77 81 35 70 52 70 30 26 58 25 52 68 31 4 74 38 20 33 108 74 71
split_gain=1248.65 487.402 533.198 373.995 660.048 460.994 440.601 577.803 415.681 745.333 849.649 604.816 471.235 387.367 359.42 325.431 314.51 283.969 273.555 267.624 264.144 423.309 257.207 243.125 240.776 238.019 220.375 281.778 219.897 214.071 453.081 187.77 170.806 147.194 129.018 119.481 116.52 112.076 110.592 101.976 96.2875 79.3374 109.838 76.2641 70.325 69.2324 186.864 59.0967 227.95 48.0166 46.3508 42.2229 32.6402 53.9045 33.2626 22.1759 5.50823 5.40475 5.18732 1.9682
threshold=1.0000000180025095e-35 0.94279947876930248 -1.1292622089385984 1.0322872996330263 1.0000000180025095e-35 1.0323857665061953 0.73726597428321849 -0.18816127628087995 -0.96979755163192738 1.0000000180025095e-35 -0.96509763598442067 0.86528998613357555 0.89059326052665722 1.0018966794013979 1.0407864451408388 -0.95861396193504322 0.95846393704414379 0.90293708443641674 -1.2595915198326109 -0.11921801045536994 -0.87698552012443531 1.054826617240906 1.0000000180025095e-35 1.0086455941200259 1.0000000180025095e-35 1.0488990545272829 -0.0034996303729712959 1.0000000180025095e-35 -0.20095743238925931 -0.66983893513679493 0.40291465818881994 -0.92681181430816639 1.0572103857994082 -1.1098965406417844 -0.96497729420661915 -0.74301576614379872 -1.4580262303352354 0.59146383404731762 0.89652791619300853 -1.0296979546546934 -1.2104525566101072 0.91617307066917431 -0.22982270270586011 0.96547311544418346 -0.15005348622798917 1.02925580739975 1.5483691096305849 0.83768939971923839 1.2407535910606386 0.96854189038276683 0.055566800758242614 0.97436869144439708 0.16917141526937488 -0.51422032713890065 0.98486855626106273 1.4319136738777163 0.88926371932029735 -0.88000506162643422 -0.7442587912082671 -0.42552730441093439
decision_type=2 2 2 2 2 2 2 2 2 2 2 2 2 2 2 2 2 2 2 2 2 2 2 2 2 2 2 2 2 2 2 2 2 2 2 2 2 2 2 2 2 2 2 2 2 2 2 2 2 2 2 2 2 2 2 2 2 2 2 2
left_child=3 2 32 5 6 8 22 25 12 10 -10 -11 17 -9 34 16 -16 -1 -17 41 47 28 23 -5 -14 -8 37 57 50 30 -23 -30 45 -31 49 -29 -24 38 -7 -36 51 59 -43 -42 -39 46 -2 48 56 -4 -22 -34 53 -49 -54 -47 -3 -28 -50 -6
right_child=1 20 14 4 19 26 7 13 9 11 -12 -13 24 -15 15 18 -18 -19 -20 -21 21 29 36 -25 -26 -27 27 35 31 33 -32 -33 40 -35 39 -37 -38 44 -40 -41 43 42 -44 -45 -46 55 -48 52 58 -51 -52 -53 54 -55 -56 -57 -58 -59 -60 -61
