tree
version=v4
num_class=1
num_tree_per_iteration=1
label_index=0
max_feature_idx=136
objective=binary sigmoid:1
feature_names=Column_0 Column_1 Column_2 Column_3 Column_4 Column_5 Column_6 Column_7 Column_8 Column_9 Column_10 Column_11 Column_12 Column_13 Column_14 Column_15 Column_16 Column_17 Column_18 Column_19 Column_20 Column_21 Column_22 Column_23 Column_24 Column_25 Column_26 Column_27 Column_28 Column_29 Column_30 Column_31 Column_32 Column_33 Column_34 Column_35 Column_36 Column_37 Column_38 Column_39 Column_40 Column_41 Column_42 Column_43 Column_44 Column_45 Column_46 Column_47 Column_48 Column_49 Column_50 Column_51 Column_52 Column_53 Column_54 Column_55 Column_56 Column_57 Column_58 Column_59 Column_60 Column_61 Column_62 Column_63 Column_64 Column_65 Column_66 Column_67 Column_68 Column_69 Column_70 Column_71 Column_72 Column_73 Column_74 Column_75 Column_76 Column_77 Column_78 Column_79 Column_80 Column_81 Column_82 Column_83 Column_84 Column_85 Column_86 Column_87 Column_88 Column_89 Column_90 Column_91 Column_92 Column_93 Column_94 Column_95 Column_96 Column_97 Column_98 Column_99 Column_100 Column_101 Column_102 Column_103 Column_104 Column_105 Column_106 Column_107 Column_108 Column_109 Column_110 Column_111 Column_112 Column_113 Column_114 Column_115 Column_116 Column_117 Column_118 Column_119 Column_120 Column_121 Column_122 Column_123 Column_124 Column_125 Column_126 Column_127 Column_128 Column_129 Column_130 Column_131 Column_132 Column_133 Column_134 Column_135 Column_136
feature_infos=[-1.8014661073684692:2.1475074291229248] [-1.7160434722900391:2.0597634315490723] [-1.6382262706756592:1.9801409244537354] [-1.5680137872695923:1.9086390733718872] [-1.5054070949554443:1.8452587127685547] [-1.4504051208496094:1.7899996042251587] [-1.4123568534851074:1.7937201261520386] [-1.3844102621078491:1.9274762868881226] [-1.3517893552780151:2.0758624076843262] [-1.3099035024642944:2.0974209308624268] [-1.2559221982955933:2.0165181159973145] [-1.1870334148406982:2.064321756362915] [-1.1039742231369019:2.1106562614440918] [-1.0067610740661621:2.1771299839019775] [-0.90047705173492432:2.2825961112976074] [-0.78966546058654785:2.3805651664733887] [-0.67814630270004272:2.4481546878814697] [-0.65620064735412598:2.4998569488525391] [-0.66012513637542725:2.5653238296508789] [-0.66667592525482178:2.5221147537231445] [-0.66619455814361572:2.4413206577301025] [-0.67410272359848022:2.3840618133544922] [-0.67701548337936401:2.2409591674804688] [-0.7797551155090332:2.1797337532043457] [-1.0841877460479736:2.1696581840515137] [-1.4308524131774902:2.0883691310882568] [-1.6366665363311768:1.9448176622390747] [-1.8254417181015015:1.7314887046813965] [-1.8748650550842285:1.5598906278610229] [-2.1668190956115723:1.3473584651947021] [-2.5042393207550049:1.1459542512893677] [-2.6850478649139404:1.0691677331924438] [-2.8964071273803711:1.0182701349258423] [-2.6209216117858887:1.0153312683105469] [-1.9672813415527344:1.0222163200378418] [-1.2877312898635864:1.0559519529342651] [-0.6631239652633667:1.2162210941314697] [-0.6696123480796814:1.328394889831543] [-0.6713901162147522:1.4686216115951538] [-0.67615479230880737:1.427788257598877] [-0.67391806840896606:1.3506048917770386] [-0.67713803052902222:1.3033223152160645] [-0.67526406049728394:1.4334096908569336] [-0.67822211980819702:1.6771683692932129] [-0.67593681812286377:1.8418123722076416] [-0.67998087406158447:1.9795904159545898] [-0.67735743522644043:1.8671952486038208] [-0.67972826957702637:1.8940913677215576] [-0.67567265033721924:2.0411467552185059] [-0.67956405878067017:2.1347439289093018] [-0.67633002996444702:2.3221406936645508] [-0.68208664655685425:2.3866791725158691] [-0.68785721063613892:2.2922041416168213] [-0.6967010498046875:2.324758768081665] [-0.68777680397033691:2.0119130611419678] [-0.66555494070053101:1.663224458694458] [-0.63047897815704346:1.3776267766952515] [-0.79989981651306152:1.3641012907028198] [-0.9627259373664856:1.3483799695968628] [-0.83332031965255737:1.3266682624816895] [-0.62303602695465088:1.3006186485290527] [-0.62908732891082764:1.5017008781433105] [-0.65896600484848022:1.6471337080001831] [-0.67422842979431152:1.5433529615402222] [-0.93073725700378418:1.1429597139358521] [-1.1747497320175171:1.0751444101333618] [-1.3727543354034424:0.99085426330566406] [-1.6710461378097534:0.88485002517700195] [-1.8910553455352783:0.75389385223388672] [-2.0949718952178955:0.60495084524154663] [-1.9126988649368286:0.45876148343086243] [-1.723555326461792:0.33052113652229309] [-1.5802557468414307:0.23037496209144592] [-1.5674382448196411:0.15855956077575684] [-1.4517455101013184:0.2961885929107666] [-1.6804615259170532:0.9557119607925415] [-1.8599822521209717:1.4404212236404419] [-1.985605001449585:1.2026444673538208] [-2.0616223812103271:1.1271375417709351] [-2.1017582416534424:0.66064220666885376] [-2.1459329128265381:0.36351838707923889] [-2.1756045818328857:0.28676301240921021] [-2.1886844635009766:0.33890664577484131] [-2.1872937679290771:0.39074629545211792] [-2.1694233417510986:0.43792322278022766] [-2.1362905502319336:0.47703936696052551] [-2.0871365070343018:0.50853937864303589] [-2.0223844051361084:0.53271615505218506] [-1.9429097175598145:0.67684948444366455] [-1.8523184061050415:0.56802195310592651] [-1.7581934928894043:0.65060514211654663] [-1.8478662967681885:1.0689502954483032] [-1.6520191431045532:1.4172115325927734] [-1.5958865880966187:1.6290324926376343] [-1.5394163131713867:1.6649528741836548] [-1.4922878742218018:1.6182941198348999] [-1.4547033309936523:1.5608183145523071] [-1.4384253025054932:1.5597559213638306] [-1.4264529943466187:1.5643377304077148] [-1.522296667098999:1.5628886222839355] [-2.0638625621795654:1.5685317516326904] [-2.4585905075073242:1.5680602788925171] [-2.604130744934082:1.5700795650482178] [-2.5047333240509033:1.5648857355117798] [-2.1062953472137451:1.5674868822097778] [-1.4475361108779907:1.5623446702957153] [-1.2213733196258545:1.563502311706543] [-1.117332935333252:1.561995267868042] [-1.168958306312561:1.5723429918289185] [-1.225186824798584:1.5757462978363037] [-1.3164699077606201:1.5835809707641602] [-1.5506553649902344:1.5861003398895264] [-2.1400496959686279:1.5903582572937012] [-2.4733853340148926:1.5896482467651367] [-2.4289262294769287:1.5896980762481689] [-1.9469403028488159:1.5865405797958374] [-1.6131480932235718:1.5868538618087769] [-1.6321159601211548:1.7016431093215942] [-1.6864286661148071:2.5795986652374268] [-1.7459897994995117:2.8008601665496826] [-1.820858359336853:2.5472877025604248] [-1.9268163442611694:1.7488086223602295] [-2.1472852230072021:1.6308574676513672] [-2.3790585994720459:1.6220458745956421] [-2.6580204963684082:1.8138364553451538] [-2.9761693477630615:2.1341862678527832] [-3.3559722900390625:2.7791450023651123] [-3.8750591278076172:3.7871904373168945] [0:1] [0:1] [0:1] [0:1] [0:1] [0:1] [0:1] [0:1] [0:1]
tree_sizes=6542 5024 6487 5283 5173 6774 6123 5760 6777 5849 6568 6051 5877 5795 6915 5806 6906 5919 6410 6881 5000 5156 4873 6917 6563 6476 6445 6723 5604 5094 6935 5179 6713 6933 5605 5201 5722 5310 6693 6909 5149 6793 6510 5697 6823 5627 4847 5351 5040 6604 6952 5728 4731 5213 5346 6578 4938 6672 6310 6948 5254 6893 5718 6931 6530 6604 6948 6377 5730 6791 6475 5399 6787 5411 5232 5490 6670 5609 6933 5012 6046 5363 6593 6910 6503 4791 5209 4608 6455 6212 6949 5730 6917 6948 5183 6672 4983 6549 4722 6936 5676 4863 6484 5469 6471 6729 3983 6303 5351 4636 6382 6599 6961 6359 6677 6630 6409 5485 6523 6368 6470 6259 6375 6175 5363 6699 6908 6500 6669 6574 6198 6887 6183 6940 6777 4518 6450 6902 6075 6925 5483 6227 5688 6374 6192 6234 6894 6800 6471 6936 5329 6010 6168 5646 4605 5987 6530 6711 6358 5901 6191 6656 6924 6557 5719 6501 6111 6794 5593 5058 6163 6117 5665 6556 6917 6774 5719 6898 6888 5891 5902 6191 4610 4325 6704 6823 6426 6558 5902 5890 6348 5972 6320 5935 6104 6476 6710 5465 6126 6426

Tree=0
num_leaves=61
num_cat=0
split_feature=135 105 129 33 33 108 92 30 107 6 101 48 31 73 30 127 30 54 30 4 106 79 22 123 76 7 29 107 73 72 32 115 4 112 129 5 31 115 1 77 73 29 118 32 48 75 29 32 102 73 71 25 126 24 103 30 72 30 123 0
split_gain=68419.7 24868.5 23696.1 28878.2 28090.7 16701.6 15531.9 10835.1 11248.9 9348.82 8947.76 5628.44 5536.88 5523.01 5354.08 5275.32 6159.55 3405.1 3985.86 3268.96 3212.5 2887.88 2860.19 2407.98 2347.46 2156.47 2106.78 1858.54 1757.23 1732.52 1415.32 1313.78 1175.96 1174.16 1080.27 1002.34 970.388 856.344 1307.25 876.36 833.142 798.592 741.663 736.603 687.715 808.537 659.459 641.355 573.587 530.626 452.92 432.514 301.352 298.137 281.399 277.591 242.548 222.251 66.92 7.10543e-15
threshold=1.0000000180025095e-35 -0.90593647956848133 1.0000000180025095e-35 0.9265924096107484 0.82579305768013012 -1.0601742863655088 -1.0629655122756956 1.0958320498466494 -0.96445798873901356 0.6077985167503358 -0.83043110370635975 1.1886161565780642 1.0039680600166323 -0.90375491976737965 1.0671005845069887 -2.5342468023300166 1.028581500053406 1.0792123079299929 1.0556793212890627 0.75597211718559276 -0.91027840971946705 -0.94073292613029469 1.3861141204833987 -1.4725289344787595 -1.14148473739624 0.60839879512786876 1.2417936325073244 -0.98060482740402211 -0.92775744199752797 -0.71280685067176808 0.85509660840034496 -1.3450959324836729 0.74873927235603344 -0.96111553907394398 1.0000000180025095e-35 0.80704516172409069 0.97991085052490245 -0.94802087545394886 0.5976662039756776 -1.2362791895866392 -0.8592824637889861 1.2261425852775576 -1.0397657155990598 0.93394479155540477 1.1716200709342959 -0.86420485377311695 1.1241647601127627 0.96648651361465465 -0.98350438475608815 -0.82021412253379811 -0.34830793738365168 1.1961632966995241 -2.0584369897842403 1.3956320285797121 -0.96905496716499318 1.1061968207359316 -0.82414889335632313 1.1106648445129397 -1.9022530317306516 0.68518680334091198
decision_type=2 2 2 2 2 2 2 2 2 2 2 2 2 2 2 2 2 2 2 2 2 2 2 2 2 2 2 2 2 2 2 2 2 2 2 2 2 2 2 2 2 2 2 2 2 2 2 2 2 2 2 2 2 2 2 2 2 2 2 2
left_child=1 6 3 4 22 -6 19 8 27 11 -11 -5 15 14 41 31 -17 18 23 34 36 29 -3 -4 -22 -20 -16 43 55 -14 35 -8 37 47 42 40 -15 38 -32 -39 59 -10 -1 49 45 -29 -30 -19 -34 -2 -45 -35 -23 -36 -37 -21 -50 -56 -46 -9
right_child=7 2 17 9 5 -7 12 30 13 10 -12 -13 21 20 26 16 -18 33 25 28 24 52 -24 -25 -26 -27 -28 44 46 -31 32 -33 48 51 53 54 -38 39 -40 -41 -42 -43 -44 50 58 -47 -48 -49 56 -51 -52 -53 -54 -55 57 -57 -58 -59 -60 -61
leaf_value=-1.8253999053436603 -1.5747748496363159 -2.8321618930221022 -2.1687950946325283 -2.523215317084496 -2.6045386837804347 -2.0132118492597115 -2.1214534919776198 -2.9313413152574772 -1.3098934290536803 -2.4233329816903666 -1.7840052788019976 -1.95191583154444 -1.8770341352817148 -1.5289962026176851 -1.8301597163551604 -1.3843399301318045 -1.770794974131167 -1.9912850514671856 -2.5218900299409204 -2.9313413152574772 -1.5835577712319941 -1.8819468293570556 -2.3996896925039701 -1.7051009039903717 -1.374899520745231 -1.9573168140774844 -2.56239959121431 -2.1104941076983863 -1.2392504569341332 -2.5797358228112799 -2.3885657582754862 -2.7882500881007184 -2.9313413152574772 -2.3837726386765556 -1.8059070792518763 -2.9313413152574772 -1.7877962400309213 -1.254066398037144 -1.8216098787116903 -2.5024522814000951 -1.1772733353194911 -2.2352944182150534 -2.8315873937202762 -2.3552998152024633 -2.3699312649601252 -1.5830329446139701 -1.9476688365552717 -2.6362780165122581 -1.8484834641885897 -2.801278629989747 -1.5040189770479266 -2.9313413152574772 -1.3244174923648819 -2.4000358415557557 -2.0222263716000555 -1.9295116715907885 -1.4064615531257449 -1.1445504606730794 -2.9313413152574772 -2.9313413152574772
leaf_weight=7.6260408014059058 3.7302798777818671 476.20910774543881 119.45073511451483 2686.4597354345024 500.66522717475891 10387.549788668752 79.144359204918146 39.308524042367935 245.5106001868844 451.57439796999097 424.88211297616363 184.27805418893695 46.397232193499804 224.93028896674514 871.59465987607837 487.39162297919393 2681.6069572642446 152.51983194425702 78.273112211376429 15.480373043566944 799.72734966129065 14.466549970209597 225.26433882862329 1793.7553398124874 1654.8833738453686 498.75107660144567 41.147739004343748 78.087678451091051 23.924826800823212 143.92188683897257 65.261981073766947 47.152879927307367 3.3285443745553485 49.288162317126989 11.99032913148403 2.1133615076541892 407.1149343624711 6.0340407378971568 107.91994111612439 82.591545436531305 2.8849352747201911 9.6935472041368467 186.00471248850226 52.708416901528835 3.0045612156391144 46.288566693663597 29.151415023952723 17.150125451385975 20.250378385186195 64.845303621143103 7.0907214917242518 20.393938548862934 29.39165098965168 28.573238033801317 7.4216835834085924 3.3674205467104903 32.079207979142666 4.7201687283813953 7.2382631637155992 4.8078974299132815
leaf_count=65 23 8569 1404 40533 7937 106890 895 744 902 6389 3456 1790 418 1290 7468 2132 21479 1538 1180 293 4997 131 3137 13259 7092 4870 636 875 72 2248 902 829 63 679 100 40 3326 19 916 1230 7 120 3346 712 41 289 282 277 177 1148 39 386 112 398 77 32 147 10 137 91
internal_value=-2.82541 -2.06053 -2.10963 -2.15794 -2.07992 -2.0404 -1.82927 -1.64704 -1.60397 -2.39927 -2.1134 -2.48654 -1.77001 -1.56473 -1.74996 -1.73662 -1.71136 -1.83816 -1.80353 -2.51256 -1.49465 -2.23985 -2.69328 -1.73405 -1.44288 -2.0339 -1.86317 -2.23865 -1.92289 -2.40843 -2.16082 -2.3704 -2.0759 -2.19842 -2.69366 -2.6009 -1.6957 -2.16464 -2.03526 -2.41746 -2.82368 -1.34504 -2.79196 -2.51087 -1.97905 -1.91419 -1.62834 -2.05648 -1.65848 -2.73456 -2.25436 -2.54403 -1.50832 -2.22442 -1.86639 -2.75235 -1.57751 -1.68103 -2.76666 -2.93134
internal_weight=0 21902.1 18066.5 15336.9 11589.7 10888.2 3835.59 4896.32 4517.6 3747.19 876.457 2870.74 3529.47 4254.6 1167.95 3295.3 3169 2729.58 2490.23 306.118 3086.66 234.177 701.473 1913.21 2454.61 577.024 912.742 262.994 71.924 190.319 378.722 126.297 317.466 239.352 234.194 61.2566 632.045 261.808 173.182 88.6256 47.0014 255.204 193.631 128.375 134.619 124.376 53.0762 169.67 55.6581 68.5756 59.7991 69.6821 43.8582 40.5636 14.2552 18.8478 52.3296 12.1419 10.2428 44.1164
internal_count=268644 235126 202294 178701 126533 114827 32832 33518 29095 52168 9845 42323 28244 25831 9126 25335 23611 23593 20713 4588 16705 2909 11706 14663 12089 6050 8104 3264 679 2666 4423 1724 3454 2880 3909 969 4616 3067 1818 1249 842 1022 3411 1922 1342 1164 354 1815 387 1171 751 1065 243 498 127 325 324 87 178 835
is_linear=0
shrinkage=1


Tree=1
num_leaves=46
num_cat=0
split_feature=120 76 118 32 134 134 110 5 55 105 73 128 134 103 129 32 117 112 30 106 75 127 54 115 29 32 73 33 97 35 21 40 90 105 129 124 92 22 105 71 71 29 105 0 0
split_gain=6243.66 5042.07 4372.54 4215.29 6575.92 5996.66 4008.93 3485.37 3475.18 3403.85 3398.35 3271.76 1163.76 1009.36 1004.71 996.714 974.686 902.714 652.442 959.674 649.303 613.01 474.554 377.146 284.314 230.562 212.752 136.245 359.361 112.537 112.367 192.775 14.1945 0.262371 0.1263 0.113097 0.0752378 0.0253818 0.0146372 0.00897862 0.00679493 0.00240819 0.000376557 5.68434e-14 8.88178e-16
threshold=-0.582655370235443 -1.2727112174034116 -0.91878774762153614 0.95151811838150036 1.0000000180025095e-35 1.0000000180025095e-35 -1.2051221728324888 0.68996235728263866 1.0222443938255312 -0.84193888306617726 -0.81483921408653248 1.0000000180025095e-35 1.0000000180025095e-35 -0.87724328041076649 1.0000000180025095e-35 0.95350518822669994 -0.88989678025245655 -0.841540366411209 1.067395865917206 -0.7923355996608733 -1.1617550253868101 -1.6734622716903684 1.0065401792526247 -0.87507298588752735 1.1607550978660586 0.95728188753128063 -0.91575998067855824 0.91693234443664562 -0.95830228924751271 0.91242718696594249 1.7122659683227541 0.70189955830574047 -1.275211453437805 -0.91067409515380848 1.0000000180025095e-35 -0.14507522433996198 -1.062059700489044 1.3861141204833987 -0.90270793437957753 -0.63743168115615834 -0.61997559666633595 0.90392518043518078 -0.90393996238708485 1.0682023763656618 0.46748721599578863
decision_type=2 2 2 2 2 2 2 2 2 2 2 2 2 2 2 2 2 2 2 2 2 2 2 2 2 2 2 2 2 2 2 2 2 2 2 2 2 2 2 2 2 2 2 2 2
left_child=1 11 3 5 10 6 -3 14 -7 -6 -5 16 13 -9 20 27 21 29 19 -18 -4 -1 -23 -16 -14 -19 -20 32 -29 -17 33 38 -13 35 37 36 39 43 -32 -2 -37 -36 -39 -35 -40
right_child=30 2 7 4 9 8 -8 12 -10 -11 -12 15 24 -15 23 17 18 25 26 -21 -22 22 -24 -25 -26 -27 -28 28 -30 -31 31 -33 -34 34 41 40 -38 42 44 -41 -42 -43 -44 -45 -46
leaf_value=1.2870167285806844 -0.10732848452798138 -0.077060829810620013 0.13983744161238695 0.42205006071290341 0.24330136817613976 0.42710573716044853 0.3559127465439656 0.26346214681576735 0.63583897690599889 -0.031486524541498369 0.30114625578409288 0.7802028955524356 0.79155198308183838 0.56782575662396295 0.30046558201370022 0.77128602234526245 0.047513026807463395 0.3148674762253707 0.66731245914118409 0.45443388621556979 -0.057263812785504159 0.6888457393210855 0.32175253545573856 -0.065560964790804907 0.31444098656193392 -0.11305353263419333 0.10138118835160548 0.22332468730452817 0.75544209687613995 0.54153623942216211 -0.11986573726255929 0.81983002529824034 0.8202331269158315 -0.10588853707535942 -0.11442411038366374 -0.12226569175822387 -0.12505977388967188 -0.10725629652878005 -0.10907460970883197 -0.11688406999607351 -0.12856910666856422 -0.11817541265210363 -0.10907460970883194 -0.10588853707535942 -0.10907460970883187
leaf_weight=10.879737064242361 9.9263639114797098 215.28945046290755 253.30789932608604 3043.1603694222867 1075.8169519975781 3177.2028380483389 31946.803772769868 1309.8054581917822 1064.9697575047612 775.91843459010124 9848.7335895523429 139.69181352108717 59.677166000008583 118.844851590693 198.23711564391851 59.117328308522701 166.92552475631237 47.200319051742554 43.213058434426785 88.781960688531399 491.30291962251067 71.461326420307159 69.42962434887886 32.809449397027493 15.795834578573702 17.171635769307613 7.8493283763527861 15.030187875032423 81.569461286067963 33.345300562679768 1.8401254788041113 3.5883549451828003 242.108643040061 210.70300397276878 2.1538145467638961 2.3615448400378227 3.5250345617532757 1.1869519948959375 2.4407913684844957 1.0914399363100518 6.1998629942536336 8.3293256759643537 28.145375467836857 34.662009626626968 1.5254946053028104
leaf_count=13 174 3131 1867 14779 7530 14442 128787 7004 2774 8004 64416 170 87 378 920 94 1313 264 98 304 5194 139 338 252 100 182 59 97 139 82 18 2 203 4012 20 20 22 20 32 14 37 64 369 660 20
internal_value=0 0.347533 0.343198 0.349485 0.304375 0.367755 0.353014 0.213516 0.479507 0.128159 0.329686 0.56008 0.308998 0.288781 0.0663147 0.707023 0.356515 0.488251 0.253966 0.188796 0.00978773 0.563794 0.507946 0.248488 0.691697 0.200717 0.580317 0.778744 0.672649 0.68843 -0.0970801 0.243609 0.805587 -0.107462 -0.106632 -0.117712 -0.112344 -0.106221 -0.112494 -0.108275 -0.12683 -0.117405 -0.109001 -0.105889 -0.109075
internal_weight=0 54721.5 53627.7 51147.9 14743.6 36404.3 32162.1 2479.78 4242.17 1851.74 12891.9 1093.78 1504.12 1428.65 975.657 635.235 458.541 156.835 306.77 255.707 744.611 151.771 140.891 231.047 75.473 64.372 51.0624 478.4 96.5996 92.4626 317.679 9.39477 381.8 308.285 285.18 23.1042 14.5428 274.697 5.80641 11.0178 8.56141 10.4831 29.3323 245.365 3.96629
internal_count=268644 263160 259665 243863 94729 149134 131918 15802 17216 15534 79195 3495 7569 7382 8233 1231 2264 622 1774 1617 7061 490 477 1172 187 446 157 609 236 176 5484 72 373 5412 5145 267 210 5061 70 188 57 84 389 4672 52
is_linear=0
shrinkage=0.1


Tree=2
num_leaves=60
num_cat=0
split_feature=130 118 136 105 75 95 103 75 120 13 122 72 0 110 35 22 116 123 126 31 32 75 30 72 57 100 72 53 74 106 70 109 57 60 52 101 72 110 103 6 70 22 81 117 31 75 111 37 98 43 75 23 118 53 47 95 32 108 5
split_gain=3649.05 5878.1 3494.16 9177.4 4299.5 4353.73 2994.87 2620.48 2460.69 3959.72 3403.18 2573.83 2155.93 2150.25 2437.6 1842.34 1830.71 3071.92 1718.17 1498.33 1416.08 1253.26 1239.66 2890.79 1061 1041.98 1372.95 945.562 750.367 708.383 676.92 543.162 542.337 518.036 466.679 445.511 426.531 393.504 366.395 362.555 340.271 318.197 294.238 253.714 251.739 235.399 185.94 477.149 174.797 199.824 104.592 84.4482 75.8453 62.51 259.605 42.2105 19.2876 0.0112276 0.00106725
threshold=1.0000000180025095e-35 -1.0573396086692808 1.0000000180025095e-35 -0.82769122719764698 -1.0914124846458433 -0.99528357386589039 -0.79463875293731678 -1.0538087487220762 -1.7366912961006162 0.38690920174121862 -2.023397564888 -0.62719091773033131 0.51798877120018016 -1.2051221728324888 0.85455238819122326 1.2677088379859927 -1.0578355789184568 -1.54548043012619 -1.8596323728561399 1.0059525966644289 0.96401819586753856 -1.0385901331901548 1.0545254945755007 -0.59867805242538441 0.95372590422630321 -0.87121689319610585 -0.67774513363838185 1.2001519203186037 -0.94296118617057789 -0.84399253129959095 -0.25685508549213404 -1.1101058721542356 0.94212183356285106 0.7737906575202943 1.0502134561538699 -0.768895924091339 -0.69138786196708668 -1.185513377189636 -0.89060878753662098 0.4055717140436173 -0.070065308362245546 1.2546786069869997 -0.2577539980411529 -1.0649386048316953 0.99495449662208568 -0.49105657637119288 -0.94787940382957447 0.92590400576591503 -0.86707442998886097 1.0718627572059634 -1.062202453613281 1.2656725049018862 -1.0547503829002378 0.98590618371963512 1.038804352283478 -0.36460453271865839 0.96979939937591564 -1.0601742863655088 0.56453117728233349
decision_type=2 2 2 2 2 2 2 2 2 2 2 2 2 2 2 2 2 2 2 2 2 2 2 2 2 2 2 2 2 2 2 2 2 2 2 2 2 2 2 2 2 2 2 2 2 2 2 2 2 2 2 2 2 2 2 2 2 2 2
left_child=2 7 8 4 5 12 15 35 13 27 37 -12 -4 45 42 41 17 39 24 25 -19 32 23 -6 -8 36 34 40 -28 -7 -17 -16 -18 -20 -27 46 38 -11 -3 -9 -10 -5 -15 -23 -24 -1 47 -2 53 -50 -37 -48 -38 54 -21 -29 -55 -47 -51
right_child=1 19 3 6 22 29 18 16 9 10 11 -13 -14 14 31 30 21 20 33 48 -22 43 44 -25 -26 26 28 55 -30 -31 -32 -33 -34 -35 -36 50 52 -39 -40 -41 -42 -43 -44 -45 -46 57 51 -49 49 58 -52 -53 -54 56 -56 -57 -58 -59 -60
leaf_value=1.3090276165674735 0.54108583807092381 -0.050532847420552786 0.20536831228069172 -0.076010363178996329 0.26546467153091807 0.56905412890697327 -0.11160819567039935 -0.11923922909044907 -0.10181484941451079 0.088659360935771092 0.26936871745463592 0.22588272671387838 -0.077385594940705543 0.56554863200984029 0.43707551860028898 0.45980082833683772 0.16932742219036812 0.4219665009936529 0.62296000002496577 -0.1186866690007165 0.024959815105221283 0.083365993034125035 0.018866999144227639 -0.063282501795642668 0.51619052713269153 0.10675904618460008 0.15922803124056306 0.39407145904885621 -0.01016920931618292 -0.035402760458454634 -0.013614605761377485 0.60105985422176444 0.51177014794197828 0.89335205306317589 0.47062880767129134 1.004984155496756 0.41310659360019059 0.59029592495707028 0.11796814115476398 0.1100472790009194 0.11668123881360962 0.17015232491081445 -0.088367540913929982 -0.10561159046644214 -0.080221579998452516 -0.10682786800245339 0.3791904010163239 -0.1166848744081924 0.69933531852620301 -0.11083846660095834 0.67849011423266037 0.64208127269207016 -0.07848914543038471 -0.093952986902392011 0.41801095297989727 0.20259635557596695 0.040844940236681143 -0.11090848166005805 -0.11379393256563097
leaf_weight=1.1913433484733094 53.635429084300995 180.68710628151894 1269.1136120259762 98.101477056741714 511.24401807039976 331.04929082840681 36.669972881674767 112.87255043908954 399.21110327541828 16.41417483612895 34927.624338630587 22301.105348080397 342.41703889146447 7.4935894384980193 461.96038105338812 367.29365086555481 147.75086373090744 1005.5366154536605 123.50318894535303 31.996719673275948 98.660226412117481 110.73889963328838 356.00323233008385 560.98791009932756 101.24559818208218 44.786303833127022 1126.4099234640598 48.109542638063431 340.55186338722706 20.594331704080105 32.909375689923763 358.92334961891174 67.320219837129116 166.21435787528753 165.48868170380592 28.720347091555595 3.1709073930978766 330.5325323343277 451.52137204632163 177.27533610910177 86.766279727220535 112.99367222189903 84.178546011447906 198.19117361307144 916.32128318399191 71.484829273074865 13.766537323594092 13.882679872214792 6.2048386856913549 4.2347513437271118 14.903209149837492 108.70516034960747 306.40569131821394 496.21229237318039 12.546762660145758 15.135221291333435 10.846842020750044 7.4450003802776328 1.7173479944467542
leaf_count=4 62 1713 5691 1218 2560 363 402 846 4344 111 103277 93339 2968 51 1313 861 911 2782 327 245 946 846 2314 5303 256 239 6341 43 2980 153 262 481 245 274 261 23 8 254 2860 1029 586 845 1161 1917 7326 1196 92 119 6 48 37 72 2564 3895 28 47 90 92 17
internal_value=0 0.161372 0.247431 0.170016 0.105675 0.214853 0.436793 0.28903 0.254433 0.251767 0.254316 0.252423 0.145289 0.410549 0.454159 0.294788 0.250521 0.310408 0.639789 0.0750591 0.386494 0.0911664 0.0142562 0.0934653 0.349267 0.106892 0.154157 -0.0154704 0.119903 0.533654 0.420871 0.508776 0.276517 0.778087 0.393128 0.605249 0.0227174 0.566563 0.06981 0.0208509 -0.0628046 0.055754 -0.0349142 -0.0378708 -0.0524961 -0.0861543 0.539077 0.405839 -0.0728254 0.302253 0.893443 0.612531 -0.0734539 -0.0810919 0.0324874 0.348249 -0.0910694 -0.107213 -0.111691
internal_weight=0 5334.74 64464.2 5346.66 4307.73 1963.17 1038.93 2151.96 59117.6 58124.9 57575.7 57228.7 1611.53 992.677 912.556 611.298 1918.35 1394.34 427.633 3182.78 1104.2 524.001 2344.56 1072.23 137.916 2619.02 1677.24 549.222 1466.96 351.644 400.203 820.884 215.071 289.718 210.275 233.613 941.785 346.947 632.208 290.148 485.977 211.095 91.6721 308.93 1272.32 80.1212 189.99 67.5181 563.76 12.1569 43.6236 122.472 309.577 551.603 44.5435 63.2448 507.059 78.9298 5.9521
internal_count=268644 31222 237422 31123 26678 9175 4445 9927 206299 202001 196981 196616 8659 4298 3006 3186 9522 5603 1259 21295 3728 3919 17503 7863 658 16966 9821 5020 9321 516 1123 1794 1156 601 500 405 7145 365 4573 1875 4930 2063 1212 2763 9640 1292 345 181 4329 71 60 164 2572 4258 273 90 3985 1288 65
is_linear=0
shrinkage=0.1


Tree=3
num_leaves=48
num_cat=0
split_feature=121 31 75 128 53 130 31 131 94 131 105 104 70 32 131 99 52 107 129 91 84 53 129 30 91 11 118 31 104 50 6 52 42 20 129 105 126 91 120 22 93 75 73 25 74 75 16
split_gain=2564.7 2472.94 2164.18 5506.82 3810.47 2837.7 2547.64 2760.03 1642 2737.74 1567.61 1386.61 1833.5 1347.33 1346.45 1435.11 1372.13 847.53 752.143 697.22 746.123 532.406 446.848 434.739 415.416 353.624 308.319 266.894 233.828 206.454 206.222 147.508 78.4969 69.8277 0.443885 0.251294 0.0386139 0.0316201 0.027824 0.0228797 0.0120171 0.0100462 0.0095729 0.00530705 0.00233647 0.00072171 1.44858e-06
threshold=-0.68850332498550404 1.0064207911491396 -1.1199589371681211 1.0000000180025095e-35 1.0658848881721499 1.0000000180025095e-35 0.99736645817756664 1.0000000180025095e-35 -1.0540957450866697 1.0000000180025095e-35 -0.85756564140319813 -0.86853045225143422 -0.32224799692630762 0.95529147982597362 1.0000000180025095e-35 -0.90581128001213063 1.0879830718040469 -0.90019589662551869 1.0000000180025095e-35 -1.1752700209617613 -1.4463583827018736 0.99421170353889476 1.0000000180025095e-35 1.0948523879051211 -1.1512072682380674 0.88112843036651622 -1.0522872209548948 1.0076954960823061 -0.88186943531036366 1.0553659796714785 0.74253877997398388 0.97032704949378978 0.75326961278915416 1.7781856060028078 1.0000000180025095e-35 -0.91067409515380848 0.17812781035900119 -1.1361923217773435 -0.582655370235443 1.3861141204833987 -0.95326295495033253 -1.3289591073989866 -0.93307381868362416 1.3151186108589175 -1.0111718177795408 -1.2069936990737913 1.2532674670219424
decision_type=2 2 2 2 2 2 2 2 2 2 2 2 2 2 2 2 2 2 2 2 2 2 2 2 2 2 2 2 2 2 2 2 2 2 2 2 2 2 2 2 2 2 2 2 2 2 2
left_child=1 2 5 6 13 14 7 -4 21 17 -8 26 -13 -5 16 -16 -1 23 -19 20 -7 28 27 -10 -21 -6 -11 -23 31 -24 -30 -3 34 40 35 36 37 -2 -36 41 44 -37 -38 -41 -34 46 -40
right_child=32 8 3 4 25 19 10 -9 9 11 -12 12 -14 -15 15 -17 -18 18 -20 24 -22 22 29 -25 -26 -27 -28 -29 30 -31 -32 -33 33 -35 38 39 42 -39 45 43 -42 -43 -44 -45 -46 -47 -48
leaf_value=0.29067807986368055 -0.10779920974784629 0.22368349853038569 0.20670144248588518 0.042057777536147249 -0.06409245601714561 0.33426232752894869 0.19574667162811027 -0.0015893346531174102 0.17930234413971122 0.17154916622063954 0.13110180168470065 0.36999082911376319 0.10283254931976292 0.23621660823067964 0.10554285192379348 0.32124985106914533 0.07444217964836998 0.017026038913246246 0.15960616336969446 0.23139691195487352 -0.022450689193754102 0.061847321362281972 -0.12649466449649982 0.0080664489829952619 -0.087321800674166034 0.50901057287864082 -0.044137192785778191 -0.065743819602801845 0.16203822490086581 0.17524631996050152 0.4274155433014486 0.025955974089610069 -0.11164904571250039 0.38343898155168249 -0.12912686847822394 -0.10637189411125092 -0.11636317753045194 -0.12687353144329819 -0.12105433847550795 -0.11042117766362132 -0.12010412539387219 -0.10493708111399616 -0.12491416282468758 -0.10779374226058487 -0.10666547526283857 -0.11930383481681153 -0.12114201867748696
leaf_weight=5886.5393914431334 3.5515814460813999 48.535539321601391 46077.882230609655 566.42254418134689 1479.2838488854468 65.533678635954857 6282.0010861232877 645.0769358612597 1270.4286281764507 120.41880778968334 9311.2260167896748 1007.7602895051241 344.77452928572893 968.53645440191031 992.78797859698534 447.43692713230848 308.84945660829544 1325.122135810554 513.30067519843578 313.53721384331584 557.18775299564004 218.97990398108959 26.232450008392334 167.85446912050247 47.028817798942327 10.845489233732222 147.40324050188065 652.32705580443144 111.27621005475521 167.22378478944302 39.740181036293507 169.46247771754861 2.0114590376615524 6.2654104232788086 5.8430717885494259 173.16129563003778 1.563330765813588 1.1506621651351441 2.8731720149517059 12.353183694183825 1.4215603917837123 67.947408344596624 8.0543825924396497 20.354449838399887 1.7673549205064776 3.0017309114336941 5.4744499027729034
leaf_count=10866 62 181 125048 2798 12111 104 18717 4106 4932 501 43573 1596 2153 3731 4563 1146 1398 9046 1839 1117 3988 1130 161 1017 310 50 863 4200 403 533 47 963 26 2 35 3133 20 8 20 152 14 1528 53 308 31 23 38
internal_value=0 0.186827 0.191961 0.185749 0.0539873 0.239061 0.192145 0.203826 0.126842 0.154399 0.157145 0.260725 0.30189 0.164569 0.259652 0.172557 0.279898 0.101819 0.0568354 0.0791641 0.0150889 0.0327217 -0.00315193 0.159318 0.189826 -0.0599213 0.0528402 -0.0336772 0.136232 0.134331 0.231873 0.0699784 -0.0982648 0.158609 -0.107911 -0.10698 -0.119893 -0.112467 -0.12352 -0.106304 -0.112267 -0.105968 -0.123524 -0.108786 -0.109318 -0.120634 -0.121112
internal_weight=0 80291 73960.2 65341.3 3025.09 8618.9 62316.2 46723 6330.84 4897.06 15593.2 1620.36 1352.53 1534.96 7635.61 1440.22 6195.39 3276.71 1838.42 983.287 622.721 1433.78 1064.76 1438.28 360.566 1490.13 267.822 871.307 369.014 193.456 151.016 217.998 316.795 11.4658 305.329 288.136 14.32 4.70224 17.1924 273.816 5.20037 241.109 9.61771 32.7076 3.77881 11.3494 8.34762
internal_count=268644 263191 233626 210134 18690 23492 191444 129154 29565 21947 62290 5113 3749 6529 17973 5709 12264 16834 10885 5519 4092 7618 6024 5949 1427 12161 1364 5330 1594 694 450 1144 5453 73 5380 5264 143 70 116 5121 71 4661 73 460 57 81 58
is_linear=0
shrinkage=0.1


Tree=4
num_leaves=47
num_cat=0
split_feature=120 130 118 136 106 104 69 110 118 44 127 74 6 80 118 76 75 75 106 31 108 31 69 52 12 32 107 5 113 6 21 40 81 105 129 92 71 129 105 2 22 29 29 78 104 70
split_gain=1793.03 1645.25 2524.71 1852.41 4309.6 2175.28 1885.88 1523.96 1746.51 2031.26 1468.87 1066.26 1007.61 944.104 930.869 1578.28 761.851 700.857 649.491 593.772 478.694 416.444 281.746 413.812 180.955 176.611 111.289 76.4214 74.2969 166.926 61.9967 55.4658 39.1471 0.205299 0.161096 0.0867085 0.0508952 0.0195431 0.0137042 0.00956074 0.00668116 0.0013277 0.00109775 0.000249648 2.08813e-05 1.27858e-05
threshold=-0.582655370235443 1.0000000180025095e-35 -1.0118869543075559 1.0000000180025095e-35 -0.86056798696517933 -0.81512406468391407 -0.11283520236611365 -1.2009949684143064 -1.583899140357971 1.1758796572685244 -3.0888216495513912 -1.0081606507301328 0.69203403592109691 -1.0685644745826719 -1.099548816680908 -1.1452834606170652 -0.99597853422164906 -1.0907413363456724 -0.85416451096534718 1.0040829777717593 -0.85187616944313038 0.98868027329444896 -0.034869702532887452 1.126078248023987 1.267547130584717 0.63354346156120311 -0.88841587305068959 0.67903617024421703 -1.1771532297134397 0.4055717140436173 1.7122659683227541 0.70189955830574047 -1.048061668872833 -0.91067409515380848 1.0000000180025095e-35 -1.062059700489044 -0.61997559666633595 1.0000000180025095e-35 -0.90083968639373768 0.018797385506331924 1.3861141204833987 0.90392518043518078 0.96384268999099743 -1.1428082585334776 -0.93537566065788258 -0.29647253453731531
decision_type=2 2 2 2 2 2 2 2 2 2 2 2 2 2 2 2 2 2 2 2 2 2 2 2 2 2 2 2 2 2 2 2 2 2 2 2 2 2 2 2 2 2 2 2 2 2
left_child=1 3 13 7 11 6 -6 22 10 -10 -9 12 -5 14 16 -16 -3 19 -7 20 -4 -13 23 -1 27 -24 -21 -19 29 -15 33 38 -30 35 39 36 37 -2 -32 44 -41 -36 -38 -40 -35 -43
right_child=30 2 17 4 5 18 -8 8 9 -11 -12 21 -14 28 15 -17 -18 24 -20 26 -22 -23 25 -25 -26 -27 -28 -29 32 -31 31 -33 -34 34 41 -37 42 -39 43 40 -42 45 -44 -45 -46 -47
leaf_value=-0.078277583404883944 -0.10679338862223331 0.28334194387033368 0.14693664351133798 0.32832601805877781 0.1556966961955383 -0.041351478152676951 -0.040744832680884517 0.21304858079064737 0.16156998627993582 0.054728852067050186 0.44046056992259652 0.026151412016186322 -0.059126707233824329 -0.12155733165408041 0.20020725151978744 0.040342903409216542 0.14219424855503005 -0.11679775895938878 0.28719396179303747 0.12638263235882671 0.02828680121092025 -0.069058603583864023 0.4991042696541908 0.35895321631864985 0.30260024663622676 -0.07866525110646426 -0.083257269722415789 -0.006294988134868805 0.0020692137016227489 0.26176061270809708 -0.11955356114587823 0.3090035298693839 -0.11152230591677346 -0.10483089137563679 -0.11594046994487578 -0.1272556222491798 -0.11858634223605061 -0.11717744325316955 -0.10829614460594682 -0.10566838486502578 -0.10743539621430341 -0.11873090187718277 -0.12142985591874525 -0.10991821585532742 -0.10430844277408963 -0.11846543785217788
leaf_weight=44.908791683614254 9.3276872187852877 860.26918493211269 569.50228498131037 169.35761377215385 2483.0615718886256 63.247583642601967 608.4617206454277 1321.0672792866826 71277.959189027548 1825.0260951556265 361.81528355181217 731.67041932046413 111.18597960099578 24.181619137525558 1257.8068448752165 1213.2422897592187 688.41717602312565 392.58494394272566 1236.6916118487716 27.393926721066236 843.91530216112733 1234.5478873327374 5.3757748603820792 41.788323402404785 11.485222741961477 334.07720490172505 334.86593179777265 74.453985635191202 39.499568313360214 21.427449457347393 1.8678827397525308 6.9519486427307129 130.82706491649151 0.77755620330572028 2.3021043688058844 5.289712890982627 2.209499243646861 2.2495104074478158 1.935840707272291 171.71894666925073 24.443998444825411 5.8463352322578421 3.52149623259902 1.8609546720981582 47.439127996563911 2.6307628452777854
leaf_count=404 171 1535 2240 236 8215 472 4747 3231 186978 8386 248 3759 792 176 4718 6894 2363 2917 3146 147 5012 8595 2 123 13 3582 2592 535 204 44 19 2 854 18 20 32 20 19 28 3456 389 44 25 23 1198 20
internal_value=0 0.151835 0.10337 0.155678 0.10504 0.162672 0.117034 0.160147 0.161221 0.158903 0.261942 -0.00760716 0.174769 0.148871 0.159813 0.121717 0.220599 0.0178725 0.271209 0.0468185 0.0760939 -0.033629 -0.0284231 0.132469 -0.0895384 -0.0695154 -0.0674044 -0.0991817 -0.0548265 0.058528 -0.0970673 0.119736 -0.0851799 -0.106915 -0.106106 -0.116051 -0.112626 -0.108811 -0.112541 -0.105578 -0.105889 -0.11807 -0.120334 -0.109091 -0.104317 -0.118649
internal_weight=0 88340.1 6489.87 81850.2 6638.22 4391.46 3091.52 75212 74785.9 73103 1682.88 2246.76 280.544 4235.67 4019.74 2471.05 1548.69 2254.2 1299.94 1775.68 1413.42 1966.22 426.15 86.6971 478.524 339.453 362.26 467.039 215.936 45.6091 290.373 12.6166 170.327 277.757 255.159 22.5979 17.3082 11.5772 5.66468 244.38 196.163 10.7792 5.731 3.7968 48.2167 8.4771
internal_count=268644 263160 30244 232916 29962 16580 12962 202954 198843 195364 3479 13382 1028 16788 15510 11612 3898 13456 3618 9991 7252 12354 4111 527 3465 3584 2739 3452 1278 220 5484 72 1058 5412 5145 267 235 190 70 5061 3845 84 45 51 1216 64
is_linear=0
shrinkage=0.1


Tree=5
num_leaves=62
num_cat=0
split_feature=135 31 75 117 128 53 130 31 131 31 49 129 20 97 131 71 103 30 110 129 108 46 29 6 107 118 74 30 54 8 31 128 103 115 129 129 71 107 98 118 30 115 45 61 52 71 29 6 64 74 102 30 112 31 112 121 102 107 107 1 120
split_gain=1620.08 1346.98 1304.21 3919.22 2206.41 1986.69 1532.9 1495.81 1388.37 1431.96 1116.78 1061.29 1190.72 1012.81 1968.01 876.346 751.65 666.938 645.454 562.815 482.885 478.9 435.144 894.557 424.819 419.884 734.323 390.417 328.851 317.294 339.91 334.052 315.6 303.147 224.642 218.599 190.838 169.958 164.605 167.144 188.896 162.754 172.956 134.578 117.133 109.555 99.3263 97.4133 97.32 87.0125 86.3571 73.7282 76.3131 65.9109 36.921 27.2909 12.8167 1.24986 0.743707 0.131506 0.000119629
threshold=1.0000000180025095e-35 1.0064207911491396 -1.1038841009140012 -0.98114871978759755 1.0000000180025095e-35 1.0679359436035158 1.0000000180025095e-35 0.99853920936584484 1.0000000180025095e-35 1.0007256865501406 0.98187804222106945 1.0000000180025095e-35 1.2744015455245974 -0.96402814984321583 1.0000000180025095e-35 -0.48987041413784022 -0.86538338661193837 1.0981198549270632 -1.1043441295623777 1.0000000180025095e-35 -0.87957039475440968 1.1113224625587466 1.2355101704597475 0.8374946415424348 -0.99614536762237538 -0.93560951948165882 -1.0111718177795408 1.0576527714729311 1.0471386909484866 0.7122156322002412 1.0099869370460512 1.0000000180025095e-35 -0.80436787009239186 -0.92963424324989308 1.0000000180025095e-35 1.0000000180025095e-35 -0.40477444231510157 -0.87381914258003224 -1.0045884847640989 -0.93560951948165882 1.1033566594123843 -1.3450959324836729 1.1749075651168825 0.47381372749805456 1.0560221672058108 -0.66534167528152455 1.1876897215843203 0.81629726290702831 0.399944618344307 -1.0231952667236326 -0.98350438475608815 1.1033566594123843 -0.90113595128059376 0.98519143462181102 -1.1660947203636167 -0.97799834609031666 -0.92452222108840931 -0.98060482740402211 -0.96445798873901356 0.6897796392440797 -0.91741001605987538
decision_type=2 2 2 2 2 2 2 2 2 2 2 2 2 2 2 2 2 2 2 2 2 2 2 2 2 2 2 2 2 2 2 2 2 2 2 2 2 2 2 2 2 2 2 2 2 2 2 2 2 2 2 2 2 2 2 2 2 2 2 2 2
left_child=1 2 6 4 7 -6 8 -4 10 -10 -1 12 -5 29 19 16 -16 18 36 24 22 -17 27 -24 -15 26 -8 -20 -21 34 31 -31 -27 -13 48 -32 54 46 50 40 43 58 -43 -40 -36 -42 -22 56 -3 -49 59 52 -52 -39 57 -53 -41 -2 -38 -19 -61
right_child=17 13 3 11 5 -7 25 -9 9 -11 -12 33 -14 14 15 21 -18 38 20 28 37 -23 23 -25 -26 32 -28 -29 -30 30 35 -33 -34 -35 44 -37 41 53 39 47 45 42 -44 -45 -46 -47 -48 49 -50 -51 51 55 -54 -55 -56 -57 -58 -59 -60 60 -62
leaf_value=-0.091956296978843666 -0.11920186763918333 -0.091564462298330346 0.13957075307860392 -0.087312984973417981 0.12259961900988228 -0.068437499869352422 0.25510225928020958 0.097652915884295158 -0.0054688460931084605 0.1587915425507983 0.18304253886684085 0.11766921844426984 0.040433555431469731 0.18453523802854543 0.035565250581506107 -0.064253136803873609 0.24373850017755491 -0.14061099866831417 0.19029602247050093 0.13548839473476501 0.16710080764175814 0.14139655518920621 -0.071951386070173956 0.28363429156558195 0.011283963497589566 -0.049833466290718262 0.03505303939901732 0.15410526393836804 -0.1269236948091694 0.057611827967181062 -0.046851768276058935 0.24923636637367666 0.093923583391979731 -0.062921337190779816 -0.04414267668927626 0.11741429911513719 -0.11704488775353764 -0.080103168565464719 0.12827238060620377 -0.12416413454685232 0.048742169315664906 0.18691351577138288 -0.056570350947093034 -0.12224941947397226 0.14802155484657775 -0.10767064457858554 -0.022721985636237566 0.16396941354033065 0.08631766585589476 -0.11995907141467937 -0.1387359048394417 0.10087045628966727 0.14954446768534524 0.046332902589908388 0.11016984425893606 0.22813920997878828 -0.026091924750510271 -0.15093807711567006 -0.16265286189630601 -0.11433958691423368 -0.11347181730712795
leaf_weight=149.93928777053952 77.697980731725693 446.38998536020517 36139.776026673615 1075.5807737037539 1084.900301001966 1092.6044827029109 225.70232141762972 11136.12013977021 904.59426489844918 1284.0859203338623 9778.3303115479648 1253.722922988236 2268.5915691889822 151.89978305995464 200.57348176836967 188.77477569878101 1282.4466691762209 2.2850536629557601 3721.4972579479218 782.24335867911577 102.9292073994875 282.98932440578938 216.88491374999285 105.00052607804537 2073.3830669000745 468.34149019792676 462.22763785719872 14976.47738571465 50.861441932618618 450.08477883785963 424.33030792698264 114.01858250796795 226.60321579128504 100.39636628329754 54.089935317635536 100.12913884222507 32.549910336732864 107.31834079325199 330.4899797514081 82.663619890809059 115.47104541957378 98.595044508576393 41.434181474149227 22.930620387196541 76.69868566095829 73.146989159286022 37.648221760988235 31.196313038468361 33.03248343616724 16.503564573824406 13.760925531387327 20.076844461262226 27.600424602627754 66.952224612236023 7.2437681704759589 104.79809099435806 15.886433102190493 14.768049553036688 4.0165520310401908 2.0833580046892157 6.6901101693511
leaf_count=2280 594 2790 93907 8098 3858 8389 439 41274 5100 3478 18662 3115 10429 281 794 1070 1494 14 3516 2099 128 1356 1156 181 12488 3821 2382 23125 344 1940 2467 191 1263 402 226 291 299 386 1004 598 418 272 228 156 186 417 120 56 212 137 74 46 44 166 33 92 86 72 17 19 64
internal_value=0 0.119565 0.123804 0.116871 0.125164 0.0267431 0.151612 0.129697 0.162996 0.0909018 0.178889 0.02959 -0.000653359 0.0768365 0.0994491 0.17782 0.215584 0.15133 0.155122 0.0493581 0.157291 0.0591065 0.159324 0.0440423 0.0231102 0.0518658 0.107249 0.161308 0.119468 0.0101055 0.0424631 0.0963437 -0.00295807 0.10428 -0.0476176 -0.0154903 0.00336199 0.03446 0.065427 0.0432945 0.0688918 0.0658096 0.114867 0.112018 0.0685487 -0.0119155 0.116264 -0.0515752 -0.0793083 0.0657337 0.151349 0.16935 0.0536336 -0.0315283 -0.107239 0.207677 -0.108355 -0.124271 -0.122055 -0.119243 -0.113678
internal_weight=0 74363.5 67651.5 54151.7 49453.4 2177.5 13499.8 47275.9 12116.9 2188.68 9928.27 4698.29 3344.17 6711.95 5013.17 1954.78 1483.02 20476.6 19611 3058.39 19334.7 471.764 19019.9 321.885 2225.28 1382.87 687.93 18698 833.105 1698.77 1088.56 564.103 694.945 1354.12 610.211 524.459 276.305 314.848 865.583 688.289 542.039 176.596 140.029 353.421 130.789 188.618 140.577 146.25 479.422 47.6999 177.295 166.236 41.3614 174.271 99.7098 124.875 98.5501 92.466 36.5665 11.0585 8.77347
internal_count=268644 235126 206897 169472 147428 12247 37425 135181 29520 8578 20942 22044 18527 28229 19926 4714 2288 33518 30293 15212 28778 2426 27978 1337 12769 7905 2821 26641 2443 8303 4889 2131 5084 3517 3414 2758 1515 800 3225 2872 1995 816 500 1160 412 835 248 877 3002 193 353 256 118 552 699 138 684 666 316 97 83
is_linear=0
shrinkage=0.1


Tree=6
num_leaves=56
num_cat=0
split_feature=135 125 31 75 128 53 118 136 105 128 117 130 101 38 117 29 4 110 30 108 3 73 88 36 68 110 103 107 44 69 115 76 6 74 116 5 68 119 125 83 95 107 73 73 29 105 129 92 72 19 2 83 42 31 21
split_gain=1401.18 1007.85 995.604 1243.13 2525.33 2070.7 1410.65 1067.61 1107.45 997.865 1228.65 851.071 822.031 769.034 589.336 518.351 843.335 480.306 419.31 397.011 368.856 480.446 249.917 168.377 168.278 142.302 191.741 127.849 103.765 135.105 79.4871 65.0749 80.7144 61.877 57.9562 114.48 34.445 32.3444 30.2994 7.11722 67.3199 1.66347 1.5641 0.203699 0.122099 0.115819 0.0621302 0.0142448 0.0212858 0.0111369 0.00674514 0.00189146 0.00177599 0.000994757 3.07627e-05
threshold=1.0000000180025095e-35 -0.41841085255146021 1.0055133700370791 -1.1269032359123228 1.0000000180025095e-35 1.0699601769447329 -0.95037177205085743 1.0000000180025095e-35 -0.81950193643569935 1.0000000180025095e-35 -0.91636565327644337 1.0000000180025095e-35 -0.88506031036376942 0.97237330675125133 -1.0313286781311033 1.2355101704597475 0.76430901885032665 -1.1043441295623777 1.0901079177856448 -0.87957039475440968 0.70511609315872203 -0.92321306467056263 -1.2229099869728086 0.91295996308326732 -0.29352213442325586 -0.90656548738479603 -0.91744816303253163 -0.87381914258003224 1.1601366400718691 -0.13017812371253965 -0.96020960807800282 -1.0538714528083799 0.8374946415424348 -0.94135007262229908 -0.9590795338153838 0.77303898334503185 0.15614708513021472 -1.0654624104499815 -2.4289789199829097 -1.1884335875511167 -1.0161499381065366 -0.98060482740402211 -0.90375491976737965 -0.90375491976737965 1.2417936325073244 -0.90786901116371144 1.0000000180025095e-35 -1.0867911577224729 -0.77583178877830494 1.6151078939437868 0.31448628008365637 -1.2566816210746763 0.68418586254119884 0.83506897091865551 1.1739063858985903
decision_type=2 2 2 2 2 2 2 2 2 2 2 2 2 2 2 2 2 2 2 2 2 2 2 2 2 2 2 2 2 2 2 2 2 2 2 2 2 2 2 2 2 2 2 2 2 2 2 2 2 2 2 2 2 2 2
left_child=1 2 3 9 6 -6 -5 11 30 10 -1 12 -4 -11 -13 17 34 23 19 22 21 -20 -19 36 -22 31 44 -21 29 -25 -9 32 -18 -10 35 43 41 -33 -30 40 -36 -2 -41 -17 -27 47 49 48 52 50 -47 -51 -3 -50 -48
right_child=15 45 7 4 5 -7 -8 8 33 13 -12 14 -14 -15 -16 16 25 18 20 27 24 -23 -24 28 -26 26 -28 -29 38 -31 -32 37 -34 -35 39 -37 -38 -39 -40 42 -42 -43 -44 -45 -46 46 54 -49 53 51 -52 -53 -54 -55 -56
leaf_value=0.16310630852627583 -0.11578760243964413 -0.10496004331493412 0.03646113216502362 0.11019053510009538 0.080983304490472807 -0.075107221925846776 0.033024750534106619 -0.043468645085939034 0.46259030248949867 0.20227901918767188 0.063802967046575079 0.096488453888702141 0.11441197689379164 -0.053097169952721283 -0.071081694841996237 -0.13017838628312897 0.083690795100627546 0.20718965693344138 -0.067965157491087572 0.1009722718060107 0.12215250124243052 0.096129899828850229 0.14108932144642494 -0.075820045908381414 0.21758944748283449 -0.13832879535565809 0.30060013717046313 -0.028300675360550268 0.10932020626746131 0.15184117137520356 -0.10941975836618129 0.20570139941300339 0.24756394564993817 0.2569036635646928 -0.12616328738482371 0.18524661257716565 0.12237330267076468 -0.13374941071810229 -0.12580440412027627 -0.12573465882069437 0.33157423215679716 -0.14788696821544309 -0.15939505176732061 -0.14870276119687029 -0.12287216979905867 -0.10356435685562598 -0.11471028652088947 -0.12134205557238775 -0.11580888399319873 -0.10732756198030589 -0.10500532743730913 -0.11052832782857164 -0.11033584843042409 -0.11853922734411149 -0.11517347540449668
leaf_weight=2694.3964221477509 65.145878117531538 2.0779987275600429 1841.0801478177309 55348.362350784242 2186.0805247724056 1390.4692353345454 2474.9599066339433 409.09161858260632 34.201353684067726 2731.645251519978 2317.7188759222627 331.90366470813751 5101.354659460485 123.23924058675766 570.86624986305833 10.827285774052145 37.730734571814537 592.72131955623627 193.72473017126322 137.73905915021896 430.15697660297155 2259.0944888144732 16353.840722732246 34.263687133789062 323.8489081338048 6.2964283078908911 15.406208246946333 172.0811328291893 6.5885716825723639 108.96632200479507 330.29697103053331 4.2137374877929679 147.76926879584789 25.553180158138275 31.287502571940422 19.657227143645287 6.0861235857009879 8.4082536622881872 32.59458364918828 158.36501430720091 3.5807088315486899 21.46345217525959 15.122975148260592 13.140313446521757 27.139552146196365 40.491613611578941 2.2339445501565924 3.068383675068616 2.7535547092556945 8.1788355372846109 164.28087558224797 2.3845078125596038 0.87260704860091198 2.5890640169382095 4.0035768449306488
leaf_count=5120 576 51 7682 149302 7781 11103 10296 3349 13 2756 8529 1571 15061 620 4433 69 157 452 823 233 932 5212 21283 212 329 34 20 548 22 341 2181 1 164 42 231 29 13 53 245 1102 2 111 67 66 191 1219 20 22 27 135 3713 31 14 20 35
internal_value=0 0.102025 0.102646 0.106639 0.101844 0.0202994 0.106888 0.0706465 -0.0394645 0.144065 0.117186 0.0818628 0.09374 0.191255 -0.00947447 0.130992 0.03027 0.133415 0.13518 0.14135 0.101973 0.0831696 0.143401 0.0021626 0.163143 0.161593 0.00871041 0.0291712 0.0579312 0.0973797 -0.0729301 0.199282 0.214232 0.374631 -0.0984384 0.00637149 -0.107583 -0.0204268 -0.0862687 -0.120383 -0.079157 -0.123742 -0.128669 -0.140334 -0.125783 -0.105674 -0.105169 -0.115521 -0.113367 -0.104884 -0.10472 -0.10805 -0.10655 -0.117132 -0.115008
internal_weight=0 78144.2 77911.2 69266.9 61399.9 3576.55 57823.3 8644.35 799.143 7867 5012.12 7845.2 6942.43 2854.88 902.77 21237.3 498.945 20738.3 20463.2 17256.4 3206.83 2452.82 16946.6 275.109 754.006 246.964 48.8422 309.82 182.413 143.23 739.389 198.122 185.5 59.7545 251.981 43.6248 92.6955 12.622 39.1832 208.356 34.8682 86.6093 173.488 23.9676 33.436 232.935 221.573 11.3616 8.29322 215.336 204.772 10.5633 2.95061 5.34262 6.23752
internal_count=268644 235126 229839 195507 178482 18884 159598 34332 5585 17025 13649 28747 22743 3376 6004 33518 2186 31332 29812 22516 7296 6035 21735 1520 1261 620 245 781 820 553 5530 375 321 55 1566 164 700 54 267 1402 233 687 1169 135 225 5287 5153 134 112 5098 4932 166 65 47 55
is_linear=0
shrinkage=0.1


Tree=7
num_leaves=53
num_cat=0
split_feature=135 110 118 0 122 127 120 30 109 30 111 78 127 117 5 0 39 126 107 99 108 106 51 72 79 33 105 31 31 103 106 56 67 25 90 106 60 26 106 108 127 93 72 34 117 115 32 109 105 120 93 127
split_gain=1241.97 932.378 1269.63 1905.09 2103.29 845.186 495.99 445.168 402.39 416.171 373.478 371.422 364.151 322.614 330.396 241.742 229.293 276.159 193.867 178.445 168.663 129.303 149.467 199.655 167.352 124.216 114.933 97.4546 128.232 99.3732 90.1801 87.5887 125.007 91.9445 83.4133 68.6423 65.2294 57.6053 54.9496 54.3452 51.9466 37.646 33.8174 21.0855 35.6785 0.463751 0.272879 0.183546 0.126219 0.101645 0.0598748 0.0163469
threshold=1.0000000180025095e-35 -1.2051221728324888 -1.622767388820648 -0.23887598514556882 -2.034928441047668 -2.3890476226806636 -1.7581501603126524 1.0981198549270632 -1.0478097200393675 1.0589868426322939 -1.2484075427055357 -0.29805104434490198 -3.1384184360504146 -0.90832933783531178 0.79443088173866283 0.68518680334091198 1.0243222713470461 -2.8271157741546626 -0.95415911078453053 -0.99028000235557545 -1.006119906902313 -0.96021386981010426 1.0944830775260928 -0.55214425921440113 -0.92620781064033497 0.82579305768013012 -0.90994074940681446 0.9777851700782777 1.0047004818916323 -0.89628818631172169 -0.91810059547424305 0.77141055464744579 -0.1892433017492294 1.4443968534469607 -0.88474741578102101 -0.8518063724040984 0.55561658740043651 1.3936541080474856 -0.89984646439552296 -0.89368221163749684 -3.2042967081069942 -1.08890825510025 -0.77324348688125599 0.83477461338043224 -1.5768098235130308 -0.94802087545394886 0.93394479155540477 -0.89694565534591664 -0.90593647956848133 -1.5569819808006284 -0.34229989349842066 -2.6473371982574458
decision_type=2 2 2 2 2 2 2 2 2 2 2 2 2 2 2 2 2 2 2 2 2 2 2 2 2 2 2 2 2 2 2 2 2 2 2 2 2 2 2 2 2 2 2 2 2 2 2 2 2 2 2 2
left_child=1 20 16 6 10 -6 11 8 21 15 -5 -4 -8 14 -11 18 17 35 -10 -15 43 34 24 -24 -23 -18 27 30 29 -29 42 32 41 36 -2 -3 -33 -30 -34 -32 -27 -28 -9 44 -1 -35 -36 -17 51 -46 -50 -45
right_child=7 2 3 4 5 -7 12 26 9 13 -12 -13 -14 19 -16 47 25 -19 -20 -21 -22 22 23 -25 -26 40 31 28 37 -31 39 33 38 45 46 -37 -38 -39 -40 -41 -42 -43 -44 48 49 -47 -48 -49 50 -51 -52 -53
leaf_value=0.26860171943083561 0.17602963415248937 -0.14913478665874741 0.27954213035377395 -0.067043047496627137 0.058658231818140019 0.091247999804578345 -0.10886612305243198 0.034442767048024563 0.06942700772672393 0.11297080306377361 0.23755730655013527 -0.11794527406396327 0.091008738922172469 0.15224965662510426 0.21049393047961346 -0.1868718417437602 0.44215543664297102 0.32455512592977886 0.15681133518768905 -0.030125291847642555 0.27961737376826717 -0.13474630097908494 -0.13858421774698912 0.057014617724554011 0.19280846938455401 0.15664698045800496 0.068353095039856399 0.094236583492824183 0.11476850435082567 0.4279547483708368 -0.10425193224862005 0.2382976031752449 0.030849960885403607 -0.14059463151301102 -0.11416931913718253 0.28407173397532431 -0.12344832730950311 -0.12624171116432042 0.24836513867909243 0.28070714777894606 0.26711444511289006 -0.1227734321938791 0.19364264545584731 -0.11836296391291926 -0.11217056656667318 -0.12546227609413985 -0.12648990950316943 -0.16632249177222438 -0.11296130218635946 -0.1398529369326712 -0.10984728408828351 -0.1264424900925116
leaf_weight=3.9679774604737759 10.982987299561499 34.042335622012615 70.700952723622322 41.828760795295238 8989.0882880762219 69358.407174274325 699.62912482023239 58.395800851285458 272.35891745984554 15575.778048343956 1068.9441919326782 35.218617886304855 104.80672284215689 69.450422331690788 355.31681414693594 16.067632168531421 38.448618590831757 25.094756782054901 3742.8450350761414 235.82545584440231 11.780422687530516 18.202161982655525 65.072819538414478 263.49934094026685 109.01244292408228 48.182080388069153 14.770733989775179 494.07830088585615 13.327806733548639 9.0870825946331006 70.504106007516384 13.179723352193834 19.309174582362175 35.873713910579681 41.557954836636782 4.0979482829570761 8.0165963321924192 38.754901677370071 29.143097504973412 3.868384361267089 365.37264434993267 34.092117093503475 17.294784396886826 17.211545526981357 3.5285443887114525 46.507749319076538 31.680475994944572 5.9584718346595755 116.23812851309776 2.1253561377525312 131.70717188343406 2.9305482134222975
leaf_count=2 30 164 65 172 26799 197914 4606 209 561 23141 517 288 1319 92 403 65 19 10 2840 888 9 102 398 918 217 65 42 1208 42 5 534 18 66 185 412 9 54 252 35 1 137 269 8 137 42 297 200 26 1165 11 1657 19
internal_value=0 0.0881601 0.0888013 0.0877981 0.0894461 0.0875089 -0.0560414 0.115083 0.11807 0.120339 0.226087 0.147376 -0.0828252 0.113195 0.115146 0.149072 0.245277 0.0669225 0.150884 0.0113651 -0.0909844 0.0328745 0.0539092 0.0182768 0.145941 0.270228 0.0464714 0.0654778 0.0848022 0.100263 -0.00602404 -0.0202582 0.0478634 -0.0842609 -0.0809601 -0.102589 0.101483 -0.0645679 0.161681 -0.0842288 0.254244 -0.0649979 0.0708189 -0.106705 0.0387419 -0.132052 -0.119499 -0.181313 -0.111926 -0.122577 -0.111307 -0.119538
internal_weight=0 81173.4 80883.9 80368.6 79458.3 78347.5 910.355 21719.8 20813.6 20273.6 1110.77 105.92 804.436 16236.4 15931.1 4037.23 515.238 63.235 4015.2 305.276 289.49 540.008 455.787 328.572 127.215 452.003 906.204 705.311 555.248 503.165 150.063 200.893 97.3151 103.578 84.2214 38.1403 21.1963 52.0827 48.4523 74.3725 413.555 48.8629 75.6906 277.709 9.62188 82.3815 73.2384 22.0261 268.087 5.6539 247.945 20.1421
internal_count=268644 235126 232084 231680 225402 224713 6278 33518 30293 28016 689 353 5925 24524 23544 3492 404 183 3401 980 3042 2277 1635 1316 319 221 3225 2259 1507 1213 752 966 412 554 642 173 72 294 101 535 202 311 217 3033 55 482 612 91 2978 53 2822 156
is_linear=0
shrinkage=0.1


Tree=8
num_leaves=62
num_cat=0
split_feature=135 117 75 117 127 117 127 134 129 74 118 56 119 126 128 134 75 116 129 134 127 49 73 55 77 53 77 99 29 4 107 30 51 72 0 4 114 52 73 71 27 57 4 45 81 32 70 106 110 103 116 5 5 114 76 29 83 95 73 73 29
split_gain=1124.17 924.917 1680.42 1835.43 1657.84 1597.82 1876.31 1228.78 1223.15 2312.32 1182.5 1127.35 1448.48 2108.12 1119.16 1674.41 1484.67 1083.8 931.697 1171.08 685.556 651.598 519.854 511.851 497.116 428.375 637.845 480.146 380.865 617.304 351.354 446.297 330.99 314.082 802.475 575.715 242.46 238.887 245.383 242.552 237.352 186.833 174.996 167.369 158.123 148.912 148.032 144.35 86.8439 135.91 47.6998 88.2026 47.6955 49.1973 36.1595 31.726 6.68094 49.6375 1.38536 0.181836 0.135505
threshold=1.0000000180025095e-35 -1.0965967178344724 -1.1023116707801817 -0.98228940367698658 -2.2112443447113033 -1.2982890605926511 -2.3890476226806636 1.0000000180025095e-35 1.0000000180025095e-35 -0.93392899632453907 -0.95284616947174061 0.99370685219764721 -1.3001970052719114 -1.8119772672653196 1.0000000180025095e-35 1.0000000180025095e-35 -1.1408228278160093 -1.3722867369651792 1.0000000180025095e-35 1.0000000180025095e-35 -2.2569593191146846 1.1095108985900881 -0.71269604563713063 1.0277366042137148 -1.1548602581024168 1.0514471530914309 -1.2838087677955625 -0.88627284765243519 1.2355101704597475 0.76430901885032665 -0.95415911078453053 1.0596681237220766 1.0519574880599978 -0.77846765518188465 0.58586660027503978 0.72554332017898571 -0.91363993287086476 1.0685536265373232 -0.66378122568130482 -0.4949518740177154 1.1371306777000429 0.84090086817741405 0.76430901885032665 1.1472956538200381 -1.2864735126495359 0.91222622990608226 -0.25277933478355402 -0.95886018872261036 -0.90656548738479603 -0.91744816303253163 -0.9590795338153838 0.77303898334503185 0.80704516172409069 -0.92696708440780629 -1.0817113518714903 1.2170702219009402 -1.1884335875511167 -1.0161499381065366 -0.90375491976737965 -0.90375491976737965 1.2417936325073244
decision_type=2 2 2 2 2 2 2 2 2 2 2 2 2 2 2 2 2 2 2 2 2 2 2 2 2 2 2 2 2 2 2 2 2 2 2 2 2 2 2 2 2 2 2 2 2 2 2 2 2 2 2 2 2 2 2 2 2 2 2 2 2
left_child=1 4 10 8 5 6 17 20 9 -4 25 12 32 -14 15 -12 -16 -1 19 -5 -7 -8 46 -9 -10 26 -3 -27 30 50 37 42 -6 35 -35 -33 -20 39 45 41 -24 -2 44 -40 -32 -39 -13 -41 52 60 51 59 53 -31 -54 -44 57 -52 -58 -30 -50
right_child=28 2 3 18 11 7 21 23 24 -11 14 22 13 -15 16 -17 -18 -19 36 -21 -22 -23 40 -25 -26 27 -28 -29 29 48 31 33 -34 34 -36 -37 -38 38 43 47 -42 -43 55 -45 -46 -47 -48 -49 49 -51 56 -53 54 -55 -56 -57 58 -59 -60 -61 -62
leaf_value=0.090094036005041664 0.063571412005159755 0.19173289245898156 0.079896281647149806 -0.041439847856008599 0.13565995362698527 -0.04062487233054126 0.11005275899805329 -0.018498536138106463 0.11004862341474651 0.010989674292468473 0.031876885076093757 0.22334014048782513 0.056021681436139351 0.14278272897423022 0.15617280353511814 0.17225255410763549 -0.026041107805895154 0.019644011093369048 0.073698578498456721 0.15983063536336964 0.053778748769182816 0.22523805880926151 0.13869870186405761 0.14285545477557718 -0.0061683789933208851 -0.051651509740761728 0.1162109431695356 0.10076186650257568 -0.12895467117018086 0.11487703990949001 -0.079815868771010948 0.04225885170215004 0.22633518850338741 0.094897994999942198 0.15810650334771206 0.11324392033144114 -0.12297512788652648 0.064007465335504193 0.14443234064851934 -0.06687096435948893 -0.019337699831535011 -0.12533738629166863 -0.17654636739905394 -0.0028594429120756856 0.14171803145738884 -0.1218811209271855 0.1610595453726017 0.15881281059690958 -0.13736614218945403 0.22070919728997476 -0.12506731959004375 0.14411082546317486 0.19233254328082047 -0.1295751867831644 0.058502909939005268 0.083982270869522993 -0.12487216624426639 0.24477169501913193 -0.15689647336597734 -0.14671579525992845 -0.12072369830368244
leaf_weight=7873.3412181399763 528.46787439286709 1535.2498217150569 12658.736229386181 3530.5668668784201 674.83462636172771 2408.9436743929982 860.13833668828011 250.6860099285841 6133.9960988461971 7914.9642948061228 6484.2212799042463 1211.0572570562363 7093.7697235643864 4627.4560911208391 2436.4354883544147 977.87031497061253 547.68123514205217 3021.73990964517 1541.8979313671589 314.86780681833625 1130.1304616257548 1144.7301264107227 245.64342615753412 911.23423638939857 391.55396706610918 235.8639565333724 4118.0552748516202 1671.2658085227013 10.502137139439585 37.095919042825699 32.491476610302925 2254.1046646907926 997.79057705402374 8847.3620128557086 2598.4397790133953 2316.9389162063599 65.338905371725559 57.85007543861866 138.07822129130363 30.454478453844786 155.00031589716673 58.110883265733719 20.580081030726436 174.82454509288073 3844.4867804795504 168.95762241631746 557.23707997053862 408.40610978007317 6.06895783543587 18.03107276558876 28.772450961172581 20.95343816280365 146.09420951455832 10.581260710954664 23.426511809229851 6.0477273762226096 150.78958427160978 4.1527536958456031 14.837641000747679 12.776988849043844 25.236003361642361
leaf_count=22947 1358 1585 35422 19790 911 8997 1386 933 11662 35460 25383 930 19747 7139 3215 1061 2170 9111 3552 578 3016 740 583 1336 1254 955 8594 4182 69 101 102 5143 574 12618 2107 3833 283 154 292 225 682 251 85 845 2879 817 948 614 34 20 231 29 130 74 70 9 1102 2 67 66 191
internal_value=0 0.0767727 0.06826 0.0547007 0.0897504 0.0687264 0.0869149 0.0188155 0.065352 0.053387 0.0927723 0.113528 0.102697 0.0902743 0.0709712 0.0502724 0.122731 0.0705548 0.00176427 -0.0249596 -0.010479 0.175821 0.18041 0.108043 0.103075 0.122895 0.13672 0.0819122 0.102177 0.0167091 0.104203 0.107788 0.189752 0.100398 0.109248 0.0782393 0.0657032 0.0585814 0.0047306 0.0869243 0.0775579 0.0448567 0.138107 0.0621377 0.139861 -0.074468 0.203714 0.143152 0.121782 0.00201416 -0.0986415 -0.00473109 0.148987 0.0606244 0.173838 -0.117375 -0.119562 -0.0784207 -0.127741 -0.138703 -0.12395
internal_weight=0 83722.3 50558.6 32551.9 33163.7 17600.9 12899.9 4700.99 27099.3 20573.7 18006.6 15562.8 13393.9 11721.2 10446.2 7462.09 2984.12 10895.1 5452.67 3845.43 3539.07 2004.87 2168.94 1161.92 6525.55 7560.43 5653.31 1907.13 21994.9 509.319 21485.6 19920.5 1672.63 16016.8 11445.8 4571.04 1607.24 1565.15 539.71 1025.44 400.644 586.579 3903.61 312.903 3876.98 226.808 1768.29 438.861 266.534 49.336 242.785 44.2326 217.198 47.6772 169.521 26.6278 198.552 32.9252 165.627 23.2791 31.305
internal_count=268644 235126 155146 108001 79980 48466 34184 14282 83798 70882 47145 31514 28371 26886 31829 26444 5385 32058 24203 20368 12013 2126 3143 2269 12916 15316 10179 5137 33518 2186 31332 26776 1485 23701 14725 8976 3835 4556 2108 2448 1265 1609 3075 1137 2981 971 1878 839 620 245 1566 164 375 175 200 94 1402 233 1169 135 225
is_linear=0
shrinkage=0.1


Tree=9
num_leaves=53
num_cat=0
split_feature=71 99 29 71 99 5 105 109 30 77 131 100 5 130 29 134 135 73 100 56 32 124 58 71 134 101 136 28 8 4 100 129 57 28 104 108 127 71 104 30 63 112 135 74 77 118 114 130 31 51 135 120
split_gain=1039.23 1666.52 1064.25 1103.88 1098.11 1037.8 939.716 863.04 756.153 752.559 698.018 2053.02 839.199 784.702 744.522 683.906 772.993 673.389 648.585 576.817 572.368 492.494 462.053 453.393 383.165 378.248 300.294 275.785 695.961 290.279 751.381 171.392 169.423 157.878 133.7 111.694 133.92 101.609 96.1918 86.1903 120.896 95.7102 81.098 48.9204 48.1326 125.007 19.3574 15.5319 25.4115 10.3056 3.92596 0.453546
threshold=-0.5093972086906432 -0.91641581058502186 1.1161984801292422 -0.46636235713958735 -0.86788672208786 0.60928902029991161 -0.85355049371719349 -1.1326628923416135 1.0907744765281679 -0.85586893558502186 1.0000000180025095e-35 -0.90064615011215199 0.69404134154319774 1.0000000180025095e-35 1.14982545375824 1.0000000180025095e-35 1.0000000180025095e-35 -0.81929096579551686 -0.87121689319610585 0.89463168382644664 0.93843090534210216 -1.9830084443092344 0.81061813235282909 -0.58214756846427906 1.0000000180025095e-35 -0.86407014727592457 1.0000000180025095e-35 1.3448830842971804 0.87907525897026073 0.71147444844245922 -0.94419488310813893 1.0000000180025095e-35 0.92108005285263073 1.3780712485313418 -0.90085253119468678 -0.82640662789344776 -1.4921617507934568 -0.51059904694557179 -0.88956838846206654 1.0958320498466494 0.32885402441024786 -1.1391525268554685 1.0000000180025095e-35 -0.86154529452323902 -0.84690067172050465 -1.3305400013923643 -1.2792059183120725 1.0000000180025095e-35 1.0040829777717593 1.0172075033187868 1.0000000180025095e-35 -0.582655370235443
decision_type=2 2 2 2 2 2 2 2 2 2 2 2 2 2 2 2 2 2 2 2 2 2 2 2 2 2 2 2 2 2 2 2 2 2 2 2 2 2 2 2 2 2 2 2 2 2 2 2 2 2 2 2
left_child=8 24 3 21 5 -5 15 -6 9 10 13 12 -12 14 -1 16 -4 22 -15 -17 -13 46 -8 27 31 -23 -19 29 43 30 -10 32 42 -30 -31 36 -33 44 39 40 -25 -41 -2 -29 45 -11 -3 50 -49 -46 -40 -37
right_child=1 2 6 4 7 -7 17 -9 23 37 11 20 -14 18 -16 19 -18 26 -20 -21 -22 25 -24 38 -26 -27 -28 28 33 34 -32 35 -34 -35 -36 51 -38 -39 47 41 -42 -43 -44 -45 49 -47 -48 48 -50 -51 -52 -53
leaf_value=0.12173029219341996 -0.093669572935440981 -0.016490117330070862 0.034946243578740425 -0.036139055296551918 -0.017284028352907658 0.076991286077494017 -0.046913412387777222 0.075404212440280075 -0.064218713780046968 0.17278137398786031 -0.068111226120931997 -0.038228260111397482 0.064137442833149746 -0.01472273689321495 0.088608736627508081 -0.040187966277352258 0.11030417442990854 -0.011310234377722883 0.12516151009642182 0.14214357711360542 0.14615223398809415 0.028342289426812467 0.067290792429390497 0.054523278095168021 0.239997450749522 0.12511970115121165 -0.10401262739704675 -0.12619146388561805 0.1268610946271875 0.089558696889651526 0.07451534713429657 -0.01235927219754813 0.18446133026856484 0.00040621031338151822 0.17120656447976079 -0.14854725745794747 0.18430038683914368 0.1483082901036118 -0.13797959967010495 0.22994853797156245 -0.064902942822778517 -0.1176467447208856 0.13447133848894774 0.1994292831821676 -0.10324607676964531 -0.16084365761317343 -0.14742482234683896 0.10194728976550371 -0.12182683674787785 -0.15417486860324384 -0.19291891816626422 -0.11544863819142548
leaf_weight=9985.3288076017052 894.3191622402519 13.452567920088766 6840.811248537153 1869.1422829814255 1031.563749011606 1432.1916321143508 430.45724475383759 38395.142048075795 486.16927057504654 19.573735296726227 1270.7136767655611 187.41825752705336 770.92857970297337 1110.193059373647 21186.042726203799 197.0935613065958 1699.3177335783839 2297.2630177885294 472.53939126431942 1449.7783860564232 1655.8981147408485 436.51762215048075 2001.4351755306125 217.60039313137531 42.593844100832939 5397.7683386988938 412.12145275622606 274.78896693885326 277.65318208932877 1573.0873989984393 1981.4825956374407 93.978372268378735 23.11356508359313 153.21004383265972 229.86545787751675 27.983702778816223 54.829418554902077 16.498210281133652 50.730411536991596 8.5609587877988798 138.85366430133581 106.06101107597351 15.85757629573345 4.6926674097776404 65.254053439944983 26.350039545446634 70.273951053619385 6.9839223921299007 18.563173934817314 101.58944706991315 17.491921856999397 4.858848199248313
leaf_count=16392 5776 53 18737 8200 6214 3752 1597 104350 2211 17 6210 691 3167 6020 34562 682 2392 8456 841 2485 2241 1363 5035 472 27 9298 2457 1486 481 3254 4101 298 36 668 231 131 72 28 274 9 592 638 17 5 1307 118 371 19 135 561 72 42
internal_value=0 0.0645547 0.0667064 0.0739464 0.0683402 0.0129394 0.0437292 0.0729791 0.0846688 0.0898473 0.0909774 0.0508999 -0.0181738 0.095731 0.0992188 0.0613192 0.049941 0.0088763 0.027041 0.120323 0.127405 0.114423 0.0470761 0.0502421 -0.0543624 0.117879 -0.0254111 0.0598708 0.00217564 0.0694674 0.0471824 -0.0656078 -0.0829051 0.0818952 0.0999683 0.023263 0.0601015 -0.0907647 -0.0346655 -0.016254 0.0080018 -0.0916853 -0.0896948 -0.120724 -0.109303 -0.0186452 -0.126387 -0.127161 -0.0606527 -0.134256 -0.152066 -0.143651
internal_weight=0 65131.9 63974.3 48646.1 42728 3301.33 15328.3 39426.7 42414.1 36868.3 36639.1 3884.96 2041.64 32754.1 31171.4 10187 8540.13 5141.28 1582.73 1646.87 1843.32 5918.01 2431.89 5545.8 1157.53 5834.29 2709.38 4980.95 710.345 4270.6 2467.65 1114.94 933.29 430.863 1802.95 181.65 148.808 229.265 564.845 471.076 356.454 114.622 910.177 279.482 212.767 45.9238 83.7265 93.7694 25.5471 166.844 68.2223 32.8426
internal_count=268644 181841 175442 133601 122516 11952 41841 110564 86803 72155 70124 12309 9377 57815 50954 24296 21129 17545 6861 3167 2932 11085 6632 14648 6399 10661 10913 12437 2640 9797 6312 6372 5829 1149 3485 543 370 2031 2211 1711 1064 647 5793 1491 2003 135 424 500 154 1868 346 173
is_linear=0
shrinkage=0.1


Tree=10
num_leaves=60
num_cat=0
split_feature=135 117 75 129 6 118 127 101 130 30 127 118 118 118 127 53 134 28 118 21 125 74 29 106 29 5 100 31 0 71 79 29 71 29 108 5 11 109 96 118 131 74 28 91 112 34 112 74 5 124 123 106 76 66 31 31 30 24 110
split_gain=939.965 734.905 1537.77 1332.15 1533.7 1917.16 1159.61 1074.99 930.293 738.669 1123.55 1570.66 1255.78 1032.12 1042.62 697.541 560.014 502.153 403.577 392.755 392.736 359.983 349.4 338.522 323.816 372.668 643.255 327.685 381.058 520.539 311.475 290.429 260.064 238.411 231.508 224.774 215.65 178.112 170.301 138.349 108.482 158.374 78.3411 76.4069 119.615 81.8771 71.3503 68.6808 40.8254 40.5406 33.4914 28.1503 13.9806 0.626476 0.451007 0.238153 0.0314276 0.013328 0.00277569
threshold=1.0000000180025095e-35 -1.0760306715965269 -1.0985479354858396 1.0000000180025095e-35 0.79215300083160411 -0.99383452534675587 -1.9092886447906492 -0.92299085855483998 1.0000000180025095e-35 1.0612916350364687 -2.3548225164413448 -1.3597477078437803 -1.3167923688888548 -1.2149946093559263 -2.1134630441665645 1.0638331770896914 1.0000000180025095e-35 1.3244831562042239 -1.2009775042533872 1.4918467402458193 -1.7277728319168089 -0.8594490885734557 1.1269558072090151 -0.95233979821205128 1.2121157646179201 0.79443088173866283 -0.95197495818138111 0.96250963211059581 0.58586660027503978 -0.6069253385066985 -1.1773027777671812 1.2355101704597475 -0.63021504878997792 1.1423078775405886 -0.89244785904884327 0.76798313856124889 0.86187234520912182 -1.0550493001937864 -0.97168698906898487 -0.89630496501922596 1.0000000180025095e-35 -0.92800757288932789 1.253065347671509 -0.98311898112297047 -1.0655605792999265 0.91837441921234142 -1.1660947203636167 -0.99532720446586598 0.68602317571640026 -1.5811468362808225 -1.0013939738273618 -0.95886018872261036 -1.0155646800994871 -0.22566928714513776 1.0028424859046938 0.97720468044281017 1.1033566594123843 1.6224737167358401 -0.96914020180702198
decision_type=2 2 2 2 2 2 2 2 2 2 2 2 2 2 2 2 2 2 2 2 2 2 2 2 2 2 2 2 2 2 2 2 2 2 2 2 2 2 2 2 2 2 2 2 2 2 2 2 2 2 2 2 2 2 2 2 2 2 2
left_child=1 6 7 4 5 -4 9 16 15 10 11 -1 -12 14 -11 -9 36 18 48 -10 49 -15 -20 43 27 26 35 34 29 -29 -22 -28 -30 -6 37 -26 -3 -25 -36 47 41 -19 -18 53 45 46 -45 -27 -8 -5 -41 -47 -46 57 55 -55 -56 -2 -59
right_child=23 2 3 20 33 -7 17 8 19 13 12 -13 -14 21 -16 -17 42 40 22 -21 30 -23 -24 24 25 39 31 28 32 -31 -32 -33 -34 -35 38 -37 -38 -39 -40 50 -42 -43 -44 44 52 51 -48 -49 -50 -51 -52 -53 -54 54 56 -57 -58 58 -60
leaf_value=0.064571628285524471 -0.12704894315250018 -0.09731099762482387 0.02801357778436462 -0.13903810727053681 0.16500866274545864 -0.064118264499631386 0.21528736361349604 0.093867080750561521 0.0070758971982765959 -0.0017938014315390099 0.16673469379192088 -0.023020689783721616 0.077325204792245902 -0.012857411879967685 0.116218398369142 0.027316306582223067 0.14658810418544285 0.076866087707587016 0.1599268783745591 0.40286366567337728 0.078510725463841302 -0.13032630352798755 0.094154983816411797 -0.0066805548625292121 -0.086655472346504184 0.14860954397851719 0.080791398035281681 0.024018031426436402 0.086467357545363652 0.082808286096819353 -0.067908271993393554 -0.088505389382204869 0.14626058281389154 0.08655566632530623 0.080037061887035646 0.01669337924752726 -0.0077206028990447614 0.1259158758225927 -0.064573292986197572 0.13240990929004551 0.22271368385261225 -0.14253340758224986 -0.033565261563078028 -0.12109043122228176 0.25067902078427245 0.0091546139933466972 -0.0023615007583215664 0.016557487450833443 0.12733717404413558 0.12948381586600841 -0.14786362347923862 0.21616240109265716 0.10918442586438018 -0.18168524764169999 -0.136561323720191 -0.15478190281133838 -0.12272377174997445 -0.11599418367695896 -0.12065970721869285
leaf_weight=10765.58539237082 2.7560205906629553 378.57878717035055 16647.865599885583 94.906437620520592 616.95791437663138 2613.1103545445949 454.8861068636179 14853.675873357803 1846.5416265204549 1379.3081398308277 1772.0326903611422 2527.8413664400578 13839.552864819765 1433.4505185708404 1637.3233141601086 1761.7356689050794 230.3097900301218 47.008529990911484 1091.4188156351447 25.417598091065884 7149.8091282397509 318.91781834512949 3106.8791094347835 104.09026735648513 399.21005905419588 524.34085918217897 1908.2135308906436 1812.9368241727352 1607.6786484867334 8897.4362867698073 148.30115467309952 107.01379147171974 1328.4921395331621 1040.8339834585786 723.59807392954826 445.05229660123587 925.47701115906239 3785.2724816054106 91.764050886034966 5.3043675869703319 13.114680990576742 109.63502523303032 26.964253082871437 75.850798532366753 17.041231416165832 10.469564169645311 152.13650443404913 42.585088305175304 59.705843180418015 5.9765899926424018 21.728103965520859 17.633007869124413 11.831196792423723 3.8578816801309612 3.190089911222457 22.367318317294121 3.3807100504636765 2.4518580883741379 2.6570934951305389
leaf_count=29289 18 2165 59520 408 734 15959 142 28488 8809 3587 1465 8344 32696 4435 2309 5377 202 82 1293 24 13820 1396 5349 476 1642 629 2990 3823 2584 12392 541 651 970 2003 937 1428 6093 2948 249 6 8 420 90 656 20 44 567 124 67 11 121 15 27 16 18 104 23 21 19
internal_value=0 0.0595702 0.0513605 0.0363572 0.023458 0.0155142 0.0698686 0.0725519 0.0792812 0.0632649 0.0692809 0.0479153 0.0874739 0.0268021 0.0622591 0.0868107 -0.00712822 0.115412 0.121499 0.0124499 0.0728267 -0.0342359 0.111254 0.0826543 0.0841658 0.0560739 0.0411023 0.0894522 0.0816062 0.0728569 0.0755354 0.0718013 0.113521 0.115752 0.112211 -0.0321752 -0.0337295 0.122367 0.063762 0.128152 -0.0535613 -0.0766919 0.127707 -0.0185541 -0.000256092 -0.0220104 -0.0418623 0.13869 0.205083 -0.12313 -0.0928678 0.139042 0.192698 -0.146791 -0.15287 -0.15874 -0.129442 -0.121444 -0.118421
internal_weight=0 86923.1 48366.5 28317.8 20918.8 19261 38556.7 20048.7 18487.4 33674 28905 13293.4 15611.6 4769 3016.63 16615.4 1561.33 4882.65 4712.89 1871.96 7398.99 1752.37 4198.3 22130.3 21804.7 3453.45 2859.49 18351.3 13646.5 10710.4 7298.11 2015.23 2936.17 1657.79 4704.72 844.262 1304.06 3889.36 815.362 593.958 169.758 156.644 257.274 325.623 284.962 256.09 227.987 566.926 514.592 100.883 27.0325 28.1026 28.8724 40.661 32.796 26.2252 6.5708 7.86497 5.10895
internal_count=268644 235126 144244 92996 78216 75479 90882 51248 42698 83521 71794 37633 34161 11727 5896 33865 8550 7361 6851 8833 14780 5831 6642 33518 31970 7591 6711 24379 19769 16215 14361 3641 3554 2737 4610 3070 8258 3424 1186 880 510 502 292 1548 1329 1282 1223 753 209 419 127 59 47 219 161 120 41 58 40
is_linear=0
shrinkage=0.1


Tree=11
num_leaves=55
num_cat=0
split_feature=71 30 100 72 128 54 30 135 42 99 31 59 37 134 130 100 79 107 128 70 27 46 126 40 70 3 99 129 5 72 99 122 129 47 5 54 100 100 45 123 93 106 114 71 35 48 32 120 92 31 129 129 73 46
split_gain=873.428 1468.27 938.691 813.258 1390.47 1131.25 938.077 610.857 917.751 573.17 553.654 535.58 516.607 505.019 494.923 679.258 624.263 572.137 470.717 469.639 558.883 371.018 336.291 269.479 256.098 255.833 223.063 261.19 202.553 164.53 151.27 150.82 153.929 131.647 100.182 82.5211 76.6199 116.822 62.4484 54.6369 196.488 49.512 32.5336 28.4754 27.7089 25.9219 2.15063 1.16691 0.698794 0.448052 0.344935 0.126668 0.0711188 0.00497052
threshold=-0.49087324738502497 1.0559052824974062 -0.86476826667785633 -0.62560558319091786 1.0000000180025095e-35 1.0417647957801821 1.0484651923179629 1.0000000180025095e-35 1.0032819509506228 -1.0378766059875486 1.0143980383872988 0.77774217724800121 0.94946900010108959 1.0000000180025095e-35 1.0000000180025095e-35 -0.87205615639686573 -1.3487904071807859 -0.86305993795394886 1.0000000180025095e-35 -0.27969983220100397 1.2125526666641238 1.1000972390174868 -1.7929605841636655 0.98421645164489757 -0.28057159483432764 0.51534965634346019 -0.87745258212089527 1.0000000180025095e-35 0.67077746987342846 -0.57467421889305104 -0.92256930470466603 -1.8535624146461485 1.0000000180025095e-35 1.0895043015480044 0.6506938934326173 0.99675795435905468 -0.89163410663604725 -0.87121689319610585 1.1100767850875857 -1.5395783782005308 -0.9096851348876952 -0.91190397739410389 -1.1582896113395689 -0.49281013011932367 0.9060712754726411 1.1134735345840456 0.93022167682647716 -0.582655370235443 -1.0543733239173887 1.0061023235321047 1.0000000180025095e-35 1.0000000180025095e-35 -0.91922876238822926 1.0271870493888857
decision_type=2 2 2 2 2 2 2 2 2 2 2 2 2 2 2 2 2 2 2 2 2 2 2 2 2 2 2 2 2 2 2 2 2 2 2 2 2 2 2 2 2 2 2 2 2 2 2 2 2 2 2 2 2 2
left_child=9 2 23 11 6 -6 -5 8 36 46 14 13 -13 -4 16 28 18 -18 -11 20 -10 39 -17 24 30 -21 27 34 -16 41 -2 -25 -33 43 -12 -29 49 -38 -31 42 -41 -23 -9 -28 -26 -35 47 48 50 -3 -1 52 -49 -53
right_child=1 7 3 4 5 -7 -8 21 19 10 26 12 -14 -15 15 22 17 -19 -20 25 -22 29 -24 31 44 -27 33 35 -30 38 -32 32 -34 45 -36 -37 37 -39 -40 40 -42 -43 -44 -45 -46 -47 -48 51 -50 -51 -52 53 -54 -55
leaf_value=-0.1167586017296026 -0.13369565354071486 -0.13826805851358678 0.075922057672598645 0.065465241139871511 0.043478566915925582 -0.08058423286964396 0.019916874606968487 0.094361505945144683 0.081878156225949128 0.074753424087602147 -0.13461546767839966 0.1107247915173904 -0.0041232830435490708 -0.11448380039534256 -0.052580171094852239 -0.16205371466893595 0.070518858514875535 0.019501190955441762 0.15174583107513095 0.0019464375746039511 0.014497038188421685 -0.060467913715376333 0.099757030264984059 0.31269976001292132 -0.12832071464797015 -0.099799794424084418 -0.14568299082137753 0.13154020361196889 0.029017845540608225 0.19449084224888902 0.065399246306485789 -0.086391662413989934 0.0043035386741154215 0.13885328785920353 -0.039525584142985862 -0.050821481112821212 -0.01545989217732666 -0.090641134413766228 -0.048515032182598436 0.12846793022135847 -0.18098450515988507 -0.22688129798459317 0.19717445889858989 0.11941096088680934 0.10839602631228398 0.29103032445641469 -0.1824412317023012 -0.10569265732142726 -0.17076122195457893 -0.12789605286954886 -0.14035764745854962 -0.11797786936494699 -0.11553996881880835 -0.12344479408234532
leaf_weight=24.269049923866987 40.889214418828487 127.79770727455616 357.03545073419809 32310.926611095667 1645.2299910485744 1328.4371985122561 5257.3212615400553 38.261592581868172 1531.5566297769547 1567.9996081180871 192.21352401003242 5224.712195597589 423.40351025760174 228.41602021455765 848.8424354493618 51.760543689131737 42200.253942649812 2318.9484962634742 1608.8444563224912 532.48868187516928 6271.8272656053305 110.38088347762823 940.85672852396965 11.037058547139166 100.18073349818587 461.14047219231725 14.194833576679232 92.616047069430351 474.14065769687295 36.33039502799511 572.19527885317802 625.08150234632194 267.09521540999413 17.583324387669563 261.56473329663277 33.895444855093956 313.1674108505249 607.85859926789999 14.917374536395071 437.17442673444748 21.529079407453537 21.334175452589989 157.35242909193039 5.6707711070775977 5.201700694859027 30.80245990306139 4.3469140529632559 121.5123843960464 3.3473193347454062 61.784069530665874 8.3159844726324064 4.1464095637202254 7.8052386566996566 2.7768682986497879
leaf_count=237 362 684 656 77524 5553 9764 17219 80 4302 3722 1177 8340 1488 908 4730 225 76770 8135 1143 2452 20348 379 1910 4 1265 2759 74 151 2338 28 1269 3178 651 36 1297 139 1222 2291 61 363 89 87 73 8 6 17 20 2520 15 391 44 33 88 19
internal_value=0 0.049034 0.0564581 0.0590512 0.0538809 -0.0119445 0.0590912 0.0155942 0.00866281 0.0669083 0.0675351 0.0926783 0.102115 0.00163452 0.0687256 0.0235772 0.0709175 0.0678614 0.113745 0.0194769 0.0277218 0.0976138 0.0861048 -0.0183378 0.027368 -0.0452737 -0.024267 -0.0443801 -0.0233365 -0.0282714 0.0521208 -0.0546948 -0.0592398 0.146739 -0.0798042 0.0826812 -0.0769946 -0.065078 0.123756 0.132814 0.113944 -0.0874223 0.177065 -0.0700101 -0.116636 0.235729 -0.112974 -0.11122 -0.127251 -0.134888 -0.122781 -0.106993 -0.106287 -0.120171
internal_weight=0 59142.1 48397.2 46775.5 40541.9 2973.67 37568.2 10744.9 9907.62 50836.7 50660.2 6233.57 5648.12 585.451 50011.6 2315.6 47696 44519.2 3176.84 8797.01 7803.38 837.28 992.617 1621.68 718.467 993.629 648.541 580.29 1322.98 182.963 613.084 903.214 892.177 68.2514 453.778 126.511 1110.61 921.026 51.2478 654.318 458.704 131.715 195.614 19.8656 105.382 48.3858 176.52 172.173 35.9324 189.582 32.585 136.241 129.318 6.92328
internal_count=268644 163796 128187 121452 110060 15317 94743 35609 34449 104848 101872 11392 9828 1564 98973 9203 89770 84905 4865 29861 24650 1160 2135 6735 2902 5211 2899 2764 7068 555 1631 3833 3829 135 2474 290 4588 3513 89 605 452 466 153 82 1271 53 2976 2956 296 1075 281 2660 2608 52
is_linear=0
shrinkage=0.1


Tree=12
num_leaves=54
num_cat=0
split_feature=135 110 118 0 122 89 120 30 106 75 96 29 127 111 117 84 69 32 51 105 39 126 4 125 70 4 28 69 45 71 30 58 4 108 104 5 1 75 31 108 57 33 39 34 117 30 73 114 105 120 87 30 68
split_gain=761.989 629.884 864.784 1422.4 1566.69 750.439 346.575 322.99 343.653 438.463 427.517 332.532 317.747 289.536 269.219 257.554 250.266 299.185 230.228 192.939 162.324 198.081 160.503 201.172 173.247 210.25 246.934 157.658 168.543 157.43 157.165 142.995 131.837 131.284 122.803 95.6247 86.9108 82.0203 81.2068 79.5224 57.889 28.3241 38.3978 15.9732 26.2223 4.47528 0.397109 0.341108 0.142974 0.0882537 0.0749986 0.0564681 0.0189319
threshold=1.0000000180025095e-35 -1.2051221728324888 -1.622767388820648 -0.23887598514556882 -2.034928441047668 -0.3268361091613769 -1.7581501603126524 1.0907744765281679 -0.91900935769081105 -1.0921186208724973 -1.0058259367942808 1.177503287792206 -3.1384184360504146 -1.2426694631576536 -0.90995618700981129 -0.13692736625671384 -0.4051916748285293 0.89861902594566356 1.0914003252983095 -0.89443224668502797 1.0243222713470461 -2.8271157741546626 0.67659717798233043 -1.3238465785980222 -0.51363232731819142 0.76430901885032665 1.3448830842971804 -0.17157309502363202 1.0948542356491091 -0.35125178098678583 1.1033566594123843 0.88128140568733226 0.71147444844245922 -1.006119906902313 -0.89411744475364674 0.69197911024093639 0.54353454709053051 -1.1269032359123228 0.97886765003204357 -0.98943874239921559 1.0015245079994204 0.82579305768013012 1.0289150476455691 0.83477461338043224 -1.5768098235130308 1.0958320498466494 -0.90375491976737965 -0.94536003470420826 -0.90593647956848133 -1.5741583704948423 -0.28326220810413355 1.0981198549270632 0.20521638542413714
decision_type=2 2 2 2 2 2 2 2 2 2 2 2 2 2 2 2 2 2 2 2 2 2 2 2 2 2 2 2 2 2 2 2 2 2 2 2 2 2 2 2 2 2 2 2 2 2 2 2 2 2 2 2 2
left_child=1 33 20 6 13 -6 15 8 18 10 14 -12 -8 -5 -10 -4 19 -18 27 -11 21 40 23 34 25 26 -24 28 -2 39 32 -31 -26 43 36 -36 -9 -27 -29 -20 -3 -22 -43 44 -1 46 -25 -32 52 -46 -50 -47 -45
right_child=7 2 3 4 5 -7 12 22 9 16 11 -13 -14 -15 -16 -17 17 -19 29 -21 41 -23 24 45 30 37 -28 38 -30 31 47 -33 -34 -35 35 -37 -38 -39 -40 -41 -42 42 -44 48 49 51 -48 -49 50 -51 -52 -53 -54
leaf_value=0.20210309739801935 0.048215827809713979 -0.15598349326867264 0.18913015496996419 0.015057560316580077 0.047186450292450471 -0.092915269354254648 -0.11588716672490854 -0.028496531857608309 0.079201473668425337 0.066031033660155627 0.042479430355031544 -0.065936776567093777 0.067236156374662945 0.17965760028943023 -0.051920226352494075 -0.1212716386707226 0.11074243137479085 0.075914740655025612 -0.072226010119321421 -0.049179902334922886 0.26004861515749067 0.22806499388751697 0.029655394659452435 -0.17260461199483806 0.054978647821696959 -0.037089654469382546 -0.084197191718891048 -0.14952269085530417 -0.15492545798648649 0.17972182207888068 -0.15001331423453731 -0.12796884520072302 0.11964464238271344 0.2148491006120232 -0.19683490063170675 0.034468834577109822 0.062631389694067591 0.11450364122664297 0.15271196742556012 0.049004328092198186 0.2235918222536192 0.11107460140810238 0.19437734615097527 -0.12363503112575658 -0.11294859641386401 -0.14337425883784199 -0.20167133633828219 -0.12697391961936241 -0.11411538325019438 -0.13811370296713396 -0.11075896600730824 -0.131036024653962 -0.11760112678725128
leaf_weight=4.3011531233787537 1661.8033876493573 36.360082298517227 81.228311941027641 118.93444472551346 85296.209582639858 384.04267213493586 773.5387756973505 159.79050237685442 2488.9284857362509 2260.1602355241776 696.92404718697071 476.22681437432766 107.98026488721371 1053.2392918914557 167.10045321285725 39.843332760035992 5294.754802800715 4617.6940682828426 321.77365886047482 155.346520408988 52.356420397758484 28.884271562099457 938.52560974657536 5.3527932316064826 778.26201076805592 40.591452583670616 239.01488428935409 9.3379262052476388 41.871854558587074 59.926036454737186 22.950618460774425 20.193759508430958 529.95872358977795 13.096879214048384 45.83493110537529 29.298088192939758 303.32653030753136 295.6502752751112 185.34666685014963 65.046737983822823 4.5170570313930503 64.712379902601242 381.78915065526962 11.650739639997482 3.6411077901721001 6.0556650161743155 38.553796574473381 8.9251693487167341 128.7561767026782 2.2576992362737638 137.84778428077698 9.5735412016510946 9.3915776461362839
leaf_count=2 3133 168 64 282 223188 1525 4606 520 3338 3542 1099 1304 1319 407 482 289 4308 5546 1499 381 19 10 2224 23 1413 121 1419 73 212 81 109 181 589 9 195 60 654 437 175 106 5 70 132 77 41 29 155 55 1210 12 1612 55 79
internal_value=0 0.0470583 0.0475579 0.0467623 0.0481294 0.0465585 -0.0716665 0.0678583 0.0730919 0.0783035 0.0487454 -0.00153086 -0.0934558 0.162956 0.0709521 0.0869804 0.0874846 0.094518 0.0374919 0.0586216 0.170483 0.0276069 0.0397733 -0.00734305 0.0496426 0.0264605 0.00654582 0.052965 0.0432231 -0.0254144 0.0758291 0.10217 0.0811748 -0.0950199 0.0119503 -0.106638 0.0311893 0.0962031 0.138215 -0.0518402 -0.114039 0.190464 0.182304 -0.108645 0.0143333 -0.18177 -0.198128 -0.143562 -0.113006 -0.12258 -0.11238 -0.135817 -0.120942
internal_weight=0 88734.6 88423.6 87855 86852.4 85680.3 1002.59 21974.1 18522.4 16157.1 3829.18 1173.15 881.519 1172.17 2656.03 121.072 12328 9912.45 2365.3 2415.51 568.619 69.7614 3451.66 597.786 2853.88 1513.78 1177.54 1898.36 1703.68 466.94 1340.1 80.1198 1308.22 310.943 538.25 75.133 463.117 336.242 194.685 386.82 40.8771 498.858 446.502 297.846 10.2 59.5358 43.9066 31.8758 287.646 5.89881 266.604 15.6292 21.0423
internal_count=268644 235126 232084 231680 225402 224713 6278 33518 25460 20000 6223 2403 5925 689 3820 353 13777 9854 5460 3923 404 183 8058 1691 6367 4201 3643 3593 3345 1867 2166 262 2002 3042 1429 255 1174 558 248 1605 173 221 202 3033 55 262 178 164 2978 53 2822 84 156
is_linear=0
shrinkage=0.1


Tree=13
num_leaves=53
num_cat=0
split_feature=18 29 35 76 91 76 128 53 76 115 54 136 71 6 119 75 81 29 73 73 26 29 29 133 0 115 45 76 117 32 128 118 52 29 135 36 103 103 103 2 92 49 8 27 110 109 135 117 110 105 127 92
split_gain=714.895 880.821 561.516 603.721 672.321 865.855 975.2 575.428 461.126 444.078 438.57 431.406 423.643 460.829 368.43 282.759 227.183 216.278 193.881 192.018 185.935 184.23 175.919 224.284 175.54 178.216 171.856 148.951 138.647 413.644 170.223 144.783 123.699 104.787 98.6919 93.9972 92.7748 80.4544 78.7536 72.0312 153.725 54.7287 48.3089 20.8236 7.99746 28.642 4.06254 1.57479 1.29899 0.653914 0.391008 0.380959
threshold=1.4030054211616518 1.2013645768165591 0.7549070715904237 -1.2727112174034116 -1.1877976059913633 -1.2181645631790159 1.0000000180025095e-35 1.0034188628196719 -1.2505908012390134 -0.9013887047767638 0.87045156955719005 1.0000000180025095e-35 -0.66098490357398976 0.79705733060836803 -1.0017149448394773 -1.1408228278160093 -1.2528480887413023 1.2355101704597475 -0.93307381868362416 -0.84032586216926564 1.4291424155235293 1.2144577503204348 1.1353134512901308 1.0000000180025095e-35 0.602199286222458 -0.93248245120048512 0.92818507552146923 -1.1940463781356809 -0.88989678025245655 0.95390665531158458 1.0000000180025095e-35 -0.88788476586341847 0.97299998998641979 0.95677632093429577 1.0000000180025095e-35 0.93273091316223156 -0.88970392942428578 -0.94137921929359425 -0.89720740914344776 0.53693699836730968 -1.0790770053863523 1.1402412652969363 0.63100138306617748 1.3741915822029116 -0.98387867212295521 -0.9546474516391753 1.0000000180025095e-35 -1.0199188590049741 -1.0746254324913023 -0.90525954961776722 -2.5342468023300166 -1.0601334571838377
decision_type=2 2 2 2 2 2 2 2 2 2 2 2 2 2 2 2 2 2 2 2 2 2 2 2 2 2 2 2 2 2 2 2 2 2 2 2 2 2 2 2 2 2 2 2 2 2 2 2 2 2 2 2
left_child=2 11 43 28 7 9 -7 15 -9 -6 12 16 13 18 21 -5 20 -15 -3 36 27 32 33 -24 38 -26 -22 -2 35 30 -30 -31 -12 -18 -23 42 -14 -21 -16 40 -13 -37 -4 44 48 -46 -47 -41 50 -42 -1 -49
right_child=1 10 3 4 5 6 -8 8 -10 -11 14 39 19 17 24 -17 22 -19 -20 37 26 34 23 -25 25 -27 -28 -29 29 31 -32 -33 -34 -35 -36 41 -38 -39 -40 47 49 -43 -44 -45 45 46 -48 51 -50 -51 -52 -53
leaf_value=-0.13636023187421931 -0.10930010079530117 -0.13662532197119201 0.20495148967258914 0.093735212668200479 0.088220532743155666 0.043336725764889505 -0.0056947294199449564 0.016107606384555079 -0.070542456047292992 -0.030210296475087196 0.080627990569353394 0.35014222121342514 0.094141037950342968 0.077992998855608453 -0.15063305404562477 -0.10244115814662896 -0.042336659787561959 0.010648220330520208 -0.0015751012888291878 -0.1436107899617817 0.038565614294119123 -0.14900759386524198 0.085673912406714292 0.14166133325970598 0.052103315903522601 -0.15288734959253816 -0.10910880078552343 0.10376148781069999 0.048430364246931382 0.034126269913099957 0.12557529465569681 -0.10358382372916944 -0.12771131461091553 0.15067195948646786 0.033849152383984747 -0.16484283326932372 -0.10130167812745333 0.019523071118753545 0.050617339315642496 -0.18430711226790686 -0.17641360989711874 0.2277214036316238 0.12564994407684238 0.057084264482286755 0.16124688266133869 -0.1075546646582994 -0.19774716683017968 -0.11885875660934027 -0.2093579173010654 -0.13084062965161883 -0.16715846856762442 -0.14296890021741951
leaf_weight=7.3345359265804335 34.602465933188796 114.95198480039835 87.692734077572823 683.0113283842802 5342.590749822557 80686.274597153068 4271.1590388715267 1244.0977005437016 1212.9394992236048 336.55896797031164 409.80801720172167 10.725480794906618 2235.2457394525409 1677.611254028976 254.57164166867733 82.328359447419643 29.129815835505724 666.26656318455935 1412.8546934016049 39.055458709597588 548.50030017830431 70.962516747415066 4337.7484015636146 856.84922412037849 136.0911505036056 61.611573480069637 92.027100205421448 634.10831812955439 418.43020199984312 170.99622369557619 903.90677981078625 137.92748188972473 30.628625482320786 818.6016384921968 50.536128506064415 16.369444079697136 24.554762825369835 133.80944329500198 21.05253890901804 4.0129631683230391 8.1565276682376844 4.5352787673473349 619.46459603309631 7.6416945978999129 3.973402500152587 216.04290251247585 5.1122711747884741 97.760850097984076 5.585857279598712 5.1279720626771441 9.4121953807771206 7.0244857221841803
leaf_count=39 282 510 52 1297 9368 193930 19075 3938 5674 1246 643 32 2517 2565 1144 405 128 2283 3560 144 1050 287 5064 677 328 318 404 1195 1133 436 563 574 117 471 132 80 75 274 47 17 36 6 604 23 1 4824 21 909 26 39 43 38
internal_value=0 0.0662532 0.042666 0.0430588 0.0418029 0.0433988 0.0408717 -0.00308341 -0.026668 0.0812021 0.0416381 0.0903922 0.0515438 0.0309957 -0.0186842 0.0726323 0.0936192 0.0588497 -0.0117363 0.0842469 0.055854 0.0360665 0.101802 0.094909 -0.0836845 -0.0117795 0.0173486 0.0927366 0.0930201 0.0768249 0.101164 -0.0273582 0.0661398 0.14404 -0.0729502 0.129306 0.0920174 -0.0173338 -0.135261 -0.0882329 0.0685371 -0.079676 0.135484 -0.1055 -0.110521 -0.104859 -0.10964 -0.122829 -0.167599 -0.158822 -0.15367 -0.120475
internal_weight=0 14824 96473.4 96218.3 93859 90636.6 84957.4 3222.38 2457.04 5679.15 7339.61 7484.38 6304.35 3871.68 1035.26 765.34 7351.57 2343.88 1527.81 2432.67 1309.24 561.935 6042.33 5194.6 473.327 197.703 640.527 668.711 2359.32 1631.26 1322.34 308.924 440.437 847.731 121.499 728.062 2259.8 172.865 275.624 132.808 24.01 20.9047 707.157 255.103 247.461 225.129 221.155 108.798 22.3326 13.2845 16.7467 104.785
internal_count=268644 25286 243358 238381 234933 223619 213005 11314 9612 10614 14944 10342 11928 8918 3016 1702 9271 4848 4070 3010 2931 1179 6340 5741 1837 646 1454 1477 3448 2706 1696 1010 760 599 419 742 2592 418 1191 1071 107 86 656 4977 4954 4846 4845 964 108 75 82 947
is_linear=0
shrinkage=0.1


Tree=14
num_leaves=63
num_cat=0
split_feature=135 84 127 118 127 118 76 0 74 72 29 30 127 116 129 134 134 26 53 99 129 53 109 55 117 0 72 100 51 88 30 106 75 94 4 30 69 114 51 1 127 29 71 37 122 31 71 57 102 3 125 1 107 70 30 109 33 0 4 72 30 30
split_gain=679.846 550.748 1114.26 1444.89 1746.64 1080.62 1030.43 1329.31 1051.24 1047.23 1094.1 1005.14 1837.09 981.899 966.674 939.758 779.097 667.46 637.398 837.491 719.993 659.985 546.613 534.263 493.72 411.614 409.646 321.337 320.631 280.825 258.722 280.621 374.733 375.639 249.689 226.365 225.967 265.616 188.966 178.166 166.351 157.746 140.993 200.736 135.295 127.678 127.528 114.822 107.758 290.027 247.571 150.706 196.632 87.2082 87.0668 81.4466 73.964 65.7232 60.3532 33.4608 4.33724 0.587641
threshold=1.0000000180025095e-35 -1.1481277346611021 -2.2569593191146846 -1.3443906307220457 -2.4458760023117061 -1.2795906066894529 -1.173859119415283 0.36661745607852941 -0.91270697116851796 -0.6431923210620879 1.1506482362747195 1.0482044219970705 -2.1058418750762935 -1.3722867369651792 1.0000000180025095e-35 1.0000000180025095e-35 1.0000000180025095e-35 1.2179157733917239 1.0658848881721499 -0.85954147577285755 1.0000000180025095e-35 1.0509372949600222 -0.88756239414215077 1.0284289717674258 -1.008697986602783 0.29779168963432318 -0.61937126517295826 -0.7995818257331847 1.0579894185066225 -1.1926615834236143 1.0901079177856448 -0.91900935769081105 -1.0921186208724973 -1.0643483996391294 0.66573950648307811 1.0617563128471377 -0.4051916748285293 -0.95255565643310536 1.0914003252983095 0.54353454709053051 -2.1285508871078487 1.2013645768165591 -0.49390418827533716 0.88307970762252819 -1.243383467197418 0.97833198308944713 -0.35125178098678583 0.92838409543037426 -0.92581042647361744 0.71494072675704967 -1.2244635820388792 0.62423378229141246 -0.92247819900512684 -0.52873286604881276 1.0958320498466494 -1.0624590516090391 0.87451666593551647 0.4480747282505036 0.59368380904197704 -0.75806841254234303 1.0958320498466494 1.0958320498466494
decision_type=2 2 2 2 2 2 2 2 2 2 2 2 2 2 2 2 2 2 2 2 2 2 2 2 2 2 2 2 2 2 2 2 2 2 2 2 2 2 2 2 2 2 2 2 2 2 2 2 2 2 2 2 2 2 2 2 2 2 2 2 2 2
left_child=1 6 3 4 13 28 18 8 22 10 -9 17 -13 -3 -11 -10 26 -7 19 21 24 -1 -8 -18 -20 -6 -5 -22 40 -21 31 38 33 34 -33 -35 41 -38 42 44 -4 -34 43 -2 57 -44 56 -48 49 50 -41 52 -50 -53 -51 -30 -40 61 -59 -46 -61 -32
right_child=30 2 5 16 25 11 7 9 15 14 -12 12 -14 -15 -16 -17 23 -19 20 29 27 -23 -24 -25 -26 -27 -28 -29 55 -31 39 32 36 35 -36 -37 37 -39 46 48 -42 -43 45 -45 59 -47 47 -49 51 54 -52 53 -54 -55 -56 -57 -58 58 -60 60 -62 -63
leaf_value=0.052133932048702515 0.040725282861841634 0.045181688035691454 0.051598679055414098 0.027195592013315013 0.1506870852457953 0.0086724034598812255 0.097891668879435317 0.040837192843221792 0.031922948350857072 -0.04632465149755717 -0.034416260593450751 -0.05793180655970475 0.054727288381585075 -0.029707997094234492 0.052862021915318719 -0.094836047457800735 -0.11257254591884516 0.10388587327055242 0.11120706127056229 0.11014087470348138 0.016329276972932155 -0.0039898351016856024 -0.0017624606918960461 0.096595610025218881 -0.051096110606367352 0.0047550540527830712 -0.058727227127929174 0.093294768615364954 0.13990819710772648 -0.16668358057754215 -0.16540516084604309 -0.17558594852939222 0.095169814562508226 0.099411639827752724 0.08295412953970345 -0.00062889564493362341 0.075650948233179915 0.1237016908211301 0.03564726565192166 0.04136574132926582 0.14891168544459973 0.033460046688898563 -0.14830649480879701 -0.078069303415918043 0.0323864075729366 0.096030269238795748 0.15299198874509609 -0.12994180519959703 0.087019957717460072 0.10172450542015515 -0.077535014815863085 0.024218595110452934 0.0021948010215587324 0.099069714221743627 0.030818886277422682 0.1902947437805492 -0.073596984745592356 0.24653174620033791 0.012299389434393262 -0.19350160079357157 -0.13541656895261026 -0.12965622995639911
leaf_weight=16590.767740523443 1153.3854305446148 8556.8139048740268 574.21744666993618 689.19890371710062 1680.0123861283064 869.7359287198633 3675.5693197399378 7277.6785656940192 6302.0488055031747 5837.1359759382904 2630.2136825583875 1706.5626165047288 9532.3287464976311 2201.0950804464519 1181.4759508669376 644.70132358372211 145.91169159859419 4797.3223211355507 209.50132967531681 2510.9737512208521 1284.661640457809 2398.1358665637672 647.35444827005267 748.7026159465313 1778.6085205227137 218.40802703797817 2846.8756262362003 938.93836475908756 776.08248905837536 37.188815623521805 14.104787036776544 38.308345675468445 538.50372567772865 257.57482574880123 1500.3117886483669 1855.7508747428656 8148.860425658524 1339.5175694078207 77.747682314366102 302.05109605193138 253.08984689414501 1795.1007250696421 22.282397165894508 162.253458365798 8.259498864412306 531.90720964968204 61.629938747733831 18.694447826594114 404.9137754663825 316.25129173696041 416.71209815144539 198.03840048238635 840.61226654797792 727.28681882470846 382.79281936958432 546.86111596226692 305.51451527699828 12.505919396877287 91.374275527894497 55.601274743676186 16.721523053944111 6.8222339972853652
leaf_count=40997 2058 22907 974 1625 1247 3719 7355 18498 19019 25069 10457 5476 18284 6805 2326 3052 601 6359 649 3832 2928 7493 2333 1002 9430 463 9747 1289 606 159 63 140 454 215 1820 3823 8827 850 217 689 177 3382 175 523 21 763 100 162 681 451 1810 490 1862 859 1086 248 1388 7 244 226 91 41
internal_value=0 0.0372493 0.0468015 0.0282592 0.0454647 0.0634278 0.0308493 0.0176419 0.044252 -7.50444e-05 0.0208599 0.0549352 0.0376206 0.0298591 -0.0296281 0.0201589 -0.0208884 0.0892733 0.045312 0.0522697 0.00973326 0.045046 0.0829685 0.0624803 -0.0339931 0.133898 -0.0419804 0.0488288 0.1302 0.106101 0.0570025 0.0620541 0.0669289 0.0389298 0.076517 0.0115642 0.0755781 0.0824345 0.0297271 0.0332929 0.0813687 0.0477002 0.0438968 0.0260747 -0.0572883 0.0862062 -0.0274248 0.0871429 0.0384772 0.0170351 -0.0275685 0.0524812 0.029771 0.0830501 0.062897 0.160736 -0.0514359 0.00792746 0.0404981 -0.158295 -0.180072 -0.153751
internal_weight=0 90088.2 36143.2 17087 12656.3 19056.2 53945 28196.2 11269.7 16926.5 9907.89 16905.9 11238.9 10757.9 7018.61 6946.75 4430.69 5667.06 25748.8 21537.1 4211.71 18988.9 4322.92 894.614 1988.11 1898.42 3536.07 2223.6 2150.25 2548.16 21601.4 17807.3 15473.9 3651.95 1538.62 2113.33 11822 9488.38 2333.42 3794.05 827.307 2333.6 1869.83 1315.64 205.39 554.19 463.587 80.3244 3588.66 1417.81 718.763 2170.85 1245.53 925.325 699.044 1322.94 383.262 124.807 103.88 80.5823 72.3228 20.927
internal_count=268644 235126 80240 44397 31422 35843 154886 88109 31759 56350 28955 33838 23760 29712 27395 22071 12975 10078 66777 52481 14296 48490 9688 1603 10079 1710 11372 4217 2005 3991 33518 24897 19511 5998 1960 4038 13513 9677 5386 8621 1151 3836 3519 2581 693 938 1867 262 7928 4036 2499 3892 2543 1349 1537 854 1605 355 251 338 317 104
is_linear=0
shrinkage=0.1


Tree=15
num_leaves=54
num_cat=0
split_feature=109 133 118 0 122 87 70 127 121 88 49 127 116 126 71 119 50 44 54 63 68 118 81 50 112 50 127 30 120 107 77 24 34 94 35 19 74 74 126 74 33 33 57 127 120 77 106 110 124 77 35 31 31
split_gain=608.654 758.417 647.673 868.256 1301.49 775.66 625.913 594.814 925.231 490.402 298.074 293.236 286.717 832.294 275.42 201.659 275.816 183.533 160.767 149.77 149.082 140.427 251.772 114.439 97.6125 228.303 96.1944 343.286 82.9291 74.2344 111.987 73.7078 123.149 50.4856 41.9276 41.8307 36.7188 33.0597 58.4194 18.1112 15.0706 21.2925 14.7651 4.90096 6.30511 3.55179 3.15997 1.52531 0.730475 0.649494 0.171497 0.0499813 0.0144536
threshold=-1.1326628923416135 1.0000000180025095e-35 -1.583899140357971 -0.18208879232406613 -2.0036728382110591 -0.37781000137329096 -0.34181216359138483 -3.1384184360504146 -1.8661451339721677 -0.39639864861965174 1.1946977376937868 -3.4913873672485347 -1.4908059835433958 -2.726571679115295 -0.21394698321819303 -1.6779925823211668 1.1564372777938845 1.1984331607818606 0.99675795435905468 0.57034569978714 0.21564459055662158 -1.622767388820648 -0.33805210888385767 1.1698101162910464 -1.2930197119712827 1.1585990190505984 -3.0627311468124385 0.88762599229812633 -1.7366912961006162 -1.0089097619056699 -0.59977203607559193 1.2463002204895022 0.84146547317504894 -0.38679674267768854 0.87290543317794811 1.2767339348793032 -0.51246136426925648 -0.62080192565917958 -2.3392598628997798 -0.48963151872158045 0.83819890022277843 0.83681061863899242 0.90397942066192638 -3.0311942100524898 -1.7259821295738218 -0.67757713794708241 -0.91190397739410389 -1.2051221728324888 -2.0026977062225337 -0.73843199014663685 0.85455238819122326 0.95552650094032299 0.899122714996338
decision_type=2 2 2 2 2 2 2 2 2 2 2 2 2 2 2 2 2 2 2 2 2 2 2 2 2 2 2 2 2 2 2 2 2 2 2 2 2 2 2 2 2 2 2 2 2 2 2 2 2 2 2 2 2
left_child=1 12 7 9 24 6 -6 8 11 31 14 50 13 21 -11 17 -17 -10 35 -7 -12 22 -1 -13 25 -5 27 39 -29 30 -15 32 -4 -26 -20 48 -23 42 -39 -9 41 52 -36 44 -28 49 -45 -47 51 -42 -2 -3 -14
right_child=2 18 3 4 5 19 -8 26 15 10 20 23 40 29 -16 16 -18 -19 34 -21 -22 36 -24 -25 33 -27 43 28 -30 -31 -32 -33 -34 -35 37 -37 -38 38 -40 -41 45 -43 -44 46 -46 47 -48 -49 -50 -51 -52 -53 -54
leaf_value=0.20365659729000646 -0.11763029905167091 -0.14502614875295977 0.1301058876289499 0.17041671549824605 0.045610753557971305 0.18070474877965748 0.03015644483869543 0.21223272863700871 -0.17953256967540676 -0.1275832012744311 -0.14068453544446344 0.15716283899889849 -0.12852643949379644 0.40872377148961397 0.15138757870584035 0.12243818432620615 -0.13558847055126705 0.14396545085914886 0.26568468685167956 -0.14996386584426913 -0.038348247203306852 0.016563555738695696 -0.1130453533940111 0.086643443786198107 0.22767665515368263 -0.16398370790624772 0.20790590720036675 0.12369999193314417 -0.14107874549981134 0.30172169079062722 -0.12239180108585934 0.29146632183665133 -0.1032254363948705 0.16362285719955058 0.12395986758987031 0.1546729813844121 -0.11601126233180153 -0.14488970044388644 0.18651156735348223 0.15855936721531474 -0.18677665922193648 0.13984417641211366 0.20930813815563823 0.22721113561897957 0.15586764961083363 -0.1161660268985108 0.2029801940753424 -0.13610098819496019 -0.19574489099404282 -0.15752197734411966 -0.13177897096120014 -0.15843387384786756 -0.137997372389801
leaf_weight=44.639501087367535 42.095056354999542 4.5405974984169042 109.05998569913208 69.267840281128883 47021.193021453917 14.469246199354528 59203.243324443698 83.538433954119682 23.270195424556732 57.759232414886355 511.34003670141101 457.70345667004585 4.7786530926823598 6.2291300296783474 91.378634586930275 47.985972717404366 303.12013504654169 71.190745979547501 47.553585827350616 256.77047328092158 197.27121711522341 22.29930779337883 57.352440536022186 462.81148808449507 159.82247327268124 28.948882311582565 50.377881079912186 15.498445123434065 49.957901790738106 71.597154602408409 10.946544356644152 19.075427185744047 28.538557313382626 534.78580640256405 30.748345509171486 5.1853891015052787 330.88096748664975 9.4007704108953494 12.251479625701903 254.07938329875469 11.825919374823568 4.8157690241932869 59.478648230433464 79.013856261968613 43.291988551616669 43.440242558717728 168.79105445742607 329.63131964951754 6.1730605959892282 21.182088159024715 10.755941018462179 7.171880766749382 2.431109681725502
leaf_count=41 331 22 96 33 93756 17 158126 21 100 1321 2873 184 31 2 81 39 1334 38 21 1076 1091 99 670 815 53 126 13 17 193 32 86 7 114 223 31 6 2767 47 3 121 48 6 25 28 31 408 41 1763 25 105 59 31 17
internal_value=0 -0.0355721 0.0377281 0.0366459 0.0375165 0.0365662 0.0369974 0.091904 0.0539218 -0.0554353 -0.085151 0.108556 -0.0710268 -0.0231645 0.0433457 -0.0654291 -0.100324 0.0642726 0.151323 -0.132324 -0.112195 -0.0777922 0.0255677 0.121707 0.165167 0.0718539 0.164289 0.131205 -0.0783857 0.256933 0.0702288 0.10725 0.0817119 0.178361 0.187026 -0.0954049 -0.107641 0.153593 0.0426269 0.17184 -0.133294 -0.0229689 0.180222 0.203341 0.183855 -0.136562 0.210706 -0.13378 -0.167908 -0.168003 -0.12051 -0.153236 -0.13172
internal_weight=0 1144.55 110466 108303 107289 106496 106224 2163.48 1418.93 1014.42 857.749 973.366 962.05 543.945 149.138 445.567 351.106 94.4609 182.504 271.24 708.611 455.172 101.992 920.515 792.825 98.2167 744.549 403.074 65.4563 88.7728 17.1757 156.674 137.599 694.608 159.433 23.0709 353.18 111.879 21.6523 337.618 418.105 12.0255 90.227 341.475 93.6699 406.08 247.805 373.072 17.8855 33.008 52.851 11.7125 7.20976
internal_count=268644 6286 262358 258993 253410 252975 251882 3365 2900 5583 5366 1389 6075 3697 1402 1511 1373 138 211 1093 3964 3577 711 999 435 159 465 352 210 120 88 217 210 276 127 84 2866 106 50 142 2378 54 56 113 44 2324 69 2171 78 153 390 53 48
is_linear=0
shrinkage=0.1


Tree=16
num_leaves=63
num_cat=0
split_feature=135 117 126 117 127 116 134 55 118 126 76 129 109 74 130 0 31 56 92 76 20 114 127 103 74 96 30 107 107 88 74 45 6 0 79 107 64 1 123 38 118 108 105 110 52 72 76 77 93 26 110 38 109 32 89 76 117 31 30 83 0 108
split_gain=563.67 487.24 1132.32 950.76 1213.95 1120.71 854.815 829.954 1102.59 1403.66 790.338 811.873 1556.02 1140.49 672.961 634.796 596.392 539.311 476.191 363.707 345.699 335.079 311.805 285.325 279.466 276.873 253.568 400.888 274.783 313.718 286.909 489.239 334.847 242.882 236.415 265.215 213.489 154.006 160.131 149.68 103.664 95.9163 95.4652 89.2861 87.9379 147.944 77.984 59.9571 119.161 69.277 56.1603 55.9514 53.2204 50.4622 50.2705 58.5392 49.1756 41.9629 23.2748 17.1726 2.45419 1.28509
threshold=1.0000000180025095e-35 -1.1082776784896848 -1.9924616217613218 -1.2740591764450071 -2.4458760023117061 -1.3722867369651792 1.0000000180025095e-35 1.0333848595619204 -1.2511720061302183 -1.8119772672653196 -1.2010666131973264 1.0000000180025095e-35 -0.88334691524505604 -0.91554293036460865 1.0000000180025095e-35 0.25223371386528021 1.0086044073104861 0.9727098047733308 -1.2253450155258176 -1.2047744989395139 1.6754720211029055 -0.93212297558784474 -2.2569593191146846 -0.74166491627693165 -0.86557298898696888 -0.83717355132102955 1.0576527714729311 -0.9556729495525359 -0.87381914258003224 -1.2205622792243955 -0.99107107520103443 0.98413243889808666 0.72882759571075451 0.41989299654960638 -1.4404170513153074 -0.8677724003791808 0.39471517503261572 0.65960413217544567 -1.0378203988075254 0.97569590806961071 -1.1565579175949094 -0.87806183099746693 -0.91067409515380848 -0.8852645456790923 1.0793558955192568 -0.50504192709922779 -1.1973912715911863 -1.2362791895866392 -1.0699610710144041 1.3874998092651369 -1.123656630516052 0.98988482356071483 -0.87882712483406056 0.90321710705757152 -1.2159584164619444 -1.2073760032653806 -0.90430831909179676 1.0027357935905459 1.0733419656753542 -0.89508020877838124 0.68518680334091198 -0.87957039475440968
decision_type=2 2 2 2 2 2 2 2 2 2 2 2 2 2 2 2 2 2 2 2 2 2 2 2 2 2 2 2 2 2 2 2 2 2 2 2 2 2 2 2 2 2 2 2 2 2 2 2 2 2 2 2 2 2 2 2 2 2 2 2 2 2
left_child=1 2 3 4 5 -1 22 8 33 -10 14 12 13 -12 16 -6 18 -8 -3 -18 -14 23 -5 -13 40 -26 27 42 29 43 32 -32 -31 -4 36 -36 -16 39 60 41 -9 -29 57 53 50 -46 -23 54 49 -49 -44 -41 -45 -28 55 -30 -40 59 -50 -2 -39 -56
right_child=26 10 7 6 15 -7 17 24 9 -11 11 21 20 -15 34 -17 19 -19 -20 -21 -22 46 -24 -25 25 -27 28 37 47 30 31 -33 -34 -35 35 -37 -38 38 56 51 -42 -43 44 52 45 -47 -48 48 58 -51 -52 -53 -54 -55 61 -57 -58 -59 -60 -61 -62 -63
leaf_value=0.037451270218176846 -0.16087356821674248 -0.11288524151897719 0.1447458393394607 -0.071294298793587105 0.11948703760923113 -0.035911936545871097 -0.096970689888826192 0.16795476523570588 0.0040205830965977345 0.082366808311922335 0.026009912540804592 0.04944146717220313 -0.064466166031778793 -0.025649006633549076 -0.11160067445432298 0.044059914485081293 -0.061273809970350937 0.077256110553253141 0.056961927309755848 0.10803017006920541 0.095204696884065423 -0.0065635256155314528 -0.012221625016482034 -0.057507723433228013 -0.1118147807265889 0.092827165406213025 0.050985254400106962 0.094923496601460502 -0.18542892306484302 -0.025178829594137211 0.080412313125072021 0.030752714532315803 0.035436345295248882 0.051913616945958634 0.14478970747590161 -0.039651054763690963 0.14347233067896911 -0.25668115199569841 0.12009186258831206 -0.01755177303481634 0.11370633066657665 -0.035397480309713097 -0.14330727401586588 -0.20058919445459489 -0.06726247125284128 0.061286560871810371 -0.13647707395003714 0.14495048722702619 -0.22164117335211064 -0.097671695801426706 0.078636639157052102 -0.25481575701614173 0.051997929053387085 0.11842290800372968 -0.23806148765159996 0.085531768810643505 -0.10202672641395978 0.19719448994958277 -0.031885557029127411 -0.07184168442061685 -0.20062671355680362 -0.19101410083381773
leaf_weight=8524.0069650188088 33.13007140904665 167.11400522477925 1369.0130573064089 1628.0272802636027 2194.5198277235031 2755.3579480759799 207.51530838012695 838.36597765982151 5189.1402446553111 4088.5648230314255 23404.599020823836 8452.8907053247094 3023.7396914344281 5228.3936315365136 41.948200006037951 2269.8774479925632 707.10489135235548 1235.2564816623926 13487.559414453804 154.6355688944459 141.96203119680285 75.289824485778809 1980.5334774404764 257.03605300188065 82.627639144659042 330.79897210747004 131.00157648324966 2990.4905229359865 14.823636770248411 1041.8644680827856 3788.5908575505018 4164.7075762525201 7274.9606995470822 354.89938396215439 82.426102582365274 1439.6161650195718 150.67519329488277 14.392493948340418 37.279948368668556 38.495510697364807 607.49943576753139 57.563082918524742 12.049115192145107 14.688955366611479 211.40670197457075 155.29360049962997 119.61295102536678 37.221672058105469 24.596754863858223 17.210176542401314 211.95939489454031 13.398432552814482 19.304689347743988 725.22986121475697 6.5720668137073508 17.253305077552795 13.604813724756239 4.906462885439395 8.7681947946548444 62.598313808441162 17.079585447907448 49.794642493128777
leaf_count=22918 168 3095 969 6163 2253 8793 813 440 13716 5605 64249 15666 17378 21043 939 3962 2906 1880 25280 259 345 180 5361 806 378 591 190 2346 61 2240 4218 7000 13591 542 242 7025 192 62 23 74 682 132 72 60 846 454 455 24 101 55 309 57 31 507 27 22 45 8 20 505 69 201
internal_value=0 0.029774 0.0393126 0.0248879 0.0369995 0.0195299 -0.0128612 0.0626364 0.0521931 0.0385468 0.0241354 0.0166953 0.00922161 0.016577 0.0427932 0.0811369 0.0497913 0.0521969 0.0548832 -0.0308929 -0.0573059 0.0433836 -0.0388727 0.0462853 0.12443 0.0519273 0.0478841 0.0710152 0.0427157 0.0439916 0.0408289 0.0544083 0.027843 0.125635 -0.0164531 -0.0296627 0.0879243 0.0860095 -0.0489569 0.0895952 0.145162 0.0924624 0.00199514 0.101795 0.0173329 -0.0128234 -0.0862922 -0.0815133 -0.0229721 0.0682386 0.0666986 -0.0788107 -0.0571472 0.108105 -0.139626 -0.0396866 0.0607051 -0.088035 -0.171774 -0.102654 -0.226261 -0.1965
internal_weight=0 90590.6 33656 20795.1 15743.8 11279.4 5051.33 12860.9 11001.6 9277.71 56934.6 40703.5 31798.7 28633 16231.1 4464.4 14516.4 1442.77 13654.7 861.74 3165.7 8904.83 3608.56 8709.93 1859.29 413.427 21210.2 3873.65 17336.6 17160.3 16270.1 7953.3 8316.83 1723.91 1714.67 1522.04 192.623 3182.3 82.3568 3099.95 1445.87 3048.05 691.344 890.225 590.709 366.7 194.903 176.24 87.7968 54.4318 224.009 51.8939 33.9936 856.231 88.4437 32.0769 50.8848 100.635 33.3649 95.7284 31.4721 56.3667
internal_count=268644 235126 75066 52143 37926 31711 14217 22923 20832 19321 160060 120122 103015 85292 39938 6215 31540 2693 28375 3165 17723 17107 11524 16472 2091 969 33518 5170 28348 27837 27049 11218 15831 1511 8398 7267 1131 2808 199 2609 1122 2478 2362 788 1681 1300 635 511 200 79 381 131 91 697 311 83 68 681 121 673 131 228
is_linear=0
shrinkage=0.1


Tree=17
num_leaves=55
num_cat=0
split_feature=109 133 118 0 122 16 127 121 6 88 127 51 86 71 116 126 120 119 50 44 112 54 118 81 112 50 127 30 120 24 40 47 107 77 73 72 32 127 125 94 97 33 33 36 58 74 49 106 77 110 127 127 31 125
split_gain=504.593 619.902 539.612 716.026 1080.21 649.906 480.887 767.273 476.271 411.055 316.588 259.161 257.396 251.061 248.469 638.081 208.127 168.869 230.908 153.833 148.134 124.709 120.67 203.21 79.3902 190.3 71.5532 285.488 68.3446 53.8422 100.729 53.4657 49.899 76.321 37.8815 35.3836 28.5477 44.9068 35.5508 28.1913 14.7912 13.1188 17.9349 10.3499 8.52944 4.05568 7.31291 3.99722 2.56961 1.14817 0.478215 0.420667 0.0318158 0.011776
threshold=-1.1326628923416135 1.0000000180025095e-35 -1.583899140357971 -0.18208879232406613 -2.0036728382110591 0.75174590945243847 -3.1384184360504146 -1.8661451339721677 0.72882759571075451 -0.39639864861965174 -2.9994015693664546 1.1669981479644778 -0.17037857323884961 -0.21394698321819303 -1.4908059835433958 -2.726571679115295 -1.7581501603126524 -1.6779925823211668 1.1564372777938845 1.1984331607818606 -1.264694035053253 0.99675795435905468 -1.622767388820648 -0.33805210888385767 -1.2930197119712827 1.1585990190505984 -3.0627311468124385 0.88762599229812633 -1.7366912961006162 1.2463002204895022 1.0824847817420962 1.1958855390548708 -1.0089097619056699 -0.59977203607559193 -0.63551971316337574 -0.37076798081398005 0.92161390185356151 -2.4662461280822749 -2.1399878263473506 -0.38679674267768854 -0.42913357913494105 0.83819890022277843 0.83681061863899242 0.88750776648521434 0.89856550097465526 -0.51246136426925648 1.218000650405884 -0.91449239850044239 -0.67757713794708241 -1.2051221728324888 -2.5342468023300166 -2.5342468023300166 0.95552650094032299 -2.3707605600357051
decision_type=2 2 2 2 2 2 2 2 2 2 2 2 2 2 2 2 2 2 2 2 2 2 2 2 2 2 2 2 2 2 2 2 2 2 2 2 2 2 2 2 2 2 2 2 2 2 2 2 2 2 2 2 2 2
left_child=1 14 6 9 24 10 7 12 -7 29 -6 13 31 -11 15 22 -14 19 -19 -9 -13 34 23 -1 25 -5 27 40 -29 30 -4 -2 33 -17 -3 -24 43 38 -38 -26 -8 42 53 -23 -45 47 -47 -28 51 -50 52 -43 -36 -16
right_child=2 21 3 4 5 8 26 17 -10 11 -12 20 16 -15 41 32 -18 18 -20 -21 -22 36 35 -25 39 -27 45 28 -30 -31 -32 -33 -34 -35 50 -37 37 -39 -40 -41 -42 48 -44 44 -46 46 -48 -49 49 -51 -52 -53 -54 -55
leaf_value=0.1737321376154731 0.14715179375373399 0.15072904634651074 0.10633946936271069 0.15328687923823969 -0.10592019109601165 0.027294676845400739 0.11524779666772578 -0.1697513315900262 0.045874557378450101 -0.13088012113169353 0.13300828212131105 -0.13402916279166599 0.079883658463290805 0.12214395450103362 -0.12599346752633003 0.29812424002665366 -0.12845265015875165 0.10921641108516743 -0.12983187930476386 0.13054280608800611 -0.011486974467016631 0.23189963165077782 -0.026627114719321304 -0.11221199813409695 0.19604564217548226 -0.15666366139654611 0.21258298258328123 0.10789303954472058 -0.13326860382251579 0.24714149155954393 -0.1563816419321904 0.093787082476430653 0.24046167710807587 -0.12067897916952258 -0.14036552751991244 -0.11903636335407708 -0.15975003932663312 0.17444084296147799 0.11689339554347576 0.14843718070335649 0.16596439916731576 -0.14834379235652984 0.12353680234478259 0.14069950714727297 0.20842087763897071 0.12863785186498147 0.18647313812474281 0.18002508226690392 -0.11488579130348991 -0.13277526074535492 -0.18180045403636791 -0.17133267224648449 -0.15124233566253234 -0.13450619903803812
leaf_weight=46.024635575711727 408.09796236455441 5.0896289646625545 113.62603598460555 67.706534892320633 488.04515719413757 89624.59331875667 74.175372868776321 22.686487041413784 16306.652098512277 62.560400135815144 62.56690145842731 537.53894197009504 117.13920392096043 105.0890963897109 4.1233213245868683 7.5080957412719753 81.184003964066505 46.846997365355492 293.98744162917137 68.773438572883606 120.81905526481569 36.860752806067467 48.389928959310055 54.028795674443245 163.67238017916679 28.000558376312256 46.161641553044319 15.455183997750281 49.035404324531555 20.444374233484268 16.744172170758247 347.70492641627789 79.16724294424057 10.349366083741186 4.3317916095256841 288.30991222336888 9.5465776324272156 28.637286186218262 9.0477874279022217 518.08644182980061 255.8600502461195 15.231177780777218 4.7703337818384171 46.890621468424797 30.82362562417984 38.907337725162506 49.905619621276855 205.93774971365929 40.51908347196877 313.12567417323589 6.0975787341594669 16.673290751874447 7.0925961881875992 2.6820363104343397
leaf_count=41 157 5 129 33 1825 218567 59 100 32482 1373 101 3304 334 122 28 2 520 39 1334 38 567 13 267 670 53 126 15 17 193 7 81 378 32 86 22 2599 44 7 7 223 83 76 6 39 17 32 12 54 408 1763 25 77 32 20
internal_value=0 -0.0369492 0.0306519 0.0296729 0.0304491 0.0295915 0.080594 0.0459212 0.0301548 -0.0555562 -0.0787704 -0.0832749 0.0959955 0.027725 -0.0701319 -0.0255696 -0.00539923 -0.0645987 -0.0969752 0.0560553 -0.111541 0.13055 -0.077102 0.0193225 0.147894 0.0626062 0.145958 0.116963 -0.0754742 0.096258 0.0725967 0.122602 0.206402 0.0554051 -0.0894286 -0.105755 0.16129 0.0958695 -0.0251388 0.159867 0.154566 -0.130028 -0.0251346 0.188259 0.16756 0.179513 0.161137 0.185987 -0.133178 -0.130726 -0.159187 -0.160358 -0.147118 -0.129348
internal_weight=0 1115.32 110358 108236 107259 106482 2121.86 1386.42 105931 976.822 550.612 826.007 954.126 167.649 930.903 533.778 198.323 432.294 340.834 91.4599 658.358 184.418 436.753 100.053 777.466 95.7071 735.438 394.526 64.4906 150.815 130.37 755.803 97.0247 17.8575 22.6116 336.7 161.807 47.2317 18.5944 681.759 330.035 397.125 11.5757 114.575 77.7142 340.912 88.813 252.099 385.549 353.645 17.522 31.9045 11.4244 6.80536
internal_count=268644 6286 262358 258993 253410 252975 3365 2900 251049 5583 1926 5366 1389 1495 6075 3697 854 1511 1373 138 3871 211 3577 711 435 159 465 352 210 217 210 535 120 88 84 2866 127 58 51 276 142 2378 54 69 56 113 44 69 2324 2171 79 153 54 48
is_linear=0
shrinkage=0.1


Tree=18
num_leaves=58
num_cat=0
split_feature=31 131 31 75 128 5 100 34 136 105 31 108 104 56 53 101 103 130 74 95 131 117 22 116 105 106 70 73 84 72 57 30 114 130 53 35 103 31 134 73 35 115 75 113 31 108 108 105 28 74 79 7 90 74 68 31 33
split_gain=460.521 828.03 662.435 589.554 1036.66 1076.02 882.385 609.186 540.394 576.922 531.988 666.831 555.681 466.589 437.67 429.061 406.955 384.538 446.604 719.108 418.589 373.757 353.774 350.908 327.611 291.958 273.095 269.252 263.36 334.76 260.564 253.694 234.143 225.728 189.266 183.657 172.089 147.774 137.333 122.918 98.3431 63.5793 235.216 109.735 53.1625 91.1656 48.5181 46.4972 56.2435 42.8795 41.9062 40.6051 30.2811 16.5731 20.0534 13.0335 0.952757
threshold=1.0055133700370791 1.0000000180025095e-35 1.000618100166321 -1.1315912604331968 1.0000000180025095e-35 0.59102568030357372 -0.85881245136260975 0.78161075711250316 1.0000000180025095e-35 -0.81950193643569935 0.99876257777214061 -1.0550280213356016 -0.84651648998260487 0.98024687170982372 1.0509372949600222 -0.81722831726074208 -0.7931540012359618 1.0000000180025095e-35 -0.95016917586326588 -1.0300710201263426 1.0000000180025095e-35 -1.0777928233146665 1.3366096019744875 -1.0201541185379026 -0.82335677742958058 -0.8518063724040984 -0.29294930398464197 -0.76522755622863758 -1.2029397487640379 -0.75806841254234303 0.92405569553375255 1.0394213795661928 -0.86844199895858754 1.0000000180025095e-35 1.0776937007904055 0.88131001591682445 -0.8221037983894347 1.0086044073104861 1.0000000180025095e-35 -0.74750027060508717 0.86453947424888622 -0.96020960807800282 -1.0907413363456724 -0.94492456316947926 1.0061023235321047 -0.88742488622665394 -0.95497769117355336 -0.92223450541496266 1.308391332626343 -0.96524474024772633 -1.3732612133026121 0.70671433210372936 -1.1839597225189207 -0.94296118617057789 0.049916399642825134 1.0058009028434756 0.92689245939254772
decision_type=2 2 2 2 2 2 2 2 2 2 2 2 2 2 2 2 2 2 2 2 2 2 2 2 2 2 2 2 2 2 2 2 2 2 2 2 2 2 2 2 2 2 2 2 2 2 2 2 2 2 2 2 2 2 2 2 2
left_child=1 3 13 7 10 16 -7 47 17 41 11 -5 -12 22 33 -16 -6 18 19 20 -2 38 46 27 28 -24 32 35 29 -4 -21 40 -26 -9 -28 -19 -33 -23 -20 -30 -15 42 43 -10 45 -25 -3 48 -1 -44 -43 -46 -49 -11 -55 -52 -29
right_child=8 2 24 4 5 6 -8 14 9 53 12 -13 -14 31 15 -17 -18 23 21 30 -22 37 25 44 26 -27 34 56 39 -31 -32 36 -34 -35 -36 -37 -38 -39 -40 -41 -42 50 49 -45 51 -47 -48 52 -50 -51 55 -53 -54 54 -56 -57 -58
