tree
version=v4
num_class=1
num_tree_per_iteration=1
label_index=0
max_feature_idx=136
objective=binary sigmoid:1
feature_names=Column_0 Column_1 Column_2 Column_3 Column_4 Column_5 Column_6 Column_7 Column_8 Column_9 Column_10 Column_11 Column_12 Column_13 Column_14 Column_15 Column_16 Column_17 Column_18 Column_19 Column_20 Column_21 Column_22 Column_23 Column_24 Column_25 Column_26 Column_27 Column_28 Column_29 Column_30 Column_31 Column_32 Column_33 Column_34 Column_35 Column_36 Column_37 Column_38 Column_39 Column_40 Column_41 Column_42 Column_43 Column_44 Column_45 Column_46 Column_47 Column_48 Column_49 Column_50 Column_51 Column_52 Column_53 Column_54 Column_55 Column_56 Column_57 Column_58 Column_59 Column_60 Column_61 Column_62 Column_63 Column_64 Column_65 Column_66 Column_67 Column_68 Column_69 Column_70 Column_71 Column_72 Column_73 Column_74 Column_75 Column_76 Column_77 Column_78 Column_79 Column_80 Column_81 Column_82 Column_83 Column_84 Column_85 Column_86 Column_87 Column_88 Column_89 Column_90 Column_91 Column_92 Column_93 Column_94 Column_95 Column_96 Column_97 Column_98 Column_99 Column_100 Column_101 Column_102 Column_103 Column_104 Column_105 Column_106 Column_107 Column_108 Column_109 Column_110 Column_111 Column_112 Column_113 Column_114 Column_115 Column_116 Column_117 Column_118 Column_119 Column_120 Column_121 Column_122 Column_123 Column_124 Column_125 Column_126 Column_127 Column_128 Column_129 Column_130 Column_131 Column_132 Column_133 Column_134 Column_135 Column_136
feature_infos=[-1.8014661073684692:2.1475074291229248] [-1.7160434722900391:2.0597634315490723] [-1.6382262706756592:1.9801409244537354] [-1.5680137872695923:1.9086390733718872] [-1.5054070949554443:1.8452587127685547] [-1.4504051208496094:1.7899996042251587] [-1.4123568534851074:1.7536556720733643] [-1.3844102621078491:1.7611826658248901] [-1.3517893552780151:2.0758624076843262] [-1.3099035024642944:2.0974209308624268] [-1.2559221982955933:1.9855276346206665] [-1.1870334148406982:2.073509693145752] [-1.1039742231369019:2.1457490921020508] [-1.0067610740661621:2.2142360210418701] [-0.90047705173492432:2.2825961112976074] [-0.78966546058654785:2.4052433967590332] [-0.67814630270004272:2.5269482135772705] [-0.65620064735412598:2.5277442932128906] [-0.66012513637542725:2.5302853584289551] [-0.66667592525482178:2.4445860385894775] [-0.66619455814361572:2.3619022369384766] [-0.67410272359848022:2.2960772514343262] [-0.78228282928466797:2.1994528770446777] [-0.70636492967605591:2.1797337532043457] [-0.68053698539733887:2.1696581840515137] [-0.94777458906173706:2.0883691310882568] [-1.274228572845459:1.9448176622390747] [-1.700652003288269:1.7312250137329102] [-1.9454965591430664:1.5516149997711182] [-2.2033448219299316:1.3308039903640747] [-2.6534385681152344:1.1458766460418701] [-2.9375624656677246:1.0433628559112549] [-2.8855924606323242:1.0063983201980591] [-2.1581358909606934:0.99214470386505127] [-1.421078085899353:0.99457055330276489] [-0.8696785569190979:1.0987448692321777] [-0.66409575939178467:1.3781088590621948] [-0.67049169540405273:1.4172744750976562] [-0.67192721366882324:1.4686216115951538] [-0.67710685729980469:1.427788257598877] [-0.67391806840896606:1.3506048917770386] [-0.67713803052902222:1.3033223152160645] [-0.67526406049728394:1.4334096908569336] [-0.67822211980819702:1.6771683692932129] [-0.67593681812286377:1.8418123722076416] [-0.67998087406158447:1.9795904159545898] [-0.67735743522644043:1.8671952486038208] [-0.68056988716125488:1.7601110935211182] [-0.67851173877716064:1.8138210773468018] [-0.68057990074157715:2.0951991081237793] [-0.67672491073608398:2.3221406936645508] [-0.68137907981872559:2.3866791725158691] [-0.6882440447807312:2.3278176784515381] [-0.69760811328887939:2.41339111328125] [-0.68820065259933472:2.0181429386138916] [-0.66555494070053101:1.7058380842208862] [-0.63047897815704346:1.5109990835189819] [-0.6819922924041748:1.3641012907028198] [-0.85317844152450562:1.3483799695968628] [-0.73171019554138184:1.3266682624816895] [-0.62303602695465088:1.3006186485290527] [-0.62908732891082764:1.6912268400192261] [-0.65896600484848022:1.8743280172348022] [-0.67422842979431152:1.7138135433197021] [-0.93073725700378418:1.3433690071105957] [-1.1747497320175171:1.0728911161422729] [-1.3727543354034424:0.99044626951217651] [-1.6713657379150391:0.88485002517700195] [-1.8910553455352783:0.75389385223388672] [-2.0949718952178955:0.60495084524154663] [-1.9126988649368286:0.45876148343086243] [-1.7446892261505127:0.33052113652229309] [-1.674402117729187:0.23037496209144592] [-1.5101885795593262:0.15855956077575684] [-1.4517455101013184:0.30397361516952515] [-1.6804615259170532:0.79505783319473267] [-1.8599822521209717:1.4404212236404419] [-1.985605001449585:1.2026444673538208] [-2.0616223812103271:1.1271375417709351] [-2.1171634197235107:0.66064220666885376] [-2.168381929397583:0.36351838707923889] [-2.1978850364685059:0.28676301240921021] [-2.2107267379760742:0.33890664577484131] [-2.208972692489624:0.39074629545211792] [-2.1915850639343262:0.43792322278022766] [-2.1574652194976807:0.47703936696052551] [-2.1063995361328125:0.50853937864303589] [-2.0390708446502686:0.53271615505218506] [-1.9571486711502075:0.55223846435546875] [-1.8642418384552002:0.56802195310592651] [-1.767259955406189:0.65060514211654663] [-1.7565661668777466:1.0689502954483032] [-1.6520191431045532:1.4168777465820312] [-1.5958865880966187:1.6290324926376343] [-1.5394163131713867:1.6649528741836548] [-1.4922878742218018:1.6161158084869385] [-1.4547033309936523:1.5605852603912354] [-1.4384253025054932:1.5597559213638306] [-1.4264529943466187:1.5645072460174561] [-1.5388252735137939:1.5648646354675293] [-2.0638625621795654:1.5687597990036011] [-2.4619696140289307:1.5680602788925171] [-2.648137092590332:1.5700795650482178] [-2.5047333240509033:1.5659784078598022] [-2.1062953472137451:1.5674868822097778] [-1.4475361108779907:1.5623446702957153] [-1.2213733196258545:1.563502311706543] [-1.1215335130691528:1.561995267868042] [-1.168958306312561:1.5723429918289185] [-1.225764274597168:1.5757462978363037] [-1.3164699077606201:1.5835809707641602] [-1.5627152919769287:1.5861003398895264] [-2.1400496959686279:1.5904537439346313] [-2.4733853340148926:1.5886306762695312] [-2.4289262294769287:1.5875058174133301] [-1.8389110565185547:1.5865405797958374] [-1.6131480932235718:1.5868538618087769] [-1.6319060325622559:1.7016431093215942] [-1.6864286661148071:2.5795986652374268] [-1.7459897994995117:2.8008601665496826] [-1.8207311630249023:2.5472877025604248] [-1.9280952215194702:1.7180403470993042] [-2.1567583084106445:1.6308574676513672] [-2.3918964862823486:1.6220458745956421] [-2.6616356372833252:1.8138364553451538] [-2.9761693477630615:2.1645474433898926] [-3.3559722900390625:3.0688047409057617] [-3.8750591278076172:4.2020993232727051] [0:1] [0:1] [0:1] [0:1] [0:1] [0:1] [0:1] [0:1] [0:1]
tree_sizes=6457 5029 6644 5259 6778 6421 6671 6552 6646 6711 6796 6866 6772 6900 6823 6507 6700 6686 6896 6914 5022 6495 6292 6900 6717 6933 6828 6883 6940 6804 5617 5221 6619 5937 5115 6942 5597 6574 6372 6968 6902 5201 6863 5836 5210 5189 6565 4602 6696 6921 6901 5740 6355 5747 6626 4511 5801 4928 6912 6847 5561 6498 6896 5256 6700 5015 6942 6775 6930 5012 5178 6612 6924 6642 6295 5785 6832 6922 6257 6376 6690 4962 5767 6000 6476 6192 6909 5447 4623 6054 4795 6345 5151 6909 6458 5819 6944 6174 5175 5030 5929 6231 6808 6922 5298 6113 6903 5642 5140 6455 6828 5007 6698 6015 6742 6673 6577 6701 5749 6089 5339 4736 6192 6236 6323 6118 6551 6792 6264 4425 5030 6696 6595 6978 5008 6908 4975 6114 5916 5706 6702 6425 6582 6915 6067 6173 6775 5792 6101 5369 6639 6639 6955 6388 6457 4207 5604 6961 6937 6521 6467 6373 4970 6683 6499 4100 6566 5860 4978 6714 6823 6908 6174 6560 4910 5725 4003 6707 4856 6237 6474 6898 6414 5748 6210 6739 6501 6644 6106 6668 6277 5377 5832 6672 6648 6031 6377 5374 4862 6701

Tree=0
num_leaves=60
num_cat=0
split_feature=135 105 33 129 33 108 92 30 107 6 73 31 30 127 30 55 28 106 114 111 7 116 76 4 32 115 72 28 5 5 116 74 2 107 31 29 112 27 129 72 53 70 2 29 110 27 105 70 34 0 122 118 111 117 105 106 22 0 0
split_gain=72768.3 25047.9 24183.4 19885.4 39069.3 16910.7 14619.6 10919.1 10362 8694.01 5547.14 5378.42 4841.49 4579.64 6876.39 3639.29 3609.63 3284.04 3222.69 3060.26 3054.97 2786.74 2009.74 2000.86 1837.54 1789.93 1629.2 1156.64 1848.22 1224.58 1249.24 1128.04 1014.53 1004.55 998.988 994.705 982.998 947.672 924.149 895.307 831.443 863.849 814.311 767.334 664.044 645.086 614.319 576.143 414.381 404.261 389.922 357.088 241.915 220.402 195.832 137.022 1.13687e-13 3.55271e-15 8.88178e-16
threshold=1.0000000180025095e-35 -0.90687948465347279 0.82607990503311168 1.0000000180025095e-35 0.92702260613441478 -1.0600472688674925 -1.0843422412872312 1.0957615971565249 -0.96415945887565602 0.6039285957813264 -0.9034019112586974 1.0024280548095705 1.0670456290245058 -2.507461309432983 1.0323182344436648 1.0436040759086611 1.1578034162521365 -0.90997579693794239 -1.178266644477844 -0.87959143519401539 0.76854315400123607 -1.5327987670898435 -1.1418444514274595 0.70440983772277843 0.93268343806266796 -1.3550611138343809 -0.7091132104396819 1.3440260291099551 0.79324001073837291 0.7401815950870515 -0.95413470268249501 -0.8799547255039214 0.70204287767410289 -0.98704650998115528 0.97909384965896618 1.1494147181510928 -0.95279523730278004 1.3727517724037173 1.0000000180025095e-35 -0.73668217658996571 1.0694746375083926 -0.28132475912570948 0.67811939120292675 1.2008472084999087 -0.91026002168655384 1.3351469039916994 -0.95984208583831776 -0.21002063155174253 0.84756612777709972 0.26512107253074652 -1.084520637989044 -1.0300309658050535 -0.88666722178459156 -0.93770042061805714 -0.90824696421623219 -0.94704318046569813 1.4049568772315981 1.0662186145782473 0.70544058084487926
decision_type=2 2 2 2 2 2 2 2 2 2 2 2 2 2 2 2 2 2 2 2 2 2 2 2 2 2 2 2 2 2 2 2 2 2 2 2 2 2 2 2 2 2 2 2 2 2 2 2 2 2 2 2 2 2 2 2 2 2 2
left_child=1 6 19 4 5 -4 32 8 24 -6 12 13 43 25 -15 16 -5 34 49 20 21 -3 -19 -14 33 -8 -20 29 51 30 39 -17 38 55 -12 -22 45 53 52 -9 41 -26 -39 -10 46 -34 -30 -42 -35 -13 -40 -29 -1 -31 -38 -2 -21 -58 -46
right_child=7 2 3 15 9 -7 11 27 10 -11 17 18 23 14 -16 31 -18 22 26 56 35 -23 -24 -25 40 -27 -28 28 44 37 -32 -33 36 48 -36 -37 54 42 50 -41 47 -43 -44 -45 58 -47 -48 -49 -50 -51 -52 -53 -54 -55 -56 -57 57 -59 -60
leaf_value=-2.8707220620162994 -2.9313413152574772 -1.3456999390069264 -2.6064245081290096 -1.7266683826296614 -2.5089964357252441 -2.0133262200698265 -1.9302256384045633 -2.0157080931495361 -1.2469712517185196 -2.152479124608313 -1.5153723388919704 -1.3586477539811417 -2.1193394409137727 -1.3982591182150899 -1.7853032996153961 -2.5349126349284168 -1.9986665173146081 -1.5641440163318439 -1.9504969681798965 -2.9313413152574772 -1.7269845022633132 -2.6957835965112258 -1.3705880107100286 -1.7672140964800458 -2.0210361034142759 -2.6207643833677352 -2.5060692790389125 -1.8059070792518763 -2.9313413152574772 -1.2392504569341332 -2.9313413152574772 -2.060655838245359 -1.2392504569341338 -1.9901353280778569 -1.7790409640342553 -2.3832755278738285 -2.9313413152574772 -2.3024100378756378 -2.9313413152574772 -2.7581755208913017 -2.8269622207638148 -1.4360928505403134 -1.7690316536537214 -1.6424279552284113 -2.9313413152574772 -2.3632717436515862 -1.5197954395881417 -1.6075857561741358 -2.4652942445309964 -1.8471435466347064 -2.0349884200272399 -2.9313413152574772 -2.0769660857294987 -1.7700885713548693 -1.6475093658919477 -2.5580862275976495 -2.9313413152574772 -2.9313413152574772 -2.9313413152574772
leaf_weight=139.12996061518788 35.821477554738522 15.956863466650246 503.57109924778342 1775.4618341624737 2699.8566308692098 10601.986102022231 74.136086065322161 97.637256480753422 185.26588452607393 916.09599708020687 219.19231565669179 39.684311982244253 207.73238541558385 562.23347499221563 2500.6654556393623 76.589401938021183 672.78134081885219 793.30651536956429 75.668273158371449 254.13172129541636 54.622386783361435 365.2027812153101 1656.7963596433401 723.03836484253407 90.79674731194973 76.036143254488707 174.52075767889619 2.997582282871007 3.539880525320771 23.924826800823212 23.986653111875057 145.29852407053113 11.962413400411608 34.051022663712502 417.19625920429826 40.010308481752872 12.415998857468363 50.957914724946022 6.1815824098885086 19.48180204257369 16.160236600786451 34.971122186630964 65.305822838097811 66.743302296847105 4.1210549399256697 8.9080155715346319 23.899908494204283 5.0969859249889842 39.812930196523666 29.560129459947348 22.582054976373911 47.392131809145212 3.9485949613153926 11.620490867644547 1.313872009515763 13.55741088837385 11.517820216715336 10.830977726727724 1.1095147915184496
leaf_count=2554 678 64 7992 13484 40374 109108 705 1007 571 10627 1229 164 2345 2533 20371 1164 6831 4812 734 4810 415 6103 7033 5767 941 1217 2605 25 67 72 454 1560 36 343 3374 551 235 663 117 337 290 170 522 454 78 121 135 33 579 258 237 897 43 93 9 209 218 205 21
internal_value=-2.82541 -2.06308 -2.11165 -2.08764 -2.13318 -2.04022 -1.8274 -1.6373 -1.59441 -2.41867 -1.55639 -1.7796 -1.74053 -1.74069 -1.71426 -1.83656 -1.80141 -1.48583 -2.17094 -2.66675 -2.513 -2.63926 -1.43326 -1.8458 -2.19488 -2.27986 -2.33804 -2.15519 -2.48456 -2.06179 -2.27387 -2.22436 -2.64536 -2.47968 -1.68823 -2.00446 -2.15133 -1.86466 -2.74484 -2.13921 -1.95615 -1.85839 -2.00281 -1.35171 -1.89873 -1.71901 -1.70189 -2.53458 -2.24625 -1.56718 -2.22762 -2.86439 -2.84882 -1.41279 -2.80849 -2.82886 -2.93134 -2.93134 -2.93134
internal_weight=0 21882.9 18143.9 17391.6 14721.5 11105.6 3738.95 4915.51 4539.54 3615.95 4269.27 3532.5 1182.78 3213.07 3062.9 2670.13 2448.24 3086.49 319.433 752.273 475.792 381.16 2450.1 930.771 270.268 150.172 250.189 375.975 83.0601 292.915 141.106 221.888 206.442 123.243 636.389 94.6327 34.6003 151.809 171.842 117.119 147.025 125.768 116.264 252.009 32.6704 20.8704 27.4398 21.2572 73.864 69.2444 28.7636 50.3897 143.079 35.5453 13.7299 49.3789 276.481 22.3488 5.23057
internal_count=268644 235445 203506 191140 168101 117100 31939 33199 28828 51001 25585 28587 9137 24826 22904 23039 20315 16448 3761 12366 7133 6167 11845 8112 3243 1922 3339 4371 1223 3148 1798 2724 3352 1809 4603 966 401 1350 2951 1344 1434 1111 1185 1025 301 157 202 323 922 422 354 922 2597 165 244 887 5233 423 99
is_linear=0
shrinkage=1


Tree=1
num_leaves=46
num_cat=0
split_feature=120 76 32 134 134 98 73 109 110 82 128 53 103 129 105 32 103 115 56 86 32 84 30 127 54 55 91 75 42 17 32 116 77 115 92 92 105 0 105 21 129 105 104 105 33
split_gain=5358.55 5770.74 4704.21 7087.77 6506.85 4825.73 6663.54 4159.66 4048.02 3350.38 3188.88 3167.88 5657.32 2045.67 1660.43 1405.92 1198.16 1184.2 941.112 759.781 931.289 611.705 831.169 587.45 568.856 284.481 236.763 191.863 123.445 261.54 77.7268 283.339 24.9738 0.230968 0.0449167 0.0315743 0.0111593 0.0110287 0.00960932 0.00624119 0.00426238 0.00235677 0.00118895 0.000923917 0.000233001
threshold=-0.59973600506782521 -1.2722430229187009 0.95168498158454906 1.0000000180025095e-35 1.0000000180025095e-35 -0.93526187539100636 -0.81747680902481068 -0.8905944526195525 -1.2049773335456846 -1.1852868199348447 1.0000000180025095e-35 1.1021059155464175 -0.85200583934783924 1.0000000180025095e-35 -0.84259486198425282 0.95440217852592479 -0.77313429117202748 -0.87513324618339527 0.88342559337615978 -1.4054413437843321 0.95382460951805126 -1.4460591673851011 1.0673367977142336 -1.67349636554718 1.0067284703254702 1.0088175535202029 -1.2231777906417844 -1.2050725817680357 0.75614529848098766 1.6658746004104616 0.95213505625724804 -0.8785758614540099 -1.363036513328552 -0.82916608452796925 -1.0817748904228208 -1.0774545669555662 -0.90426674485206593 0.66934567689895641 -0.93606644868850697 1.7855041027069094 1.0000000180025095e-35 -0.96508166193962086 -0.95196002721786488 -0.90824696421623219 0.7856021821498872
decision_type=2 2 2 2 2 2 2 2 2 2 2 2 2 2 2 2 2 2 2 2 2 2 2 2 2 2 2 2 2 2 2 2 2 2 2 2 2 2 2 2 2 2 2 2 2
left_child=1 10 3 7 5 18 -7 8 -3 14 17 12 -5 -9 -6 -11 -13 23 -4 20 27 25 -23 -1 -25 -19 -22 -12 33 35 32 -32 -21 34 37 36 40 41 -36 42 -30 -2 43 -35 -44
right_child=28 2 4 11 9 6 -8 13 -10 15 19 16 -14 -15 -16 -17 -18 21 -20 30 26 22 -24 24 -26 -27 -28 -29 29 -31 31 -33 -34 39 38 -37 -38 -39 -40 -41 -42 -43 44 -45 -46
leaf_value=1.2688541066356889 -0.10699348337135586 -0.063810371060307167 0.57535787686156348 0.59906522471361079 0.14769888326189759 0.49135124636742766 0.30093554764718422 0.22085267577089662 0.36218506659060262 0.52099585610689381 0.82026663055384952 0.73793619348368478 0.34076014329741772 0.40881959764869924 -0.076260383053320682 0.16628118873371897 0.46325778544586155 0.55187781530626034 0.074414468820479612 0.83642062252246818 0.0037425049313050936 0.0863602776677342 0.54005504981338681 0.72223538087744299 0.319661226305329 -0.1160760029146975 0.42215650768634022 0.57059835783098822 -0.10725771776200557 0.68263206270998988 0.79142128816568313 0.40139361121497236 0.7820440754035598 -0.10572714624109587 -0.12481532657036234 -0.12432213772219772 -0.11611488137382538 -0.11914090210628148 -0.11791734755499335 -0.11221264560261268 -0.11306819929470767 -0.11198037908692471 -0.10533254656802182 -0.10822664560901302 -0.10679826365872709
leaf_weight=12.247579261660574 2.7913549654185759 224.7409775853157 39.207887787371874 1387.4193653985858 660.20763320475817 2251.3500104025006 10005.100500416011 3461.1027897968888 29922.99036604166 234.24581479281187 61.44854100048542 574.74027913436294 2180.4507162421942 695.30591071397066 663.97167047858238 213.65382967889309 219.43927773088217 78.352765083312988 862.37608508765697 181.15137852728367 29.089302614331245 185.31743917614222 51.629298761487007 80.732271060347557 62.099455215036869 6.9410115331411353 25.273898079991341 61.671004004776478 5.535356692969799 6.323950231075286 98.882592357695103 22.94849532097578 158.24328561127186 3.6103734970092773 6.2097662836313248 2.0370596647262582 2.7106674164533615 1.3256068900227544 2.9928489029407483 1.3416868150234211 1.6355159282684324 1.4347775839269163 241.27548724412918 2.5049005895853034 1.0894658565521229
leaf_count=15 50 3180 143 4071 4988 9240 65602 22095 116560 1003 69 1027 11692 2974 7064 2144 944 197 6841 125 273 1404 179 137 314 60 146 206 100 8 155 113 190 73 39 13 25 14 29 21 16 19 5020 45 21
internal_value=0 0.347624 0.342938 0.361347 0.29526 0.319487 0.335912 0.34608 0.359009 0.11537 0.572686 0.481412 0.441206 0.252297 0.0354009 0.351792 0.66204 0.37715 0.0961994 0.718815 0.542993 0.267881 0.185218 0.6042 0.547207 0.497521 0.198267 0.695207 -0.0887806 0.162822 0.786472 0.717954 0.811067 -0.106129 -0.118286 -0.112986 -0.110649 -0.111183 -0.122572 -0.105411 -0.108583 -0.108687 -0.105374 -0.106751 -0.105339
internal_weight=0 54712.3 53596.3 38666.2 14930.1 13158 12256.5 34304.1 30147.7 1772.08 1116.03 4362.05 3567.87 4156.41 1324.18 447.9 794.18 477.32 901.584 638.708 177.483 322.241 236.947 155.079 142.832 85.2938 54.3632 123.12 282.819 18.2425 461.226 121.831 339.395 264.576 14.7544 11.9186 9.88154 5.55174 9.20262 249.822 7.17087 4.22613 248.48 6.11527 242.365
internal_count=268644 263151 259568 162543 97025 81826 74842 144809 119740 15199 3583 17734 15763 25069 12052 3147 1971 2306 6984 1277 694 1840 1583 466 451 257 419 275 5493 162 583 268 315 5331 151 154 141 83 68 5180 116 69 5159 118 5041
is_linear=0
shrinkage=0.1


Tree=2
num_leaves=61
num_cat=0
split_feature=130 118 136 105 75 98 103 76 22 131 75 128 53 100 71 31 110 32 87 117 1 101 51 32 5 100 72 30 70 101 71 31 103 26 16 75 75 123 0 31 28 39 76 72 101 105 104 54 57 54 43 31 22 109 89 36 119 102 57 33
split_gain=3449.15 7606.78 2848.05 9556.04 5033.55 4410.03 3531.56 2542.68 2341.56 2259.92 4977.67 6275.77 6187.47 4299.68 2762.73 2459.91 2071.42 1977.25 2422.69 2234.54 1712.15 1502.68 1496.36 1580.15 1315 1244.57 1321.97 1176.09 3093.7 1127.79 1111.38 944.434 880.498 848.709 843.849 666.239 659.113 406.245 398.039 383.86 375.318 365.554 339.506 269.489 431.688 252.934 254.903 215.122 197.907 194.944 249.911 176.908 132.615 114.264 224.071 64.2467 45.0006 31.7403 29.7607 0.011828
threshold=1.0000000180025095e-35 -1.0570833086967466 1.0000000180025095e-35 -0.82696989178657521 -1.0930299162864683 -0.91606047749519337 -0.79387071728706349 -1.1456407308578489 1.2639232873916628 1.0000000180025095e-35 -1.1270824670791624 1.0000000180025095e-35 1.0659375786781313 -0.89937868714332569 -0.49067962169647211 1.0010403990745547 -1.2049773335456846 0.96382439136505138 -0.9803846776485442 -1.0824722647666929 0.55028364062309276 -0.84589946269989003 1.1033651828765871 0.89592549204826366 0.69545489549636852 -0.87123706936836232 -0.66081395745277394 1.0542271137237551 -0.2559030801057815 -0.92380797863006581 -0.36644886434078211 1.0039895176887514 -0.76264995336532582 1.2010182142257693 1.0933088064193728 -1.053962707519531 -1.0607746839523313 -1.1232048869132993 0.48130595684051519 0.99548771977424633 1.1075881123542788 0.9406338930130006 -1.1625158190727232 -0.69088456034660328 -0.87344259023666371 -0.88311550021171559 -0.78119471669197071 0.96419906616210949 0.86744263768196117 1.047674357891083 1.0843136906623843 1.0011487007141116 1.2555300593376162 -0.90941911935806263 -1.1615479588508604 0.91777423024177562 -1.0951612591743467 -0.84395289421081532 0.89419689774513256 0.92732015252113353
decision_type=2 2 2 2 2 2 2 2 2 2 2 2 2 2 2 2 2 2 2 2 2 2 2 2 2 2 2 2 2 2 2 2 2 2 2 2 2 2 2 2 2 2 2 2 2 2 2 2 2 2 2 2 2 2 2 2 2 2 2 2
left_child=2 7 9 4 5 20 8 42 52 10 22 16 -13 24 15 -15 -12 18 19 -9 -4 -16 23 -1 41 43 31 28 -6 -26 33 38 36 -8 -7 -10 -28 -24 -27 -29 -34 -11 56 44 47 -19 -47 -3 -46 50 -44 -51 -5 54 -45 -20 -2 -33 -55 -32
right_child=1 25 3 6 27 34 30 17 35 13 11 12 -14 14 21 -17 -18 45 55 -21 -22 -23 37 -25 29 26 32 39 -30 -31 59 57 40 -35 -36 -37 -38 -39 -40 -41 -42 -43 49 53 48 46 -48 -49 -50 51 -52 -53 -54 58 -56 -57 -58 -59 -60 -61
leaf_value=0.07893003904574597 0.97938595138413997 0.048353555718124323 0.20749038234790318 -0.093016717663852139 0.26529927374234491 0.34652438572457933 0.88837051204356143 0.43519826060943423 0.46530227896676934 0.0207484793947664 -0.058463627849469492 0.23482031047375848 -0.054324439933892132 0.067487281214309164 -0.031495917437202745 0.38798533317742184 0.26090491132185689 0.60280154106861583 0.022988940334295487 0.18642442574045914 -0.057337276852830556 0.21087885816002352 0.026152930996262452 0.39074467224407017 0.064173339567061227 0.34714715543597507 0.083024230789697562 0.043197161545358215 -0.072275318679038567 0.35306648924625339 -0.11858923205103206 0.020725768310024574 -0.11116737068054028 0.58767067052210831 0.6095742180280761 -0.11404317242073492 -0.090650495775550122 0.38193781419397316 -0.05432866741060334 -0.073165977320864647 0.46902036292777138 -0.11539976430925565 0.52942769915195276 0.23814700380395998 0.020217369435571012 -0.047254238539748535 0.22892618775648355 -0.069027165533420004 0.2696501582625076 0.58818839994640715 -0.11152299967657364 0.96040383246418559 0.09128079035012629 -0.11712711288435684 -0.074720194546854649 -0.11785919527803262 0.74453718077760767 -0.12032063642930424 -0.060329098217084522 -0.11108017384970728
leaf_weight=169.74516471847892 26.298643887042999 306.56148438155651 1047.9031517580152 95.907772351056337 550.53158653527498 217.33856847137213 177.22062583640218 1012.7909016236663 370.65911896899343 747.37182492762804 203.96733251586556 1726.6873305514455 1295.2527474649251 285.21046298369765 353.46003916114569 1493.5611000135541 47107.60022053495 7.073108658194541 47.206867948174477 561.08520225435495 318.2738127335906 925.73767334967852 160.23709180951118 3817.7527815327048 354.42505631223321 372.13497254997492 1032.3902156203985 396.41852881014347 535.59757408499718 218.39835218340158 2.4700716659426716 23.914319232106209 13.205290630459784 199.55317147821188 277.86742772161961 20.972881253808737 277.18792051076889 40.130800001323223 26.450103461742401 995.18233543634415 71.626130908727646 267.90000508725643 20.856222875416282 32.944506928324699 48.809283658862114 211.24833800643682 39.69882370531559 318.18068055436015 91.328236907720566 129.20004710555077 8.5882250741124135 14.169484652578829 65.852682940661907 241.85517301037908 75.012097232043743 103.14817607030272 11.829005748033522 47.934837676584721 149.13910694420338 13.91418347507715
leaf_count=1447 25 2514 5097 1199 2655 679 321 2884 1032 5375 3085 8896 12676 2502 2608 3717 145621 28 282 3048 2920 5663 983 7164 3031 1112 6974 2504 5287 852 19 139 147 647 179 207 2505 90 192 7743 193 2378 42 126 323 2224 318 2563 387 241 94 16 522 2117 520 838 37 343 1158 155
internal_value=0 0.163569 0.247332 0.177001 0.114201 0.238465 0.464885 0.306363 0.302076 0.253614 0.25932 0.250604 0.110888 0.186665 0.255991 0.336596 0.259528 0.271238 0.309873 0.346511 0.145794 0.143907 0.364072 0.377471 0.0531738 0.0634704 0.115393 0.020848 0.0988328 0.174319 0.694048 0.260348 0.0664886 0.729109 0.494126 0.434277 0.0462639 0.0974115 0.320505 -0.0400182 0.378705 -0.015177 0.636433 -0.0131432 0.0241524 0.0130587 -0.00356361 -0.0114284 0.182774 0.576843 0.342478 0.624975 -0.0179892 -0.0703166 0.0207557 -0.0736372 0.906525 -0.0733747 -0.0954623 -0.112212
internal_weight=0 5321.87 64453.1 5285.66 4339.11 1861.38 946.551 2193.19 553.392 59167.4 54521.4 50333.5 3021.94 4646.06 3057.97 1778.77 47311.6 1982.25 1724.23 1573.88 1366.18 1279.2 4187.87 3987.5 1588.1 3128.67 1864.84 2477.73 1086.13 572.823 393.158 470.434 1394.41 376.774 495.206 391.632 1309.58 200.368 398.585 1391.6 84.8314 1015.27 210.942 1263.83 764.88 258.02 250.947 624.742 140.138 172.814 29.4444 143.37 161.76 498.951 107.957 150.355 38.1276 71.8492 390.994 16.3843
internal_count=268644 31390 237254 31166 27064 8875 4102 10077 2960 206088 179962 170278 21572 26126 14490 6219 148706 9622 7052 5932 8017 8271 9684 8611 11636 21313 11605 18189 7942 3883 1142 1786 9819 968 858 1239 9479 1073 1304 10247 340 7753 455 9708 5787 2570 2542 5077 710 393 136 257 1721 3921 646 1120 62 482 3275 174
is_linear=0
shrinkage=0.1


Tree=3
num_leaves=48
num_cat=0
split_feature=31 125 136 130 119 0 123 110 0 119 72 105 84 117 98 71 103 134 127 52 5 30 51 29 78 30 105 116 75 103 28 101 75 49 114 22 33 115 75 98 105 92 21 110 33 37 105
split_gain=2229.99 2170.9 1816.41 2040.88 1672.92 2383.18 2970.34 2054.7 1808.24 2160.43 1692.96 1656.2 1369.31 926.025 748.397 1295.6 835.656 641.647 607.984 597.64 450.068 423.81 379.824 286.29 246.873 232.438 198.382 97.9268 438.268 90.9293 249.497 100.667 90.0251 83.6343 76.8601 39.2768 0.165888 0.117391 0.0698247 0.146388 0.0299888 0.0205947 0.00823822 0.00415633 0.00353855 0.00211246 0.00067418
threshold=1.0058160424232485 -0.41527666151523585 1.0000000180025095e-35 1.0000000180025095e-35 -1.6424029469490049 -0.18049258738756177 -2.195700883865356 -1.2049773335456846 -0.23881784826517102 -1.6664389967918394 -0.62419778108596791 -0.81933671236038197 -0.39988462626934046 -1.0480237007141111 -0.96661320328712452 -0.48865121603012079 -0.86424246430397023 1.0000000180025095e-35 -3.0862534046173091 1.0155965685844424 0.5424918830394746 1.0994079709053042 1.1669777035713198 1.0862136483192446 -0.49765962362289423 1.0795258283615115 -0.87324494123458851 -0.96560513973236073 -1.095138370990753 -0.86670023202896107 1.2236130237579348 -0.82171589136123646 -1.0767097473144529 1.0876951813697817 -1.3987849354743955 1.2683855295181277 0.92702260613441478 -0.92553517222404469 -1.0930299162864683 -0.93526187539100636 -0.8010481297969817 -1.0817748904228208 1.7855041027069094 -0.57593336701393116 0.92702260613441478 0.70853793621063244 -0.90687948465347279
decision_type=2 2 2 2 2 2 2 2 2 2 2 2 2 2 2 2 2 2 2 2 2 2 2 2 2 2 2 2 2 2 2 2 2 2 2 2 2 2 2 2 2 2 2 2 2 2 2
left_child=1 4 3 14 7 12 34 24 9 -9 -8 27 23 20 19 16 -16 -17 -10 21 36 -2 -14 -6 -1 -22 -21 28 33 30 -15 -31 -30 -4 -7 -13 -5 41 39 -29 -26 -3 45 -43 -40 46 -39
right_child=2 37 11 13 5 6 10 8 18 -11 -12 35 22 29 15 17 -18 -19 -20 26 25 -23 -24 -25 40 -27 -28 38 32 31 -32 -33 -34 -35 -36 -37 -38 42 44 -41 -42 43 -44 -45 -46 -47 -48
leaf_value=1.3688875796276441 0.2249305660953978 -0.11044927924517063 0.37419979000609166 -0.12580926905100667 0.22738451499514123 0.29080847088625988 0.20267415348609275 0.34152569753590239 0.36036886444620869 -0.024364598626764735 0.1708274023416384 0.41101721150485854 0.17849723702706666 0.14711355869634077 0.16356027874307733 0.14267215297109639 0.2687993648308164 -0.028991282523199619 0.5410159757021884 -0.088825306044717098 0.29218062130568662 -0.051891769336470245 -0.096851108793113136 0.80087259555202639 -0.10666011456440422 -0.12402196103311464 0.055959327295797251 -0.11783939048353383 0.031173125188591735 -0.091350187082834489 -0.11847287545644561 0.089236193802461228 -0.096671353110165087 0.085132414433716719 0.47392978064728475 0.60291621902755999 -0.11139379771677793 -0.10642013216782363 -0.11670688621979684 -0.1242365667804104 -0.11215784563245237 -0.12424948095577489 -0.1128029631983558 -0.11854943210993388 -0.11474301020269298 -0.10992891844386476 -0.10514607720224334
leaf_weight=1.1432629860937584 278.56750355660915 2.5397825352847576 26.762864470481873 10.950165033340452 156.91837181895971 24.402149066329002 42499.29566052556 402.75848054885864 678.9619547277689 269.26300010830164 27489.106755655259 15.832160480320452 55.803933799266815 69.647223606705666 1304.9128791354597 1811.2640513181686 1788.896551437676 247.49355006217957 256.76365983486176 177.04152435436845 154.77757904678583 69.005654685199261 489.92078848555684 9.2160207033157331 117.45620219781995 14.691978603601454 203.31941103935242 97.056187950074673 67.879477597773075 448.98120003193617 71.873854853212833 33.147595785558224 292.12640744447708 15.988269925117491 377.4792690500617 32.684458285570145 29.458417408168316 4.2293268628418437 60.337711684405804 56.649282731115818 10.837277848273514 2.6174250468611717 1.4292027838528145 2.5021400153636923 10.820099927484987 0.93606561049818893 231.23345349729061
leaf_count=4 899 39 30 68 326 65 112800 764 1323 1993 105976 33 211 364 4966 7933 4058 1810 180 1448 523 480 3596 5 2027 96 1310 768 450 3532 559 257 2798 67 244 19 328 88 495 365 132 17 23 24 99 15 5037
internal_value=0 0.19125 0.133607 0.14934 0.19225 0.189881 0.191722 0.289206 0.320064 0.194922 0.190166 -0.0226189 0.007829 0.00289872 0.170097 0.183506 0.224411 0.122036 0.409939 0.0751845 0.184592 0.169971 -0.0686949 0.259198 -0.0940875 0.256098 -0.0114316 -0.0661336 -0.0366188 -0.0582468 0.012231 -0.0789344 -0.0725661 0.266093 0.462811 0.540295 -0.1153 -0.105626 -0.118998 -0.120197 -0.107125 -0.117811 -0.105234 -0.121464 -0.116408 -0.105188 -0.105169
internal_weight=0 73084.8 7390.17 6714.03 72839.3 71102.1 70390.3 1737.18 1607.75 672.021 69988.4 676.137 711.859 833.528 5880.5 5152.57 3093.81 2058.76 935.726 727.934 209.878 347.573 545.725 166.134 129.437 169.47 380.361 627.62 402.757 623.65 141.521 482.129 360.006 42.7511 401.881 48.5166 40.4086 245.487 224.863 153.705 128.293 7.65935 237.828 5.11957 71.1578 236.399 235.463
internal_count=268644 234889 33755 28631 229646 223223 219085 6423 4260 2757 218776 5124 4138 5727 22904 18767 9024 9743 1503 4137 1015 1379 3807 331 2163 619 2758 5072 3345 4712 923 3789 3248 97 309 52 396 5243 1727 1133 2159 80 5163 41 594 5140 5125
is_linear=0
shrinkage=0.1


Tree=4
num_leaves=62
num_cat=0
split_feature=130 117 136 106 104 69 131 31 75 128 5 123 58 31 100 100 69 75 8 2 71 33 100 72 34 101 116 51 71 102 75 118 70 103 32 60 69 28 5 30 106 82 74 104 106 20 9 71 117 109 0 91 124 103 43 122 9 118 103 72 87
split_gain=1788.04 3538.6 1640.13 3975.81 2079.44 1969.42 1383.59 2363.55 2121.72 3120.57 4440.24 1377.86 1517.41 1330.47 1237.96 1221.5 1176.02 1127.32 1091.74 969.456 944.375 927.886 746.942 724.487 717.859 669.203 644.596 587.92 541.978 1433.07 533.137 1011.4 528.998 359.766 340.497 563.199 302.669 339.393 290.695 511.037 256.901 224.176 288.692 344.302 200.136 187.043 172.669 210.533 136.24 120.28 118.133 87.4012 82.322 80.717 67.405 57.8587 48.536 40.8254 34.2252 31.8036 0.399696
threshold=1.0000000180025095e-35 -1.0406134724617002 1.0000000180025095e-35 -0.85994762182235707 -0.81496104598045338 -0.11358972266316412 1.0000000180025095e-35 0.99832025170326244 -1.1333431005477903 1.0000000180025095e-35 0.59111508727073681 -1.5373710393905637 0.91730287671089183 0.99888703227043163 -0.88407078385353077 -0.90247234702110279 -0.14030990749597547 -1.0980588197708128 0.7548712193965913 0.59116110205650341 -0.41982789337635035 0.8887469768524171 -0.87123706936836232 -0.6807379126548766 0.77885419130325328 -0.76916334033012379 -1.0558672547340391 1.1033651828765871 -0.42917744815349573 -0.7886655032634734 -1.0578489303588865 -1.0300309658050535 -0.36675620079040522 -0.81676059961318959 0.9237947165966035 0.62174874544143688 -0.0097250472754240019 1.0969001650810244 0.39083760976791387 1.0138464570045473 -0.87757149338722218 -1.3650755882263181 -0.99270194768905629 -0.8418937325477599 -0.84912601113319386 1.2992430925369265 0.70844808220863353 -0.5399988293647765 -1.1618375182151792 -0.90895432233810414 0.32220746576786047 -1.1364802122116087 -1.4049606323242185 -0.84204223752021778 1.1639409065246584 -1.4225156307220457 0.87518611550331127 -0.95400664210319508 -0.78176146745681752 -0.69739294052124012 -0.9803846776485442
decision_type=2 2 2 2 2 2 2 2 2 2 2 2 2 2 2 2 2 2 2 2 2 2 2 2 2 2 2 2 2 2 2 2 2 2 2 2 2 2 2 2 2 2 2 2 2 2 2 2 2 2 2 2 2 2 2 2 2 2 2 2 2
left_child=2 11 6 17 5 14 8 26 24 13 -11 38 20 -10 -5 18 -17 19 -9 32 21 -13 41 46 56 -22 40 -26 44 -30 31 -25 -4 -7 35 -19 37 -14 55 58 -8 57 43 -43 -6 -28 53 -48 -41 -44 -32 -21 -36 -24 -38 60 -1 -3 -40 -59 -2
right_child=1 22 3 4 28 33 7 15 9 10 -12 12 36 -15 -16 16 -18 34 -20 51 25 -23 23 30 27 -27 45 -29 29 -31 50 -33 -34 -35 52 -37 54 -39 39 48 -42 42 49 -45 -46 -47 47 -49 -50 -51 -52 -53 -54 -55 -56 -57 -58 59 -60 -61 -62
leaf_value=0.11042834381618936 -0.1322376560181113 0.18111703014502525 0.25647652932298948 0.042950020762158064 0.58792465217360712 -0.1049497595178923 0.05426395342926215 -0.022845877023493961 0.17158894706539268 -0.033453543947490928 0.17801025404016238 -0.083407026759393182 0.55121675038034101 0.13460119856623362 0.20312491258354531 0.20278617117104938 0.062438239112158095 -0.092775717643527919 0.18206500283680443 -0.098584616285484233 -0.05605233546570252 0.22441046451494603 0.025836917515757587 0.19794989712384159 0.24118263399897769 0.20484966873999882 -0.089955525777811518 0.043326153224662052 0.030056773123303002 0.30911420287997055 0.055396495708134201 0.026177967094232802 0.018156354619381608 0.044267941544300728 -0.10758334921208446 0.098648519160616316 -0.11663672636100542 0.33855810962923882 0.38279200478971404 0.049114116948629494 0.29287975297742053 0.017717725217454555 -0.0042964579384755413 0.24092905966767147 0.34099496984666566 -0.0035979926135804546 0.32244011686066365 -0.075650271130509344 -0.13002871528175999 -0.10488985522448112 -0.10272195369836012 0.44424447019839974 -0.050586448124464715 0.30769048306231728 0.38437267008314985 0.24159187624795445 -0.092893439704413105 -0.059452692774097406 0.22011490441500878 -0.11740247572467431 -0.12003748748522264
leaf_weight=14.07449499517679 37.687643133103848 5.5544262900948516 330.23811158165336 661.88367209210992 35.830622360110283 350.27722274512053 102.41556400805712 700.61515556648374 48724.55954420194 1977.6088939644396 1994.3290667571127 104.55645451694727 92.753559559583664 12150.038241840899 1780.6034109145403 2822.7870727777481 757.18621794134378 274.45258577167988 413.44533882662654 168.92409256845713 272.82598112523556 1544.7739138156176 10.852371670305727 468.17213904112577 4353.0332896560431 153.69398505240679 477.78113185241818 155.54833894222975 264.62637864798307 604.19461673498154 58.69290716946125 1279.8370265215635 129.72674189507961 299.92962398380041 513.84262995421886 349.32686016336083 15.530930064618589 393.13933961093426 39.224363073706627 134.26374039798975 80.65104791149497 404.42439643293619 242.36023991554976 83.346054796129465 391.04054437577724 527.95081310719252 22.370241850614548 32.710096441209316 62.082459628582001 233.27550720050931 242.36232431232929 3.0191512778401366 499.96350762993097 159.39067213237286 3.2467143535614005 4.4882581532001486 70.807389106601477 168.90900049358606 19.29449600726366 215.57397367805243 93.410249881446362
leaf_count=52 212 22 846 4042 47 2776 476 4841 112372 15972 6319 537 63 37763 4815 6622 4358 1922 1424 1332 2186 3904 48 1900 5729 597 4734 702 1997 1114 415 7010 659 2060 4443 1416 129 435 22 660 198 2584 1417 282 449 3473 34 188 376 1781 2096 15 3233 159 1 8 1053 1601 52 1963 708
internal_value=0 0.100997 0.155105 0.10753 0.163102 0.118547 0.15931 0.112746 0.163255 0.158603 0.0727234 0.181917 0.208407 0.164207 0.15972 0.144645 0.173102 7.37462e-05 0.0531998 0.113532 0.170597 0.204897 0.0347279 0.0697311 0.228932 0.0379622 -0.0132067 0.234356 0.269453 0.224119 0.0510153 0.0721839 0.189262 -0.0361181 -0.0437072 0.014425 0.363929 0.379153 0.0068418 0.0697762 0.159388 -0.024093 0.0018024 0.0558582 0.361722 -0.0446228 0.23993 0.0860295 -0.00752883 -0.0536325 -0.0718956 -0.0890531 -0.079475 0.289723 -0.0300106 -0.111458 -0.0591801 -0.0880557 0.329155 -0.0919443 -0.123545
internal_weight=0 6598.8 81980.7 6657.88 4388.39 3092.69 75322.8 5882.83 69440 64846.5 3971.94 2970.97 2580.52 60874.6 2442.49 4694.03 3579.97 2269.49 1114.06 631.908 2075.85 1649.33 3627.83 2274.39 4593.46 426.52 1188.8 4508.58 1295.69 868.821 2049.06 1748.01 459.965 650.207 1637.59 623.779 504.671 485.893 390.451 254.865 183.067 1353.44 963.406 487.77 426.871 1005.73 225.323 55.0803 196.346 475.636 301.055 171.943 1013.81 170.243 18.7776 135.586 84.8819 390.037 58.5189 384.483 131.098
internal_count=268644 31390 237254 31166 17300 13693 206088 26126 179962 172426 22291 9890 7852 150135 8857 17245 10980 13866 6265 2852 7224 4441 21500 11850 7536 2783 8881 6431 3607 3111 11421 8910 1505 4836 11014 3338 628 498 2038 1110 674 9650 6064 2866 496 8207 429 222 1036 3198 2511 1347 7676 207 130 928 1105 3586 74 3564 920
is_linear=0
shrinkage=0.1


Tree=5
num_leaves=59
num_cat=0
split_feature=135 99 29 75 117 130 31 128 77 129 134 4 131 53 107 31 80 117 30 115 108 88 29 111 92 106 4 99 69 90 107 56 70 110 99 65 5 24 121 105 105 106 32 109 123 33 31 31 6 101 31 24 1 56 30 129 119 33
split_gain=1664.25 1245.38 1171.07 1138.32 3553.73 2405.13 1772.64 2825.83 1620.42 1382.4 1347.22 832.782 809.762 797.007 757.136 725.581 461.402 543.478 448.538 336.428 302.399 345.083 187.279 174.246 168.978 162.955 159.474 276.468 263.627 139.497 131.076 121.981 143.114 109.463 108.679 102.735 78.1224 72.4428 65.8852 62.3004 59.9705 51.4355 46.03 33.9771 85.0401 28.9493 28.8078 79.4001 24.6286 36.4427 16.2789 12.9045 4.55624 1.11196 0.423254 0.131844 0.0823782 0.0577622
threshold=1.0000000180025095e-35 -0.9896443486213683 1.2352217435836794 -1.1048979163169859 -0.97582298517227162 1.0000000180025095e-35 0.99698194861412059 1.0000000180025095e-35 -1.2546748518943784 1.0000000180025095e-35 1.0000000180025095e-35 0.76302719116210949 1.0000000180025095e-35 1.0638893246650698 -0.98137935996055592 1.0008314251899721 -1.4563376903533933 -0.92526108026504505 1.0930773615837099 -0.92949023842811573 -0.87985184788703907 -1.2234129905700681 1.2412465214729311 -0.90999355912208546 -1.1583325862884519 -0.95997554063796986 0.71412521600723278 -0.95957669615745533 -0.40336343646049494 -1.0930088162422178 -0.87390664219856251 0.97690600156784069 -0.20832030475139615 -0.89273127913475026 -1.0369275212287901 0.30442285537719732 0.82986751198768627 1.4317958354949953 -0.99027863144874562 -0.94416406750679005 -0.94661018252372731 -0.97607490420341481 0.94002318382263195 -0.92750558257102955 -1.0856237411499021 0.9396941363811494 1.001359283924103 1.0053922533988955 0.83639958500862133 -0.93783399462699879 0.99698194861412059 1.6479405760765078 0.72270965576171886 0.73298862576484691 1.0957615971565249 1.0000000180025095e-35 -1.0368226766586301 0.91570332646369945
decision_type=2 2 2 2 2 2 2 2 2 2 2 2 2 2 2 2 2 2 2 2 2 2 2 2 2 2 2 2 2 2 2 2 2 2 2 2 2 2 2 2 2 2 2 2 2 2 2 2 2 2 2 2 2 2 2 2 2 2
left_child=1 24 14 5 6 12 7 -5 -8 10 -6 39 13 -3 25 -14 35 -18 20 -11 21 -16 48 29 41 45 27 -20 -28 -24 -22 32 -27 36 55 -7 42 -36 -38 40 56 -1 -26 44 -41 50 53 -48 49 -13 -2 -45 -50 -43 -25 -35 -4 -33
right_child=2 3 11 4 9 16 8 -9 -10 19 -12 22 15 -15 18 -17 17 -19 26 -21 30 -23 23 54 33 31 28 -29 -30 -31 -32 57 -34 34 37 -37 38 -39 -40 43 -42 46 -44 51 -46 -47 47 -49 52 -51 -52 -53 -54 -55 -56 -57 -58 -59
leaf_value=0.26454342824081628 -0.12257723228405804 0.18130097956018679 -0.13950490715641026 0.13979667085862546 -0.030059082003496541 -0.12104727980963381 0.20501853467824641 -0.035695017125325544 0.089748033954929654 0.13346089569659622 0.19974965960217275 0.079504722178894954 0.020004165490700967 0.085978327773884422 0.24183381901889486 0.1399082134327882 0.071715826361074306 -0.055474901453804008 -0.031742158092734833 -0.044257033229710717 0.1417279385308382 0.1627717851017855 -0.086468379126655767 -0.14582494961220979 -0.078205585667521602 0.054452377090819432 0.084691835533513171 0.10881480773290082 0.18937075433999856 0.16269991042991627 0.014968584456220048 -0.11960548679988235 0.28408448974731576 -0.11711760247708054 0.29662519871783916 0.23979108829975293 0.26147343376747895 0.067847867168255582 -0.030762467251670329 -0.13616523479771331 0.27210310969354462 -0.1047852771155051 0.11785836913692434 -0.083672975646351733 0.23954296423835417 0.13322241353583816 0.14061962860017996 -0.098264719502441589 0.23938126642371305 0.27871384569078295 -0.040878544531735318 -0.14417054486839437 0.2880094824631711 -0.12026809782741801 -0.1144570481596891 -0.13954446652386518 -0.11648639871998095 -0.13099705467003661
leaf_weight=4.1229651644825926 70.942518096417189 9354.6590347252786 4.3300219029188147 33983.156796351075 2778.9170391596854 8.5030793100595456 1306.8778536617756 943.01967776566744 18245.017644882202 1114.6048513501883 280.88167726993561 22.016631118953228 658.66402482241392 967.89743266999722 570.6962952464819 2158.8103938065469 665.75945533066988 678.14241349697113 173.69219210743904 117.77502720057964 142.55779199302197 16907.294256545603 28.019713386893272 28.184827730059624 103.47719377651811 211.0885644108057 454.40254922956228 720.13264402002096 511.29430770874023 113.41736154258251 190.70233392715454 27.512039922177792 31.144812449812889 9.6777278184890729 31.167921520769596 109.48310796916485 16.298271641135219 24.897603817284107 14.648605629801748 18.941707625985149 8.1133452355861646 145.44193516671658 13.541120354086159 42.85277484357357 8.8343251943588239 5.8869590684771529 18.721580043435097 54.180595144629478 43.420050278306007 15.754311025142668 37.166330195963383 198.95795610547066 34.638582624495029 68.108196955174208 5.0763590037822715 3.5951419323682776 2.4257240146398544 5.3103660792112342
leaf_count=10 592 17455 23 87271 17154 116 3475 7553 70522 2781 456 56 3619 3514 474 7287 3235 4563 837 453 254 22906 135 131 797 827 1349 2007 762 201 558 210 31 113 74 149 13 121 61 119 8 3540 64 321 14 11 64 333 40 8 182 1025 16 632 46 20 21 35
internal_value=0 0.119788 0.151909 0.120868 0.11466 0.145857 0.121562 0.135058 0.0974529 0.0270534 -0.00896323 0.0111989 0.159394 0.172363 0.155943 0.111877 0.0241807 0.00753448 0.158675 0.116477 0.163554 0.165353 0.130282 0.0649068 -0.0362654 0.0177993 0.111941 0.0815011 0.140115 0.113338 0.0691921 0.0594636 0.083977 0.0304353 0.134115 0.213786 -0.0181504 0.19503 0.123145 -0.110426 0.0888449 -0.0861468 -0.0555175 -0.121417 -0.0166691 -0.0827308 -0.0911944 -0.0369182 0.228884 0.162595 -0.0944904 -0.133449 0.26096 -0.109723 -0.141038 -0.123192 -0.13124 -0.121449
internal_weight=0 73880 20634.8 73372.2 58770.3 14601.9 54478.1 34926.2 19551.9 4292.18 3059.8 574.984 13140 10322.6 20059.8 2817.47 1461.89 1343.9 19670.8 1232.38 17811.3 17478 290.528 174.698 507.879 389.052 1859.52 893.825 965.697 141.437 333.26 275.056 242.233 217.304 69.3384 117.986 147.965 56.0655 30.9469 284.456 14.8691 290.575 117.018 269.587 27.776 113.996 286.452 72.9022 115.83 37.7709 108.109 241.811 78.0586 213.55 33.2612 13.2729 6.75575 32.8224
internal_count=268644 235445 33199 229603 189665 39938 168821 94824 73997 20844 17610 2164 31875 20969 31035 10906 8063 7798 29147 3234 24192 23380 633 513 5842 1888 4955 2844 2111 336 812 1103 858 1263 328 265 935 195 74 1531 52 4579 861 1479 133 785 4569 397 120 64 774 1346 56 4172 177 133 44 245
is_linear=0
shrinkage=0.1


Tree=6
num_leaves=62
num_cat=0
split_feature=135 109 118 0 122 127 133 29 4 111 127 121 107 5 37 30 34 126 116 52 69 6 0 3 51 34 55 123 106 29 72 119 105 122 80 56 57 75 124 5 118 7 68 7 57 31 115 103 117 75 105 30 80 110 32 32 73 124 28 119 31
split_gain=1444.78 979.091 1414.09 2040.05 1856.33 1163.42 1049.05 872.311 674.779 598.522 1016.76 897.766 561.949 531.26 422.488 385.438 329.425 428.37 777.368 294.886 290.108 552.228 498.835 289.44 287.194 249.603 152.053 140.293 134.167 133.859 146.992 131.694 106.65 89.5864 68.0197 64.7772 58.8233 150.333 58.1137 89.4764 58.2659 52.7056 74.5703 35.7695 29.1316 71.5151 20.2173 16.6829 15.91 157.276 15.7004 2.43286 1.09965 0.372734 0.307318 0.27291 0.242485 0.122036 0.0810891 0.0313405 0.00380264
threshold=1.0000000180025095e-35 -1.1322932839393614 -1.5835681557655332 -0.18049258738756177 -1.9938618540763853 -2.4851351976394649 1.0000000180025095e-35 1.2352217435836794 0.76302719116210949 -1.2394062876701353 -3.1605135202407832 -1.8660396933555601 -0.98137935996055592 -0.084967680275440202 0.99990975856781017 1.0604837536811831 0.8673878312110902 -2.8031495809555049 -1.5009657740592954 1.1362804770469668 -0.40336343646049494 0.80128246545791637 0.58466842770576488 0.7356909215450288 1.1669777035713198 0.86622008681297313 0.93400791287422191 -2.3043168783187862 -0.95997554063796986 1.2500589489936831 -0.8397478163242339 -1.6775116324424741 -0.88238206505775441 -1.5409479737281797 -1.1371824741363523 1.0287941098213198 0.91025176644325267 -0.69447401165962208 -1.1166420578956602 0.77178040146827709 -0.92202651500701893 0.86994761228561412 -0.39002592861652369 0.1532937437295914 0.85582369565963756 0.99578121304512035 -1.3884416818618772 -0.92114737629890431 -1.5492672920227049 -0.54227566719055165 -0.92212569713592518 1.0957615971565249 -0.59433710575103749 -0.91075497865676869 0.93268343806266796 0.93370968103408825 -0.9034019112586974 -1.9809112548828123 1.3571883440017702 -1.6664389967918394 0.98254948854446422
decision_type=2 2 2 2 2 2 2 2 2 2 2 2 2 2 2 2 2 2 2 2 2 2 2 2 2 2 2 2 2 2 2 2 2 2 2 2 2 2 2 2 2 2 2 2 2 2 2 2 2 2 2 2 2 2 2 2 2 2 2 2 2
left_child=1 6 9 14 19 -6 16 12 38 10 11 -3 28 59 24 23 17 35 -19 -5 21 -17 -22 25 -4 -14 57 -15 44 41 34 -12 33 -30 -31 -1 37 -28 39 40 -9 42 -10 -16 55 -46 -38 -41 49 -18 -43 56 -50 -32 -34 -2 -40 -8 -25 -11 -53
right_child=7 2 3 4 5 -7 26 8 29 13 31 -13 15 27 43 20 48 18 -20 -21 22 -23 -24 58 -26 -27 36 -29 32 30 53 -33 54 -35 -36 -37 46 -39 51 47 -42 50 -44 -45 45 -47 -48 -49 52 -51 -52 60 -54 -55 -56 -57 -58 -59 -60 -61 -62
leaf_value=-0.10881014486191608 -0.11845976351757059 0.1574145553930536 0.0495874294505525 0.26801545828713541 0.054738477136110325 0.10470852282147206 -0.13770940443027005 -0.13305814456983331 -0.14368598829769513 -0.12417666647563746 0.30256004842419276 -0.079119303414902878 0.17556921134116932 0.50755520039379043 0.13347748765583214 0.06690442804461931 0.40985460146453684 0.33741288750294385 -0.054876053336098331 0.019597006499307484 0.12387352314725789 0.1598677683356661 0.16714070272334652 -0.17593202763194082 -0.10407517728669023 0.11218281781609168 0.24676985460350942 0.27398585266601033 0.10504116786972202 -0.13459966761184392 -0.16014520126696385 0.20570498947779281 -0.12116424466109983 -0.040036273043346414 0.14454631786604963 0.055561678036289447 0.3448802382301725 -0.13433771333482977 -0.14045579521172052 0.023304642296866362 0.264502890278347 0.1207815902176592 0.13926762447021634 0.34150344365758256 -0.12176149337977252 0.13373853227190852 0.2539527914300132 0.18827991728858662 -0.13575567777748224 -0.11258924218585804 0.21051119589293013 -0.11316326049993478 -0.12021555944881723 -0.1381616091719973 -0.14948670523910554 -0.13226025273734907 -0.15756933711088589 -0.15941877102480617 -0.162888715023526 -0.11676842845838989 -0.11734647008230759
leaf_weight=175.93624784052372 40.126416116952896 393.84509578347206 151.81059877946973 769.15175759792328 5001.4065289273858 68112.021184677258 5.2852656543254852 52.263693682849407 11.742320999503134 7.21230724453926 213.03474904596806 270.79207574576139 3713.7535299435258 26.83521493524313 12.421145230531691 1770.8930420801044 6.222853183746337 90.474119156599045 114.37089940905571 50.949811577796936 9471.2110407203436 999.72001672536135 3707.8092305734754 19.190549403429035 611.79762158170342 746.03586788475513 54.593521326780319 616.63506728410721 196.2037937194109 10.181599102914332 11.460037231445311 411.66348061710596 25.686332065612081 54.355832397937775 61.190926052629948 27.758217319846153 45.293409921228886 12.771888628602026 140.70141978561878 10.336810700595381 3.9661936759948722 23.505616925656796 45.037965819239616 24.706891067326069 27.010610945522785 18.429998368024826 53.145245537161827 15.060224294662474 55.783750757575035 77.826073624193668 114.43775369971991 36.668064698576927 247.84991070628166 23.586038008332253 4.502705566585063 22.28916123509407 8.797181308269499 5.076439216732977 6.3413639217615119 27.424976654350758 2.3099233806133261
leaf_count=1734 352 798 1504 437 16927 202931 28 346 59 46 66 1203 2838 36 36 4203 2 168 661 161 14699 1494 4427 79 3898 1380 45 454 637 68 50 508 184 258 108 163 27 72 687 47 1 40 76 21 260 49 30 31 335 981 100 361 1928 132 24 124 38 22 27 223 20
internal_value=0 0.102188 0.103452 0.101249 0.102968 0.10129 0.00247394 0.131536 0.00962368 0.187137 0.147137 0.0610439 0.13488 0.263191 -0.0575091 0.137146 -0.0463825 0.0162764 0.118387 0.252582 0.129863 0.100448 0.136046 0.163044 -0.073526 0.164966 0.223292 0.283727 0.0157551 0.112555 0.0223695 0.238735 0.0521745 0.0735684 0.104725 -0.0864106 0.246517 0.174515 -0.105136 -0.0346529 -0.105016 0.161843 0.080752 0.271909 -0.079044 -0.0181347 0.29579 0.121134 -0.112412 -0.0739083 0.195221 -0.135662 -0.123071 -0.14535 -0.125389 -0.123388 -0.141463 -0.148345 -0.172692 -0.118311 -0.113411
internal_weight=0 77674.1 76701.7 74734.3 73933.5 73113.4 972.388 21394.8 571.246 1967.44 1289.34 664.637 20823.6 678.108 800.736 20435 796.222 408.539 204.845 820.102 15949.6 2770.61 13179 4485.32 763.608 4459.79 176.166 643.47 388.605 301.142 106.419 624.698 280.749 250.56 71.3725 203.694 165.804 67.3654 270.104 81.6269 56.2299 194.724 56.7803 37.128 107.856 45.4406 98.4387 25.397 387.683 84.0489 137.943 188.477 303.634 35.0461 30.189 62.4156 149.499 10.3617 25.5319 34.6373 38.978
internal_count=268644 235445 229249 225915 220456 219858 6196 33199 2164 3334 2575 2001 31035 759 5459 29147 5972 2726 829 598 24823 5697 19126 4324 5402 4218 224 490 1888 633 358 574 1103 895 176 1897 174 117 1531 425 347 275 135 57 785 309 57 78 3246 983 140 1106 2263 182 208 476 725 50 106 269 381
is_linear=0
shrinkage=0.1


Tree=7
num_leaves=60
num_cat=0
split_feature=135 31 76 128 130 54 117 127 131 32 92 71 100 39 131 29 53 109 19 30 102 108 104 7 71 31 38 108 30 3 27 51 76 129 102 123 99 6 73 71 65 12 111 131 75 31 123 90 72 111 108 56 106 30 5 106 73 29 66
split_gain=1301.12 993.391 976.847 1980.97 1523.48 1367.48 1271.91 1678.45 1390.98 1003.76 788.548 748.579 1219.08 760.002 678.118 672.445 618.339 435.628 431.549 404.767 390.913 381.492 533.341 332.857 313.372 278.013 244.2 234.992 233.243 232.134 316.363 231.592 230.07 211.087 187.327 178.546 172.41 144.362 124.127 119.321 150.492 111.5 104.328 97.7805 95.8318 59.1714 50.388 47.8554 43.8619 33.8889 18.7053 15.8203 10.6994 0.892049 0.784247 0.181726 0.134771 0.0311998 0.0120573
threshold=1.0000000180025095e-35 1.0064241886138918 -1.2050912380218504 1.0000000180025095e-35 1.0000000180025095e-35 1.0433545112609866 -1.0721008777618406 -2.2288709878921504 1.0000000180025095e-35 0.9532262682914735 -1.2217841148376463 -0.48966370522975916 -0.88407078385353077 0.97269034385681163 1.0000000180025095e-35 1.2412465214729311 1.0638893246650698 -1.0760459303855894 1.245550870895386 1.0915288329124453 -0.87392008304595936 -0.85228252410888661 -0.79924994707107533 0.86994761228561412 -0.44385030865669245 1.0041138529777529 0.99048250913620006 -0.88269522786140431 1.0604837536811831 0.71976283192634594 1.4378765821456911 1.115350663661957 -1.117043077945709 1.0000000180025095e-35 -0.85693305730819691 -1.1095319390296934 -0.9351716637611388 0.64422383904457103 -0.96553203463554371 -0.35152029991149897 0.40099692344665533 0.83026999235153209 -0.90999355912208546 1.0000000180025095e-35 -1.028812527656555 0.99698194861412059 -1.7645061612129209 -1.0930088162422178 -0.7751379907131194 -1.1960705518722532 -1.0239449739456175 0.93349227309227001 -0.94239348173141468 1.0957615971565249 0.79324001073837291 -0.9435424506664275 -0.9034019112586974 1.2500589489936831 -0.27902369201183314
decision_type=2 2 2 2 2 2 2 2 2 2 2 2 2 2 2 2 2 2 2 2 2 2 2 2 2 2 2 2 2 2 2 2 2 2 2 2 2 2 2 2 2 2 2 2 2 2 2 2 2 2 2 2 2 2 2 2 2 2 2
left_child=1 2 4 6 10 9 7 -4 -8 -5 51 12 18 33 34 17 -12 39 43 27 -20 25 -23 48 31 -6 -26 28 -19 30 -21 -15 -16 36 -14 -29 -13 -35 -31 45 49 -7 44 -3 47 52 -47 -25 53 -41 -42 -1 -2 56 -55 -46 -17 -44 -59
right_child=15 11 3 5 21 41 8 -9 -10 -11 16 13 14 24 32 23 -18 19 20 29 -22 22 -24 42 26 -27 -28 35 -30 38 -32 -33 -34 37 -36 -37 -38 -39 -40 40 50 -43 57 -45 55 46 -48 -49 -50 -51 -52 -53 -54 54 -56 -57 -58 58 -60
leaf_value=-0.10868754392425513 -0.12685823681098307 -0.0024962731383408577 0.078925129667167387 -0.030893463274380962 0.16788165821232029 -0.092119668020751666 0.079217128567456885 0.12304737549780105 -0.016134761298622898 0.12326113634753902 0.14282040925245634 0.22987462078153081 0.12521284209667111 0.10114568599736021 0.20073657003238848 -0.13564689301326729 0.07506530620097035 0.1466144387889686 0.027975886494141747 0.080321416591097011 0.12159034344113812 -0.087211954946491602 0.057283457294547528 -0.028666223446772377 -0.030636448938086893 -0.093651921998785276 0.096080613683252547 -0.0057034086566697412 0.1201499845914495 -0.076683863725838811 -0.078964526507408039 -0.10047675601388135 0.062318197441970286 -0.032285492520885778 0.0095207357759596444 0.10529721405434143 -0.074178894616487454 0.13930494067925656 0.16126630575493026 0.079292609935318947 -0.12263448324938796 0.10792124808182001 -0.14521879741550345 -0.096684854586963367 -0.13658338351964469 0.17738897039366824 -0.13326502552258046 0.16699027905026209 0.17208563653945569 0.27129378814572325 0.066377477114154898 0.037415992021175522 -0.065888196044257691 -0.11331476102482047 -0.14021281708738903 -0.16400089507011426 -0.14709727431073885 -0.13897567476843745 -0.13308271453335083
leaf_weight=138.47678472846746 74.851959474384785 202.41413491219282 16030.080725602806 729.34211479872465 222.69519961625338 1012.5432252399623 22099.053545122966 18655.427435994148 1643.6914357170463 1003.6411439329386 9165.9857067130506 19.02583634853363 229.21723268926144 1004.7314430214465 1079.9588030576706 102.59764482080936 1578.9458319619298 4426.3571503981948 1591.8898231722414 2246.1744062528014 619.70851717889309 497.53412821143866 524.98031171783805 14.269967071712015 536.44317015260458 49.719876371324062 212.2559267655015 230.32689297199249 13449.035997189581 23.087822921574116 132.0184760093689 60.394450880587101 135.10286417603493 108.52820254862309 359.39948805421591 390.75182829797268 942.29680192470551 89.435186386108398 434.44494244456291 13.814763978123663 24.94570836797357 28.652006428688765 4.050571821630002 241.98481553047895 3.3874253034591666 15.235091879963877 7.9435958489775649 100.83985072374344 4.888319879770278 27.477108463644981 6.6267236024141303 7.8303430750966063 46.764338657259941 37.579419068992138 15.23357132822275 8.4426195770502073 11.42368672788143 5.5837050676345834 9.1807257533073408
leaf_count=3022 596 924 45516 3171 647 8892 65776 39239 9154 4058 15937 63 634 3571 967 533 5228 4251 6918 5201 1488 3434 2671 64 3123 300 800 624 18478 94 702 389 344 419 1415 655 5507 193 569 50 219 163 20 1464 21 22 45 115 5 19 11 18 247 387 101 36 55 28 51
internal_value=0 0.0881487 0.091677 0.0865288 0.117532 0.00396336 0.0904491 0.102656 0.072616 0.0583837 0.129724 0.0533121 0.0792239 0.0144444 0.142669 0.115644 0.132864 0.117772 0.0361384 0.119209 0.0542074 0.0149907 -0.013025 -0.0288321 0.0548647 0.120148 0.00528779 0.124602 0.126703 0.0840286 0.0714791 0.0897134 0.185346 -0.0487974 0.0545732 0.0641327 -0.0681613 0.045235 0.149259 -0.0229829 0.0813902 -0.0866149 0.082309 -0.053784 0.114881 -0.0755059 0.0709244 0.142735 -0.123167 0.207057 -0.0829628 -0.100868 -0.103414 -0.131818 -0.121073 -0.15615 -0.136794 -0.137444 -0.135311
internal_weight=0 80821.4 73388.6 61202.4 12186.2 2774.18 58428.3 34685.5 23742.7 1732.98 10891.2 7432.79 4459.68 2973.11 1803.68 21867.3 10744.9 21549.9 2656 21332.2 2211.6 1294.93 1022.51 317.478 1813.82 272.415 748.699 18496.5 17875.4 2835.73 2378.19 1065.13 1215.06 1159.29 588.617 621.079 961.323 197.963 457.533 217.659 72.8643 1041.2 145.755 444.399 126.94 144.795 23.1787 115.11 171.723 41.2919 31.5724 146.307 121.616 166.834 52.813 11.83 114.021 18.815 14.7644
internal_count=268644 235445 207226 175969 31257 16284 159685 84755 74930 7229 24205 28219 14154 14065 3360 33199 21165 31783 10794 30574 8406 7052 6105 1416 7883 947 3923 24008 22729 6566 5903 3960 1311 6182 2049 1279 5570 612 663 1209 299 9055 335 2388 236 910 67 179 1081 69 230 3040 843 1076 488 57 588 99 79
is_linear=0
shrinkage=0.1


Tree=8
num_leaves=61
num_cat=0
split_feature=135 99 105 28 72 30 3 133 31 132 101 29 4 31 107 49 127 29 30 100 103 32 74 0 96 106 119 2 45 29 32 108 81 92 79 111 110 90 99 97 52 40 115 5 52 74 73 106 106 31 72 57 63 112 69 56 92 107 30 129
split_gain=1162.2 774.182 797.938 1330.68 1663.91 1445.32 842.669 823.193 1000.17 615.374 611.728 568.45 464.559 436.25 431.806 417.4 585.153 386.572 358.718 287.047 281.223 275.847 227.499 503.309 488.897 225.328 191.567 180.89 176.686 166.174 148.61 140.222 137.552 124.506 109.558 100.731 74.8614 74.2031 73.1284 60.0854 57.699 55.0286 51.5884 52.7068 46.8406 44.3178 58.0371 36.9686 33.0964 22.4234 63.8637 20.9988 71.1817 18.7821 9.5003 1.40661 1.14847 0.543572 0.168047 0.151079
threshold=1.0000000180025095e-35 -0.9896443486213683 -0.92444214224815358 1.2300867438316347 -0.68320629000663746 1.0551424622535708 0.6754215955734254 1.0000000180025095e-35 0.9628952443599702 1.0000000180025095e-35 -0.86650031805038441 1.2225233912467959 0.76302719116210949 1.0034111142158511 -0.95043787360191334 1.1068563461303713 -2.1030504703521724 1.2352217435836794 1.0604837536811831 -0.9583953022956847 -0.89869773387908924 0.92064160108566295 -0.99353027343749989 0.52584844827651989 -1.0029742717742918 -0.96150839328765858 -1.2692536711692808 0.70204287767410289 1.1748457551002505 1.2412465214729311 0.95362582802772533 -0.94445830583572377 -1.2860317230224607 -1.1583325862884519 -1.1905466914176939 -0.90999355912208546 -0.89273127913475026 -1.0930088162422178 -1.0369275212287901 -0.97097426652908314 1.0018975138664248 0.89410164952278148 -0.95932993292808522 0.77178040146827709 1.1686137914657595 -1.0449984073638914 -0.96553203463554371 -0.97607490420341481 -0.9013991355895995 1.001359283924103 -0.82399669289588917 0.85582369565963756 0.44999806582927709 -0.91336295008659352 -0.45742040872573847 0.73298862576484691 -1.0826761126518247 -0.98137935996055592 1.0957615971565249 1.0000000180025095e-35
decision_type=2 2 2 2 2 2 2 2 2 2 2 2 2 2 2 2 2 2 2 2 2 2 2 2 2 2 2 2 2 2 2 2 2 2 2 2 2 2 2 2 2 2 2 2 2 2 2 2 2 2 2 2 2 2 2 2 2 2 2 2
left_child=1 33 7 4 10 -6 20 8 9 -3 -4 14 17 -10 25 16 -9 19 27 34 -5 -8 24 -24 -20 51 -17 32 30 45 -27 -21 -16 47 -13 37 40 -31 59 -29 41 -35 43 -19 -40 46 -14 -1 -30 55 -51 57 -53 -47 -44 -49 -42 -2 -37 -38
right_child=11 2 3 6 5 -7 21 15 13 -11 -12 12 29 -15 18 26 -18 42 22 31 -22 -23 23 -25 -26 28 -28 39 48 35 -32 -33 -34 36 -36 58 38 -39 44 -41 56 -43 54 -45 -46 53 -48 49 -50 50 -52 52 -54 -55 -56 -57 -58 -59 -60 -61
leaf_value=0.18900065802248128 -0.12134499016110795 -0.051821551077196153 0.1004785015419498 -0.051888241271224357 0.080321130836157661 0.044675497541606872 0.066394479088840982 0.059984191658282143 -0.099376536313522223 0.12183734652484027 0.15701072652362449 -0.15292017530783744 -0.14229058895171195 0.13217767177676931 -0.046779889054461656 0.17712350000942259 0.12696920844849982 -0.084480928742389869 0.10961924213020165 0.2245552529405743 0.013643172648740029 0.18468954867083587 0.092306951931132794 0.14472190091362977 0.054055004996018986 0.064950935828972531 -0.036487490209140737 0.099767449451450885 -0.13538692987825979 -0.077098274542612338 0.16588553718417667 0.056985116555908912 0.14242247954610043 -0.011554472105087879 0.0042935949582285802 -0.1329114501713991 -0.11737246941190188 0.10862840796013502 0.064936253158198259 -0.17372313689796581 -0.11687814093973169 0.25857273939396747 -0.13098124467073854 0.13426752500648195 0.23842944575556868 0.18267568157736991 0.16524906356461644 -0.10445201455978746 0.034927809668487929 0.18202563559083504 -0.083129020852292165 0.19480282840463978 -0.12271472274277968 0.12199699422261932 -0.0693840260688246 -0.1219209288855236 -0.15383591620291862 -0.14734651816652514 -0.11068627300143818 -0.14119912958205974
leaf_weight=4.7239652834832659 51.104671485722065 245.52403325587511 8071.4545054994524 912.17603714764118 42410.456132840365 15544.185778401792 614.69420625269413 1795.6698414832354 497.03619381040335 1208.1073097139597 2509.1386679336429 86.616526506841183 10.727447971701622 97.289558690041304 38.808060392737389 1283.2486959546804 4763.9262993633747 30.937438055872917 5047.7332205250859 54.029113963246346 2321.5248459465802 290.17608419805765 3878.6433878093958 3471.8446996435523 2307.3809704631567 1456.5246683694422 43.402957245707512 11.984388411045073 48.385783340781927 26.003557071089745 162.10579258203506 659.32524950057268 3893.2517737746239 102.92781956493855 90.787081427872181 24.115928277373317 9.7013195324689132 124.52980546653271 39.790686056017876 24.364838391542435 33.690022673457861 8.1376356631517393 171.18903306126595 17.104670137166977 25.556644037365913 275.45374719798565 14.337553173303604 135.46084920689464 14.930497601628302 10.499484136700628 67.356711879372597 10.117481991648672 23.367239464074373 62.605931550264359 29.328618317842484 69.867637973278761 11.204777479171751 9.5411117672920209 3.9608053192496291 3.6671474352478972
leaf_count=10 429 1211 19965 4734 123181 50568 1623 3875 1906 1611 3172 425 56 247 113 1231 7585 179 7794 60 8213 324 5503 3009 4446 3536 157 17 322 135 202 1437 2813 546 260 131 113 201 161 101 332 4 1093 34 34 188 11 3540 31 24 373 25 245 86 225 632 53 46 46 20
internal_value=0 0.0769591 0.0777267 0.0740929 0.0774181 0.0707605 0.0190275 0.104309 0.0478208 0.0925057 0.113885 0.102746 0.0468471 -0.0614717 0.107341 0.118978 0.108632 0.0105977 0.111822 0.0413677 -0.00484221 0.10433 0.104622 0.117064 0.0921881 0.0602229 0.170135 0.138502 0.0686492 0.123083 0.0750595 0.0696768 0.140555 -0.0443724 -0.0724653 0.0441126 0.00969174 0.0765455 0.0891924 -0.0835529 -0.0304336 0.00823743 -0.0996723 -0.00659883 0.132788 0.161926 0.0336267 -0.0884405 -0.0952253 -0.0930686 -0.047371 -0.0903398 -0.0267761 0.171438 -0.121972 -0.110396 -0.126102 -0.125436 -0.129776 -0.123908
internal_weight=0 83130.6 82608 72673.8 68535.2 57954.6 4138.57 9934.2 2047.96 1453.63 10580.6 22131.1 1681.05 594.326 20450.1 7886.25 6559.6 1139.32 18674 890.758 3233.7 904.87 14705.6 7350.49 7355.11 1776.08 1326.65 3968.41 1681.95 541.735 1618.63 713.354 3932.06 522.585 177.404 178.61 234.676 150.533 78.7158 36.3492 155.96 111.065 248.56 48.0421 65.3473 363.125 25.065 287.909 63.3163 283.185 77.8562 94.1305 33.4847 338.06 200.518 205.328 44.8948 60.6458 28.0767 13.3685
internal_count=268644 235445 229603 211780 196886 173749 14894 17823 4975 2822 23137 33199 4567 2153 28632 12848 11460 3713 23796 2182 12947 1947 20752 8512 12240 4836 1388 3044 4091 854 3738 1497 2926 5842 685 513 1263 336 328 118 935 550 1531 213 195 341 67 4579 353 4569 397 745 270 274 1318 4172 385 475 177 133
is_linear=0
shrinkage=0.1


Tree=9
num_leaves=62
num_cat=0
split_feature=135 109 118 0 122 91 133 29 35 111 127 4 106 29 37 33 126 114 72 30 72 0 2 100 51 34 106 53 124 69 29 3 76 71 56 48 83 111 111 7 119 124 5 76 55 75 114 110 107 80 57 63 109 115 117 74 80 30 107 30 124
split_gain=1059.07 704.926 1024.89 1461.17 1353.44 911.9 734.807 452.615 428.695 453.968 639.919 371.604 370.546 325.642 298.643 264.665 511.438 383.758 264.256 253.226 240.023 642.104 438.67 231.704 205.94 189.547 179.996 147.235 270.73 226.386 129.586 124.932 124.631 119.234 105.835 105.032 99.3979 84.259 75.839 60.747 52.7579 48.9866 63.5422 35.0847 33.9105 76.1599 33.153 28.1972 25.678 20.8317 19.4074 57.5389 15.7673 9.90758 8.48106 53.3338 1.392 1.05649 0.366082 0.115826 0.0916901
threshold=1.0000000180025095e-35 -1.1322932839393614 -1.5835681557655332 -0.18049258738756177 -1.9938618540763853 -0.39720222353935236 1.0000000180025095e-35 1.2225233912467959 0.85402250289917003 -1.2422432899475095 -3.1605135202407832 0.76302719116210949 -0.92769715189933766 1.2352217435836794 0.99990975856781017 0.86250677704811107 -2.8031495809555049 -1.4075415730476377 -0.30720715224742884 1.0604837536811831 -0.7751379907131194 0.57022836804389965 0.67811939120292675 -0.9583953022956847 1.1584696769714358 0.86622008681297313 -0.96150839328765858 1.0311310291290285 -1.6599366068840025 -0.14805053919553754 1.2412465214729311 0.72704491019248974 -1.1083201766014097 -0.48487509787082667 0.88847324252128612 1.1964489221572878 -1.1734896302223203 -0.90999355912208546 -1.2225376367568968 0.86994761228561412 -1.6775116324424741 -1.1166420578956602 0.77178040146827709 -1.1559684872627256 1.0104026198387148 -0.69447401165962208 -1.4420831799507139 -0.8989904224872588 -0.92923122644424427 -0.54800441861152638 0.85582369565963756 0.44999806582927709 -0.92113474011421193 -1.3884416818618772 -1.5492672920227049 -0.52760726213455189 -0.59433710575103749 1.0957615971565249 -0.98137935996055592 1.0957615971565249 -1.9809112548828123
decision_type=2 2 2 2 2 2 2 2 2 2 2 2 2 2 2 2 2 2 2 2 2 2 2 2 2 2 2 2 2 2 2 2 2 2 2 2 2 2 2 2 2 2 2 2 2 2 2 2 2 2 2 2 2 2 2 2 2 2 2 2 2
left_child=1 6 8 14 24 -6 15 12 38 10 -10 13 26 23 18 16 40 -18 -4 25 22 -22 -21 36 -5 31 50 28 -28 -29 43 -14 -25 -27 60 -11 -9 39 46 -32 -1 42 -15 47 45 -36 -3 -13 -40 -16 58 -52 -45 -46 55 -17 -56 -43 -2 -39 -8
right_child=7 2 3 4 5 -7 34 11 9 35 -12 30 19 41 49 54 17 -19 -20 20 21 -23 -24 32 -26 33 27 29 -30 -31 37 -33 -34 -35 44 -37 -38 59 48 -41 -42 57 -44 52 53 -47 -48 -49 -50 -51 51 -53 -54 -55 56 -57 -58 -59 -60 -61 -62
leaf_value=-0.017370931599918701 -0.1190670697502742 0.1553874372738786 -0.11938304181296484 0.20268030483997157 0.067312579448354601 -0.14626517066612199 -0.13812967699755949 -0.10470696504128188 0.030906228287423017 0.23070109139536071 0.17643024607255248 -0.14232580804854275 0.13222685280114144 -0.096695130593222434 0.13815609068096599 0.27538829647540375 0.2071434439290013 -0.083470504016903646 0.0022157478756196828 0.051028817903472967 0.08503330267407333 0.13777875604544643 0.12480842793316867 0.026768420232539576 0.011148587281851259 -0.19947687987387763 0.16740024123245656 -0.071393521977979796 0.052454465776131914 0.072232836914083678 -0.080336615008452364 -0.0672367063704917 0.11099104822984492 0.077897991769969865 0.18278603242515756 0.16014442221192735 0.085893433629591648 -0.12884737266420551 0.40613965891697684 0.095369079267348375 -0.1199222629761531 -0.13081258964253117 0.095973024107262314 0.073679596976829659 0.24837565405023035 -0.05207894455265169 -0.12709051125376625 0.16319923211635409 0.071792992552652798 0.28177708833853554 0.16085923421595741 -0.12053968201353762 0.15551218903623412 0.18713842277916456 -0.13726628878328317 -0.11328444065078343 -0.12120158442663637 -0.11023132906647951 -0.14108257713254502 -0.10956966640175725 -0.15679498469542902
leaf_weight=65.963949963450432 47.080506231635809 4.3995530307292929 528.00327552855015 842.48465777933598 79924.409111766145 200.41156986355782 5.3338128179311752 138.78738611936569 583.92195679247379 502.01860371232033 626.24979457259178 7.5574783161282539 3594.2898354902864 48.600459299981594 28.101755674928427 3.9009544849395743 139.7421347796917 67.332353390753269 270.15991540253162 2744.2082987055182 7293.0265931934118 3376.5635508671403 1140.9145514667034 423.25069561600685 60.14599820971489 15.902684479951857 262.61101595312357 192.51731406897306 932.46307963132858 255.24867587164044 23.245097726583481 31.678017675876617 300.39930000156164 608.56092793494463 59.595776170492172 363.93236380815506 34.079320728778839 22.473387718200687 3.1306176185607901 128.17842444777489 209.45765175670385 128.5437219068408 26.424622118473053 25.356946289539337 48.951684191823006 17.969814628362656 74.697619117796421 5.0320618376135808 8.6267418116331083 15.764793433248995 10.974454447627066 21.505496183410287 329.55739596486092 57.400356590747833 68.55792210996151 37.175159588456154 252.93373844772577 30.945960819721222 8.9962908178567869 3.6185357943177214 5.1951937675476056
leaf_count=635 429 2 3963 428 218909 949 28 613 1632 171 538 41 2562 347 44 1 282 361 1439 5747 10171 2935 1370 1063 170 65 357 797 2059 739 109 101 434 984 44 460 72 131 1 227 1938 725 78 41 22 77 487 7 43 13 25 245 252 30 404 448 1903 381 46 46 23
internal_value=0 0.0675725 0.0685849 0.0667882 0.0681501 0.0667784 -0.0142717 0.0920934 0.136464 0.145769 0.106213 0.0421262 0.0961714 0.00943992 -0.0642631 -0.0546016 -0.00608935 0.112647 -0.0782246 0.100247 0.0939763 0.101725 0.0726951 0.0368834 0.189918 0.121721 0.0519026 0.0593885 0.0777132 0.0104806 0.109957 0.130484 0.0617307 0.0708343 0.161002 0.201048 -0.0671316 0.0397977 -0.0761538 0.0683964 -0.095361 -0.0954726 -0.0288354 0.143846 0.178654 0.128374 -0.111378 -0.0202069 0.160819 0.189771 -0.0869711 -0.0254595 0.149666 0.215325 -0.11916 -0.0763726 -0.124627 -0.126819 -0.122599 -0.126174 -0.147339
internal_weight=0 85076 84036.5 81869.5 81027.5 80124.8 1039.51 22212.6 2166.98 2076.12 1210.17 1676.05 20536.5 1131.03 842.03 845.064 482.496 207.074 798.163 18805.1 14554.7 10669.6 3885.12 896.517 902.631 4250.43 1731.4 1642.84 1195.07 447.766 545.019 3625.97 723.65 624.464 194.447 865.951 172.867 177.515 90.8545 151.424 275.422 234.515 75.0251 367.504 183.918 77.5656 79.0972 12.5895 11.7574 43.8665 88.5567 32.48 354.914 106.352 362.568 41.0761 321.492 159.49 56.0768 26.0919 10.529
internal_count=268644 235445 229249 225915 220456 219858 6196 33199 3334 2801 2170 4567 28632 3713 5459 5972 3216 643 5402 23935 20223 13106 7117 2182 598 3712 4697 3952 2416 1536 854 2663 1497 1049 224 631 685 513 533 336 2573 1531 425 341 173 121 489 48 44 57 745 270 293 52 2756 449 2307 1106 475 177 51
is_linear=0
shrinkage=0.1


Tree=10
num_leaves=62
num_cat=0
split_feature=71 30 100 72 128 54 30 130 100 135 41 71 30 96 0 45 27 99 30 72 41 45 127 4 101 124 42 117 103 99 28 5 71 66 29 79 129 102 6 20 30 100 70 38 108 124 46 58 103 45 100 129 0 42 34 14 105 123 89 33 105
split_gain=985.871 1630.39 1127.93 970.976 1166.88 1398.08 921.043 845.447 937.744 770.084 813.805 762.666 662.066 629.047 547.908 620.541 541.14 540.154 566.489 527.269 443.273 355.344 320.48 297.729 341.905 295.155 293.549 248.988 308.036 228.502 198.69 315.003 190.574 153.929 152.032 151.873 181.971 139.781 232.953 134.644 133.704 129.615 118.883 195.944 114.348 108.162 128.584 102.472 97.3228 89.1511 88.8739 79.2481 59.1036 57.4257 47.6437 21.6492 13.3712 8.46794 0.28691 0.118228 0.0184374
threshold=-0.48966370522975916 1.0551424622535708 -0.86487108469009388 -0.62728932499885548 1.0000000180025095e-35 1.0433545112609866 1.0484332442283633 1.0000000180025095e-35 -0.87293452024459828 1.0000000180025095e-35 0.98089873790740978 -0.45878189802169794 1.0915288329124453 -0.69800961017608631 0.36560933291912084 1.1120581030845644 1.2129302024841311 -0.96588888764381398 1.0291584730148318 -0.75032317638397206 1.0126318931579592 1.0891917347908022 -1.9598882794380186 0.68539017438888561 -0.91667717695236195 -1.536859333515167 1.0278997421264651 -1.0882195830345152 -0.83139961957931507 -0.90938326716423024 1.3440260291099551 0.79324001073837291 -0.5767717957496642 0.23911998420953753 1.125818192958832 -0.44874987006187433 1.0000000180025095e-35 -0.90019831061363209 0.71399995684623729 1.7769446372985842 1.0656612515449526 -0.94410914182662953 -0.34112456440925593 0.89328888058662426 -1.0108977556228635 -1.6599366068840025 1.0862276554107668 0.86361724138259899 -0.84584587812423695 1.121729373931885 -0.87293452024459828 1.0000000180025095e-35 0.11546583846211435 1.0370751023292544 0.87319079041481029 1.2484580278396609 -0.91604778170585621 -1.1124348044395445 -0.95936244726181019 0.8887469768524171 -0.90620562434196461
decision_type=2 2 2 2 2 2 2 2 2 2 2 2 2 2 2 2 2 2 2 2 2 2 2 2 2 2 2 2 2 2 2 2 2 2 2 2 2 2 2 2 2 2 2 2 2 2 2 2 2 2 2 2 2 2 2 2 2 2 2 2 2
left_child=7 2 26 14 6 -6 -5 12 37 10 42 16 13 17 22 -16 -12 19 -19 -1 -13 45 -4 24 44 58 29 54 -29 51 41 -32 -26 -31 49 36 -28 39 48 55 -40 -25 43 -3 -14 56 -47 57 -39 -23 -44 -2 -49 -36 -27 -9 -11 -15 59 -10 -60
right_child=1 9 3 4 5 -7 -8 8 25 21 11 20 23 47 15 -17 -18 18 -20 -21 -22 34 -24 30 32 27 35 28 -30 33 31 -33 -34 -35 53 -37 -38 38 40 -41 -42 -43 50 -45 -46 46 -48 52 -50 -51 -52 -53 -54 -55 -56 -57 -58 -59 60 -61 -62
leaf_value=0.051662981961077062 -0.099175957908482618 -0.14207483144779631 0.10924651293476058 0.072204913357324652 0.057839016042866211 -0.086833970939762001 0.025953008168564291 -0.11908308056849733 -0.15244805355554666 0.14000257801841273 0.0982340381483571 -0.069048571918535598 0.072730679072176771 -0.15667908568012914 0.10109933117362878 -0.03170968736728684 0.027524182177973706 0.13490902027423288 0.082196255276860142 -0.1097471347673656 0.010051802124134621 0.10740377090410431 0.20478716298805391 0.054309277737559815 0.06755320672883329 0.086196647992458214 -0.10298161359177667 0.01455435891422523 0.13759672508166768 0.078514901944219298 -0.066918943746871448 0.076175826280363373 -0.026477437118813976 -0.16223533344833785 -0.0017319920112800807 0.23689832977577929 0.0032443878209723431 -0.051886581140285874 -0.12161037970341126 0.20306223593943051 0.16399028568789947 0.098564874917005663 -0.058841790398109141 0.058040066589670258 -0.068834010110399038 0.14345165374283506 0.00026722130104355315 0.076447234992491009 0.018781169465360306 -0.15062891730216177 -0.12698055052322696 0.053592817847157387 -0.20375323172515847 -0.16009605677357933 0.23054192340327184 -0.039965902559877746 0.21327466186478949 -0.10755341720659201 -0.14677221793836134 -0.16477693752314676 -0.13922354792305008
leaf_weight=2366.3738630134612 151.5274784360081 72.890624232590199 656.28543377667665 31794.34731044434 1629.7337252274156 1131.8949535228312 4979.8167684748769 256.99858975969255 12.130923330783842 28.518988840281963 1378.5663203895092 1088.7293388694525 64.115253150463104 91.507966890931129 3409.7955385372043 392.29185979813337 5036.2030993551016 2151.9659567549825 38745.024626836181 221.30849938839674 2028.3348381966352 104.60441598296165 754.99675129354 1703.4948019236326 785.74530722200871 26.944545343518257 536.35110287368298 393.64738487452269 421.1445734500885 437.82180961221457 290.7141917347908 326.74569721147418 297.01232060790062 28.272529549896717 38.819260753691196 16.357296139001846 230.60053163766861 753.22003224492073 19.731586396694183 14.556569367647169 96.842032499611378 1082.2133170515299 407.37421073764563 148.84816099703312 518.39263068884611 363.31303934752941 75.804205641150475 42.01485401391983 262.90389736741781 15.355477087199686 361.09094413369894 43.763275325298309 9.1711663454771024 55.828647419810295 151.08470997214317 39.964171651750803 196.55834020674229 56.909911468625069 6.233367919921875 21.676871493458748 6.7279987782239896
leaf_count=7334 1635 298 962 77470 6105 9409 16208 1901 54 53 3329 4888 138 442 6173 1673 15873 2720 69146 1759 8135 151 818 3982 1666 51 2756 1309 725 944 1623 650 1043 131 103 5 566 3973 240 39 276 1702 1900 309 2238 289 170 75 1157 79 1543 124 40 260 51 396 83 1317 29 92 34
internal_value=0 0.0554166 0.0637751 0.0665828 0.0612337 -0.00145738 0.0659417 0.0744846 0.0175739 0.0215495 0.0140385 0.0230022 0.077384 0.0813534 0.107147 0.0873964 0.0427201 0.0821665 0.08497 0.0378586 -0.0175764 0.11148 0.160358 0.0431722 0.00852452 0.0899956 -0.0231917 0.10156 0.0781517 0.0258643 0.0601262 0.00880355 0.0417596 0.0639114 -0.000387922 -0.064612 -0.0710425 -0.0345573 -0.0182421 -0.0938802 0.115649 0.071502 -0.0722467 -0.00774229 -0.0532523 0.147625 0.118734 -0.0957645 -0.0336026 0.0743743 -0.0908592 -0.0649416 0.0262428 -0.095144 0.208695 -0.108436 0.203991 -0.137842 -0.155503 -0.160353 -0.142854
internal_weight=0 57594.7 46193.9 44749.2 39535.8 2761.63 36774.2 51236.5 2483.81 11400.8 10522 9531.83 48752.7 43684.3 5213.37 3802.09 6414.77 43484.7 40897 2587.68 3117.06 878.802 1411.28 5068.43 1665.27 1039.59 1444.69 992.821 814.792 661.385 3403.17 617.46 1082.76 466.094 214.608 783.309 766.952 1444.22 1132.7 311.519 116.574 2785.71 990.204 221.739 582.508 664.195 439.117 199.604 1016.12 119.96 768.465 195.291 51.186 94.6479 178.029 296.963 225.077 148.418 46.7692 33.8078 12.9614
internal_count=268644 162442 124979 118818 109192 15514 93678 106202 10327 37463 36275 32225 95875 82833 9626 7846 19202 80959 71866 9093 13023 1188 1780 13042 5085 2345 6161 2136 2034 2834 7957 2273 2709 1075 593 3327 3322 7982 5646 2336 516 5684 4050 607 2376 595 459 1874 5130 230 3443 1759 115 363 102 2297 136 1759 209 146 63
is_linear=0
shrinkage=0.1


Tree=11
num_leaves=63
num_cat=0
split_feature=135 106 133 29 71 99 71 105 53 133 105 102 98 28 29 4 32 107 30 73 75 6 31 127 117 5 101 118 134 41 68 71 91 132 60 29 73 122 22 32 77 110 98 84 103 29 31 110 101 73 106 32 107 108 7 26 111 10 108 127 30 32
split_gain=922.643 609.75 1346.85 765.834 1274.52 1153.7 849.699 791.876 731.268 713.361 562.526 544.022 539.062 363.147 342.032 431.413 304.962 287.195 259.002 258.241 233.869 339.768 278.733 223.981 478.337 203.773 237.715 199.365 192.669 178.997 329.661 134.592 121.109 103.992 97.6108 95.529 96.276 86.8597 79.8711 69.1303 97.1839 99.9447 59.7835 47.2893 46.7756 45.337 44.4005 42.2115 37.6186 108.969 30.8217 54.6491 28.0571 29.02 27.5949 58.4652 27.03 20.626 18.0117 6.52141 0.593452 0.357671
threshold=1.0000000180025095e-35 -0.96958550810813893 1.0000000180025095e-35 1.1502180695533755 -0.51022860407829274 -0.91729018092155445 -0.52829113602638234 -0.82534757256507862 1.044795095920563 1.0000000180025095e-35 -0.87811362743377674 -0.8594454526901244 -0.96441015601158131 1.3282814025878908 1.2301153540611269 0.76302719116210949 0.88584071397781383 -0.98137935996055592 1.0915288329124453 -0.87546384334564198 -1.0930299162864683 0.71844416856765758 0.98254948854446422 -1.8450363874435423 -1.2122386097908018 0.75474810600280773 -0.93783399462699879 -1.1772147417068479 1.0000000180025095e-35 0.96236273646354686 -0.092141889035701738 -0.66880616545677174 -0.97462689876556385 1.0000000180025095e-35 0.63969248533248912 1.2500589489936831 -0.93564677238464344 -1.0422899127006529 0.96428087353706371 0.93420743942260753 -0.90476402640342701 -1.1006223559379575 -0.95533439517021168 -1.1296452879905698 -0.91506618261337269 1.2412465214729311 1.0196400284767153 -0.78735196590423573 -0.93645226955413807 -0.91535815596580494 -0.97153383493423451 0.89899858832359325 -0.99944302439689625 -1.0487952232360838 0.86994761228561412 1.5815574526786806 -0.90813288092613209 1.074477553367615 -0.90512964129447926 -2.507461309432983 1.0922791361808779 0.93268343806266796
decision_type=2 2 2 2 2 2 2 2 2 2 2 2 2 2 2 2 2 2 2 2 2 2 2 2 2 2 2 2 2 2 2 2 2 2 2 2 2 2 2 2 2 2 2 2 2 2 2 2 2 2 2 2 2 2 2 2 2 2 2 2 2 2
left_child=1 2 16 4 8 28 9 -7 12 10 -5 -10 -3 23 17 37 33 39 20 -11 21 -19 -22 24 -4 26 -20 -25 -6 34 -31 -27 42 47 -8 54 43 44 -35 52 46 -42 -15 -37 45 -16 -41 -1 58 -50 59 -52 61 -54 55 -17 -56 -38 -39 -18 -46 -2
right_child=14 3 13 6 5 7 29 -9 11 19 -12 -13 -14 32 15 35 50 18 25 -21 22 -23 -24 27 -26 31 -28 -29 -30 30 -32 -33 -34 38 -36 36 57 48 -40 40 41 -43 -44 -45 60 -47 -48 -49 49 -51 51 -53 53 -55 56 -57 -58 -59 -60 -61 -62 -63
leaf_value=-0.15360956297169273 -0.11415705901679461 0.043342898154151405 0.1081969488240961 -0.0077827751999937321 -0.062030374473634631 0.040884743203773249 -0.056302739107795256 0.064538528391121341 -0.028423306824261849 0.1569200866526248 0.060557982810830219 0.085671754136665446 0.10257509918079553 -0.1759204698575135 0.064818421494358139 0.093180665162083648 -0.13392945276938642 -0.013854051866429257 -0.04745547515915885 0.065585819521665908 0.10038566296459926 0.07377434761426381 0.071074800061794827 0.2040862361188216 -0.010744460337306083 0.049239625712012847 0.048358657396210376 0.10963690677957108 0.18428633905500119 0.11256833309758547 -0.075654410727689164 0.12815319907937495 -0.18204195185255206 0.27021552273093813 -0.12911399102946736 -0.13306130906617378 -0.14695636753174798 -0.069413617521258006 0.044974060635272893 -0.11185516103913017 0.021866652375145415 0.19315367818314644 0.12349751044963962 0.11562916898607528 -0.16234558636298888 -0.12268696698478006 0.20214731563007998 0.17277722299028156 0.08773849943776145 -0.15112925045261211 0.055912561105882164 -0.16635243077981171 0.10846792681899918 -0.046205037316090894 0.14269121498569801 -0.15069045797241923 0.026260138714704652 0.035537788117361503 -0.1301730536454225 -0.16895834944584057 -0.12231512876189127 -0.15273909078407422
leaf_weight=31.078331802040339 49.490223359316587 1849.8940865509212 3162.3821616023779 3668.6483411565423 1042.682724846527 36835.416841164231 527.06105675548315 22984.567148175091 946.74752658605576 358.28489366918802 1793.126234844327 748.15964368730783 9068.4705555811524 8.7965940535068494 87.656529046595097 101.17639498412609 79.716990623623133 508.14829994738102 310.44303327798843 2276.7560441344976 9166.124941393733 3423.8788530528545 5021.887763723731 398.91856937110424 378.59704025089741 407.5212794020772 1560.772193916142 508.18825007975101 32.753466978669167 157.05813435465097 228.32788365334272 460.19669631123543 57.592217907309532 19.165457546710968 282.97117212414742 8.933557562530039 35.41627137362957 73.384922742843628 88.1659105271101 52.235846765339375 136.14729119092226 45.432851448655128 27.563885122537613 53.059170171618462 9.9257872477173787 15.119310691952704 4.9280469715595236 4.5415066778659812 39.302894026041031 37.149830251932144 20.028064593672752 24.710806414484978 13.823164924979208 99.045577885583043 193.13804415613413 10.888468608260153 22.23472722619772 7.5057477355003348 145.57373854517937 159.46595541387796 5.9076548367738715 2.5253826677799216
leaf_count=156 566 7318 4281 13450 5987 105331 1872 59831 4334 351 4850 1430 15653 36 269 144 526 1148 1096 4298 9289 5125 7151 158 966 848 3274 679 23 269 965 466 233 6 1378 72 197 517 190 249 411 35 32 74 48 129 10 4 94 198 38 110 50 550 135 56 52 15 870 690 48 13
internal_value=0 0.0527429 0.0867673 0.0507011 0.0541204 0.0481277 0.0236516 0.0499732 0.0830526 0.0352708 0.0146538 0.0219401 0.0925394 0.102728 0.0755998 0.0132584 -0.0830592 0.0780813 0.079698 0.0780045 0.0840303 0.0624499 0.090011 0.106837 0.0954799 0.0510368 0.0324627 0.151173 -0.0545286 -0.0550475 0.00105287 0.0910917 -0.0918295 0.0360593 -0.0817381 0.0831231 8.1666e-05 -0.0596997 0.0851939 -0.00546658 0.0289262 0.0647241 0.0510601 0.0797912 0.012586 0.0372346 -0.0847853 -0.111995 -0.0887229 -0.0283319 -0.143034 -0.066852 -0.0552655 -0.0272621 0.10973 0.0694856 0.130671 -0.115044 -0.109809 -0.157284 -0.14741 -0.11603
internal_weight=0 87769.8 4968.91 82800.9 73508.7 60895.4 9292.23 59820 12613.3 8096.82 5461.77 1694.91 10918.4 4542.04 22109 846.373 426.873 21262.6 20859 2635.04 18120 3932.03 14188 4448.09 3540.98 2738.93 1871.22 907.107 1075.44 1195.42 385.386 867.718 93.9527 142.951 810.032 432.352 104.915 414.021 107.331 403.628 238.744 181.58 36.3605 61.9927 118.609 102.776 57.1639 35.6198 295.411 76.4527 283.922 44.7389 164.884 112.869 327.438 112.065 215.373 42.922 218.959 239.183 15.8334 52.0156
internal_count=268644 235445 8105 227340 199907 171172 27433 165162 28735 22949 18300 5764 22971 6385 33199 2918 1720 30281 28397 4649 22713 6273 16440 6084 5247 5684 4370 837 6010 4484 1234 1314 301 356 3250 745 358 2173 196 1884 705 446 68 146 494 398 259 160 1679 292 1364 148 1179 600 387 200 187 212 1387 1216 96 579
is_linear=0
shrinkage=0.1


Tree=12
num_leaves=62
num_cat=0
split_feature=135 117 127 75 129 117 74 130 34 121 82 118 55 125 134 104 53 105 5 125 74 80 116 36 29 106 40 75 6 28 31 69 0 81 127 60 69 4 125 29 29 117 120 73 101 93 32 32 46 88 31 34 77 76 65 25 116 80 93 12 30
split_gain=825.182 604.55 1433.55 1245.99 1592.31 1689.55 1875.06 1155.13 975.199 1311.03 1275.67 966.11 1165.29 1582.47 885.735 803.721 471.9 456.932 453.731 437.877 386.92 359.093 326.83 322.707 305.016 338.877 281.396 234.255 324.981 355.863 303.45 230.759 222.691 220.277 216.659 208.102 223.269 332.409 272.222 201.1 188.873 175.956 155.295 152.282 149.731 147.016 146.819 139.682 104.883 102.974 99.8316 85.8595 53.4042 125.357 40.8316 32.2717 32.0708 31.0103 29.0999 20.2918 1.21935
threshold=1.0000000180025095e-35 -1.0960109233856199 -2.1258538961410518 -1.0988204479217527 1.0000000180025095e-35 -0.98345378041267384 -0.93229994177818287 1.0000000180025095e-35 0.8312959372997285 -1.8660396933555601 -0.32911011576652521 -1.2437775731086729 1.0351255536079409 -1.6759568452835081 1.0000000180025095e-35 -0.88551065325736988 1.0638893246650698 -0.88596156239509571 0.72785460948944103 -1.7308977246284483 -0.86625030636787403 -0.31715604662895197 -0.96658238768577565 0.9728294610977174 1.2138256430625918 -0.92262771725654591 0.92201814055442821 -1.092293322086334 0.71844416856765758 1.2783109545707705 0.98982018232345592 -0.26029032468795771 0.40585421025753027 -1.4541355371475218 -2.0289511680603023 0.47546757757663732 -0.41746981441974634 0.73699864745140087 -1.1568211317062376 1.1730049252510073 1.2412465214729311 -1.0753847956657407 -1.7579908967018125 -0.89455324411392201 -0.92507317662239064 -1.0667430758476255 0.94734841585159313 0.93822789192199718 1.1071125268936159 -1.1457558274269102 0.93595600128173839 0.8312959372997285 -1.1928138136863706 -1.1323238015174864 0.024644256569445137 1.4816330671310427 -0.97707700729370106 -1.1866441965103147 -1.1082655787467954 1.0721820592880251 1.0957615971565249
decision_type=2 2 2 2 2 2 2 2 2 2 2 2 2 2 2 2 2 2 2 2 2 2 2 2 2 2 2 2 2 2 2 2 2 2 2 2 2 2 2 2 2 2 2 2 2 2 2 2 2 2 2 2 2 2 2 2 2 2 2 2 2
left_child=1 2 8 7 5 6 -5 15 17 21 -11 32 13 -13 -7 18 -17 26 -3 41 -14 -10 46 -21 25 43 -1 28 39 -30 45 -32 51 -24 -34 36 37 38 -26 -27 -39 -6 -19 49 58 -29 -9 50 -49 55 -45 -4 59 -54 -46 -2 -56 -51 -37 -38 -60
right_child=24 3 11 4 19 14 -8 22 9 10 -12 12 20 -15 -16 16 -18 42 -20 23 -22 -23 33 -25 35 27 -28 30 29 -31 31 -33 34 -35 -36 44 52 40 -40 -41 -42 -43 -44 47 54 -47 -48 48 -50 57 -52 -53 53 -55 56 -57 -58 -59 60 -61 -62
leaf_value=-0.041534278181734441 -0.17385511538173964 -0.051453614823748751 0.072673640685373506 0.049376447274322346 -0.00091401203222057101 -0.06209889611258395 -0.011803486538798298 0.20518793165262378 0.17719052207753438 0.045847163308698459 -0.12253139506870472 0.022058972044286335 0.18471636427749027 0.10327943363484665 0.11438040013887468 0.079260275973905392 0.024365633181398519 0.036816911756999852 0.072105745011423111 0.073296888527799087 0.0089824384678891308 0.044300294680328242 0.075152717685688014 -0.094397608501842589 0.013732452177512403 0.024533284012578517 0.059963152188127866 0.12715573115262124 0.10456980563858079 0.04543765654805057 0.025662795596449173 0.082321878767160961 0.048218730644768185 -0.03549868516477675 0.17044177948811931 0.051645729109354825 0.10448553136231409 0.076061070271635708 -0.11771498837023318 -0.11163943738811817 -0.019222413883023974 -0.16820226371659336 -0.11079953577701629 -0.17290834607308575 0.14484401395742941 0.089887681398458347 0.0041140882622221556 0.092884947991047837 0.014629213308663326 0.2345765693830858 0.014089043858694604 0.18708624035593074 -0.0058780233620811303 0.11121755147295208 -0.16759069258362533 0.11183093943089298 0.13555124285200956 0.12969903129212873 -0.18043243079680066 0.19480183427827841 -0.14741384526880483
leaf_weight=527.84165480732918 13.526104286313059 843.6843646876514 69.927125871181488 13414.006618078798 196.23609068989754 3339.9497262351215 7995.470034301281 94.837402656674385 956.62023718655109 19151.152971532196 460.77623232454062 4948.7766171321273 1094.2543417960405 4655.6238721981645 310.86038640886545 15168.598938761279 1746.2766342759132 80.851405620574951 458.82665053382516 7844.9437221586704 141.4880139157176 258.22842399030924 201.73868321813643 116.45818938314915 626.8192834854126 386.97896590828896 566.1135025061667 1228.0824253112078 1686.432623013854 2566.6971924677491 1261.8853590637445 1670.2704016268253 318.12917248904705 1662.6989245638251 266.55627895891666 7.572135552763938 38.957880213856697 1211.7348581068218 210.44569849222898 150.6781871765852 251.1525577865541 92.516616925597191 601.18048950284719 29.190615778788924 30.547834947705269 7665.4314231574535 58.846533499658108 467.8538806438446 270.16465587168932 37.710462868213654 1299.6947070099413 1057.6188791692257 117.97152729332447 406.29549892991781 9.5216155201196653 5.5874276310205451 5.509228602051734 111.70711393654346 12.803720682859419 68.823805674910545 88.434177406132221
leaf_count=1517 59 4120 107 35804 496 17988 33868 118 569 46040 2956 13455 858 7124 474 30005 5478 274 1748 14861 477 977 1236 422 1642 739 1104 869 1760 4715 2381 1996 558 8242 154 16 47 1988 864 484 1174 389 3266 212 33 7722 229 748 732 16 3620 531 293 393 42 7 8 122 54 22 441
internal_value=0 0.0469298 0.0571186 0.0402405 0.0283511 0.0158063 0.0265285 0.0598121 0.04207 0.0481356 0.0418912 0.0842161 0.0731902 0.0614297 -0.047072 0.0677644 0.073593 -0.0290607 -0.0079282 0.0664564 0.164595 0.148943 -0.0119719 0.0708439 0.06859 0.0733611 0.0109899 0.0782788 0.0596242 0.0688845 0.0858361 0.057938 0.154021 -0.0235258 0.10394 0.0394496 0.0454077 0.0309428 -0.0193067 -0.0136291 0.0597025 -0.0545133 -0.0933004 0.0368074 -0.073709 0.0950339 0.128196 0.0293546 0.0642381 0.128211 0.00998141 0.179991 0.0980483 0.0848685 0.0784516 -0.090341 -0.0564806 0.156168 -0.137447 0.162157 -0.15159
internal_weight=0 88701.1 35155.1 53545.9 33310.4 25060.3 21409.5 20235.5 22602.8 20826.8 19611.9 12552.4 10840.1 9604.4 3650.81 18217.4 16914.9 1775.99 1302.51 8250.15 1235.74 1214.85 2018.12 7961.4 21938.5 18851.9 1093.96 16616.5 4790.79 4253.13 11825.7 2932.16 1712.23 1864.44 584.685 3086.59 2932.2 2300.15 837.265 537.657 1462.89 288.753 682.032 2235.43 154.389 8893.51 153.684 2066.9 738.019 168.531 1328.89 1127.55 632.049 524.267 45.5787 19.1135 15.0308 149.418 108.81 107.782 101.238
internal_count=268644 235445 79967 155478 104302 88134 69672 51176 56703 50542 48996 23264 21914 20579 18462 41351 35483 6161 5868 16168 1335 1546 9825 15283 33199 26182 2621 20666 7698 6475 12968 4377 1350 9478 712 7017 6423 5668 2506 1223 3162 885 3540 5516 594 8591 347 5312 1480 204 3832 638 755 686 83 66 50 138 511 69 495
is_linear=0
shrinkage=0.1


Tree=13
num_leaves=63
num_cat=0
split_feature=135 31 76 109 129 130 76 79 31 92 75 53 136 106 130 115 81 110 97 72 110 131 104 105 108 30 75 108 53 103 71 0 75 104 1 29 0 77 116 69 50 31 32 89 70 1 98 33 29 19 124 8 82 75 74 32 1 37 31 111 106 29
split_gain=726.841 567.089 639.455 1041 987.097 824.774 764.34 588.694 858.29 563.111 795.599 489.428 474.095 572.547 510.461 379.923 378.933 370.806 356.197 772.39 341.548 328.684 320.329 263.608 248.241 217.808 410.593 295.18 236.301 212.021 207.4 293.025 240.718 201.774 194.217 422.242 192.275 183.782 157.898 152.494 150.62 131.088 115.42 109.305 106.562 104.73 108.632 98.9608 125.197 95.1137 83.1229 68.0606 59.0868 55.9519 52.1187 49.2557 39.3226 39.2188 29.7713 57.6679 4.96957 4.85306
threshold=1.0000000180025095e-35 1.0064241886138918 -1.2183451056480405 -0.87987017631530751 1.0000000180025095e-35 1.0000000180025095e-35 -1.2037814855575559 -1.3234611153602598 0.99808746576309215 -1.1540670990943906 -1.1616930365562437 1.0659375786781313 1.0000000180025095e-35 -0.84031543135642994 1.0000000180025095e-35 -0.96712732315063465 -1.3518809676170347 -0.95722249150276173 -0.96309679746627797 -0.65890619158744801 -0.87104356288909901 1.0000000180025095e-35 -0.78952178359031666 -0.89789763092994679 -0.88269522786140431 1.075214207172394 -1.0163709521293638 -0.89825233817100514 1.0136169791221621 -0.91506618261337269 -0.63665354251861561 0.57022836804389965 -1.0650585889816282 -0.91025009751319874 0.6306535303592683 1.1844201087951662 0.62494885921478283 -1.1524642705917356 -0.95320606231689442 -0.23129469901323316 1.0873234868049624 0.98419007658958446 0.9611240327358247 -1.2200803160667417 -0.5332224667072295 0.61591032147407543 -0.95315948128700245 0.81823807954788219 1.1813774704933169 1.3175913691520693 -1.2174063324928281 0.72682315111160289 -1.3401853442192075 -1.0806317329406736 -1.0353946089744566 0.94002318382263195 0.43901135027408605 0.81527459621429454 1.0077081918716433 -0.92082694172859181 -0.84912601113319386 1.1094416975975039
decision_type=2 2 2 2 2 2 2 2 2 2 2 2 2 2 2 2 2 2 2 2 2 2 2 2 2 2 2 2 2 2 2 2 2 2 2 2 2 2 2 2 2 2 2 2 2 2 2 2 2 2 2 2 2 2 2 2 2 2 2 2 2 2
left_child=1 2 5 7 6 9 -5 15 -9 10 -1 -11 14 58 18 -4 -6 37 21 -20 43 -3 -22 25 30 26 45 28 39 44 34 32 -32 55 35 -25 -31 -16 -36 -27 -35 47 -30 -7 -29 53 -47 48 -26 -43 -33 -19 56 -2 -51 -28 -15 -49 59 -14 -60 -54
right_child=23 12 3 4 16 20 -8 8 -10 11 -12 -13 13 52 17 -17 -18 51 19 -21 22 -23 -24 24 41 27 33 29 42 36 31 50 -34 40 38 -37 -38 -39 -40 -41 -42 49 -44 -45 -46 46 -48 57 -50 54 -52 -53 61 -55 -56 -57 -58 -59 60 -61 -62 -63
leaf_value=0.07673316566135252 0.15804375370140458 0.040073612910296159 0.17201212963458806 0.023476326326663306 0.065113930083942576 0.13446450595438156 -0.062060862654748916 0.051159740924741584 0.024938889925729416 0.11267350707916957 -0.030515463793082172 0.028028617175328438 -0.027882688654406598 0.23281698942919596 0.22026904615144574 0.063411786967026748 -0.028313318756959738 -0.09097333865478352 0.086330695005385039 0.0070029557562876158 -0.071808783784084743 -0.048355281292215842 0.043765516186713482 0.12302780522207367 0.077958020856443211 0.046054346688275571 -0.15077514249303428 -0.10013874626141583 -0.17994269361258636 -0.11929307138413564 0.047098947632981517 0.14034911376422682 0.083584053815954476 0.069977324180128336 -0.2379834963126117 -0.061908509340837692 0.12092098320607834 0.013628220988410969 0.076413954889868171 0.13976563344592094 -0.01450984618269722 -0.18944923255326504 0.18921638284201558 -0.14228057266378041 0.0078662238387623481 0.087797701732209465 -0.021535764470820767 -0.06336232035042004 -0.073457428741943706 -0.027329002581606972 0.09885601542553743 0.0021160077530743204 0.16798701491535981 0.10681451296066512 0.10173395805550903 0.16796792833391905 -0.13624341801258344 -0.19049295345878692 -0.12210922032745973 -0.1276368675193946 -0.083017757726553176 0.21891330066497178
leaf_weight=2586.0112670827657 302.15449663996696 811.82467810064554 580.79905454814434 1822.0914490446448 2515.4004522711039 181.61225707828999 2448.4233949761838 45035.236227788031 17271.127410851419 4450.6086100004613 944.25124652683735 806.96107786893845 130.7558014690876 4.1331915855407706 58.878079362213612 723.29572444781661 524.6782776042819 631.32212527096272 2513.2907313853502 2398.9752054288983 675.44992019608617 871.61577947065234 371.82805700786412 178.09223733842373 109.09841807186604 5819.2939402908087 76.599468898028135 286.71073574945331 64.073236428201199 43.841302439570427 2718.9801640659571 725.81570589542389 5399.1973495427519 492.29974379017949 16.294269740581512 402.4324739575386 138.86856192722917 159.99844313412905 813.18234261870384 178.98809622228146 369.29485533572733 13.990246102213858 9.7594478726387006 15.489084690809248 134.06805828213692 729.1171667277813 103.81584039330482 56.021932974457741 109.33290173113346 37.807790651917458 1441.9964422285557 89.700230810791254 29.9794100522995 724.13754062354565 181.46799187362194 5.1757226362824431 9.5752666071057302 42.807792395353317 315.35219905152917 104.08352297544479 36.259522072970867 49.790930092334747
leaf_count=6721 147 2146 819 5606 4479 364 15032 103030 51407 5444 2912 2458 836 1 70 1701 1476 3998 4092 8367 3979 4305 1721 123 139 11342 393 1132 280 150 4024 338 5915 811 69 1142 143 574 1110 169 1362 57 12 77 277 827 241 169 330 90 1453 459 34 568 204 8 60 174 2358 675 231 13
internal_value=0 0.0419781 0.0445186 0.0411759 0.00543827 0.0681494 -0.0255649 0.0452832 0.0438914 0.078939 0.048047 0.0996817 0.0169448 -0.0630279 0.0241607 0.111779 0.0489896 -0.0447858 0.0339857 0.0475899 -0.00804689 -0.00571121 -0.030775 0.0623762 0.072067 0.049855 0.0732509 0.0400328 0.046662 -0.0266684 0.0751559 0.0800862 0.0713643 0.0195167 0.0391893 -0.00517411 0.0632815 0.0692149 0.0702379 0.0488507 0.0337646 0.00644344 -0.131146 0.112717 -0.0657263 0.100516 0.0741705 -0.0353982 0.00216902 0.0633516 0.112749 -0.0793924 0.166816 0.121897 0.0794808 -0.130601 -0.0249692 -0.118429 -0.0996644 -0.0720949 -0.118078 0.199774
internal_weight=0 89168.8 80953.3 70921.1 7310.59 10032.2 4270.51 63610.5 62306.4 8787.83 3530.26 5257.57 8215.54 679.93 7535.61 1304.09 3040.08 939.899 6595.71 4912.27 1244.38 1683.44 1047.28 21724.7 12246.5 9478.2 2802.59 6675.6 6072.11 603.489 11696 10286 8118.18 943.37 1410 580.525 182.71 218.877 829.477 5998.28 861.595 550.527 73.8327 197.101 420.779 1859.23 832.933 317.261 218.431 233.266 2167.81 721.022 93.4788 1026.29 219.276 81.7752 13.7085 98.8297 586.451 234.839 351.612 79.7703
internal_count=268644 235445 207226 183550 26593 23676 20638 156957 154437 17535 9633 7902 28219 4208 24011 2520 5955 5101 18910 12459 6141 6451 5700 33199 15337 17862 4357 13505 11803 1702 14174 11730 9939 2574 2444 1265 293 644 1179 11511 2173 1163 292 441 1409 1783 1068 812 469 351 1791 4457 108 715 294 401 61 343 4100 1511 2589 47
is_linear=0
shrinkage=0.1


Tree=14
num_leaves=62
num_cat=0
split_feature=71 41 99 70 135 58 132 71 41 30 108 127 31 48 130 100 78 128 102 24 108 30 30 5 127 88 39 131 129 107 75 124 71 129 101 117 31 0 35 31 31 82 104 105 72 27 20 99 109 124 91 129 105 33 49 38 107 77 108 26 64
split_gain=651.826 1253.58 1253.49 1311.92 884.609 878.637 822.164 1187.94 873.655 709.091 680.855 636.711 550.575 597.921 495.607 600.388 502.77 823.723 676.474 718.469 585.294 649.55 420.317 352.095 348.345 322.114 278.301 274.796 270.67 251.185 248.343 240.736 219.513 257.526 230.056 208.846 259.22 190.009 165.397 146.701 119.728 109.44 105.929 186.786 143.71 132.624 112.005 104.468 93.6276 79.5786 199.341 54.9845 42.7021 38.309 36.7429 23.5424 0.443339 0.305087 0.113297 0.0970638 0.0147111
threshold=-0.48679874837398524 1.0181142687797549 -0.87038394808769215 -0.25984123349189753 1.0000000180025095e-35 0.89014184474945079 1.0000000180025095e-35 -0.44556717574596399 0.98270168900489818 1.0484332442283633 -1.0565750002861021 -1.7977629303932188 0.95461469888687145 1.0803841948509219 1.0000000180025095e-35 -0.87293452024459828 -1.3260660171508787 1.0000000180025095e-35 -0.84465205669403065 1.3319705724716189 -0.87080827355384816 1.0272767543792727 1.0979906916618349 0.61539477109909069 -2.2919219732284541 -0.81088590621948231 1.0134592056274416 1.0000000180025095e-35 1.0000000180025095e-35 -1.0029493570327757 -1.1475952267646787 -1.536859333515167 -0.47566442191600794 1.0000000180025095e-35 -0.84253391623496998 -1.0882195830345152 1.0061115026474001 0.45712083578109747 0.89906415343284618 0.99760738015174877 0.99030569195747387 -1.3386743664741514 -0.88308697938919056 -0.87461277842521656 -0.69088456034660328 1.2800229191780093 1.7769446372985842 -0.89466154575347889 -1.0591646432876585 -1.6599366068840025 -0.94881024956703175 1.0000000180025095e-35 -0.82588756084442128 0.89640292525291454 1.0992586612701418 0.82112264633178722 -0.98252668976783741 -1.0401591658592222 -1.0518424510955808 1.319450378417969 0.3305151909589768
decision_type=2 2 2 2 2 2 2 2 2 2 2 2 2 2 2 2 2 2 2 2 2 2 2 2 2 2 2 2 2 2 2 2 2 2 2 2 2 2 2 2 2 2 2 2 2 2 2 2 2 2 2 2 2 2 2 2 2 2 2 2 2
left_child=14 4 23 5 6 11 7 8 -2 10 -5 -4 29 -14 16 42 17 18 19 -1 21 25 -23 32 -7 -18 -11 30 -9 -8 -22 57 34 -34 -3 53 -37 47 40 -20 -19 -29 46 45 -45 -44 55 -25 56 54 -51 -39 -40 -33 -50 -16 58 59 -6 -17 -59
right_child=1 2 3 9 48 24 12 28 -10 26 -12 -13 13 -15 15 31 20 38 39 -21 27 22 -24 37 -26 -27 -28 41 -30 -31 -32 35 33 -35 -36 36 -38 51 52 -41 -42 -43 43 44 -46 -47 -48 -49 49 50 -52 -53 -54 -55 -56 -57 -58 60 -60 -61 -62
leaf_value=-0.046007692856655992 -0.069573467265436159 -0.052119241469669703 0.048945284855374291 -0.013672498492786109 -0.10892582325121025 0.034127165821687837 0.01095969643106643 -0.08853160182704671 0.018324201943241324 -0.054285349123293782 0.042758865671672641 0.10792837274653314 0.073531555242986907 -0.12284546354013753 -0.056188725986142586 -0.16160655012241965 0.12316932238871066 -0.030511906300282207 -0.055077169212021118 0.10544822302639976 0.12204329972227015 0.051284707181950433 0.0038408607854375047 -0.14563973984213135 0.14575774602269653 -0.055143656934585852 0.071474024730833127 -0.015518434958624676 0.036502482062714975 0.15912796967868159 0.0096426747502416886 0.056007086801270471 -0.092780024526718477 -0.0063308539204268493 0.14852506316682473 0.068537656851674358 -0.098752291392989258 -0.15805446218437968 0.035655919597537118 0.15503083542237389 0.14526913629600505 -0.095795171453981975 0.14633488159620991 -0.012422683474786117 -0.097069857773706636 -0.019937165221501681 0.18158151672177289 0.097663344448690001 0.15798731298055624 0.090182495265113183 -0.12884953513604488 0.025332582753810548 -0.20224411695928912 0.18277074398738063 0.10552647882933014 -0.11489173230870692 -0.16876460385628725 -0.13662887551165737 -0.12696969710449926 -0.14949974619288431 -0.14357405014344474
leaf_weight=916.30011895671487 1289.8558461200446 123.33482995629311 9198.5801555402577 2350.5483294315636 5.0305396076291844 327.80363167077303 140.13965138047934 1811.3871059454978 9170.0365267172456 1184.9912316799164 23647.526159226894 2284.7196276336908 474.44960936903954 230.31035608053207 97.523537088185549 27.351477891206741 1604.1850202120841 39.668908759951591 35.731859669089317 475.87331122159958 221.30806653574109 40149.759440395981 1958.3946794196963 18.685054510831833 1898.5842418670654 108.137162450701 206.6559856235981 382.51890521496534 191.43158226832747 623.29595138132572 1758.4151843488216 27.88578936457634 1031.0400551632047 517.56351832300425 106.48194821923971 834.4976746365428 104.18980247527361 47.238682277500629 13.84157006442547 474.87251958250999 1669.7015768736601 305.41677063517272 102.19153171032667 613.34869655966759 298.02462911605835 90.414150007069111 15.066265616565941 317.8644051104784 211.03917662799358 460.34534100443125 45.673552095890045 25.003107413649559 16.586023777723312 164.33152756094933 363.39741233736277 228.1209528055042 2.2492771148681632 4.3854385837912551 11.288565464317799 8.7376303821802122 10.014368161559103
leaf_count=4673 5309 505 22704 10297 77 657 338 8068 25499 5669 62527 4154 779 824 716 118 1297 294 130 1032 201 73484 6036 102 1752 355 633 1731 401 481 5267 51 5207 1265 136 1743 587 227 26 325 966 2661 209 3271 1959 423 31 476 131 463 163 41 70 57 308 1540 10 23 77 40 48
internal_value=0 0.0340094 0.0426487 0.0465744 0.00912775 0.0718276 0.00231361 -0.00602465 0.00748515 0.0339341 0.0376568 0.0606806 0.0730925 0.00935699 0.0493497 0.00700231 0.0515681 0.0873447 0.041873 0.00576303 0.0487648 0.0515333 0.0490782 -0.0311172 0.129322 0.111908 -0.0356104 0.00328807 -0.0765807 0.13193 0.0222076 0.0598775 -0.0503533 -0.0638876 0.0408461 0.0694155 0.0499693 0.0525685 0.137076 0.140328 0.14119 -0.0511582 -0.0362363 -0.0211934 -0.0401028 0.0682824 -0.0849788 0.0841553 0.0955018 0.0993281 0.0704125 -0.0945836 -0.0940229 0.164381 0.1248 -0.0973114 -0.127144 -0.153765 -0.121407 -0.158675 -0.141459
internal_weight=0 58316.6 43286.6 41099.4 15029.9 13709.7 13930.9 12462.7 10459.9 27389.7 25998.1 11483.3 1468.2 704.76 52756.8 2626.08 50130.7 3642.58 1902.78 1392.17 46488.1 43820.5 42108.2 2187.21 2226.39 1712.32 1391.65 2667.66 2002.82 763.436 1979.72 1181.39 1778.42 1548.6 229.817 1130.9 938.687 408.791 1739.8 510.604 1709.37 687.936 1444.69 1103.98 911.373 192.606 340.711 336.549 1099.02 1080.46 506.019 72.2418 30.4276 192.217 574.437 325.644 18.5684 50.4889 16.3191 36.0891 14.3998
internal_count=268644 159280 116352 108393 42928 29267 41699 39277 30808 79126 72824 26858 2422 1603 109364 10816 98548 7516 6160 5705 91032 81172 79520 7959 2409 1652 6302 9860 8469 819 5468 2667 7113 6472 641 2438 2330 846 1356 455 1260 4392 8149 5862 5230 632 2287 578 1229 1065 626 268 96 108 439 2256 164 229 154 158 71
is_linear=0
shrinkage=0.1


Tree=15
num_leaves=60
num_cat=0
split_feature=135 118 0 122 87 118 110 127 70 111 80 42 95 105 39 108 37 71 30 75 108 1 103 53 69 37 31 104 45 49 34 79 46 0 62 111 32 74 74 32 107 4 31 17 104 98 50 38 127 111 53 71 106 100 28 33 108 121 121
split_gain=587.883 519.587 1225.83 1489.76 780.759 596.415 358.115 340.288 343.804 314.034 275.186 263.15 253.799 227.685 217.692 213.963 196.61 218.022 196.42 350.58 201.663 211.334 228.383 200.342 194.762 334.582 180.029 179.261 170.035 169.717 151.629 136.074 128.671 121.312 127.997 106.983 95.2574 89.404 83.4988 81.0204 78.1612 105.811 79.9671 55.2119 54.9786 49.8322 46.6928 41.7176 47.999 36.9108 36.4683 36.204 9.31794 6.65803 2.24753 0.20207 0.0462267 0.00368131 0.00332
threshold=1.0000000180025095e-35 -1.6224172711372373 -0.23881784826517102 -2.0350769758224483 -0.3181787878274917 -1.5886354446411131 -1.2049773335456846 -3.1376219987869258 -0.056844765320420258 -1.248122990131378 -0.52601310610771168 1.1092706918716433 -0.22866326570510861 -0.89725553989410389 1.0235414505004885 -0.88586369156837452 0.92509385943412792 -0.41788704693317408 1.075214207172394 -1.0163709521293638 -0.89825233817100514 0.64363557100296032 -0.91506618261337269 1.0136169791221621 -0.17209951579570767 0.8846133053302766 0.98731991648674022 -0.89455637335777272 1.1339365243911745 1.0986915826797488 0.83629629015922557 -0.43386836349964136 0.93865683674812328 0.59666261076927196 0.27429477870464331 -1.1411837935447691 0.9611240327358247 -0.99353027343749989 -0.97954094409942616 0.84991836547851574 -0.87310698628425587 0.65384393930435192 0.8411775827407838 1.1150747537612917 -0.9202517271041869 -0.95982176065444935 1.1728031039237978 0.99116960167884838 -3.1605135202407832 -1.2698122859001157 1.0943006277084353 -0.62240386009216297 -0.90272611379623402 -0.52161508798599232 1.0000000180025095e-35 0.82607990503311168 -1.0600472688674925 -1.8660396933555601 -1.8660396933555601
decision_type=2 2 2 2 2 2 2 2 2 2 2 2 2 2 2 2 2 2 2 2 2 2 2 2 2 2 2 2 2 2 2 2 2 2 2 2 2 2 2 2 2 2 2 2 2 2 2 2 2 2 2 2 2 2 2 2 2 2 2
left_child=1 6 7 9 5 -5 55 8 50 39 54 -6 -10 18 31 16 24 43 19 33 23 37 -23 32 25 -15 40 44 -19 -29 51 -8 -20 45 -35 -26 -25 -22 -32 -4 41 -17 -42 -18 -21 -2 -11 48 -16 -33 -3 -28 -49 -12 -9 -1 57 -57 -58
right_child=13 2 3 4 11 -7 14 10 12 46 53 -13 -14 15 47 26 17 28 20 27 21 22 -24 36 35 -27 30 29 -30 -31 38 49 -34 34 -36 -37 -38 -39 -40 -41 42 -43 -44 -45 -46 -47 -48 52 -50 -51 -52 -53 -54 -55 -56 56 58 -59 -60
leaf_value=-0.13573426638350813 0.14158247816016509 0.1608521316524672 -0.15960547057570112 0.1429407542727904 0.065359417961187244 0.032828678757563755 0.19598932009282677 -0.10388316641933089 0.10368982242443181 0.16787367080572541 0.15070672194737256 -0.13356133240940707 -0.123385441649826 0.067963208920003321 0.081678553012038052 -0.21078064807194641 -0.15778703554582807 0.13002154165048649 0.051764646129823177 -0.15598970876535201 -0.15449969005632669 -0.040300565370435269 0.096714134122313555 -0.17198087709557744 -0.095849500926424122 -0.026550194508151027 -0.016289077531702723 0.08080593780504372 -0.0025889020030246649 -0.014563387987796123 -0.20052669390260369 0.093575726735087877 0.022524238759454147 0.06421889685979297 -0.17160549646962814 0.11248113209613171 0.15554970339264124 0.13490126372408731 0.045809607344480759 0.097726753084538626 0.11342458855134069 0.012595370795462324 -0.11588974154765097 -0.024740097568667279 -0.037676142442726976 0.095327631014363978 0.10549019156132294 0.2399730130501693 0.18310268994924292 -0.18280059368214285 -0.12712929709891804 0.11076917145575345 0.18555966805325053 0.20705994417287987 -0.15770743465633352 -0.11025159323112217 -0.12115213378584329 -0.10836714235161662 -0.1163919315247654
leaf_weight=3.4234819859266272 326.99989807605743 4.423609033226966 39.645635299384594 494.73194871842861 80.945487767457962 86000.754741223529 17.163128048181534 38.558028414845467 132.40449090301991 944.62353357672691 36.014975072816014 372.73442803323269 78.345960378646851 8560.9800390005112 93.860223218798637 22.326060384511948 78.967270135879517 146.07305356860161 3516.2373398207128 51.083090597763658 127.31690369546413 343.21929417923093 188.45183019340038 63.662752613425255 25.210772775113583 391.69281886518002 24.440808326005936 410.11834624223411 286.00610996596515 342.37555157393217 28.214276328682899 5.6609478592872611 2630.9333228170872 719.14091350138187 23.776483282446861 1107.2639746963978 10.318911150097845 11.651653468608854 26.859691679477692 17.696345776319504 17.500493913888931 422.71269349753857 116.04779681563377 51.552921488881111 169.92227727919817 809.50280837714672 137.43691237270832 35.370465129613876 92.787826031446457 33.011173620820045 739.35890540480614 272.03310687839985 285.45303201675415 50.173436604440212 9.7120887264609319 33.503228552639484 3.2770020365715027 15.011282496154307 2.6499973237514487
leaf_count=20 172 2 217 489 177 223976 6 1222 273 341 55 2261 537 10075 116 91 305 102 6518 271 509 1088 212 284 94 827 52 556 771 1240 115 7 5253 947 84 753 12 5 45 42 13 836 401 117 550 671 178 11 28 144 4536 230 91 15 46 398 23 212 22
internal_value=0 0.0335922 0.0329573 0.0342609 0.0327722 0.0334585 0.124734 -0.07249 -0.0934702 0.147865 0.0764504 -0.0980699 0.0192752 0.0520631 0.149069 0.0615433 0.0655612 0.00802839 0.0407995 0.0628658 0.031665 -0.0204351 0.00826455 0.0372813 0.0687706 0.0638281 0.0155483 0.0141586 0.0422427 0.0374141 0.0719887 -0.038344 0.03925 0.0880951 0.0566715 0.107843 -0.126297 -0.130235 -0.080388 -0.08019 -0.0187447 0.00138937 -0.0858398 -0.105236 -0.0650231 0.108636 0.15995 0.16969 0.132099 -0.142344 -0.125417 0.100295 0.191559 0.183512 -0.114713 -0.112169 -0.110687 -0.109669 -0.119024
internal_weight=0 89798.7 89177.6 88088.6 86949.2 86495.5 621.172 1088.99 954.533 1139.4 134.459 453.68 210.75 21322.6 563.307 11577.9 10647.7 562.599 9744.71 2852.92 6891.79 670.64 531.671 6221.15 10085.1 8952.67 930.135 973.499 432.079 752.494 351.548 55.8352 6147.17 1879.42 742.917 1132.47 73.9817 138.969 55.074 57.342 578.587 445.039 133.548 130.52 221.005 1136.5 1082.06 507.472 186.648 38.6721 743.783 296.474 320.823 86.1884 48.2701 57.865 54.4415 48.5145 5.927
internal_count=268644 235445 234367 227681 226903 224465 1078 6686 5348 778 1338 2438 810 33199 403 14827 13044 1295 18372 4491 13881 1814 1300 12067 11749 10902 1783 2617 873 1796 442 157 11771 1874 1031 847 296 514 160 259 1341 927 414 422 821 843 519 246 144 151 4538 282 102 70 1268 675 655 610 45
is_linear=0
shrinkage=0.1


Tree=16
num_leaves=61
num_cat=0
split_feature=32 134 105 57 100 6 98 6 73 109 133 33 127 119 131 136 0 74 31 34 69 75 128 130 51 53 7 97 32 2 7 0 60 30 109 73 129 68 135 130 74 118 57 38 74 53 55 34 20 31 76 119 116 41 107 125 113 104 30 124
split_gain=546.183 1949.3 1119.52 780.97 746.912 1030.96 1057.57 1388.12 683.636 590.227 829.623 613.983 803.479 612.725 583.214 616.544 1066.87 891.148 540.746 535.807 698.187 503.603 1164.39 611.903 497.624 331.001 321.203 309.413 274.727 295.611 247.828 459.601 226.395 326.171 187.255 175.069 171.313 160.154 153.931 142.714 139.747 138.793 136.064 132.871 129.088 123.229 109.893 292.024 88.261 68.0584 66.1659 81.4391 79.969 64.4107 52.6862 391.625 31.9791 24.8789 7.02254 1.34552
threshold=0.95168498158454906 1.0000000180025095e-35 -0.84259486198425282 0.91135677695274364 -0.88497984409332264 0.63975742459297191 -0.88893646001815785 0.60196849703788768 -0.80807197093963612 -1.1223799586296079 1.0000000180025095e-35 0.86250677704811107 -3.0595461130142207 -1.6775116324424741 1.0000000180025095e-35 1.0000000180025095e-35 0.51918718218803417 -0.98681259155273426 0.99578121304512035 0.90307995676994335 -0.1571981608867645 -1.1499975323677061 1.0000000180025095e-35 1.0000000180025095e-35 1.140862822532654 1.1163824796676638 0.68428999185562145 -0.99125242233276356 0.95767661929130565 0.29509893059730535 0.67616146802902233 0.46404990553855902 0.73575204610824596 1.0626170635223391 -0.94184124469757069 -0.92284300923347462 1.0000000180025095e-35 -0.081772856414318071 1.0000000180025095e-35 1.0000000180025095e-35 -1.0024398565292356 -1.1944688558578489 0.89600971341133129 0.97803807258605968 -1.003335118293762 1.0251301527023318 1.0025284886360171 0.90841060876846325 1.2781060338020327 0.98531171679496776 -0.66140681505203236 -1.4897282719612119 -1.45671671628952 1.0021935105323794 -1.0043322443962095 -2.3967744112014766 -0.93887984752655018 -0.83048406243324269 0.98086011409759533 -1.9809112548828123
decision_type=2 2 2 2 2 2 2 2 2 2 2 2 2 2 2 2 2 2 2 2 2 2 2 2 2 2 2 2 2 2 2 2 2 2 2 2 2 2 2 2 2 2 2 2 2 2 2 2 2 2 2 2 2 2 2 2 2 2 2 2
left_child=9 4 3 19 26 6 8 -8 -6 10 11 12 13 -1 15 21 17 -17 34 20 -3 23 -23 -11 -14 46 36 35 41 -30 31 -7 33 -20 43 -28 38 -29 -2 -32 -38 -5 -21 -16 -36 48 57 -48 59 -18 51 -47 -52 -50 58 -56 -34 -4 -13 -12
right_child=1 2 25 28 5 30 7 -9 -10 14 45 54 24 -15 18 16 49 -19 32 42 -22 22 -24 -25 -26 -27 27 37 29 -31 39 -33 56 -35 44 -37 40 -39 -40 -41 -42 -43 -44 -45 -46 50 47 -49 53 -51 52 -53 -54 -55 55 -57 -58 -59 -60 -61
leaf_value=0.075116222629634688 -0.085433224981971576 -0.091033216445463236 -0.072672264967228714 0.21312847984004249 0.015350837669391774 0.10373636178620518 0.028052511375446534 0.10257085360775092 -0.060980040553386863 0.11139573534241264 -0.14485306571491549 -0.11965978755054935 -0.077611960725685492 -0.10882971839470156 0.069560049352248216 0.080401098421348668 -0.071531365488258433 -0.017814544611947439 -0.11481639973597375 -0.14327113281941797 0.082683938502795123 0.044363681201911823 -0.04196734536750673 -0.040117748983073798 0.17252200701865542 0.22468360304680601 0.2664708062359597 0.13892097371673748 0.32129223410519486 -0.11658518242377254 0.14118259880769052 0.010889525715984895 0.14199922226588851 0.031342883579506237 -0.048841053376006437 -0.061123442606735183 -0.11844295599972861 0.027153360489856095 0.13343156304528256 -0.081894791982680293 0.057282098896350254 0.096448144761564991 -0.046225955706248802 -0.15870484255812922 -0.12763417506584801 0.18602656063987216 0.097910013554949507 -0.10657503264981971 -0.075667666453079652 -0.13445665273084836 0.22706604179102816 0.081848171577059092 -0.14714136476724779 0.17037340276838583 -0.10810651156972868 0.28336513731247392 0.2928096710313487 -0.13195077194805563 -0.14942991465610669 -0.19991173322484901
leaf_weight=264.24512445181608 935.63805084303021 389.29828734695911 75.751576572656631 139.68475657701492 3370.6415765881538 1553.2224306166172 15770.25707520172 2970.6676075682044 1799.896816752851 1930.3072172477841 18.773520603775982 379.38806142285466 103.36338465847075 575.41790563985705 153.53066946566105 1687.9568177722394 299.38816387951374 2040.7055931035429 164.31754487752914 388.27934934198856 570.26766495406628 63744.398617437109 1601.5518982075155 309.25490357913077 345.00185373984277 29.86254309117794 17.013105593621731 197.18220286071301 18.449933648109436 93.805986985564232 861.12830198556185 811.79817086458206 26.045635163784027 2156.5432262644172 538.12118877843022 396.47400104627013 59.518510639667511 366.49737709015608 33.277577675879002 29.666379816830158 188.8545133471489 377.34974457323551 230.09041509032249 30.579859927296638 338.86008148081601 225.3506036400795 84.165062069892883 410.28645073622465 17.093261197209358 403.58554271236062 8.7641289234161395 112.49655894935131 16.392015919089317 28.183165326714516 286.82911226525903 28.054064065217972 30.556207612156868 1083.2819526642561 100.15621969848871 5.8127962797880164
leaf_count=825 4625 1548 334 127 8677 2060 48719 4908 8032 2360 92 2608 497 3525 298 2916 2516 6959 748 1920 1343 119488 6574 2280 420 23 35 261 19 484 647 2119 28 5761 3715 1980 224 1028 26 153 423 648 896 138 2974 114 163 1972 59 2240 7 172 81 25 1499 31 15 5722 539 24
internal_value=0 0.02266 -0.0438538 0.00299219 0.0314734 0.0360064 0.0288181 0.0398646 -0.0112204 0.037967 -0.00968621 -0.03587 0.00677369 -0.0509412 0.0395555 0.0414766 0.00534316 0.0266474 -0.000678935 -0.034572 0.0122065 0.0438459 0.0422478 0.0904737 0.114858 -0.105279 -0.0246448 0.0180563 0.0971839 -0.0446174 0.0887988 0.0718665 0.0258139 0.0209948 -0.0600383 -0.0476444 -0.0589226 0.0662511 -0.0779163 0.133753 0.0151725 0.127971 -0.107161 0.0316464 -0.0792862 0.11628 -0.111238 -0.0717678 -0.00534181 -0.107658 0.139687 0.151337 -0.0167715 0.0774852 -0.105009 -0.0732289 0.223413 -0.128076 -0.125877 -0.15787
internal_weight=0 33252.3 3890.57 2207.23 29361.7 27167.3 23911.5 18740.9 5170.54 77971 2515.32 2082.46 1288.03 839.663 75455.7 72017.1 4431.64 3728.66 3438.55 1577.94 959.566 67585.5 65346 2239.56 448.365 1683.35 2194.46 977.167 629.29 112.256 3255.82 2365.02 2377.46 2320.86 1061.09 413.487 1217.29 563.68 968.916 890.795 248.373 517.035 618.37 184.111 876.981 432.866 1653.49 494.452 69.8627 702.974 363.003 337.847 25.1561 45.2764 794.427 314.883 56.6018 1159.03 479.544 24.5863
internal_count=268644 99116 15199 6985 83917 75315 70336 53627 16709 169528 10518 9944 5267 4350 159010 145333 14631 9875 13677 5707 2891 130702 126062 4640 917 8214 8602 3304 1278 503 4979 4179 6552 6509 7125 2015 5298 1289 4651 800 647 775 2816 436 6689 574 8191 2135 200 4756 374 286 88 84 4677 1530 43 6056 3147 116
is_linear=0
shrinkage=0.1


Tree=17
num_leaves=61
num_cat=0
split_feature=70 101 134 40 132 135 72 29 127 53 136 0 128 77 98 88 101 15 102 41 29 30 36 58 29 70 135 53 100 97 105 129 5 130 103 39 69 31 65 28 69 123 84 94 31 41 30 103 74 4 15 134 93 132 101 31 135 135 33 32
split_gain=482.212 983.145 1140.66 648.526 796.715 820.906 698.168 535.933 606.763 528.349 715.767 506.287 1318.58 1218.96 468.19 430.095 422.426 362.002 448.914 359.487 338.281 332.789 310.811 285.648 262.61 366.198 262.49 243.855 266.401 203.938 197.207 180.688 175.717 163.247 155.494 149.055 143.838 139.456 129.178 121.519 109.111 89.1941 106.987 80.765 75.9449 74.3784 72.0093 68.6787 54.9012 66.6628 44.348 39.8877 37.1598 13.8846 13.4784 13.2721 5.46683 4.8822 2.64728 0.54839
