tree
version=v4
num_class=1
num_tree_per_iteration=1
label_index=0
max_feature_idx=136
objective=binary sigmoid:1
feature_names=Column_0 Column_1 Column_2 Column_3 Column_4 Column_5 Column_6 Column_7 Column_8 Column_9 Column_10 Column_11 Column_12 Column_13 Column_14 Column_15 Column_16 Column_17 Column_18 Column_19 Column_20 Column_21 Column_22 Column_23 Column_24 Column_25 Column_26 Column_27 Column_28 Column_29 Column_30 Column_31 Column_32 Column_33 Column_34 Column_35 Column_36 Column_37 Column_38 Column_39 Column_40 Column_41 Column_42 Column_43 Column_44 Column_45 Column_46 Column_47 Column_48 Column_49 Column_50 Column_51 Column_52 Column_53 Column_54 Column_55 Column_56 Column_57 Column_58 Column_59 Column_60 Column_61 Column_62 Column_63 Column_64 Column_65 Column_66 Column_67 Column_68 Column_69 Column_70 Column_71 Column_72 Column_73 Column_74 Column_75 Column_76 Column_77 Column_78 Column_79 Column_80 Column_81 Column_82 Column_83 Column_84 Column_85 Column_86 Column_87 Column_88 Column_89 Column_90 Column_91 Column_92 Column_93 Column_94 Column_95 Column_96 Column_97 Column_98 Column_99 Column_100 Column_101 Column_102 Column_103 Column_104 Column_105 Column_106 Column_107 Column_108 Column_109 Column_110 Column_111 Column_112 Column_113 Column_114 Column_115 Column_116 Column_117 Column_118 Column_119 Column_120 Column_121 Column_122 Column_123 Column_124 Column_125 Column_126 Column_127 Column_128 Column_129 Column_130 Column_131 Column_132 Column_133 Column_134 Column_135 Column_136
feature_infos=[-1.7844352722167969:2.1873281002044678] [-1.6962581872940063:2.0962586402893066] [-1.6161398887634277:2.0136351585388184] [-1.5440802574157715:1.9394575357437134] [-1.4800789356231689:1.8737261295318604] [-1.4241359233856201:1.8164401054382324] [-1.3852788209915161:1.7788288593292236] [-1.3575865030288696:1.7939627170562744] [-1.3260828256607056:1.9694005250930786] [-1.2853907346725464:2.0549979209899902] [-1.2320997714996338:1.9997674226760864] [-1.1626077890396118:2.073509693145752] [-1.0779223442077637:2.1457490921020508] [-0.97803342342376709:2.2142360210418701] [-0.86829191446304321:2.2525746822357178] [-0.75375783443450928:2.3293297290802002] [-0.63881856203079224:2.3999395370483398] [-0.65620064735412598:2.4998569488525391] [-0.66012513637542725:2.5653238296508789] [-0.66667592525482178:2.5221147537231445] [-0.8555336594581604:2.4413206577301025] [-0.86833834648132324:2.3840618133544922] [-0.86565589904785156:2.2409591674804688] [-0.7797551155090332:2.1797337532043457] [-1.0841877460479736:2.1696581840515137] [-1.4308524131774902:2.0883691310882568] [-1.6366665363311768:1.9448176622390747] [-1.8254417181015015:1.7312250137329102] [-1.9454965591430664:1.5516149997711182] [-2.2033448219299316:1.3473584651947021] [-2.6534385681152344:1.1459542512893677] [-2.9375624656677246:1.0691677331924438] [-2.8964071273803711:1.0182701349258423] [-2.6209216117858887:1.0153312683105469] [-1.9672813415527344:1.0222163200378418] [-1.2877312898635864:1.0987448692321777] [-0.6631239652633667:1.3781088590621948] [-0.6696123480796814:1.4357191324234009] [-0.67192721366882324:1.5244829654693604] [-0.67710685729980469:1.427788257598877] [-0.67391806840896606:1.3506048917770386] [-0.77278417348861694:1.3033223152160645] [-0.78214722871780396:1.4334096908569336] [-0.67815649509429932:1.6771683692932129] [-0.67593681812286377:1.8418123722076416] [-0.67998087406158447:1.9795904159545898] [-0.67735743522644043:1.8671952486038208] [-0.68031680583953857:1.8940913677215576] [-0.67738151550292969:2.0411467552185059] [-0.68022686243057251:2.1347439289093018] [-0.67672491073608398:2.3221406936645508] [-0.68167710304260254:2.3866791725158691] [-0.6882440447807312:2.2922041416168213] [-0.69760811328887939:2.0923285484313965] [-0.68820065259933472:1.9014968872070312] [-0.66498374938964844:1.663224458694458] [-0.62813276052474976:1.3939603567123413] [-0.79989981651306152:1.3603483438491821] [-0.9627259373664856:1.3460699319839478] [-0.83332031965255737:1.3262704610824585] [-0.58399802446365356:1.3006186485290527] [-0.60407185554504395:1.6912268400192261] [-0.63139909505844116:1.8743280172348022] [-0.66095739603042603:1.7138135433197021] [-0.93073725700378418:1.3433690071105957] [-1.1305865049362183:1.0751444101333618] [-1.2290370464324951:0.99085426330566406] [-1.6538451910018921:0.88367986679077148] [-1.8910553455352783:0.75060045719146729] [-2.0949718952178955:0.59843027591705322] [-1.9126988649368286:0.44751104712486267] [-1.723555326461792:0.31280896067619324] [-1.5349674224853516:0.20973041653633118] [-1.4402464628219604:0.13722024857997894] [-1.4517455101013184:0.30397361516952515] [-1.6804615259170532:0.9557119607925415] [-1.8599822521209717:1.3625956773757935] [-1.985605001449585:1.0853415727615356] [-2.0616223812103271:1.1285310983657837] [-2.1171634197235107:0.92254304885864258] [-2.168381929397583:0.73609095811843872] [-2.1978850364685059:0.27998179197311401] [-2.2107267379760742:0.32789856195449829] [-2.208972692489624:0.37759476900100708] [-2.1915850639343262:0.5232703685760498] [-2.1574652194976807:0.46151745319366455] [-2.1063995361328125:0.49370381236076355] [-2.0390708446502686:0.51996833086013794] [-1.9571486711502075:0.67684948444366455] [-1.8642418384552002:0.55988889932632446] [-1.767259955406189:0.65060514211654663] [-1.8478662967681885:1.0689502954483032] [-1.6500253677368164:1.4172115325927734] [-1.5946441888809204:1.6278220415115356] [-1.530011773109436:1.6645678281784058] [-1.4861346483230591:1.6171708106994629] [-1.4531639814376831:1.5604556798934937] [-1.4315723180770874:1.5597559213638306] [-1.414076566696167:1.5643377304077148] [-1.5819015502929688:1.5618817806243896] [-1.8758529424667358:1.5670002698898315] [-2.4619696140289307:1.5660412311553955] [-2.648137092590332:1.569068431854248] [-2.4631106853485107:1.5659784078598022] [-2.0338072776794434:1.5671930313110352] [-1.4165751934051514:1.5610309839248657] [-1.2213733196258545:1.5632989406585693] [-1.1215335130691528:1.561995267868042] [-1.1656886339187622:1.5723429918289185] [-1.225764274597168:1.5757462978363037] [-1.3317182064056396:1.5825309753417969] [-1.6010570526123047:1.5861003398895264] [-2.1418814659118652:1.5904537439346313] [-2.465855598449707:1.5896482467651367] [-2.5047738552093506:1.5896980762481689] [-2.0072333812713623:1.5816894769668579] [-1.5739866495132446:1.5827864408493042] [-1.6279804706573486:1.7016431093215942] [-1.6828017234802246:2.5795986652374268] [-1.7428308725357056:2.8008601665496826] [-1.8188323974609375:2.5472877025604248] [-1.9257428646087646:1.7488086223602295] [-2.1498878002166748:1.5744708776473999] [-2.3795907497406006:1.5728672742843628] [-2.6463632583618164:1.8138364553451538] [-2.951240062713623:2.1645474433898926] [-3.3342947959899902:3.0688047409057617] [-3.8750591278076172:4.2020993232727051] [0:1] [0:1] [0:1] [0:1] [0:1] [0:1] [0:1] [0:1] [0:1]
tree_sizes=6551 5015 5191 5157 5776 6341 6294 6486 6667 6849 6176 6761 6469 6463 6679 6829 6206 6683 6517 6299 6871 4394 6483 6936 6669 6736 6572 6572 5841 6613 5434 5879 4307 5228 5412 4832 5500 4205 5043 5395 6697 5750 6940 5074 6695 4308 5201 5824 6596 6151 6477 6691 6674 5097 5417 5006 5568 5512 6568 6799 6052 5135 3976 6146 6299 6824 6917 4700 5840 6816 5259 4905 4949 6272 5557 6815 6907 6706 6939 6687 6424 6815 6902 6814 6667 6796 5829 4944 6791 6392 5147 4609 6316 6297 6874 5321 6133 5981 5587 6746 6508 6147 6674 6245 6570 6697 6692 6446 5971 6738 6899 4851 6282 6239 4937 5361 6948 6433 6347 6630 5802 5377 6923 6902 6016 6375 6451 4219 6554 5237 5920 6756 6611 5493 6522 6926 4545 4882 6934 6507 6929 6314 6490 6723 6424 6209 6498 6287 4730 6415 5079 4091 6581 6173 6131 5184 6549 5296 6152 6579 6175 6759 6336 6500 6658 5970 6626 6552 6446 6370 6551 6520 6671 6165 5995 5131 6444 6635 6179 6320 5574 6915 6643 6207 5138 6658 6458 6958 6361 5373 6695 5730 6696 5811 6529 6672 6568 6019 6909 6921

Tree=0
num_leaves=61
num_cat=0
split_feature=135 105 129 33 33 108 92 30 107 6 101 48 31 127 30 29 120 46 28 5 73 106 30 79 118 4 73 0 74 5 28 125 28 5 125 129 32 121 118 111 111 29 73 28 58 115 117 89 126 53 68 39 24 115 73 73 106 104 2 74
split_gain=68857.3 24849 24459.8 31120.6 28364.6 16675.6 14215.8 11786.5 10539.5 8770.07 8762.96 7403.84 6378.48 5242.18 7086.82 5065.29 3713.11 3584.4 4029.99 3401.02 3295.51 5353.99 4083.62 2990.04 2361.93 2270.28 2260.23 2032.87 1701.37 1435.93 3100.66 1141.83 1102.76 1094.95 1385.36 1083.3 1009.73 982.133 949.052 800.316 1194.41 777.254 534.836 532.036 514.856 513.806 496.867 521.976 459.345 444.184 636.881 392.833 297.232 288.063 266.002 217.901 213.178 96.4512 7.10543e-15 3.55271e-15
threshold=1.0000000180025095e-35 -0.90631672739982594 1.0000000180025095e-35 0.92692679166793834 0.8278903365135194 -1.0584489107131956 -1.0628982782363889 1.094895660877228 -0.9803127348423003 0.60955849289894115 -0.83018693327903736 1.1886513829231264 1.0039882659912112 -2.464768528938293 1.0385757684707644 1.2354298233985903 -1.7586003541946409 1.1775355935096743 1.1577776670455935 0.7781200408935548 -0.9038410186767577 -0.90861102938652027 1.0670749545097353 -0.94246652722358693 -1.4327905178070066 0.76338574290275585 -0.84240031242370594 0.40427237749099737 -0.99545934796333302 0.79326272010803234 1.3444592952728274 -1.6191543340682981 1.3772060275077822 0.74075651168823253 -1.2567005753517149 1.0000000180025095e-35 0.93619024753570568 -1.0098475813865659 -1.0399576425552366 -0.95616182684898365 -1.0020709633827207 1.2415221929550173 -0.82024833559989918 1.2344558238983157 0.65665593743324291 -0.91114723682403553 -0.89659655094146717 -1.208096385002136 -2.0573977231979366 1.0696462392807009 0.0020232819952070717 1.0491044521331789 1.4065496921539309 -0.95941659808158863 -0.85919412970542897 -0.53554561734199513 -0.95220714807510365 -0.95189514756202687 0.63854581117630016 -0.98207667469978321
decision_type=2 2 2 2 2 2 2 2 2 2 2 2 2 2 2 2 2 2 2 2 2 2 2 2 2 2 2 2 2 2 2 2 2 2 2 2 2 2 2 2 2 2 2 2 2 2 2 2 2 2 2 2 2 2 2 2 2 2 2 2
left_child=1 6 3 4 16 -6 19 8 36 11 -11 -5 13 24 -15 20 -3 18 31 35 22 -22 -10 26 -8 53 -14 -20 44 30 33 -4 46 34 -9 38 42 -35 -1 40 -19 -27 -2 -30 -21 59 57 -48 -25 50 -38 -41 -37 -17 58 -51 -44 -31 -32 -34
right_child=7 2 17 9 5 -7 12 29 15 10 -12 -13 23 14 -16 25 -18 39 27 28 21 -23 -24 48 -26 41 -28 -29 43 32 54 -33 45 37 -36 52 49 -39 -40 51 -42 -43 56 -45 -46 -47 47 -49 -50 55 -52 -53 -54 -55 -56 -57 -58 -59 -60 -61
leaf_value=-1.7504011584876231 -1.5145755132019676 -1.8204344322081838 -1.8509230228777493 -2.5398528010716177 -2.5730773708361721 -2.0108293329071669 -1.8467856750663634 -2.1464189389534343 -1.3429507872082385 -2.4446661522624997 -1.7760629253278819 -1.8976238936187859 -1.7992558695475023 -1.4065694259539512 -1.7801262652701435 -2.2501456654940388 -2.7383755899497757 -2.5790244732768528 -2.3037115125075451 -2.6011882092370131 -1.7268154737496784 -1.4295275383987907 -1.8185584773223269 -2.0340887396055778 -2.5010137122781888 -1.3495590512383073 -2.647849854905302 -1.9089075954551142 -1.2325812450303539 -1.7319151681037079 -2.9313413152574772 -1.6748271004669006 -2.9313413152574772 -1.634232285962461 -2.9313413152574772 -1.8253999053436603 -2.2583509795200842 -2.1397059768009408 -2.8276402978978519 -2.3789965150815968 -1.9209132285113721 -2.2352944182150534 -2.9313413152574772 -1.9295116715907885 -1.6157678924596304 -1.5145755132019676 -1.2088192070030539 -2.9313413152574772 -1.3272016385448708 -2.9313413152574772 -1.4545002292564 -2.9313413152574772 -2.402480598343371 -2.9313413152574772 -1.3244174923648819 -1.4713838865687099 -2.5875603917458414 -1.2865728362061228 -2.9313413152574772 -2.9313413152574772
leaf_weight=8.570074547082184 3.5717777647078028 47.070116817951202 510.52505881711841 2649.8258397728205 555.57173686102033 10441.291936185211 101.09338981285691 133.23742152750492 233.62893655523658 402.04998119547963 382.53914381936193 192.54906388372183 40.229607649147511 643.84206533804536 2404.4367788024247 7.4286625161766997 690.5707113519311 38.301679901778698 172.0036473274231 30.654702302068472 810.81856124103069 2395.7197401113808 794.29551048204303 13.159656893461941 121.51327592507005 20.261338826268911 142.8014116063714 539.47811147198081 26.809762075543404 5.6253263019025317 2.0076934322714797 1320.9577654153109 7.8722716160118571 71.523283995687962 27.051027297973633 13.72687344253063 35.089764043688774 83.099933099001646 178.92495143786073 45.808094762265682 98.493561524897814 19.387094408273697 37.987673100084066 18.520813006907701 6.4108579345047465 3.5717777647078028 2.9377693124115467 4.3852251283824435 30.494186848402023 8.8761183321475965 13.705936644226311 17.910738777369261 25.515842780470848 37.776336949318647 1.0497018210589875 1.155369896441697 34.346106007695198 35.894219134002924 53.25670999288559 1.1623488292098034
leaf_count=67 20 399 4474 40395 8643 107209 882 1538 931 5769 3083 1772 333 2951 19470 93 11817 598 2240 485 6159 11498 6719 138 1808 82 2322 5022 79 43 38 9388 149 481 512 117 442 954 3212 629 928 240 719 176 42 20 8 83 117 168 69 339 356 715 4 6 539 124 1008 22
internal_value=-2.82541 -2.06068 -2.10951 -2.15863 -2.0795 -2.03923 -1.82844 -1.64555 -1.59715 -2.41465 -2.11868 -2.49635 -1.77099 -1.73544 -1.70123 -1.56998 -2.6798 -1.83447 -1.80238 -2.47845 -1.55465 -1.5047 -1.71046 -2.28396 -2.20391 -2.33498 -2.46133 -2.00435 -1.92823 -2.14384 -2.21796 -1.72391 -1.69608 -2.09574 -2.27889 -2.6784 -2.46812 -1.90589 -2.7784 -2.24153 -2.10518 -1.78266 -2.70912 -1.51733 -2.43075 -2.52993 -1.48086 -2.24032 -1.5403 -2.15715 -2.03256 -2.53426 -2.20062 -2.8194 -2.90139 -2.76319 -2.7681 -1.34691 -2.93134 -2.93134
internal_weight=0 21911.7 18104.9 15361.5 11734.5 10996.9 3806.7 4886.72 4454.05 3626.96 784.589 2842.37 3497.57 3270.89 3048.28 4319.32 737.641 2743.48 2542.96 309.134 4234.46 3206.54 1027.92 226.685 222.607 84.8534 183.031 711.482 82.3961 432.675 371.226 1831.48 61.4489 314.912 160.288 226.738 134.733 154.623 187.495 200.514 136.795 39.6484 75.9056 45.3306 37.0656 12.6064 48.8425 7.32299 43.6538 58.8272 48.7957 63.7188 39.2427 45.205 56.3141 10.0315 72.3338 41.5195 55.2644 9.03462
internal_count=268644 235260 202705 179087 128068 115852 32555 33384 28400 51019 8852 42167 28021 25111 22421 26437 12216 23618 21124 4534 25307 17657 7650 2910 2690 1130 2655 7262 782 4984 4535 13862 449 3485 2050 3752 1963 1435 3279 2494 1526 322 1278 255 527 191 258 91 255 685 511 968 473 808 1050 174 1258 167 1046 171
is_linear=0
shrinkage=1


Tree=1
num_leaves=46
num_cat=0
split_feature=124 130 117 76 136 105 75 110 119 103 123 128 32 59 79 32 31 108 88 117 71 89 6 30 78 75 29 54 99 28 42 112 105 129 74 5 92 99 105 76 93 91 57 24 33
split_gain=6547.46 5323.12 6976.72 5555.68 4063.8 11659.3 5716.84 4025.44 4823.3 3072.43 3042.5 2428.19 2123.74 2058.21 1539.52 1278.66 1273.41 1488.6 883.424 850.173 714.887 588.491 585.28 743.488 529.602 433.792 406.372 394.386 229.286 185.712 104.029 107.433 0.225147 0.180275 0.0395959 0.0358743 0.0305549 0.0196416 0.0106676 0.012972 0.0097117 0.00645044 0.0017636 0.000896381 0.00031868
threshold=-0.87082159519195546 1.0000000180025095e-35 -1.0471625328063963 -1.2668219804763792 1.0000000180025095e-35 -0.82751172780990589 -1.0872130990028379 -1.2050197124481199 -1.6426398158073423 -0.79383173584938038 -1.5402386784553526 1.0000000180025095e-35 0.96547618508338939 0.83446255326271068 -1.4402558803558347 0.95197558403015148 1.006114721298218 -0.85169970989227284 -1.3457978367805479 -0.88995274901390065 -0.57457348704338063 -1.2731595039367674 0.40643317997455602 1.0204867720603945 -1.433307349681854 -1.0241508483886717 0.81270119547843944 1.0071713924407961 -0.85409697890281666 1.1214021444320681 0.75439420342445385 -1.0416416525840757 -0.92452165484428395 1.0000000180025095e-35 -0.9945998191833495 0.7781200408935548 -1.0747713446617124 -0.80480629205703724 -0.90839621424674977 -1.2391822338104246 -1.0161928534507749 -1.2176766395568845 0.66908329725265514 1.5118129253387453 0.76412963867187511
decision_type=2 2 2 2 2 2 2 2 2 2 2 2 2 2 2 2 2 2 2 2 2 2 2 2 2 2 2 2 2 2 2 2 2 2 2 2 2 2 2 2 2 2 2 2 2
left_child=1 3 10 11 7 6 -6 26 -9 -7 22 19 13 -12 21 29 17 -16 -17 27 -21 24 37 -24 -4 -14 -5 -1 -18 -13 32 41 34 38 40 36 -36 -3 39 -34 -2 42 -32 -40 -35
right_child=30 2 14 4 5 9 -8 8 -10 -11 12 15 25 -15 16 18 28 -19 -20 20 -22 -23 23 -25 -26 -27 -28 -29 -30 -31 31 -33 33 44 35 -37 -38 -39 43 -41 -42 -43 -44 -45 -46
leaf_value=0.69673134205027498 -0.10716785079113399 -0.12303667619811874 0.74548862989771469 1.1585641154632671 0.30807092739113884 0.43789456410161853 0.04444298742877667 0.57424012871786745 0.35674132494049993 0.84364843787088106 0.39828891314113751 -0.11240735077424516 0.32992615994974372 0.66927827006262974 0.21304484745445113 0.19296550686250774 -0.048337125948460874 0.026049551381154324 0.61975878383754823 0.58606533758196178 0.18816532959044902 1.3569253893176469 0.51768023495541582 0.050382190920914276 0.11490464523467409 -0.066102280036802727 -0.084818872174567517 0.38854023313129565 0.24471326211847449 0.79217007862755207 -0.10745842405597579 0.54071471422742967 -0.10741853459145148 -0.11746519093001627 -0.10711528274589768 -0.12786556449520564 -0.12415983499064312 -0.11364705158996542 -0.10646837371806242 -0.11914825048862421 -0.11779785783917812 -0.11678669312947546 -0.11227998880148718 -0.10920892909792135 -0.11873406079412022
leaf_weight=95.652613691985607 2.3508520610630517 2.2841057926416388 33.386497020721436 2.6611151546239844 1609.9828514270484 451.06429602205753 1681.8720462024212 1043.6653369516134 44222.030468970537 318.31734376400709 680.03807217627764 2.2809340953826895 42.364448696374893 476.77966959029436 1410.3323442190886 66.187320232391357 419.80922682210803 609.77237995713949 181.47849735617638 57.866795174777508 205.51972733438015 9.2123190909624082 50.730980902910233 103.53195040673018 22.158295318484306 79.678008738905191 214.72233576327562 73.373187348246574 28.512228973209858 456.36373832821846 2.2492704726755623 5.1079559102654439 2.6359896659851074 2.4253288432955733 2.03185761719942 6.2827799320220947 2.1803515329956999 90.406731620430946 289.76125350594521 1.4678277634084214 1.3547630608081807 1.5999516882002351 1.1446942314505575 1.1984167098999012 10.763814881443976
leaf_count=150 38 16 51 5 9528 2747 16391 4273 192541 1199 3754 24 445 1500 10864 502 4079 5909 425 171 1222 9 177 934 171 1107 3100 252 265 495 38 9 41 20 36 37 14 865 5078 14 14 18 16 19 81
internal_value=0 0.347331 0.23714 0.356156 0.351136 0.255292 0.173378 0.359694 0.361756 0.605768 0.406067 0.574542 0.46812 0.509977 0.135391 0.688799 0.122764 0.1566 0.505701 0.387912 0.275585 0.616701 0.0847248 0.204058 0.493932 0.0713706 -0.0695979 0.562947 -0.0296998 0.787671 -0.09773 0.218263 -0.10763 -0.107062 -0.119941 -0.123078 -0.115938 -0.113878 -0.106551 -0.111614 -0.111054 -0.111552 -0.109085 -0.10648 -0.118501
internal_weight=0 54742 4059 50683 49544.3 4061.24 3291.85 45483.1 45265.7 769.382 1525.81 1138.72 1278.86 1156.82 2533.18 706.31 2468.43 2020.1 247.666 432.412 263.387 64.7571 246.954 154.263 55.5448 122.042 217.383 169.026 448.321 458.645 332.555 10.1019 322.453 308.253 14.2006 10.495 4.21221 92.6908 295.063 4.10382 3.70562 4.99392 3.39396 290.96 13.1891
internal_count=268644 263171 30146 233025 229784 29865 25919 199919 196814 3946 8798 3241 6806 5254 21348 1446 21117 16773 927 1795 1393 231 1992 1111 222 1552 3105 402 4344 519 5473 81 5392 5253 139 87 50 881 5152 55 52 72 54 5097 101
is_linear=0
shrinkage=0.1


Tree=2
num_leaves=47
num_cat=0
split_feature=120 32 134 134 99 73 129 105 96 56 36 130 104 58 131 127 31 128 32 107 25 57 56 32 129 28 35 98 32 103 71 129 19 53 105 92 5 74 60 125 124 67 105 43 105 14
split_gain=3489.83 3322.81 4933.2 4479.81 3201.28 5484.92 2795.8 2710.47 2456.13 3988.29 2410.11 2293.22 2234.78 2157.89 2105.45 1981.37 1650.15 1526.56 1111.38 1085.54 923.813 893.654 838.858 711.822 669.478 644.456 428.582 368.637 246.154 171.267 161.692 50.413 94.9379 36.8741 0.226556 0.0536418 0.0793162 0.0531994 0.00432507 0.00330434 0.00158561 0.000983172 0.000876412 0.000222052 1.77968e-06 6.64357e-10
threshold=-0.57282778620719899 0.95154458284378063 1.0000000180025095e-35 1.0000000180025095e-35 -0.91722562909126271 -0.81661593914031971 1.0000000180025095e-35 -0.84263575077056874 -0.99630713462829579 0.97713091969490062 0.92286786437034618 1.0000000180025095e-35 -0.84662172198295582 0.85874745249748241 1.0000000180025095e-35 -3.4180318117141719 0.99289944767951976 1.0000000180025095e-35 0.95693400502204906 -0.9916277527809142 1.2446616888046267 0.93459960818290722 0.8844733238220216 0.95638877153396618 1.0000000180025095e-35 1.2405445575714114 0.91808471083641063 -0.99189236760139454 0.95197558403015148 -0.85587957501411427 -0.52039918303489674 1.0000000180025095e-35 1.6312674283981325 1.0579887032508852 -0.91437023878097523 -1.0619921684265134 0.7781200408935548 -0.97649225592613209 0.59653145074844371 -0.40137767791748041 -0.87082159519195546 -0.083484105765819536 -0.90839621424674977 0.92698740959167492 -0.90122899413108815 1.2703930139541628
decision_type=2 2 2 2 2 2 2 2 2 2 2 2 2 2 2 2 2 2 2 2 2 2 2 2 2 2 2 2 2 2 2 2 2 2 2 2 2 2 2 2 2 2 2 2 2 2
left_child=1 3 4 10 22 11 -7 13 25 12 14 -6 -10 18 15 -1 -16 19 -4 -12 -11 28 30 -15 -24 29 -23 -27 -9 -5 -3 34 38 -19 35 36 40 -38 41 -37 -2 -33 -36 44 -44 -43
right_child=31 2 7 8 5 6 -8 21 9 20 17 -13 -14 23 16 -17 -18 33 -20 -21 -22 26 24 -25 -26 27 -28 -29 -30 -31 -32 32 -34 -35 42 39 37 -39 -40 -41 -42 45 43 -45 -46 -47
leaf_value=-0.027772188424618316 -0.10815512109330866 0.4963258005630744 0.15525988558926496 0.52117762986768945 0.36991315510291001 0.16563734775107478 0.26085275071018027 0.1306134548154344 0.34137123029715644 0.32560158487313257 0.043472641920281975 0.1347030061509111 0.17442447109269682 0.45689463129785707 -0.0056445847493898881 0.25777739048893727 0.20284056545600318 0.13716691200979234 -0.084814815597266141 0.21176150942166183 0.49999105710942815 0.41138307958949571 -0.019346964607849168 0.13756242070181957 0.21156804073564081 0.42442063784963829 0.028087208509640655 -0.02416549591810406 -0.089106541102134909 0.27714958838564235 0.052158786467377309 -0.114121136572162 0.35913694520067874 -0.10282970406779189 -0.10834005570957797 -0.12630316171267617 -0.11080739034246123 -0.12796401411370686 -0.12076110121463653 -0.12172513609981242 -0.10549500334214407 -0.11663877813412081 -0.10593564619248633 -0.10725483065769026 -0.10581428609164022 -0.11663666425587288
leaf_weight=244.51389045268297 4.7618564181029832 46.656063184142113 719.3911400437355 827.22869288921356 3367.0725506842136 7530.529461838305 5222.5108499005437 54.042072050273418 1446.8226289376616 432.29140411317348 493.62253351137042 472.70093360543251 1798.5983652845025 272.81643483042717 499.47210233658552 39190.346694558859 1582.4084483534098 6.5898514315485945 263.44126998633146 1714.9483614899218 1021.7409533038735 57.348947614431381 718.54694399237633 93.807111367583275 152.13816190510988 37.240343913435936 59.374066926538944 36.055810935795307 902.21619322150946 29.79622545838356 9.9424279630184156 2.0673465691506863 6.8361844792962065 224.49486007541418 1.3880760148167599 3.2315298616886139 3.085807029157877 4.3624208569526663 2.4921513088047496 3.0786733776330939 4.2323246821761149 2.4460509270429629 1.2139491625130165 1.0752604380249966 261.56501883268356 3.7910350486636162
leaf_count=2121 69 106 3501 1174 9268 50645 14840 275 4494 1407 4123 3393 8385 684 3896 120095 7210 34 2176 6981 1646 168 5083 694 600 97 508 264 7349 110 68 20 6 1784 22 20 45 26 20 21 87 20 23 18 5037 31
internal_value=0 0.242049 0.207578 0.255913 0.226072 0.236177 0.204629 0.073821 0.339901 0.310513 0.245156 0.340957 0.24885 0.168143 0.250833 0.256007 0.152822 0.148561 0.0909096 0.174148 0.448144 -0.0448048 0.0452516 0.375188 0.0210017 0.488353 0.21641 0.203752 -0.0766893 0.512693 0.418301 -0.0966059 0.0675314 -0.0959857 -0.106655 -0.116232 -0.113224 -0.120856 -0.117108 -0.12407 -0.106903 -0.116011 -0.105834 -0.105821 -0.105815 -0.116637
internal_weight=0 69528.7 19942.5 49586.2 17520.1 16592.8 12753 2422.44 5629.77 4699.45 43956.4 3839.77 3245.42 1349.46 41516.7 39434.9 2081.88 2439.66 982.832 2208.57 1454.03 1072.98 927.284 366.624 870.685 930.321 116.723 73.2962 956.258 857.025 56.5985 305.628 17.6328 231.085 287.995 22.7526 16.4424 7.44823 10.7966 6.3102 8.99418 8.30443 265.242 263.854 262.779 6.23709
internal_count=268644 263179 99358 163821 84003 78146 65485 15355 17577 15932 146244 12661 12879 7055 133322 122216 11106 12922 5677 11104 3053 8300 5857 1378 5683 1645 676 361 7624 1284 174 5465 97 1818 5368 268 227 71 91 41 156 71 5100 5078 5060 51
is_linear=0
shrinkage=0.1


Tree=3
num_leaves=47
num_cat=0
split_feature=124 71 30 130 100 128 53 0 134 72 103 136 131 56 0 135 42 70 103 73 134 74 4 31 49 72 104 7 12 70 26 123 42 55 125 105 129 119 73 92 74 5 105 6 6 89
split_gain=2249.71 2068.11 2671.48 1980.97 2004.54 1945.8 6145.04 1868.7 2796.33 2764.49 1474.41 3168.3 3544.17 2024.29 1776.04 1365.21 1252.44 1256.3 1243.94 1076.18 1062.87 729.204 537.14 587.145 451.138 275.449 264.598 668.265 311.7 194.149 111.024 93.4698 71.4062 43.7338 0.209464 0.0989346 0.0311439 0.0219829 0.0112602 0.0112 0.00713043 0.00624519 0.00556805 0.00467631 0.00180548 7.23851e-05
threshold=-0.87082159519195546 -0.4898629486560821 1.0558475852012636 1.0000000180025095e-35 -0.87117591500282276 1.0000000180025095e-35 1.0660430788993838 0.3635499924421311 1.0000000180025095e-35 -0.60279339551925648 -0.85516738891601551 1.0000000180025095e-35 1.0000000180025095e-35 0.89269438385963451 0.51777353882789623 1.0000000180025095e-35 1.0033673048019411 -0.2759676575660705 -0.81369537115097035 -0.84566149115562428 1.0000000180025095e-35 -1.0061814188957212 0.5395227074623109 1.0049816370010378 1.0991373062133791 -0.57869321107864369 -0.88322442770004261 0.75042539834976207 1.26505982875824 -0.3404401689767837 1.2680556178092959 -1.5402386784553526 0.75439420342445385 0.86919903755187999 -0.40137767791748041 -0.9440980553627013 1.0000000180025095e-35 -0.56924346089363087 -0.81749990582466114 -1.0867743492126463 -1.0221194624900816 0.74409019947052013 -0.90631672739982594 0.94993487000465404 0.6750408709049226 -1.1812698245048521
decision_type=2 2 2 2 2 2 2 2 2 2 2 2 2 2 2 2 2 2 2 2 2 2 2 2 2 2 2 2 2 2 2 2 2 2 2 2 2 2 2 2 2 2 2 2 2 2
left_child=1 3 5 10 26 7 18 9 -9 -3 11 12 -1 20 -13 16 29 -18 -7 -15 -12 -8 30 -24 31 -26 28 -28 -5 -4 -6 -17 34 -34 37 38 42 40 39 -36 -2 44 -37 -39 -35 -46
right_child=32 2 15 4 22 6 21 8 -10 -11 13 14 -14 19 -16 24 17 -19 -20 -21 -22 -23 23 -25 25 -27 27 -29 -30 -31 -32 -33 33 41 35 36 -38 43 -40 -41 -42 -43 -44 -45 45 -47
leaf_value=0.21664159616299461 -0.11808173700886022 0.2890408021494732 0.080501893484376363 -0.086824235854547016 0.37646621788631851 -0.032220719441884163 0.28552334862344747 0.17143699372916588 -0.011873192791643379 0.19124646034803464 0.18847695819360941 0.13482593520613076 0.085155213228496229 0.3154419999676023 -0.094141941512848132 0.36567375876316283 0.13388186497497886 -0.024536667564885904 0.25180022819248382 0.23158243540927093 -0.046385116894426093 -0.057661600838665998 0.32242291758620073 0.037940489482044398 0.02544919263680865 0.29581866737056978 0.028861919682722795 0.43397106676549391 0.4367975414485219 -0.040822789253177914 -0.04832719854563395 0.27217255287224779 0.2826697599455858 -0.11019093198799486 -0.10799863512338932 -0.10882655101198567 -0.11455566220770459 -0.10958552865370559 -0.12114015940533523 -0.11920812789909224 -0.12378236515832988 -0.11615119544980797 -0.10524974693371461 -0.11545672983432068 -0.10608117021890945 -0.10483591716873669
leaf_weight=26172.306888520718 4.0042618177831173 3395.8920385316014 168.03241048008204 261.35296466574073 6.7755859643220893 168.62375375628471 64.766177609562874 6730.1240635812283 949.59191061556339 19426.351461686194 533.2546166703105 1012.793627128005 2224.2094449624419 2793.6863657832146 509.03472876548767 152.81044279783964 5587.8854173496366 549.84635338932276 1803.4502123817801 3383.9670260921121 301.70616418868303 1406.2049514390528 466.2108246088028 85.919937811791897 116.40902430564165 55.716559998691082 832.56104296445847 42.813683442771435 11.885438553988932 613.33960924297571 66.921422854065895 355.97263843566179 7.8179273717105371 1.4560609795153143 1.8936011381447317 4.4325499050319186 3.7020958848297587 2.14289242401719 3.7057741880416861 1.6840468198060987 4.8539175763726217 1.130509629845619 240.22118392214179 3.697104699909687 0.99522562325000741 0.87917309254407883
leaf_count=55338 34 7782 629 2153 15 1074 137 25146 6148 68877 1337 4709 11722 5126 3744 160 25275 4129 5204 8679 1691 11980 1195 533 467 127 5208 144 10 3657 391 384 6 22 34 70 34 36 28 13 33 13 5074 36 20 20
internal_value=0 0.186892 0.171397 0.203524 0.100315 0.183396 0.112135 0.19144 0.148771 0.205798 0.208483 0.198809 0.206343 0.249753 0.0582387 0.117805 0.10451 0.11969 0.227515 0.269506 0.103611 -0.0425513 0.244306 0.278153 0.252911 0.112967 0.0218602 0.0486754 -0.0640475 -0.0147322 -0.00927237 0.300255 -0.095744 0.14011 -0.106457 -0.105789 -0.105452 -0.118065 -0.117277 -0.113275 -0.121205 -0.109729 -0.105315 -0.113302 -0.107549 -0.105497
internal_weight=0 80250.4 41545 38705.4 1774.44 33945 3443.05 30502 7679.72 22822.2 36931 29918.3 28396.5 7012.61 1521.83 7600.01 6919.1 6137.73 1972.07 6177.65 834.961 1470.97 625.828 552.131 680.909 172.126 1148.61 875.375 273.238 781.372 73.697 508.783 282.616 12.2789 270.337 255.639 248.356 14.6982 7.28342 3.57765 8.85818 4.46097 244.654 5.84 3.33046 1.8744
internal_count=268644 263171 161176 101995 9649 126348 18395 107953 31294 76659 92346 75513 67060 16833 8453 34828 33690 29404 6278 13805 3028 12117 2134 1728 1138 594 7515 5352 2163 4286 406 544 5473 81 5392 5253 5178 139 75 47 67 75 5144 72 62 40
is_linear=0
shrinkage=0.1


Tree=4
num_leaves=53
num_cat=0
split_feature=130 117 110 136 106 99 74 75 116 101 121 80 80 74 7 120 75 117 75 48 71 33 35 127 75 117 32 75 89 116 117 122 76 77 12 53 41 34 87 76 92 7 76 35 6 73 27 58 33 108 44 89
split_gain=1663.44 2135.82 1623.07 1450.44 3674.16 1577.32 1596.97 1404.37 1452.68 1333.37 2619.59 2148.14 1204.4 862.591 1520 849.488 800.774 1538.63 739.245 680.789 648.225 622.571 615.534 598.334 597.487 559.098 527.971 352.511 346.8 257.427 199.995 370.463 306.291 269.178 247.374 163.059 139.056 128.467 125.058 117.449 142.41 106.132 99.3191 81.0695 79.0945 11.2752 122.43 10.3344 0.33979 0.0637136 0.0271414 0.00560092
threshold=1.0000000180025095e-35 -1.0361552238464353 -1.2050197124481199 1.0000000180025095e-35 -0.86049729585647572 -0.90671297907829274 -0.97887304425239552 -1.0543962121009824 -1.0536623001098631 -0.50703296065330494 -1.8507586717605589 -0.41063362360000605 -1.0693862438201902 -0.99805906414985646 0.71187868714332592 -1.7586003541946409 -1.0677008628845213 -0.99889230728149403 -1.0385192632675169 1.1966138482093813 -0.50039362907409657 0.89128595590591442 0.9090782403945924 -3.4914548397064205 -1.0907030105590818 -0.98130333423614491 0.92491120100021373 -1.0770737528800962 -0.26153682172298426 -1.0323857069015501 -1.0212525129318235 -1.2370839715003965 -1.1345440745353697 -1.241074740886688 1.26505982875824 1.0303114056587221 1.0854375362396242 0.83511674404144298 -1.246708035469055 -1.1644305586814878 -1.0242205858230589 0.48254761099815374 -0.67458477616310109 0.85018789768219005 0.40643317997455602 -0.48032289743423456 1.0592866539955141 0.88966652750968944 0.92692679166793834 -1.0584489107131956 1.0722782015800478 -1.1046240925788877
decision_type=2 2 2 2 2 2 2 2 2 2 2 2 2 2 2 2 2 2 2 2 2 2 2 2 2 2 2 2 2 2 2 2 2 2 2 2 2 2 2 2 2 2 2 2 2 2 2 2 2 2 2 2
left_child=2 7 37 9 13 20 -7 35 12 10 19 -12 21 14 -5 23 17 22 29 -4 -6 -9 27 -11 25 -19 -15 -3 -17 -10 31 33 -33 -18 48 51 -20 43 -24 47 -41 -26 -39 50 -14 46 -44 -37 -32 -47 -1 -2
right_child=1 16 3 4 5 6 -8 8 18 15 11 -13 44 26 -16 28 30 24 36 -21 -22 -23 38 -25 41 -27 -28 -29 -30 -31 34 32 -34 -35 -36 39 -38 42 -40 40 -42 -43 45 -45 -46 49 -48 -49 -50 -51 -52 -53
leaf_value=-0.12674005918518974 -0.12476435761450258 0.32737554707267397 0.35975256049525606 0.2819456206948403 0.11695214621424305 0.3167809212726152 0.15488031418971926 -0.065457841505980455 0.18915419664182231 -0.13386729980239215 0.15959511255744921 -0.094432911360441407 -0.1186275582834605 0.047671193547691483 -0.092124722157970462 0.21158850646315763 0.50239513833255667 0.23183341810340849 -0.11112441711552623 0.21092377743475788 -0.078699463733719915 0.22249671349258163 0.23435604522465914 0.28355849160099028 0.56448355158666286 0.035994713603106923 -0.071043664478591936 0.15324318221506056 -0.10560649816453582 -0.0047165663062957467 -0.12076340109202566 0.31781499930818286 -0.06849681444475493 -0.080707320473440342 0.28845981305601454 0.53602278573551387 0.088102430632385834 0.50691154243666436 -0.045423792468617635 0.42224490187316022 0.28248636029006252 -0.094871968805780083 0.68708583838828285 0.3607731915321653 0.0070303629680407266 -0.1105349243440454 -0.11669679939586015 0.44320107544060927 -0.11346154613200708 -0.12005795845570838 -0.11222632485122815 -0.13034095608095839
leaf_weight=3.102296754717826 3.4870025739073753 301.92353895679116 791.5921223461628 260.22219467908144 355.95340554788709 778.82072649523616 2798.3368739821017 78.738893263041973 201.73135650902987 45.167861372232437 73353.035435285419 334.40626919269562 89.884634759277105 567.74630516394973 186.46396007016301 38.177360482513905 8.2107863649725896 160.95729353651404 314.89419806748629 502.43666072189808 323.00416282564402 1617.0730604231358 19.234845884144306 143.22700959444046 2.4588327407836905 1545.7581537403166 1101.363458879292 189.04835283383727 354.8348975032568 103.69694498181343 259.27393227443099 57.569650799036026 31.894320540130138 221.12013418227434 15.577478829771279 28.218093954026699 39.420149087905884 2.6797884106636038 94.311119668185711 111.11760032922029 212.03837555646896 340.69473714753985 2.1137906685471561 10.25661665201187 113.14817079156637 240.05289711430669 18.308833718299866 20.86272232234478 84.500381954014301 7.2373855113983145 2.2037487775087357 3.7249620705842963
leaf_count=19 23 634 524 583 2072 1020 12542 412 655 239 195571 1869 697 3388 1470 67 29 532 2317 1052 1913 4299 105 133 1 10333 7997 784 3880 727 2023 183 214 1692 24 21 198 2 742 181 265 2591 8 22 603 2860 171 30 825 55 26 21
internal_value=0 0.101623 0.155056 0.155886 0.110068 0.163607 0.190129 0.163779 0.137155 0.159749 0.160919 0.158442 0.181569 0.00236829 0.125794 0.00889524 0.046824 0.0716009 0.00932154 0.301966 0.0238737 0.209127 0.2118 0.18348 0.0302556 0.0544639 -0.0306629 0.260326 -0.0747941 0.123333 -0.0501573 0.00749976 0.180093 -0.0598304 -0.101307 0.343309 -0.0889589 -0.0827721 0.0019713 0.352433 0.330543 -0.0901474 -0.0988523 0.196612 -0.0485996 -0.104916 -0.0335034 0.496567 -0.118969 -0.110814 -0.120712 -0.127645
internal_weight=0 6270.57 82220.7 81934.8 6371.91 4256.12 3577.16 2938.04 2558.59 75562.9 74981.5 73687.4 1898.84 2115.8 446.686 581.407 3332.53 2654.39 659.743 1294.03 678.958 1695.81 604.518 188.395 2049.87 1706.72 1669.11 490.972 393.012 305.428 678.147 318.795 89.464 229.331 359.352 379.449 354.314 285.955 113.546 372.237 323.156 343.154 270.393 15.5627 203.033 267.713 20.4226 49.0808 343.774 247.29 5.30605 7.21196
internal_count=268644 31161 237483 234320 30985 17547 13562 10449 9908 203335 199016 197440 6011 13438 2053 4319 20712 15722 3897 1576 3985 4711 2265 372 13457 10865 11385 1418 3947 1382 4990 2118 397 1721 2872 541 2515 3163 847 497 446 2592 3096 67 1300 3094 179 51 2848 2915 45 44
is_linear=0
shrinkage=0.1


Tree=5
num_leaves=58
num_cat=0
split_feature=71 99 127 74 128 0 5 110 53 134 30 130 100 78 128 92 7 99 96 29 70 53 30 106 129 135 99 5 97 27 53 16 33 73 31 131 42 129 25 0 71 1 106 29 30 80 99 6 31 108 25 125 124 92 129 105 34
split_gain=1499.11 1910.56 1213.76 1125.01 2550.56 2644.35 2390.75 1223.51 1150.75 1070.41 1062.87 942.411 851.392 693.561 1295.68 1196.26 601.048 644.731 600 592.154 534.308 533.378 364.361 404.248 342.034 382.582 329.505 451.772 322.538 299.337 257.227 241.168 229.412 220.488 209.58 184.438 184.316 178.978 265.651 165.254 173.205 96.0469 91.9586 111.869 88.4108 68.2443 49.0469 49.682 42.6853 19.8872 13.5499 0.70719 0.399363 0.202101 0.165719 0.0268537 0.00436554
threshold=-0.49085958302021021 -0.89379954338073719 -1.0551633238792417 -0.97409644722938526 1.0000000180025095e-35 0.3797051757574082 0.59074994921684276 -1.2050197124481199 1.0665726065635683 1.0000000180025095e-35 1.091563940048218 1.0000000180025095e-35 -0.87117591500282276 -1.3255293965339658 1.0000000180025095e-35 -1.1558805704116819 0.65240874886512767 -0.90577635169029225 -0.9582557976245879 1.1086688041687014 -0.4396709650754928 1.0733915567398074 1.0981145501136782 -0.91442149877548207 1.0000000180025095e-35 1.0000000180025095e-35 -0.86091962456703175 0.61223128437995922 -0.98922792077064503 1.2788348197937014 0.97985392808914196 1.546594560146332 0.94010892510414135 -0.84790921211242665 0.99974215030670177 1.0000000180025095e-35 1.0089163780212405 1.0000000180025095e-35 1.2868868708610537 0.45856101810932165 -0.45308543741703028 0.37255838513374334 -0.89528024196624745 1.1730154752731325 1.0578125119209292 -1.4783603549003599 -1.012747526168823 0.94993487000465404 1.0000000180025095e-35 -0.62418222427368153 1.4329398870468142 -0.40137767791748041 -0.87082159519195546 -1.070273697376251 1.0000000180025095e-35 -0.94928294420242298 0.73464414477348339
decision_type=2 2 2 2 2 2 2 2 2 2 2 2 2 2 2 2 2 2 2 2 2 2 2 2 2 2 2 2 2 2 2 2 2 2 2 2 2 2 2 2 2 2 2 2 2 2 2 2 2 2 2 2 2 2 2 2 2
left_child=2 16 10 8 5 7 21 -5 26 -7 11 13 30 14 -1 -15 28 24 -8 33 22 -6 34 -24 25 -18 27 -3 -2 -14 -13 51 -28 -10 -12 -21 -26 45 -39 44 -41 48 43 -22 -19 -30 52 -48 49 -33 -44 53 -43 54 -4 -53 -57
right_child=1 3 31 4 6 9 18 -9 19 -11 20 12 29 15 -16 -17 17 39 -20 35 42 -23 23 -25 36 -27 32 -29 37 -31 -32 41 -34 -35 -36 -37 -38 38 -40 40 -42 46 50 -45 -46 -47 47 -49 -50 -51 -52 55 -54 -55 -56 56 -58
leaf_value=0.12929212176789553 0.30384761130745502 0.12195777960163162 -0.11282137941392355 -0.080333932716138645 0.024225714640234392 0.09307626295793367 -0.10621197532549771 0.13570302996975733 0.30212897459765697 0.014210273823580389 0.11670279836247975 0.1259760038901547 0.1811079044754228 0.0062096080655191874 0.26146076266624679 0.1483049509251633 -0.05223548340430359 0.30118931321183412 0.20242586148442371 0.06888307196925357 0.12577020078332327 -0.081467882563651006 0.10089276284300304 -0.0099635484939896261 -0.129815306224597 0.23493615323052333 0.25371291587185318 0.21055431458521393 0.17678566743660329 -0.024060526008377013 -0.0021559608991997162 0.18051040858469458 0.018061652245749207 -0.010410771323765321 0.19053976813526255 0.35119522878646892 0.17984043115045123 -0.044036744229414657 0.21125251005965751 0.13161753481248775 -0.087367620291218251 -0.13682830754217498 -0.12836536745125493 -0.014254480735330245 0.12781362182528208 -0.081255781442875305 -0.022007862555192242 0.14200007586318483 0.28739991998174247 -0.11261577634668468 -0.025249512851349649 -0.11592693091184676 -0.10815963960070692 -0.13863491567314343 -0.12548751418084897 -0.10502693150853322 -0.11211737614481265
leaf_weight=1464.7984563857317 26.333994306623936 988.60124119371176 35.656389646232128 264.34110202640295 818.32199768722057 6394.9407134652138 69.51651306450367 31627.490664545447 23.625500433146954 2354.6088126003742 1873.5278178341687 189.67358173057437 661.43323647975922 602.70955965295434 1502.5726651549339 34870.123421907425 570.96065326780081 84.817737132310867 670.62415347993374 33.898909389972687 70.416805636137724 1146.2640069499612 1207.1339084804058 452.16322226449847 22.399811305105686 50.494685590267181 914.21905720233917 1377.5466700866818 10.418401673436163 79.677550356835127 900.57246242836118 4.5907915830612165 43.267138108611107 506.29816084727645 483.65430154651403 72.924282133579254 135.50616219639778 135.91000667214394 58.22304829955101 460.46584137529135 39.192984499037266 7.2738004811108139 61.931531630456448 300.71015932038426 45.025988854467869 630.86226977407932 40.643154460936785 33.855604030191898 22.757000684738159 4.668017603456974 16.044930562376976 2.3075720034539691 14.63678442686796 4.4900793544948092 14.542565450072287 164.52734237536788 0.87295070290565391
leaf_count=3987 36 2880 414 3145 5023 23518 405 88945 64 11430 4721 1004 1646 2817 1073 69887 4279 107 1410 131 223 9291 3514 2313 135 22 992 2337 18 397 5814 7 176 2617 1018 54 239 531 110 1402 234 50 398 1344 144 3834 177 79 17 68 84 25 266 26 100 3655 11
internal_value=0 0.114654 0.139851 0.118955 0.114294 0.120552 0.0202641 0.133912 0.169973 0.0718525 0.141304 0.146437 0.0763513 0.149776 0.196218 0.145891 0.0250503 0.0652885 0.173438 0.0468204 0.0950161 -0.0374426 0.106583 0.0706841 0.0044912 -0.0289021 0.193567 0.173538 -0.0407348 0.15905 0.0201356 -0.0454286 0.243064 0.00352314 0.131853 0.261607 0.135914 -0.0515968 0.0325279 0.140559 0.11444 0.0636792 -0.00842817 0.0123135 0.241068 -0.0770636 0.0138437 0.0525248 0.213749 0.0327249 -0.107148 -0.108434 -0.117677 -0.118309 -0.116491 -0.105214 -0.105064
internal_weight=0 49577.1 45088 47306.5 43346.1 40641.4 2704.73 31891.8 3960.38 8749.55 44737.1 40271.6 1831.36 38440.2 2967.37 35472.8 2270.61 1408.86 740.141 636.747 4465.58 1964.59 4016.48 1659.3 779.361 621.455 3323.63 2366.15 861.748 741.111 1090.25 350.822 957.486 529.924 2357.18 106.823 157.906 835.414 194.133 629.503 499.659 128.425 449.103 371.127 129.844 641.281 96.4093 74.4988 32.0158 9.25881 77.9765 222.397 21.9106 54.689 50.199 167.708 165.4
internal_count=268644 163509 105135 152418 143167 127038 16129 92090 9251 34948 100240 86625 8861 77764 5060 72704 11091 6562 1815 2866 13615 14314 11566 5827 4675 4301 6385 5217 4529 2043 6818 4895 1168 2681 5739 185 374 4493 641 1887 1636 664 2049 1567 251 3852 572 256 92 75 482 4231 316 540 514 3691 3666
is_linear=0
shrinkage=0.1


Tree=6
num_leaves=58
num_cat=0
split_feature=135 99 6 101 74 117 130 117 107 30 27 125 29 75 4 136 108 1 48 28 4 80 112 70 52 106 22 35 116 125 115 80 2 21 110 100 117 123 103 114 59 107 8 110 112 39 35 106 30 127 107 114 129 111 106 52 36
split_gain=1420.46 1127.75 1161.63 1728.77 1406.83 1829.11 1018.7 662.029 646.52 722.476 576.569 560.714 468.565 425.163 649.405 405.698 367.833 342.683 326.757 274.949 265.02 258.983 258.277 234.008 257.354 231.111 181.585 180.518 171.141 160.773 150.47 147.798 146.907 113.641 99.1647 98.5013 164.015 144.888 64.8504 51.9208 51.0538 49.8164 45.0197 36.0057 27.4948 22.0078 6.90989 6.00427 39.9973 2.79032 1.87171 0.365537 0.221976 0.221201 0.101404 0.0590227 0.00498357
threshold=1.0000000180025095e-35 -0.99056196212768544 0.74212297797203075 -0.9146311581134795 -0.98780637979507435 -1.0548813939094541 1.0000000180025095e-35 -1.0930202007293699 -0.96423611044883717 1.0605205297470095 1.4388483166694643 -1.1635665297508238 1.2415221929550173 -1.0697242021560667 0.67188572883605968 1.0000000180025095e-35 -0.92783740162849415 0.65380460023880016 1.1726831793785097 1.2359187006950381 0.77532663941383373 -1.2773915529251096 -1.0364438295364378 -0.21463894098997113 1.0696937441825869 -0.96163064241409291 1.3876898884773257 0.86471441388130199 -0.9581165313720702 -2.2858194112777706 -0.94905859231948841 -0.92391487956047047 0.49780103564262396 1.739949703216553 -0.90505689382553089 -0.97887277603149403 -0.9215174913406371 -1.0444659590721128 -0.91979321837425221 -1.1798746585845945 0.77469050884246837 -0.88961502909660328 0.913425773382187 -0.89008891582489003 -1.0416416525840757 1.0037761330604555 0.92165669798851024 -0.91708350181579579 1.0096511840820315 -1.0551633238792417 -0.9803127348423003 -0.85622742772102345 1.0000000180025095e-35 -1.0148155093193052 -0.90861102938652027 1.1041368842124941 0.92328423261642467
decision_type=2 2 2 2 2 2 2 2 2 2 2 2 2 2 2 2 2 2 2 2 2 2 2 2 2 2 2 2 2 2 2 2 2 2 2 2 2 2 2 2 2 2 2 2 2 2 2 2 2 2 2 2 2 2 2 2 2
left_child=1 26 3 7 6 -6 -5 29 18 17 15 -9 13 14 -11 19 -15 21 23 -4 42 43 38 24 25 -2 40 -23 -24 -3 53 -26 39 -17 -22 36 -34 -37 -12 44 49 -32 -14 -10 -28 -25 -47 50 54 51 55 -1 -51 -19 -49 -20 -52
right_child=8 2 10 4 5 -7 -8 11 9 12 22 -13 20 16 -16 33 -18 30 47 -21 34 27 28 45 31 -27 32 -29 -30 -31 41 -33 35 -35 -36 37 -38 -39 -40 -41 -42 -43 -44 -45 -46 46 -48 48 -50 52 56 -53 -54 -55 -56 -57 -58
leaf_value=-0.12753428223545255 -0.040479968697127541 0.46527852789241186 0.20574708293877753 0.14385612055680891 0.11049954764830355 0.074026736564786366 0.047049190625773174 -0.013226032876822261 -0.17500023674420151 0.060135631303691643 -0.15211008744389956 0.1920791781421706 -0.12136860213921813 0.1222052019853398 0.127049034347125 -0.11957308831240634 0.16915539859350848 -0.1566510772827524 -0.13718095867508101 0.14904717074877602 0.17962754845917062 0.18875590964139566 0.11685739525998202 0.34717971753225685 -0.14611884901654915 0.12003441764400778 -0.13389398737125918 0.12988623891677328 -0.06597340690980133 0.12276044926105106 0.14971970773267773 0.022700720679996761 0.086961717489336635 0.57808134613506057 -0.13507834592384885 -0.12544200575028511 -0.10018845696663799 0.21771380594064862 0.24169304763698635 0.33535113419169149 0.2183464599555717 -0.03304926463375378 0.0074381566769679344 0.094404609587393204 0.22163850551433734 0.16878713176489379 0.25360257546722526 -0.15045657625165609 0.16472267514926794 -0.10572713545688753 -0.15359825766567248 -0.14714490940631519 -0.11881959559437 -0.17470350723282507 -0.16792378268473468 -0.1187017927294344 -0.15081982017174622
leaf_weight=60.012352760881186 106.81558408215642 14.159319922327994 1473.0070122741163 10933.602042429149 36701.664518956095 21987.298883423209 1207.0043699592352 2111.3612384721637 23.249213203787807 1808.7199141606688 69.203923687338829 141.97268386185169 118.23539475351572 3163.5389768481255 7321.4334194138646 56.867396112531424 3531.4361295476556 8.9800201803445798 1.7889054864644993 2039.2324287630618 67.771307773888111 3349.6830757930875 251.50801578909159 20.683796778321266 70.489361546933651 559.80445978045464 4.538910888135435 616.79326437413692 64.284192077815533 426.14808128774166 40.980736590921879 196.21181575581431 67.765654899179935 2.4347998276352874 11.748318202793596 18.231223970651627 151.55806525424123 37.845913361757994 4.4506497085094443 17.453212585300207 4.7110324352979651 23.444734700024128 35.216937005519867 6.3065910637378684 4.1767826080322266 15.824016153812407 24.442948140203953 8.2733487486839294 5.3410277068614951 146.92030809819698 12.266882047057154 11.293628111481665 14.201577443629501 27.801335506141186 5.5552652850747117 51.137891862541437 13.627160131931303
leaf_count=400 558 7 2086 21767 101084 80819 6493 10250 95 3498 311 372 924 5402 12580 499 3422 39 11 4012 156 2353 520 13 350 1184 40 888 324 881 42 796 279 10 63 128 1519 74 7 13 12 68 154 10 1 41 10 38 8 3182 54 54 116 116 25 425 61
internal_value=0 0.102094 0.103097 0.100255 0.103245 0.0968353 0.134232 0.021624 0.131259 0.13532 0.155849 -0.000290652 0.125756 0.127829 0.113793 0.168447 0.14697 0.172802 0.0563272 0.172827 -0.0150296 0.177404 0.04031 0.0734979 0.0611003 0.0943145 -0.0420923 0.179602 0.0796395 0.133775 -0.00892161 -0.0219184 0.0093916 -0.0909291 0.133133 -0.0121232 -0.0423636 0.106151 -0.128314 0.235813 -0.107564 0.0832092 -0.0918078 -0.117515 0.0364863 0.263338 0.220272 -0.117898 -0.0677035 -0.11417 -0.130105 -0.13064 -0.106881 -0.170296 -0.157474 -0.119326 -0.152136
internal_weight=0 78022.9 77484.2 73523.2 70829.6 58689 12140.6 2693.64 21247.6 20155.3 3960.99 2253.33 16058.1 15825.1 9130.15 3571.54 6694.98 4097.24 1092.26 3512.24 232.972 3996.03 389.447 994.272 933.321 666.62 538.709 3966.48 315.792 440.307 101.207 266.701 301.57 59.3022 79.5196 275.401 219.324 56.0771 73.6546 26.1689 237.139 64.4255 153.452 29.5558 8.71569 60.9508 40.267 97.9905 19.1696 232.428 78.8208 71.306 161.122 36.7814 13.8286 52.9268 25.894
internal_count=268644 235260 229442 221673 210163 181903 28260 11510 33384 29810 7769 10622 26199 24902 16078 6607 8824 3611 3574 6098 1297 3346 1162 2952 2888 1742 5818 3241 844 888 265 1146 2054 509 219 2000 1798 202 318 54 3764 110 1078 105 41 64 51 622 71 3752 551 454 3298 155 63 436 115
is_linear=0
shrinkage=0.1


Tree=7
num_leaves=60
num_cat=0
split_feature=135 6 122 117 70 42 129 101 72 111 128 109 30 108 30 55 47 71 50 72 84 107 47 106 92 125 56 67 89 30 105 113 126 52 117 71 48 113 111 107 75 31 1 123 91 108 111 127 106 63 52 60 127 110 120 107 107 70 121
split_gain=1258.07 933.544 2007.49 1506.85 988.864 1893.07 1743.84 2082.25 988.749 952.844 713.686 508.267 496.596 424.844 412.235 396.935 373.031 370.786 365.022 307.045 416.103 300.26 224.001 214.775 196.487 180.923 177.921 168.521 137.711 205.465 127.171 124.894 124.403 117.609 154.902 114.09 159.032 96.8274 82.2525 77.5978 77.1151 63.8753 60.0573 55.8345 55.5 27.2242 26.7524 17.8519 8.75738 8.48718 6.54344 41.1726 3.64344 2.47433 1.18105 0.912102 0.897282 0.00856107 0.00673178
threshold=1.0000000180025095e-35 0.05266458913683892 -2.0233074426650997 -1.5776683688163755 -0.25872486829757685 1.0677235722541811 1.0000000180025095e-35 -0.80241668224334706 -0.62699535489082325 -1.2451744079589842 1.0000000180025095e-35 -1.0764325261116026 1.0981145501136782 -0.87996616959571827 1.0605205297470095 1.0438038110733034 1.2357332706451418 -0.65615075826644886 1.1840006709098818 -0.27343900501728052 -0.13817702233791349 -0.95397549867629994 1.1865472793579104 -0.91442149877548207 -1.1287826895713804 -2.7757420539855953 1.021426856517792 -0.10238409042358397 -1.2159616351127622 1.0194387435913088 -0.95957010984420765 -1.3627086877822874 -2.9038145542144771 1.1938022375106814 -1.5568314194679258 -0.35104528069496149 1.1715944409370425 -1.3148451447486875 -1.2339152693748472 -0.87035655975341786 -1.0505703091621397 0.99693417549133312 -0.16527667641639707 -1.7653035521507261 -1.184059679508209 -1.0242825746536253 -1.1962301731109617 -3.2639112472534175 -0.85337722301483143 0.52415075898170482 1.0609509348869326 0.68739205598831188 -3.2036651372909541 -1.2050197124481199 -1.7586003541946409 -0.9803127348423003 -0.9803127348423003 -0.4396709650754928 -1.4906932711601255
decision_type=2 2 2 2 2 2 2 2 2 2 2 2 2 2 2 2 2 2 2 2 2 2 2 2 2 2 2 2 2 2 2 2 2 2 2 2 2 2 2 2 2 2 2 2 2 2 2 2 2 2 2 2 2 2 2 2 2 2 2
left_child=1 3 9 16 5 8 7 -6 -4 22 -7 35 13 14 21 -8 32 -16 38 33 25 -13 31 27 44 -21 -24 30 39 -30 -14 -3 53 42 -35 41 46 -20 -11 -15 -26 50 -5 -43 -25 56 49 48 -18 -37 51 -2 -49 -1 -22 -52 -38 -29 -45
right_child=11 2 4 19 6 10 15 -9 -10 18 -12 12 23 28 17 -17 47 -19 37 20 54 -23 26 24 40 -27 -28 57 29 -31 -32 -33 -34 34 -36 36 45 -39 -40 -41 -42 43 -44 58 -46 -47 -48 52 -50 -51 55 -53 -54 -55 -56 -57 -58 -59 -60
leaf_value=-0.11204442834511077 -0.12341897213901437 -0.14266564222468892 0.096749150992135269 -0.120776220641652 -0.029465645436291894 0.16269360515863995 0.11826933940598056 0.067530720279906878 0.064503908784392341 0.22203981593846028 -0.10502903399290382 0.084150771773008587 -0.13641322678238108 0.1602709701078493 0.083434327422662019 0.041556252256717163 0.15086187601267659 0.12196564089189432 -0.14314212479285673 0.25016219469887835 -0.13967555469997955 0.15938136747563716 -0.14110821989812611 0.29964821260504415 -0.058551076897970469 -0.071615349545475715 0.26996782154034288 -0.13902144534680655 0.12399516441918511 -0.07559099069524064 0.10549584382935873 0.21321466107417875 0.21476041352564371 0.24787305100200033 -0.087989898987571036 0.21480425507230755 -0.11637289724299196 0.2302857730447736 0.27577455198337603 -0.075128596517158308 0.23796375436594672 0.18092077305748405 0.26179792577223526 -0.1350616925846336 0.085363739683062809 0.10851936046368399 0.27923659254073058 0.24172969101745059 0.23065751472533244 0.044846083501422364 -0.12376952963049044 0.20964027609745731 0.26971914106359757 -0.1616409039756608 -0.11486422462688473 -0.15439694656730912 -0.15522706884808676 -0.13556528081632643 -0.12961384681049545
leaf_weight=22.973831370472904 24.508809171617035 12.338239662349222 39500.930857002735 580.09580306336284 2699.8151734173298 4393.4021908864379 6370.1831105202436 12279.230385966599 12524.602841522545 515.96720962226391 101.88096123933792 616.31364332139492 22.667195819318295 76.390036389231682 3108.9215494468808 754.3735983222723 26.162663035094738 12697.651370570064 30.397897928953171 78.163375616073608 44.843256153166294 3811.4688131809235 97.660298272967339 18.385336995124817 283.54508489370346 22.504599988460541 11.801173210144041 22.193639025092125 69.660789020359516 198.71604207158089 526.27693631500006 49.12129670381546 13.666759833693503 20.99372586607933 39.698909766972065 4.3894128166139117 19.392724826931953 8.9992397725582105 635.99966791272163 17.146854564547539 9.0509212687611562 15.083427123725416 4.1325459592044345 4.8808436840772629 35.281204469501972 5.8750280886888495 23.053701251745224 82.693345502018929 28.997359275817871 8.886893302202223 84.819643538445234 4.374041110277175 106.28045196086168 17.893819868564609 33.530656069517136 10.982499882578848 8.5703878998756426 10.585395514965056 4.2373425886034948
leaf_count=258 183 78 106095 4853 15921 8061 11265 45532 37507 322 732 1433 141 83 6746 2452 34 16967 149 50 223 2958 643 6 1499 100 3 110 76 629 1276 36 17 16 243 4 194 11 211 55 17 23 4 27 100 8 10 32 7 45 624 3 28 77 300 49 38 55 25
internal_value=0 0.0881672 0.0894381 -0.00238993 0.0873528 0.094366 0.0694194 0.0500481 0.0889864 0.209793 0.156626 0.115254 0.116797 0.120021 0.121942 0.110147 0.190041 0.114387 0.24147 -0.072142 0.0437153 0.14891 -0.0110086 0.0452381 -0.0171177 0.178228 -0.0967896 0.0823545 0.012631 -0.0237857 0.0955068 0.14177 -0.0464181 -0.104306 0.0281859 -0.036301 0.068824 -0.0578423 0.251707 0.117118 -0.0493789 -0.0858449 -0.11807 0.0628252 0.158774 -0.0871676 0.214116 0.242862 0.19281 0.101038 -0.114702 -0.0729802 0.257471 -0.13376 -0.129061 -0.127281 -0.128281 -0.137905 -0.13253
internal_weight=0 81109.3 79986.7 1122.63 78624.4 56520.8 22103.6 14979 52025.5 1362.29 4495.28 21743.3 21524.3 20596.3 20234.4 7124.56 298.668 15806.6 1191.36 823.963 179.042 4427.78 170.921 927.986 346.263 100.668 109.461 581.723 361.914 268.377 548.944 61.4595 54.5344 644.921 60.6926 219.055 70.1681 39.3971 1151.97 93.5369 292.596 148.887 584.228 24.2016 53.6665 33.8381 36.33 244.134 55.16 13.2763 124.685 28.8829 188.974 40.8677 78.3739 95.8021 27.9631 32.779 9.11819
internal_count=268644 235260 229018 6242 227565 152395 75170 61453 143602 1453 8793 33384 32151 28947 28104 13717 453 23713 693 5789 673 4391 760 3204 1622 150 646 1582 843 705 1417 114 352 5116 259 1233 299 160 533 138 1516 934 4857 75 106 240 59 101 41 49 859 186 60 335 523 673 232 165 52
is_linear=0
shrinkage=0.1


Tree=8
num_leaves=61
num_cat=0
split_feature=135 31 131 31 75 128 53 31 101 70 131 130 30 91 39 70 56 30 107 30 105 84 30 72 0 74 5 105 56 39 29 110 118 35 129 98 2 64 48 106 68 70 115 123 35 73 71 57 82 68 30 0 106 44 61 107 73 109 107 53
split_gain=1128.54 932.113 948.16 1442.87 1353.96 2177.78 1960.37 1015.67 919.799 2073.54 1007.25 879.552 702.266 689.721 668.936 543.93 519.395 545.966 436.915 504.111 430.597 503.346 422.38 391.275 826.063 543.683 397.843 361.186 361.136 370.579 358.655 352.573 312.514 288.335 287.039 248.825 240.946 231.227 230.617 216.445 196.932 149.118 195.612 230.177 140.816 129.664 111.388 110.86 105.479 35.1111 24.9889 9.71784 6.68223 30.5908 4.06092 1.51316 0.194042 0.0417747 0.0407674 0.0401739
threshold=1.0000000180025095e-35 1.006445109844208 1.0000000180025095e-35 1.0007049441337588 -1.1283131837844846 1.0000000180025095e-35 1.0565096735954287 0.9987463951110841 -0.88474267721176136 -0.33685706555843348 1.0000000180025095e-35 1.0000000180025095e-35 1.029525935649872 -1.1754301786422727 0.96565252542495739 -0.29812942445278162 0.98041898012161266 1.0602989196777346 -0.96423611044883717 1.0582523941993716 -0.82318326830863942 -1.1984454989433286 1.0365998148918154 -0.7754470407962798 0.57076257467269909 -0.98948651552200306 0.76297491788864147 -0.80965653061866749 0.89044371247291576 0.92007413506507885 1.2415221929550173 -0.89238768815994252 -0.91723930835723866 0.88186028599739086 1.0000000180025095e-35 -0.90656808018684376 0.70249253511428844 0.30040653049945837 1.1726831793785097 -0.87834259867668141 1.0000000180025095e-35 -0.21463894098997113 -1.2721340060234068 -1.6757238507270811 0.86471441388130199 -0.88641554117202748 -0.45228408277034754 0.85020360350608837 -1.287048816680908 0.04328324273228646 1.056069076061249 0.087922830134630217 -0.91708350181579579 1.1585650444030764 0.67760103940963756 -0.9803127348423003 -0.9038410186767577 -1.0764325261116026 -0.97212567925453175 1.0755436420440676
decision_type=2 2 2 2 2 2 2 2 2 2 2 2 2 2 2 2 2 2 2 2 2 2 2 2 2 2 2 2 2 2 2 2 2 2 2 2 2 2 2 2 2 2 2 2 2 2 2 2 2 2 2 2 2 2 2 2 2 2 2 2
left_child=1 2 4 16 11 7 -7 -6 28 10 33 12 -1 -13 35 -16 17 -4 38 36 21 -5 -18 26 25 -25 32 -22 29 39 -28 -12 -21 -10 40 -11 44 -31 41 -3 -30 42 49 -44 48 -26 -46 -36 -20 -2 56 54 55 -54 -43 59 -38 -57 -55 -40
right_child=18 8 3 20 5 6 -8 -9 9 14 31 13 -14 -15 15 -17 22 -19 19 23 27 -23 -24 24 45 -27 30 -29 34 37 -32 -33 -34 -35 47 -37 50 -39 52 -41 -42 51 43 -45 46 -47 -48 -49 -50 -51 -52 -53 53 58 -56 57 -58 -59 -60 -61
leaf_value=-0.06317082816248494 -0.11266663278901862 -0.02285876249118762 -0.095972876174360802 0.038846554098515132 0.090720213075657044 0.084276333369852921 -0.054791710568011548 0.060613544515938006 -0.0064233162034931304 -0.011374380995401853 0.20138627661378289 -0.010953728186821544 0.1460877297323091 0.17239986557241255 0.10663408084516744 0.0094764011991667133 -0.062136205646764524 0.01731653251346468 -0.082302893170125388 0.06295010280510123 0.18498883747336334 0.17668167039369143 0.21569079596927501 0.046973218706893638 0.12937361006741641 0.10624167635535212 0.12250163021678198 -0.10367977877985374 -0.080083556735906503 0.25384402317792942 -0.012552826868047052 -0.10466989851475382 -0.051865890177645105 0.12199197922015603 -0.15111803301747095 -0.11049253242490031 -0.17929828120042043 -0.042420863637608858 -0.13131601207297702 0.10122813903961148 0.35222795914953409 0.19273408882456494 0.14478530990185967 0.028842457504270683 0.0068052361879172591 0.16794501993198827 0.11721635799466386 0.072741643050720214 0.15076212666685307 0.043392827707953024 0.042457939012068603 0.22396020946163941 0.131406889870085 -0.14040050179136906 0.10371280186773768 -0.13833619737933597 -0.16210485643266836 -0.14871726749178327 -0.15179641876713162 -0.11547824787965061
leaf_weight=165.02860678732395 84.651773124933243 593.61579715833068 989.09138606488705 1507.3282381743193 45595.257230820134 1846.9568314738572 2246.6083722747862 14856.466891843826 419.44337256252766 713.42025500535965 1352.1145387142897 741.5445069745183 5686.6586346924305 283.63300314173102 943.29978790134192 1480.7386544942856 87.50903794914484 746.40520902723074 19.538620069622993 2976.1024999991059 537.04498796910048 321.4379596337676 146.0474221855402 2073.3225118890405 1684.792908295989 6105.5707352459431 1969.5756911486387 47.149705484509468 916.00716453045607 108.16184362024069 218.44257725030184 38.717560097575188 257.58146292716265 299.84120266139507 24.747255608439445 392.67772841453552 11.083323940634729 34.82588417828083 1.6619670838117588 184.18699987977743 10.659739434719084 8.9777697958052176 234.99771869927645 630.98575988411903 112.63967354595661 1805.5653278976679 483.93372125923634 208.53459195792675 3151.9663788303733 17.375870399177074 7.0252843201160422 46.627609372138977 5.7769669853150871 5.8975581750273713 11.938663329929112 4.8062583506107357 16.097878739237785 20.036610960960388 6.7116865366697285 44.099138520658016
leaf_count=2242 567 2682 7086 4661 108248 4691 14994 46921 1710 2927 1546 4777 7222 919 2932 7120 398 2884 66 6369 876 726 248 3820 1924 8064 3262 246 4745 96 1174 164 860 739 113 2206 46 164 12 464 26 7 424 1832 251 1145 581 487 2166 65 13 21 10 31 36 24 69 91 30 424
internal_value=0 0.0768939 0.0802653 0.0351136 0.0830355 0.0785413 0.00795376 0.0833213 0.0437933 0.064757 0.143181 0.125217 0.140186 0.0397742 0.0178796 0.0472847 -0.0284082 -0.0472492 0.102343 0.105611 0.0869494 0.0630735 0.111594 0.0982848 0.108598 0.0912173 0.0760869 0.161691 -0.0130331 0.0337259 0.109018 0.192866 0.0538044 0.0471079 -0.0501514 -0.0465625 0.138544 0.181686 0.041624 0.00652554 -0.0751105 0.0548992 0.0448755 0.0603053 0.140942 0.149327 0.0963695 0.0489939 0.149326 -0.0860888 -0.125663 0.198556 -0.112856 -0.0591583 0.141923 -0.12684 -0.169116 -0.146709 -0.146466 -0.116053
internal_weight=0 83525.2 75804.2 4382.01 71422.2 64545.3 4093.57 60451.7 7720.99 5640.25 2110.12 6876.86 5851.69 1025.18 3530.14 2424.04 1969.05 1735.5 22017.8 20893.2 2412.96 1828.77 233.556 17091 11669.3 8178.89 5421.7 584.195 2080.74 920.791 2188.02 1390.83 3233.68 719.285 1159.95 1106.1 3802.28 142.988 1124.55 777.803 926.667 1035.56 968.011 865.983 3768.08 3490.36 596.573 233.282 3171.5 102.028 34.2065 67.544 88.9902 18.3862 20.9164 70.604 27.1812 24.8429 12.6092 45.7611
internal_count=268644 235260 207139 17125 190014 174854 19685 155169 28121 19344 4159 15160 9464 5696 15185 10052 10616 9970 33384 29810 6509 5387 646 26618 14953 11884 11665 1122 8777 3406 4436 1710 7229 2449 5371 5133 3192 260 3574 3146 4771 2952 2888 2256 3064 3069 832 600 2232 632 128 64 622 71 43 551 115 115 61 436
is_linear=0
shrinkage=0.1


Tree=9
num_leaves=63
num_cat=0
split_feature=135 106 133 29 70 101 134 76 70 99 103 133 75 127 30 107 75 94 47 32 30 127 117 117 27 31 80 31 43 70 51 3 28 74 28 5 109 68 109 99 93 4 28 74 45 118 127 105 107 118 127 107 72 102 32 106 31 127 127 107 77 30
split_gain=1009.72 749.224 1795.31 938.382 1502.78 1675.57 1616.36 1068.81 817.748 701.129 666.461 623.306 551.124 442.521 398.026 401.668 404.677 384.448 371.575 361.908 268.33 264.953 707.34 430.599 241.774 261.066 236.327 236.16 197.185 204.496 187.446 165.997 423.002 261.17 135.628 159.076 123.64 117.488 115.543 106.888 105.647 97.433 115.194 91.0721 90.2346 72.3338 108.821 70.3302 69.0633 66.3795 216.243 52.4146 134.047 44.5352 42.7871 79.2179 30.3711 29.998 6.40064 2.19399 0.951702 0.503207
threshold=1.0000000180025095e-35 -0.96802493929862965 1.0000000180025095e-35 1.1495716571807864 -0.34288124740123743 -0.86327463388442982 1.0000000180025095e-35 -1.2133126258850095 -0.36291542649269098 -0.98058259487152089 -0.80363574624061573 1.0000000180025095e-35 -1.1048029065132139 -1.9495723247528074 1.0900948643684389 -0.95397549867629994 -1.0928335785865781 -1.064553380012512 1.1310340166091921 0.88571348786354076 1.0619663596153261 -2.1373572349548335 -1.2845932841300962 -1.2504653334617613 1.4920782446861269 0.9827963411808015 -1.2547801136970518 0.98718592524528515 1.1042564511299136 -0.28495997190475458 1.0817438960075381 0.72030079364776622 1.3444592952728274 -1.0289323925971983 1.3772060275077822 0.83211770653724682 -1.1059159636497495 0.029648752883076671 -0.89325350522994984 -0.84013769030570973 -1.0597075223922727 0.68590033054351818 1.2601712346076968 -1.0570293068885801 1.1750046014785769 -1.245255649089813 -2.1068824529647823 -0.91051533818244923 -0.85995072126388539 -1.4198139309883115 -2.389813899993896 -0.89894184470176686 -0.80115771293640126 -0.91388818621635426 0.89881709218025219 -0.97167956829071034 0.99745395779609691 -2.6127392053604122 -2.464768528938293 -0.9803127348423003 -0.62188351154327381 1.0940112471580508
decision_type=2 2 2 2 2 2 2 2 2 2 2 2 2 2 2 2 2 2 2 2 2 2 2 2 2 2 2 2 2 2 2 2 2 2 2 2 2 2 2 2 2 2 2 2 2 2 2 2 2 2 2 2 2 2 2 2 2 2 2 2 2 2
left_child=1 2 19 4 9 6 -6 -7 11 40 -11 12 -5 -13 15 28 17 27 21 36 -19 22 -4 -23 25 -18 41 -17 29 30 -2 32 33 -28 43 -36 60 59 -26 -38 -3 42 -16 -33 -39 46 -10 -31 -47 57 -51 56 -53 -34 55 -21 -43 -20 -56 -30 -1 -44
right_child=14 3 18 8 5 7 -8 -9 45 10 -12 13 -14 -15 26 16 24 20 49 54 -22 23 -24 -25 38 -27 31 -29 37 47 -32 34 53 -35 35 -37 39 44 -40 -41 -42 51 61 -45 -46 48 -48 -49 -50 50 -52 52 -54 -55 58 -57 -58 -59 -60 -61 -62 -63
leaf_value=-0.16203084604446327 0.070925058757417225 -0.088844556413237755 0.11243477679930654 0.0615628238167681 -0.027848073236791417 0.10277872829233421 0.1947404558511785 0.060722363360552728 -0.16051822488518894 0.10387925339070961 -0.086082549419127144 0.026022804979372649 -0.0017644708464492594 0.10701250397797238 0.15480576304639893 0.071876269836442505 0.12258751030278942 0.13451576440603519 0.15950925973909347 -0.15958723223964666 0.030746709192098678 0.20855387303975503 -0.055914759847822786 0.10940434141707121 0.051407144795384413 0.091966692385741552 -0.067358970746352706 0.15058354408849806 -0.12494077023934423 -0.044365985712529116 -0.024023265145152902 -0.050519851086466311 -0.12537322886894253 0.060503004160752216 -0.12171110916098636 0.18917942058772863 -0.030674763093319971 0.063348991034097218 -0.12458819520776293 0.15725699136710464 0.056340051831470506 0.11507604067401167 -0.18517347238934784 0.13283243515608209 -0.088557077406094281 -0.11274939014435466 0.22086244241717115 0.16785805858853442 0.13002270129168145 0.011765910838972195 0.19933114834739868 -0.1581886350335675 0.12548343454475008 0.054404617626510388 -0.14064492189477504 0.045559474769034318 0.21114389105339929 0.24698167059901929 -0.17339665256857373 -0.16026138192792116 -0.12416769587296761 -0.15044055901735287
leaf_weight=16.572294369339946 824.2106824144721 223.45448587834835 1211.8881108760834 2247.9957037977874 3165.9490427654237 6956.5947058536112 363.71484622359276 46001.005124852061 13.313837446272375 13771.060425046831 187.20001016184688 1029.3875006139278 3535.7432510852814 1957.6642988994718 19.271403104066849 768.74526372551918 8655.973650097847 288.79929226636887 48.22596625238657 45.806972555816174 1817.0067320466042 553.16782872378826 314.30483643710613 2104.1923556476831 342.45110411942005 4104.5989300459623 171.6128152385354 756.23927286267281 42.886647012084723 16.89063073694706 278.07110660523176 28.858710572123528 158.61036249250174 2310.9998559877276 51.603961959481239 24.165830835700035 48.65732491761446 115.4054393582046 41.862747520208359 80.060900665819645 64.613586500287056 47.551668219268322 17.449473395943645 442.06774415075779 59.144912030547857 414.18443270772696 17.079018488526344 206.82429740950465 12.059069730341433 74.626807145774364 348.54635991156101 17.455977044999599 364.4412949308753 15.090425409376619 99.523442599922419 31.95386103540659 106.86249533295631 209.61088626086712 149.00887130200863 29.810958370566368 11.07473788410425 5.4815778508782378
leaf_count=73 1721 3145 1939 6831 13983 14751 444 137019 59 26911 1805 2461 12898 3472 14 1359 8307 206 73 220 3681 322 977 3287 882 5300 642 616 328 94 984 117 1017 4924 407 40 160 358 198 87 312 77 71 658 352 2123 7 219 25 212 199 82 480 38 571 79 53 97 635 130 83 29
internal_value=0 0.0676313 0.103871 0.0652078 0.0691205 0.0618006 -0.0049114 0.066247 0.0352146 0.0981446 0.101332 0.0420072 0.0228493 0.0791021 0.0916025 0.0976907 0.102222 0.0726692 0.122123 -0.0800821 0.044978 0.110972 0.0777648 0.130044 0.110384 0.112738 0.062061 0.110907 0.049377 0.0646644 0.0469726 0.0514367 0.041109 0.0516644 0.101617 -0.0225565 0.0450051 -0.0326098 0.0322362 0.0862161 -0.0562797 0.120884 -0.0254134 0.121596 0.0118769 -0.0952532 0.0537955 0.151835 -0.105881 0.190624 0.166254 0.132396 0.112517 -0.109755 -0.140026 -0.0752873 0.18156 0.230621 -0.160281 -0.139425 -0.146864 -0.176871
internal_weight=0 85308.2 5347.22 79961 70733.6 56487.3 3529.66 52957.6 9227.43 14246.3 13958.3 8770.79 5783.74 2987.05 22130.4 18348.9 16775.7 3630.79 4864.56 482.658 2105.81 4183.55 1526.19 2657.36 13144.9 12760.6 3781.52 1524.98 1573.24 1326 1102.28 3203.01 2656.31 2482.61 546.696 75.7698 156.365 247.248 384.314 128.718 288.068 578.514 42.2025 470.926 174.55 456.636 30.3929 223.715 426.244 681.01 423.173 536.311 381.897 173.701 326.293 77.7608 154.414 257.837 248.532 72.6976 27.647 22.9311
internal_count=268644 235260 9014 226246 198370 166197 14427 151770 27876 32173 28716 25662 19729 5933 33384 24735 20549 5862 7106 1908 3887 6525 2916 3609 14687 13607 8649 1975 4186 3018 2705 7843 6621 5566 1222 447 403 1168 1080 247 3457 806 114 775 710 2214 66 313 2148 581 411 692 562 1055 1505 299 130 170 1206 458 156 100
is_linear=0
shrinkage=0.1


Tree=10
num_leaves=57
num_cat=0
split_feature=135 118 0 122 78 118 111 110 30 106 74 127 69 98 30 32 103 80 5 117 23 50 71 32 127 44 71 26 63 29 45 71 114 35 32 0 51 105 125 44 104 108 69 111 56 70 101 39 17 36 127 57 30 105 33 89
split_gain=914.351 752.584 1897.19 1699.41 1405.58 1350.28 634.204 419.009 345.466 343.268 359.195 290.462 301.173 284.363 411.965 281.948 304.158 271.767 259.662 225.433 222.497 215.837 187.772 180.375 168.892 363.672 146.995 134.17 190.046 162.393 133.972 287.591 124.447 113.195 99.5198 90.2854 71.2552 53.3655 52.9804 48.1436 45.5392 40.5317 39.9209 37.2882 33.9304 28.783 19.4088 14.2749 13.6581 28.8185 6.4951 1.61116 1.34067 0.0566731 0.0087843 0.00677543
threshold=1.0000000180025095e-35 -1.623650014400482 -0.23899807035923001 -2.0233074426650997 -0.48051215708255762 -1.5789976716041563 -1.2482161521911619 -1.2050197124481199 1.0931441187858584 -0.92484331130981434 -0.98697265982627858 -3.1384402513504024 0.086651865392923369 -0.95883715152740467 1.0659679770469668 0.90434226393699657 -0.9300783872604369 -0.50361859798431385 -0.083677593618631349 -0.90849667787551869 1.0021649003028872 1.1782173514366152 -0.58177396655082692 0.93761214613914501 -3.1610580682754512 1.1982359290122988 -0.57938072085380543 1.3926953673362734 0.26424016058444982 1.2259690165519717 1.0616820454597475 -0.48300293087959284 -1.2163383960723875 0.85374432802200328 0.90763038396835338 0.61528715491294872 1.1334116458892824 -0.90311792492866505 -1.2649327516555784 1.1657000184059145 -0.84784033894538868 -1.0584489107131956 -0.22479529678821561 -1.2697442173957822 0.84894254803657543 -0.40175653994083399 -0.56314283609390248 1.0345400571823122 1.2946810722351076 0.81845387816429149 -3.1384402513504024 0.66064313054084789 1.094895660877228 -0.79901432991027821 0.82958531379699718 -0.18219283223152158
decision_type=2 2 2 2 2 2 2 2 2 2 2 2 2 2 2 2 2 2 2 2 2 2 2 2 2 2 2 2 2 2 2 2 2 2 2 2 2 2 2 2 2 2 2 2 2 2 2 2 2 2 2 2 2 2 2 2
left_child=1 7 11 6 5 -5 36 33 9 23 13 12 39 19 -15 16 -12 51 -14 -11 -6 -8 27 32 25 43 -17 37 29 -29 42 -32 40 -1 -30 -34 -4 44 -39 -3 -2 -26 -25 -9 -10 48 -19 -27 52 -50 -43 -13 -24 54 -35 -55
right_child=8 2 3 4 20 -7 21 24 22 10 15 17 18 14 -16 26 -18 46 -20 -21 -22 -23 45 30 41 47 -28 28 34 -31 31 -33 35 53 -36 -37 -38 38 -40 -41 -42 50 -44 -45 -46 -47 -48 -49 49 -51 -52 -53 -54 55 -56 -57
leaf_value=0.59478853703311629 -0.12340732074806429 0.067861426611481132 0.066835752661604422 0.21535267594631577 0.25050568832938364 0.058740851697457401 0.19720787395329945 0.10935746044439756 0.20929976885420021 0.093376769877591526 -0.13801076474488788 -0.10333204907609582 -0.12592056506031607 0.10586680540276315 0.02456158218208615 0.0015404697025827305 0.12541492433805693 0.12806099954663766 0.11808021803969414 0.0065678087569881402 -0.11338821276610354 0.026627769761435022 -0.17548481897212032 0.10810424729739032 0.32090050486879723 0.16036418221700155 0.091067483770725821 0.073293243593307411 -0.17124162091783615 0.0038936673090694176 -0.12502797164773122 0.086332939741909295 0.037466451904158503 -0.11797953504502497 -0.006467220787500453 -0.17002577707588681 -0.14593874576837593 -0.18445251228730628 0.12489059804403685 -0.12463768502381456 -0.0081562708016814991 0.20418807604000017 0.19155359385819581 -0.16202984001291046 0.07981991831121471 0.085332431797208258 0.24073687504719185 0.20789731654367982 -0.15674398013984428 0.12685956888352776 0.24123737113731078 -0.1487119644116407 -0.14266733266169798 -0.11765794412934374 -0.11055434340210704 -0.12392690164060681
leaf_weight=2.3591506481170645 72.279614752158523 13.225091725587843 20.802269347012043 554.21388467401266 17.358155008405447 82643.435853052884 1236.0355625152588 5.8487796187400809 83.097011804580688 5945.5163043066859 44.264416083693504 35.355863556265831 71.977567180991173 921.59250027686357 1924.7095069289207 191.97122651338577 4478.3526385352015 23.157921377569437 110.67814594507217 314.9992983341217 524.8962922655046 78.912602499127388 21.337950527667999 121.99930934607983 62.228795811533928 112.51981382071972 4106.8323675692081 1399.3445606082678 43.580287352204323 444.20371992141008 75.312821909785271 443.32020805031061 951.66572292149067 1.6470162644982327 230.65689235925674 21.44327550381422 64.663297533988953 8.6674190014600772 15.326748460531233 737.66539545729756 65.220231441780925 69.627965971827507 108.14046840369701 37.675662189722061 26.755138173699379 6.7333029359579077 44.982297174632549 144.08341479301453 9.3719255626201612 5.80068115890026 147.67625162005424 10.046867065131662 29.879900082945824 3.95362289249897 48.832270815968513 3.0571545585989943
leaf_count=1 631 37 56 618 35 222592 524 8 45 8119 181 1204 515 862 3657 408 3581 49 197 817 3110 199 89 162 36 73 4969 3021 194 1834 289 940 2085 14 676 92 366 37 16 4666 365 28 56 164 49 13 12 40 43 9 40 50 144 33 573 20
internal_value=0 0.0597218 0.0589198 0.0605652 0.0587382 0.0597841 0.169815 0.167803 0.0824992 0.0867835 0.0910251 -0.0748656 -0.0932337 0.0770941 0.0508871 0.105407 0.122837 0.0761566 0.0219289 0.089009 -0.10174 0.186971 0.0460328 0.0458852 0.193812 0.141719 0.0870695 0.0511544 0.0450176 0.0565714 0.0838175 0.0556404 0.0203112 -0.0841077 -0.0326523 0.0328942 -0.0941496 0.148254 0.0131465 -0.121247 -0.0687403 0.249743 0.147316 -0.125561 0.177764 -0.111673 0.202443 0.187054 -0.131653 -0.0483187 0.229366 -0.113374 -0.156339 -0.111967 -0.110797 -0.120392
internal_weight=0 86826.9 86187.4 85140.3 83739.9 83197.6 1400.41 639.51 22112.4 19787.6 17928.2 1047.09 933.546 9106.82 2846.3 8821.42 4522.62 113.543 182.656 6260.52 542.254 1314.95 2324.76 1859.38 579.661 300.128 4298.8 2251.63 2117.79 1843.55 748.773 518.633 1110.61 59.8492 274.237 973.109 85.4656 133.846 23.9942 750.89 137.5 279.533 230.14 43.5244 109.852 73.1238 68.1402 256.603 66.3905 15.1726 217.304 45.4027 51.2179 57.4901 50.4793 7.01078
internal_count=268644 235260 234230 227500 226355 223210 1145 1030 33384 27214 22594 6730 5415 13455 4519 9139 3762 1315 712 8936 3145 723 6170 4620 389 285 5377 5872 5725 4855 1447 1229 3173 641 870 2177 422 147 53 4703 996 104 218 172 94 298 61 113 285 52 68 1254 233 640 587 53
is_linear=0
shrinkage=0.1


Tree=11
num_leaves=62
num_cat=0
split_feature=135 31 131 31 75 128 53 31 130 136 101 70 106 131 51 109 56 6 131 38 56 72 30 108 106 72 0 29 30 5 29 43 72 126 106 71 33 30 104 29 3 67 89 31 105 77 94 27 76 30 101 69 116 75 17 104 90 75 71 30 30
split_gain=824.465 661.213 699.202 1044.77 994.273 1626 1512.95 804.787 747.478 680.216 751.418 1132.94 631.618 589.779 522.811 460.188 393.329 447.694 372.767 349.973 326.554 406.287 304.69 299.274 330.333 336.26 374.053 362.328 288.048 248.606 222.938 203.151 254.213 203.006 140.85 195.676 135.163 121.053 152.611 119.895 115.838 217.829 104.733 148.762 86.993 86.7953 63.3838 62.9765 58.4604 63.5254 58.1584 56.3164 38.034 138.115 34.9715 28.8428 15.6732 0.405837 0.116663 0.112276 0.0258061
threshold=1.0000000180025095e-35 1.006445109844208 1.0000000180025095e-35 1.0007049441337588 -1.1283131837844846 1.0000000180025095e-35 1.0717694759368899 0.99852591753005993 1.0000000180025095e-35 1.0000000180025095e-35 -0.886754810810089 -0.33685706555843348 -0.83992132544517506 1.0000000180025095e-35 1.1034761667251589 -0.86145830154418934 0.98041898012161266 0.69694784283638012 1.0000000180025095e-35 0.94217035174369823 0.957423895597458 -0.63813999295234669 1.095885753631592 -0.87996616959571827 -0.91887173056602467 -0.77280488610267628 0.58522990345954906 1.1843037605285647 1.0365998148918154 0.72281894087791454 1.1021927595138552 1.0844395756721499 -0.59217342734336842 -1.5695192217826841 -0.91265505552291859 -0.60051569342613209 0.93032562732696544 1.10118705034256 -0.92599758505821217 1.1921327710151675 0.7046346664428712 -0.19661583006381986 -1.2159616351127622 0.87276139855384838 -0.81871259212493885 -1.1629684567451475 -1.0561520457267759 1.4547978639602663 -1.2133126258850095 1.0864554643630984 -0.89523386955261219 -0.12632887065410611 -0.97145214676856984 -1.0964227914810178 1.3035556077957156 -0.90141627192497242 -1.2017790079116819 -1.0872130990028379 -0.58177396655082692 1.0981145501136782 1.0981145501136782
decision_type=2 2 2 2 2 2 2 2 2 2 2 2 2 2 2 2 2 2 2 2 2 2 2 2 2 2 2 2 2 2 2 2 2 2 2 2 2 2 2 2 2 2 2 2 2 2 2 2 2 2 2 2 2 2 2 2 2 2 2 2 2
left_child=1 2 4 16 8 7 -7 -6 14 10 18 13 52 -12 -1 -10 17 -4 33 -13 21 -5 23 24 31 27 -27 -26 -18 -20 -22 32 -2 -3 35 37 -33 50 -39 54 45 -42 48 47 51 -41 -45 -44 49 -25 -24 -14 53 -11 55 -36 -50 -54 59 -37 -60
right_child=22 9 3 20 5 6 -8 -9 15 12 11 19 44 -15 -16 -17 28 -19 29 -21 30 -23 34 42 25 26 -28 -29 -30 -31 -32 36 -34 -35 39 58 -38 38 -40 40 41 -43 43 46 -46 -47 -48 -49 56 -51 -52 -53 57 -55 -56 -57 -58 -59 60 -61 -62
leaf_value=0.11408435472059136 0.043146374654671374 -0.066907039212318706 -0.087268998533662753 0.051604731627485426 0.064864034651228641 0.038267309805887856 -0.086014139116484464 0.039153984258868554 0.14112639291085646 0.1779435701458365 0.03544476155871782 -0.045166359584733612 0.19769724307158429 0.14252278672128282 -0.022007324255623212 -0.014693126130342238 -0.0646728186973832 0.020176944464264785 -0.087463834248068154 0.033039619480558745 0.055315452996462379 -0.14061773781970896 0.098568656707413174 -0.18076664594945147 0.13250325018555228 0.08574338230756956 0.13319311864580355 0.053794285641232613 0.15899439725076436 0.080323288000742177 0.177104549205405 -0.060890698994507324 0.13705956853129905 0.041918693853204132 0.11097054620915386 -0.15556410709750643 0.10487159365119164 0.067895480902501207 -0.066795286799842618 -0.087006875090956171 -0.053869903164252025 0.14199234138012726 0.13479887579284983 -0.17736607322191422 0.32141291098927205 0.049071952838210996 -0.052645430849739973 -0.084379453694843315 0.1886138789708782 0.13483227061356201 0.27468941782676387 -0.12813064650945802 -0.13305038599633243 -0.094260807686018175 0.17889784044116583 -0.14014221272247493 0.089685224775298195 -0.12394502812621029 -0.14034011965357804 -0.14133560860863845 -0.13360129509470525
leaf_weight=5738.5895391963422 2011.9133619964123 214.0632703974843 1199.9163648448884 1860.2193065658212 47506.040930408984 2800.0589774884284 1506.5257217623293 16370.796960018575 241.15456455945969 19.668535798788071 772.79496056586504 744.70798864215612 14.247792273759844 1538.3144495487213 296.88491079211235 885.48329972475767 88.578037776052952 572.9686738178134 762.58590599894524 2470.3172027766705 266.93945270776749 116.865199431777 377.70115708559752 15.358578637242319 667.28799752891064 10153.11741092056 1986.4067369550467 4734.8167005777359 164.52536089718342 99.872101187705994 343.98945452272892 254.56184643134475 336.43232651427388 860.33673693239689 12.121786855161192 8.6686661541461962 60.973541460931301 300.58451095968485 116.81394769996405 251.85752277076244 129.60380154103041 101.05823935568333 52.742983356118202 57.705590307712555 40.064471811056137 57.59003996104002 138.65757361799479 17.4455581381917 25.086148381233215 10.907291889190672 19.728934839367867 8.4511712342500669 179.19682005792856 356.50454027205706 41.134548097848892 7.3459694236516944 44.285240009427071 67.347662266343832 10.018210008740427 15.394693613052366 13.131181061267851
leaf_count=8499 4007 1082 6484 4452 106887 8929 10756 48282 618 22 2423 3228 15 1834 965 5078 398 3486 3736 8780 961 598 700 63 477 11618 1308 8718 248 255 498 1397 507 2721 20 38 93 711 490 1147 723 141 31 238 26 179 375 60 9 13 8 52 1027 2465 28 37 53 455 49 75 71
internal_value=0 0.0529087 0.0556742 0.017886 0.0579883 0.0542651 -0.00520872 0.0582749 0.0934323 0.0257718 0.0345283 0.0533138 -0.0695614 0.106718 0.10739 0.0186597 -0.0358959 -0.0525442 -0.0190694 0.0149245 0.0599884 0.0402425 0.0745377 0.077674 0.079289 0.0842717 0.0935076 0.0635167 0.0807181 -0.0680342 0.12389 0.046478 0.0566007 0.0202363 0.0304391 0.0563429 -0.0288591 0.0678112 0.0302007 -0.00673362 -0.0216984 0.0319418 -0.0124228 -0.0446332 0.232797 -0.0616818 -0.0892973 0.0803215 0.0773513 -0.0497095 0.107312 0.0763865 -0.100036 -0.0800284 0.126638 0.0162156 0.12546 -0.130563 -0.141586 -0.146461 -0.136518
internal_weight=0 88108 79959.5 4614 75345.5 68183.4 4306.58 63876.8 7162.11 8148.47 7462.99 5526.13 685.481 2311.11 6035.47 1126.64 2025.99 1772.89 1936.86 3215.03 2588.01 1977.08 22030.5 20567.7 20205.5 17541.6 12139.5 5402.1 253.103 862.458 610.929 2663.88 2348.35 1074.4 1462.75 862.041 315.535 814.829 417.398 600.712 540.11 230.662 362.189 266.552 62.7634 309.448 196.363 70.1885 95.6373 26.2659 397.43 22.699 622.718 376.173 60.6023 19.4678 69.3714 246.544 47.2128 24.0634 23.1494
internal_count=268644 235260 207139 17125 190014 174854 19685 155169 15160 28121 24059 16265 4062 4257 9464 5696 10616 9970 7794 12008 6509 5050 33384 28967 28125 22121 12926 9195 646 3991 1459 6004 4514 3803 4417 2142 1490 1909 1201 2275 2190 864 842 704 93 1326 613 91 138 76 708 67 3969 2487 85 57 62 1482 233 113 120
is_linear=0
shrinkage=0.1


Tree=12
num_leaves=59
num_cat=0
split_feature=130 117 109 73 133 136 106 104 69 74 106 77 52 128 53 121 31 76 111 33 30 97 74 0 107 105 31 117 127 109 70 76 77 31 54 37 42 12 31 111 76 31 102 104 108 122 56 119 108 61 98 32 54 54 104 31 101 31
split_gain=769.613 892.221 795.21 677.222 668.665 660.007 2040.34 954.568 1175.23 728.645 650.542 1449.38 1870.75 757.346 736.621 669.595 612.408 591.196 752.944 553.864 496.849 494.832 481.516 689.383 381.864 557.039 370.848 332.373 834.262 318.253 304.163 272.171 173.927 173.059 153.194 142.451 100.784 90.3995 89.3768 84.007 162.922 80.1796 65.1513 62.0102 55.2194 47.5204 113.159 43.3171 38.2586 34.6389 31.5919 20.8203 32.6009 7.86632 7.57696 2.92946 0.30313 0.0840537
threshold=1.0000000180025095e-35 -1.0459350943565366 -1.1325522661209104 -0.732602298259735 1.0000000180025095e-35 1.0000000180025095e-35 -0.86049729585647572 -0.81554633378982533 -0.11170619353651999 -0.91337278485298146 -0.86315396428108204 -1.254002511501312 1.0912061929702761 1.0000000180025095e-35 1.0639854073524477 -1.8579643964767454 1.00123006105423 -1.1460748910903928 -0.93748894333839405 0.89191719889640819 1.0233740806579592 -0.78619515895843495 -0.95072162151336659 0.51777353882789623 -0.91111561655998219 -0.80879288911819447 1.0059646964073183 -1.532854378223419 -3.0870487689971919 -1.1426782011985777 -0.17436634004116056 -1.1636995077133176 -1.0829722285270689 0.98401740193367015 0.99618104100227367 0.9334610402584077 1.1057355999946596 1.26505982875824 0.98321712017059337 -0.94662293791770924 -1.1345440745353697 0.97884032130241405 -0.88071173429489125 -0.76270544528961171 -1.0487719178199766 -1.274718105792999 0.91646063327789318 -1.6788898706436155 -1.0842189192771909 0.56069582700729381 -0.76194959878921498 0.90763038396835338 1.0212277770042422 1.090471684932709 -0.8647361397743224 1.00229948759079 -0.8657095432281493 0.96719452738761913
decision_type=2 2 2 2 2 2 2 2 2 2 2 2 2 2 2 2 2 2 2 2 2 2 2 2 2 2 2 2 2 2 2 2 2 2 2 2 2 2 2 2 2 2 2 2 2 2 2 2 2 2 2 2 2 2 2 2 2 2
left_child=2 3 4 19 27 10 22 8 -8 -9 13 14 -13 15 -12 -4 -15 18 33 45 21 30 23 -7 32 -26 31 28 47 -30 -5 -20 -21 56 48 -35 -23 39 41 40 -19 -22 -24 -40 53 50 -47 -1 57 -28 -2 54 -53 -29 -36 -41 -3 -6
right_child=1 17 5 20 34 6 7 9 -10 -11 11 12 -14 16 -16 -17 -18 37 26 24 38 36 42 -25 25 -27 49 44 29 -31 -32 -33 -34 35 51 -37 -38 -39 43 55 -42 -43 -44 -45 -46 46 -48 -49 -50 -51 -52 52 -54 -55 -56 -57 -58 -59
leaf_value=-0.035378816819548235 -0.13583412029966899 -0.12875590207107654 0.13539481071760268 0.18785774217481421 -0.16105740384571948 0.027677246848567566 0.060832158204634335 0.18247540628351555 -0.077517715382825148 0.056253378219259298 0.081092908178936218 -0.028392666214177249 0.048182063072724796 -0.099310230264456956 0.028541806184189958 0.062379994902650428 0.050161377039507994 0.029616695695893772 0.017565621290020008 0.19312678096030478 -0.14539159498896162 0.057862692409998619 -0.04218691414370114 -0.10553622095222029 0.038660625424718965 0.15517710613268054 -0.026443454437611886 -0.13572990710760474 -0.078338152783602524 0.22793132574969621 -0.15935233512022817 -0.072411290115278956 0.067718086517450551 0.16579594487528279 0.19217559341481838 0.035373025190368806 -0.11473972174266607 0.13364569110489979 -0.12754528416163138 -0.12863322519851469 -0.098975778978722978 0.066777885066220052 -0.11334479244541643 0.25081178821356659 0.2380121126831819 -0.14636542408194297 0.17186721845658517 -0.12113816205978481 0.13128794597616539 -0.10418010032825759 0.082800764585084952 -0.011942169538681964 0.1726704642112282 -0.096713598417531896 0.25891439524967103 -0.10912504732732727 -0.15137345072768998 -0.17548635850972405
leaf_weight=75.410982102155685 117.14152578264475 12.990242324769499 1281.7291949093342 218.11675253510475 6.527046471834189 1269.1978614404798 3154.180285114795 944.63810664415359 762.40572454035282 886.59009320288897 10125.463911980391 4886.8849238306284 9190.2962242327631 515.34753736108541 3621.3181347548962 62572.641922350973 585.56704895943403 143.53043845668435 2569.7469311505556 472.51102865487337 26.789145827293396 45.350197188556194 154.31667125225067 559.82788818702102 1370.6001119017601 585.6233751475811 67.650448702275753 371.24486901983619 44.01382246799767 148.06940366327763 28.530434608459473 386.78795206919312 144.38048384338617 375.02956004813313 36.082363113760948 107.82189457118511 133.17096677422523 18.95070181414485 319.09768691658974 258.44975972175598 314.22176849097013 53.14843176305294 774.20865501835942 4.3913219720125189 4.1094179153442374 24.928824305534363 20.250776201486588 268.96075537055731 5.5929924398660651 375.40501288324594 7.0041968971490851 10.871376872062681 79.631013564765453 60.030721452087164 32.185423254966736 109.62681283056736 10.896041288971899 10.58381302654743
leaf_count=653 530 81 1132 129 29 4185 9209 1408 4455 2475 19250 19126 24997 2424 10954 120782 1586 512 11118 404 130 107 721 3401 3857 648 376 2139 401 168 131 2033 308 632 21 419 683 28 1741 1658 1925 132 5051 8 1 120 25 2335 8 2634 16 32 60 412 24 726 50 44
internal_value=0 0.0219417 0.053563 0.0597093 -0.0290044 0.0545032 0.0278419 0.0617665 0.0339009 0.121365 0.0569473 0.0441532 0.0215992 0.0624278 0.0672494 0.0638456 -0.0198076 -0.0064452 0.00995901 0.0836464 -0.0195164 0.0559134 -0.0428702 -0.0130967 0.0951746 0.0735415 -0.00699121 -0.0619077 -0.0092229 0.157753 0.147695 0.00579441 0.163775 0.123674 0.147202 0.136672 -0.0708931 -0.0822996 -0.0990113 -0.087255 -0.058655 -0.00432558 -0.101519 -0.122409 -0.126823 -0.0915406 -0.00372454 -0.102358 -0.0957658 -0.0923104 -0.123499 0.181945 0.150494 -0.130299 0.22364 -0.122823 -0.139073 -0.169982
internal_weight=0 8322.14 102438 3571.04 1153.31 101285 8505.37 5747.81 3916.59 1831.23 92779.2 27824 14077.2 64955.3 13746.8 63854.4 1100.91 4751.11 3906.33 2742.44 828.595 425.168 2757.55 1829.03 2573.11 1956.22 3399.59 971.84 536.455 192.083 246.647 2956.53 616.892 506.738 181.474 482.851 178.521 844.779 403.427 825.829 457.752 79.9376 928.525 323.489 435.385 169.325 45.1796 344.372 22.7039 443.055 124.146 158.77 90.5024 431.276 68.2678 368.077 23.8863 17.1109
internal_count=268644 31161 237483 8969 6327 231156 30905 17547 13664 3883 200251 74327 44123 125924 30204 121914 4010 22192 17343 5908 3061 1050 13358 7586 5217 4505 16161 6109 3557 569 260 13151 712 1182 218 1051 790 4849 2011 4821 2437 262 5772 1749 2552 691 145 2988 81 3010 546 137 92 2551 45 2384 131 73
is_linear=0
shrinkage=0.1


Tree=13
num_leaves=59
num_cat=0
split_feature=135 99 6 100 74 118 125 118 118 27 30 107 75 88 107 107 29 127 76 3 99 72 4 112 29 31 127 104 30 43 69 53 69 24 72 7 59 31 21 116 2 68 105 84 17 45 119 104 105 59 114 33 112 30 127 107 115 129
split_gain=681.752 592.411 770.386 978.916 690.53 1002.75 651.529 643.849 399.832 392.192 285.316 280.803 340.237 324.143 293.657 270.084 251.852 284.035 251.294 198.718 263.438 251.321 339.052 198.333 197.357 206.834 182.094 178.341 171.342 139.369 158.883 174.439 138.032 119.288 147.922 116.823 115.628 112.634 111.251 110.448 102.214 92.5013 80.1913 78.7822 74.3276 72.4723 64.6075 56.3531 47.7382 33.6398 30.115 24.8537 20.4158 6.44803 3.82273 2.18322 0.662906 0.342333
threshold=1.0000000180025095e-35 -0.99056196212768544 0.74212297797203075 -0.92989718914031971 -0.98780637979507435 -0.96862754225730885 -1.1778570413589475 -0.94401121139526356 -1.0999460220336912 1.4388483166694643 1.0900948643684389 -0.95397549867629994 -1.0928335785865781 -1.2205297350883482 -0.87650203704833973 -0.90061593055725087 1.1324051618576052 -1.0551633238792417 -1.1962465047836301 0.66174530982971203 -0.95170804858207692 -0.79220488667488087 0.7423519790172578 -1.0364438295364378 1.2354298233985903 0.9827963411808015 -1.3841825127601621 -0.88322442770004261 1.1033011674880984 1.1042564511299136 -0.14735464751720426 1.0392931103706362 -0.42507664859294886 1.4346451163291933 -0.71943357586860646 0.87103843688964855 0.66635233163833629 0.96719452738761913 1.3801193833351137 -0.9581165313720702 0.49780103564262396 0.029648752883076671 -0.91126015782356251 -1.0823127031326292 1.2488051652908327 1.1750046014785769 -0.90415409207344044 -0.93019667267799366 -0.89225181937217701 0.77469050884246837 -1.1798746585845945 0.86163094639778148 -1.0416416525840757 1.094895660877228 -1.0551633238792417 -0.9803127348423003 -0.86233714222908009 1.0000000180025095e-35
decision_type=2 2 2 2 2 2 2 2 2 2 2 2 2 2 2 2 2 2 2 2 2 2 2 2 2 2 2 2 2 2 2 2 2 2 2 2 2 2 2 2 2 2 2 2 2 2 2 2 2 2 2 2 2 2 2 2 2 2
left_child=1 38 3 6 7 -6 8 -5 -3 16 11 29 13 14 -13 -15 17 -4 -18 20 51 22 26 47 25 -14 -21 -8 37 30 31 -2 -24 34 -22 -26 -35 -23 49 -25 50 55 -32 -30 48 -43 -46 -11 -42 54 52 53 -40 -12 56 -31 -1 -56
right_child=10 2 9 4 5 -7 27 -9 -10 23 19 12 24 15 -16 -17 18 -19 -20 21 33 28 32 39 35 -27 -28 -29 43 41 42 -33 -34 36 -36 -37 -38 -39 40 -41 44 45 -44 -45 46 -47 -48 -49 -50 -51 -52 -53 -54 -55 57 -57 -58 -59
leaf_value=-0.12995092439370992 0.042817564380659597 0.11617284412501223 0.14791506150248823 0.083259165326769136 0.040906257173908417 -0.018872314267092277 -0.015235318444266075 0.039598986169328589 -0.052605883879963899 -0.17116983458669521 -0.19895195127844789 0.12620758354599457 0.089171699535727067 0.096531912355003094 -0.03058506703252712 0.013468284715553719 0.13254973845172541 -0.037149611414303278 0.061191950010199517 0.074811617962317681 0.16871299478140356 -0.076724600083535682 0.039559415671557435 0.053486027527649221 -0.078350986009564375 0.061616148084639215 -0.05997526294033885 0.14369815056449925 -0.15371469334260868 -0.12475939794804475 -0.13343216772185426 -0.057251699614052111 0.13898505266826183 0.0081128491326122026 -0.021247567005695519 0.067538208525399615 -0.1805866636617986 0.091170341998436447 -0.13297715903686225 -0.08662454778941639 -0.0075698212803568385 0.042202623855482242 0.12384179639677023 0.16579658563611008 0.0021366510948815803 -0.094286423712744358 -0.093764982865230162 0.17360867031802948 0.27510867913601883 0.13425199855493739 0.2224566969211928 -0.0067271596776319227 0.16917472804188988 -0.14472858852157808 -0.10574537477617695 -0.16059545365146921 -0.15373961478203613 -0.12144838265303887
leaf_weight=62.994468994438648 888.37011450901628 150.71531230956316 1044.3211137205362 7288.9301438704133 65354.910692255944 2931.9841445200145 95.172078303992748 6294.4232426844537 2042.7765083052218 74.804697815328836 45.576879024505615 683.25595831871033 8472.918904453516 471.21184630692005 144.75802960991859 2312.5830448269844 638.53182101994753 90.086446188390255 2172.985784497112 124.93133612722158 101.84730997681618 41.157392419874668 478.41508089751005 279.79425229877234 125.57103998214006 4014.6729185581207 506.94350373744965 273.48760820925236 43.513401664793491 40.026661707088351 12.756185030564664 216.68719346448779 197.1801411435008 776.12322461605072 68.606250509619713 97.513116382062435 33.891042463481426 1370.1119321361184 4.9529182016849536 70.42313290014863 12.208684898912908 115.90158037282526 241.15931997075677 9.3808157294988614 122.71372571587563 58.55714475363493 164.30253414064646 5.0614077746868125 11.699012756347654 5.4897726811468592 20.603703033179045 10.033304668962954 4.0769720077514648 42.27064411342144 143.3358149882406 29.551650509238243 14.39006035029888 15.37187250703573
leaf_count=415 1849 195 829 13000 172150 11399 472 14964 9200 312 185 509 8554 564 358 4431 716 699 4363 235 48 131 1356 520 632 5300 1955 293 218 328 93 804 205 1851 175 201 147 1886 49 324 54 358 272 8 515 352 1507 6 3 12 15 28 1 221 3065 130 67 115
internal_value=0 0.041992 0.0426512 0.0405308 0.0424356 0.0383396 -0.0203358 0.0630274 -0.0410091 0.0835624 0.061724 0.0670288 0.0709511 0.0438667 0.0987962 0.0275284 0.0934459 0.133219 0.0773982 0.0370247 0.000601544 0.0511957 0.0193298 -0.00711697 0.0786473 0.0803128 -0.0333258 0.102668 0.0796512 0.0270905 0.0395855 0.0231953 0.0685779 0.0162183 0.0922553 -0.0145808 0.000217651 0.086274 -0.0585573 0.025312 -0.0217379 -0.0424909 0.110917 -0.0970492 -0.0386511 -0.00360998 -0.0527623 -0.14932 0.130756 -0.110461 0.155719 -0.155831 0.00344363 -0.172861 -0.116152 -0.13998 -0.134375 -0.107266
internal_weight=0 89390.5 88808.4 84432.4 81870.2 68286.9 2562.15 13583.4 2193.49 4376.01 21775.5 17925.5 16322.5 3611.81 828.014 2783.79 3945.93 1134.41 2811.52 3849.98 1078.35 2771.63 1307.47 430.083 12710.7 12487.6 631.875 368.66 1464.16 1603.01 1358.97 1105.06 675.595 980.468 170.454 223.084 810.014 1411.27 582.14 350.217 340.558 244.037 253.916 52.8942 310.924 174.459 287.016 79.8661 23.9077 241.582 29.6336 97.8808 9.02989 87.8475 236.092 69.5783 77.3845 158.708
internal_count=268644 235260 229442 221673 211513 183549 10160 27964 9395 7769 33384 24735 20549 5862 867 4995 6607 1528 5079 8649 2655 5994 3751 1162 14687 13854 2190 765 2243 4186 3018 2653 1561 2221 223 833 1998 2017 5818 844 2144 1168 365 226 2079 710 2022 318 57 3674 65 434 50 406 3662 458 482 3180
is_linear=0
shrinkage=0.1


Tree=14
num_leaves=61
num_cat=0
split_feature=70 58 30 127 118 76 118 128 17 108 133 34 101 133 34 101 126 118 54 30 127 37 91 6 53 117 39 116 73 95 32 69 2 25 49 129 127 50 52 107 135 106 71 71 69 41 39 109 104 102 103 102 102 31 66 131 3 70 129 113
split_gain=616.472 1216.02 1112.54 1042.43 863.243 1236.62 968.187 807.585 967.016 848.886 739.833 713.774 640.062 620.123 858.897 553.127 420.625 505.732 398.06 395.067 488.191 236.802 246.709 224.768 204.6 426.169 203.669 191.934 234.871 196.246 175.296 170.442 162.512 159.739 157.566 131.516 132.526 125.056 121.947 118.545 102.983 93.8453 92.9212 77.0357 76.9477 74.7687 40.9599 156.849 37.4303 36.6166 34.9633 33.8733 74.3158 30.5198 15.9324 14.7802 24.9471 0.918757 0.836841 0.479303
threshold=-0.25872486829757685 0.89353889226913463 1.0483716130256655 -2.5579348802566524 -1.3519499897956846 -0.85628119111061085 -1.3157299757003782 1.0000000180025095e-35 1.0595099925994875 -1.0534842014312742 1.0000000180025095e-35 0.89415845274925243 -0.81433922052383412 1.0000000180025095e-35 0.86835724115371715 -0.79140004515647877 -2.2041077613830562 -1.3965693116188047 1.0382837653160097 1.0504004359245303 -2.2806106805801387 0.92586874961853038 -0.64324074983596791 0.57416191697120678 1.0836131572723391 -1.1275555491447447 1.0136798620224001 -1.3720909357070921 -0.5886414349079131 -0.7040734291076659 0.94803836941719066 -0.085935391485691057 0.40482883155345922 1.2513931393623354 1.178019165992737 1.0000000180025095e-35 -1.884915232658386 1.1221829652786257 1.1272804737091067 -0.84708467125892628 1.0000000180025095e-35 -0.78752052783966053 -0.41861560940742487 -0.46449457108974451 -0.1086691841483116 1.0566902756690981 1.0179141163825991 -1.0741648674011228 -0.82873553037643422 -0.79762196540832508 -0.81208857893943776 -0.79395741224288929 -0.78998470306396473 0.99361002445220958 0.22383485734462741 1.0000000180025095e-35 0.44879436492919927 -0.35463789105415339 1.0000000180025095e-35 -1.3428043127059934
decision_type=2 2 2 2 2 2 2 2 2 2 2 2 2 2 2 2 2 2 2 2 2 2 2 2 2 2 2 2 2 2 2 2 2 2 2 2 2 2 2 2 2 2 2 2 2 2 2 2 2 2 2 2 2 2 2 2 2 2 2 2
left_child=1 3 7 27 16 6 -6 9 24 13 15 -12 45 14 -2 -11 17 -5 -15 20 21 22 -3 -14 25 -9 35 28 33 54 -7 46 -18 -1 55 40 50 -38 -31 43 42 -41 -4 -22 -23 -10 49 -48 -36 -28 -37 58 -53 -26 -29 57 -57 -21 -33 -30
right_child=2 19 26 4 5 30 -8 8 12 10 11 -13 23 18 -16 -17 32 -19 -20 34 39 44 -24 -25 53 -27 31 29 59 38 -32 51 -34 -35 48 36 37 -39 -40 41 -42 -43 -44 -45 -46 -47 47 -49 -50 -51 -52 52 -54 -55 -56 56 -58 -59 -60 -61
leaf_value=-0.16322954682974816 0.026865836011917912 0.10532256830998077 -0.056666909214727938 0.13991807678633078 0.13736880849027494 -0.069282232372539915 0.043093771784963743 0.20015292996972778 -0.09576250114590007 0.020685789876019465 -0.15049297670901929 0.027154911262758964 -0.066777414634434235 -0.063085162608665826 -0.090898288262156776 0.059589936776791468 0.16650203050651985 0.0069430966952081889 0.16662529545203406 -0.18880313468343368 0.084898346626102281 -0.16059312933228723 -0.13886367685188555 0.13763724968846694 -0.11569652200685726 -0.050218180920806481 0.050747260108635873 0.024509456192718299 -0.12969082575910243 -0.11729893712759923 0.073774507275785134 -0.1285968389058933 0.038015268388000102 0.097503516622735639 -0.028339028881270441 -0.029144904924802002 -0.039451883266603871 0.085163030614024068 9.0635783411362815e-05 -0.16516196278048542 0.098540537360877339 0.14492424559552927 -0.11689885394600719 0.15750630290460416 0.010277479346398598 0.37480936614963517 0.19842710021440524 -0.13244672782695777 0.19081850324296823 0.22925351153255394 -0.17747395112776998 0.15440754013672173 -0.14584349417968101 -0.070889569900881952 0.13697523240822715 -0.16309653685876935 0.10767399091986318 -0.15391534534863324 -0.1750022834074858 -0.16116897760763021
leaf_weight=26.94907520711422 1275.3747434988618 309.34406243264675 494.6121261715889 508.71167847514153 1105.294984318316 1100.1846852507442 75494.798213990405 72.974307850003242 194.11926161497831 4814.8014224693179 361.74893137067556 603.48386609554291 59.337088868021965 102.64058522880077 1203.9611257668585 15165.524408448488 924.49276991933584 653.32417557388544 284.63476239144802 8.6353434175252897 160.35706980526447 68.133800402283669 47.763885214924812 575.52580093592405 501.07426988705993 994.35505706071854 15.788957603275774 19.510005846619606 5.2952173240482798 573.67865508049726 92.887421280145645 36.700828962028027 110.17033609002829 183.456198759377 11.894565507769583 22.453305825591087 196.66678993403912 136.37433733046055 104.63397754728794 21.491139110177755 30.522117659449577 17.879904314875603 531.21496710181236 1646.3887524530292 42.979998201131821 3.4362807869911185 34.854124888777733 24.326707184314728 22.600575551390648 42.218172386288643 54.375949069857597 16.303421355783939 16.674788035452366 218.22074267268181 35.545455276966095 7.8021200001239759 6.0343378037214279 59.967601545155048 4.3462121486663809 55.920522131025791
leaf_count=121 4653 316 2740 629 1053 4638 170748 271 1056 14529 1460 1515 374 370 6407 31778 511 1664 270 35 214 284 211 946 3891 5928 52 36 36 2275 152 246 202 347 35 60 530 205 291 106 30 10 3370 1088 98 14 14 160 18 23 223 37 88 1663 23 35 11 285 18 251
internal_value=0 0.0454464 0.0283184 0.0433547 0.0446263 0.0428806 0.0444541 0.0333021 -0.0194043 0.0390992 0.0460841 -0.0394238 0.0696164 -0.011938 -0.0303202 0.0502149 0.106447 0.0651564 0.105745 0.11513 0.124191 0.0329932 0.0726622 0.118532 -0.0608806 -0.0331001 -0.051157 -0.0578574 0.0139509 -0.0844533 -0.0581445 0.045913 0.152821 0.0641084 -0.064203 -0.0638161 -0.0157356 0.0115757 -0.0991909 0.147321 -0.0824717 -0.0243399 -0.0878575 0.151062 -0.0944986 -0.0875774 0.12095 0.062419 0.115249 0.180666 -0.134125 -0.0728771 0.00259146 -0.102103 0.0971207 -0.139291 -0.0450084 -0.158307 -0.13351 -0.158446
internal_weight=0 83426.1 28088.6 80994.9 79989.9 77793.2 76600.1 26431.2 2619.04 23812.2 20945.6 965.233 832.418 2866.61 2479.34 19980.3 2196.7 1162.04 387.275 2431.27 2314.34 468.222 357.108 634.863 1786.62 1067.33 1657.43 1004.99 271.621 733.368 1193.07 191.213 1034.66 210.405 116.935 1466.22 409.87 333.041 678.313 1846.12 1056.35 39.371 1025.83 1806.75 111.114 197.556 117.188 59.1808 34.4951 58.0071 76.8293 74.0253 32.9782 719.295 55.0555 82.4394 13.8365 68.6029 41.047 61.2157
internal_count=268644 185723 82921 182977 179597 176591 171801 75125 14143 60982 49282 2975 2390 11700 11060 46307 3006 2293 640 2746 2327 909 527 1320 11753 6199 7796 3380 755 2625 4790 638 713 468 419 7158 1018 735 2566 1418 6140 116 6110 1302 382 1070 249 174 53 75 283 389 125 5554 59 366 46 320 264 287
is_linear=0
shrinkage=0.1


Tree=15
num_leaves=62
num_cat=0
split_feature=130 116 75 117 72 99 131 100 31 7 29 75 136 124 128 12 76 2 136 100 118 75 71 75 117 105 30 32 129 75 67 35 129 5 31 124 56 31 106 36 5 53 70 58 117 122 78 88 12 127 58 58 107 0 46 58 58 32 33 30 115
split_gain=648.389 690.427 674.631 660.994 639.868 1414.84 650.616 1561.62 1058.37 931.076 793.022 852.413 769.976 593.743 558.749 1199.38 855.694 898.276 506.566 463.108 452.362 447.991 417.593 413.421 593.501 387.276 382.451 378.712 355.396 345.847 309.841 292.951 289.616 268.667 261.541 261.071 257.034 200.49 176.733 155.511 153.811 153.451 144.17 125.603 113.636 186.754 160.807 108.808 104.109 87.7104 77.1138 54.2195 147.467 48.6871 36.7732 46.7518 34.0163 2.64701 0.6625 0.619922 0.128663
threshold=1.0000000180025095e-35 -1.0223022103309629 -1.0543962121009824 -1.0651811361312864 -0.62699535489082325 -0.86390751600265492 1.0000000180025095e-35 -0.90046149492263783 1.0026391148567202 0.7257220745086671 1.1157302260398867 -1.1331188082695005 1.0000000180025095e-35 -1.6751259565353391 1.0000000180025095e-35 0.74911722540855419 -1.1563771963119505 0.46121676266193395 1.0000000180025095e-35 -0.81961569190025318 -0.94899091124534596 -1.0385192632675169 -0.48885236680507654 -1.0677008628845213 -0.99889230728149403 -0.87694570422172535 1.0526141524314883 0.96399641036987316 1.0000000180025095e-35 -1.0907030105590818 0.085186731070280089 0.9090782403945924 1.0000000180025095e-35 0.65442210435867321 1.0041085481643679 -1.2513253092765806 0.97585749626159679 1.006445109844208 -0.93823704123496998 0.88442888855934154 0.39077943563461309 1.0836131572723391 -0.23324073851108548 0.89607045054435741 -1.0212525129318235 -1.2370839715003965 -1.2764214873313902 -1.1611552834510801 1.26505982875824 -1.8370621204376218 0.87322655320167553 0.84437400102615368 -0.8855207860469817 0.25154843926429754 1.1108601689338686 0.87591150403022777 0.81848368048667919 0.96021428704261791 0.92692679166793834 1.0569339990615847 -1.0181218981742857
decision_type=2 2 2 2 2 2 2 2 2 2 2 2 2 2 2 2 2 2 2 2 2 2 2 2 2 2 2 2 2 2 2 2 2 2 2 2 2 2 2 2 2 2 2 2 2 2 2 2 2 2 2 2 2 2 2 2 2 2 2 2 2
left_child=4 2 51 13 6 28 10 9 26 39 20 32 -13 40 16 41 18 -18 -7 -17 33 43 -10 24 31 -11 -9 -15 30 34 38 37 -12 -1 -26 -22 42 -3 -6 -8 -4 -16 -30 -5 45 46 -25 -47 58 -32 -33 52 56 -31 -53 -56 -2 -23 -46 -38 -54
right_child=1 23 3 21 5 14 7 8 22 25 11 12 -14 27 15 19 17 -19 -20 -21 35 57 -24 44 29 -27 -28 -29 36 53 49 50 -34 -35 -36 -37 59 -39 -40 -41 -42 -43 -44 -45 48 47 -48 -49 -50 -51 -52 54 60 -55 55 -57 -58 -59 -60 -61 -62
leaf_value=0.086653863059373448 0.031301819126793536 0.11599988510882882 -0.12828794258324805 -0.011983212694603562 -0.076479658356826768 0.065058981801635149 -0.07137552796896017 -0.11101659714389299 0.099577811585414219 -0.030476038543359014 0.10548041146326302 0.044897790455593382 -0.0036814145853556234 0.084310714276940465 -0.036921265566957136 0.0089136459040445714 0.037511351206479922 -0.015120072022226073 0.16311872371540687 0.13364431000206076 -0.011827755880836642 -0.14421415633256435 0.020526208163913671 0.099998930180814682 0.0070825884511907401 0.08651917568190387 0.010748975347969598 -0.041708095782925919 0.046068396538601591 0.23510777784575693 -0.029231276520628374 -0.13166455980471567 0.0038211411447654341 0.15278278535272999 -0.078149953301810515 0.062042033052429849 -0.18543730681204876 -0.044038707715531068 0.094133621112975352 -0.13848306958166132 -0.010544987236572309 -0.098953604296551423 -0.15200681480581768 0.12780049681317115 -0.1286490202777805 0.12231266586919083 -0.10624884529618202 -0.13132507989446407 0.11653293909983789 -0.10059598200553384 0.0062883221818789206 0.23623524784613759 -0.16355979147961652 -0.11018260565609828 0.072372434910444525 0.16632229114940922 0.19172468818729327 -0.1272923296014061 -0.11954534069538342 -0.14975385792490406 -0.14522552148665135
leaf_weight=4666.1656272187829 18.231067918241024 639.03423863649368 174.47711390256882 303.26760051399469 97.926758252084255 3868.2614400237799 926.41433796472847 393.36636152490973 2637.4195708632469 607.71225899457932 2769.7901323735714 37382.300912111998 3574.6923056095839 1983.2503624632955 868.45890507847071 640.86212449520826 30552.002139475197 3627.8590699024498 609.86722238361835 555.85772099345922 616.07485912740231 197.99237210676074 895.00439165532589 43.393386676907539 1859.7454372569919 529.41234543174505 749.26482781767845 271.06666370481253 583.94317639619112 4.1229453086853018 201.72891172766685 68.677854232490063 311.78455175459385 707.52839633077383 446.44912984594703 2141.5013044215739 55.160749584436417 89.206151410937309 159.77440711855888 550.52096988633275 304.70554687082767 737.36295506730676 39.214151650667191 81.572228699922562 295.38087597675622 85.554024033248425 293.43419747054577 21.081050738692284 18.478213436901569 1177.341769605875 98.829968757927418 57.354651287198067 15.457455173134806 428.12646995484829 63.915596425533295 309.21242702007294 48.065735504031181 173.39738819003105 109.59771331399679 5.3399029970169059 5.0873084291815749
leaf_count=7938 57 1031 947 1103 402 6318 3993 2819 3591 3046 3045 67444 12632 3221 5562 2178 72122 12126 974 993 1618 1014 2659 151 8133 1907 1879 1330 1121 1 826 409 705 508 2732 5006 225 393 305 2693 1001 6013 143 172 1958 185 1755 127 24 6667 446 17 67 2591 136 189 21 1100 825 25 25
internal_value=0 0.0103856 0.0405773 0.0247792 0.0391063 0.0299317 0.0458618 0.0178767 0.0524878 -0.0440225 0.0497718 0.044474 0.0406578 0.0476704 0.0341846 -0.00893107 0.0373103 0.031925 0.0784135 0.0668491 0.0784645 -0.0579647 0.0795486 -0.0164922 -0.0016902 0.0239936 -0.0311705 0.0691578 -0.0460561 -0.0248027 -0.0713489 0.0689685 0.0951948 0.0953607 -0.00941732 0.0455387 0.0144984 0.0963959 0.0293004 -0.0963896 -0.0534168 -0.0654053 0.0336039 0.0176459 -0.0785435 -0.0431646 -0.079678 0.0721702 -0.115594 -0.0901568 -0.0502721 0.147147 0.0750681 -0.106889 0.161688 0.150229 0.14761 -0.136314 -0.126185 -0.182288 -0.15902
internal_weight=0 8508.17 4007.05 3489.73 103240 43781 59459 7289.12 4675.06 2614.06 52169.8 44038.6 40957 2733.5 41460.5 2802.54 38658 34179.9 4478.13 1196.72 8131.27 756.23 3532.42 4501.11 3634.19 1137.12 1142.63 2254.32 2320.43 2738.44 1636.77 895.748 3081.57 5373.69 2306.19 2757.58 683.658 728.24 257.701 1476.94 479.183 1605.82 623.157 384.84 866.919 443.463 336.828 106.635 423.457 1379.07 167.508 517.324 86.8416 432.249 430.483 373.128 66.2968 371.39 404.979 60.5007 20.5448
internal_count=268644 31161 10400 9888 237483 116000 121483 22587 10948 11639 98896 83826 80076 6499 106286 14746 91540 84248 7292 3171 15070 3389 6250 20761 15736 4953 4698 4551 9714 13457 8200 2279 3750 8446 10865 6624 1514 1424 707 6686 1948 11575 1264 1275 5025 2218 1906 312 2807 7493 855 512 170 2592 342 325 78 2114 2783 250 92
is_linear=0
shrinkage=0.1


Tree=16
num_leaves=57
num_cat=0
split_feature=135 6 122 117 127 118 123 117 127 91 113 134 105 76 96 37 71 71 31 48 73 3 46 72 84 54 30 108 75 5 4 93 30 32 125 49 110 127 29 120 34 0 125 111 126 72 111 105 47 104 108 127 106 120 111 110
split_gain=568.705 559.949 1120.05 882.377 561.344 1797.38 1121.69 1105.53 1018.46 625.889 392.746 352.227 267.907 324.248 489.96 245.017 277.591 263.852 255.818 233.97 220.633 275.464 187.5 182.034 253.654 178.159 181.607 309.037 274.929 236.635 186.232 176.013 151.33 150.725 135.31 114 237.775 97.5988 86.2134 86.1021 85.7305 80.8588 79.7965 65.2793 65.1698 64.6143 50.7125 21.7147 15.6909 13.4599 4.88798 3.56809 4.61533 1.72824 0.377642 0.304666
threshold=1.0000000180025095e-35 0.05266458913683892 -2.0347256660461421 -1.5776683688163755 -2.389813899993896 -1.2788625955581663 -1.5902349352836607 -1.3567525744438169 -2.5579348802566524 -0.84213879704475392 -1.3627086877822874 1.0000000180025095e-35 -0.90311792492866505 -1.1445851922035215 -0.97798213362693776 0.92636507749557506 -0.64789241552352894 -0.41559930145740503 0.98778674006462108 1.2341366410255434 -0.92768970131874073 0.6826385259628297 1.1398975253105166 -0.27343900501728052 -0.13817702233791349 1.0137783885002138 1.0752828717231753 -0.89840513467788685 -1.015765309333801 0.59272786974906932 0.75498196482658397 -1.0555625557899473 1.0535295605659487 0.90346938371658336 -2.7757420539855953 1.1904824972152712 -1.1655049324035642 -3.1819682121276851 1.1905669569969179 -1.7366873621940611 0.91889509558677684 0.61037811636924755 -1.4108535051345823 -1.2016326785087583 -2.9038145542144771 -0.61360016465187062 -1.2423690557479856 -0.90370646119117726 1.2357332706451418 -0.8647361397743224 -1.0584489107131956 -3.2304321527481075 -0.8582826256752013 -1.7586003541946409 -1.2482161521911619 -1.2050197124481199
decision_type=2 2 2 2 2 2 2 2 2 2 2 2 2 2 2 2 2 2 2 2 2 2 2 2 2 2 2 2 2 2 2 2 2 2 2 2 2 2 2 2 2 2 2 2 2 2 2 2 2 2 2 2 2 2 2 2
left_child=1 3 10 19 7 9 -7 8 -4 -6 50 -9 25 14 20 16 31 45 -18 44 38 -22 -19 37 34 26 28 30 41 -30 -28 -15 -16 -29 -25 46 -37 43 -14 -39 47 -2 -34 -5 48 -17 -12 49 -1 -27 55 52 -21 -26 -52 -3
right_child=12 2 4 23 5 6 -8 11 -10 -11 35 -13 13 15 32 17 18 22 -20 51 21 -23 -24 24 53 40 27 33 29 -31 -32 -33 42 -35 -36 36 -38 39 -40 -41 -42 -43 -44 -45 -46 -47 -48 -49 -50 -51 54 -53 -54 -55 -56 -57
leaf_value=-0.14034142417303952 0.11124145525305916 -0.11013057911356716 0.014141145623348448 -0.13358146993232034 0.17034760025133616 -0.044168966462913732 0.030500076299133008 -0.056684134763263942 0.12247694389169404 0.074553370567451857 0.081330167122890457 0.045630536765406682 0.050391508865951756 0.058254061165553761 0.092115005090924046 0.067403575680945987 0.090257253323745373 0.1357823409732361 0.050164380034068513 0.11370899014638094 0.035378806123832741 0.091682788841143684 -0.0051851265740468187 0.15821007188744288 -0.14622371224705374 -0.14284766031455701 0.022300980493053055 -0.10639343843943794 0.043878477766187356 -0.10132078995962564 0.08191434619298063 -0.025440353560025403 -0.045635918982210782 0.14094657527894019 -0.10547290773113133 -0.18201660585461313 0.16690787586884881 0.16876318600326873 -0.073051495742449873 -0.080629073422115324 0.10296977717310743 0.054938428803262246 -0.1615869731876422 0.014412628713141301 0.12301278825749062 -0.14474752330609139 0.15772658882131788 0.046021084622214103 0.022130930726277268 -0.024792674967532839 -0.17717002348869532 0.16394073352228322 0.15867247047567667 -0.11756343564629779 -0.20610054528061089 -0.13558407052704732
leaf_weight=41.940261110663414 716.27236288785934 13.9102930277586 6853.7655917182565 586.61252988874912 811.08520244807005 2071.3954607322812 69963.475249994546 2613.8481953889132 993.55029238760471 4287.3604473546147 95.997310549020767 386.18147976696491 76.58693228662014 590.12945510447025 39.638075336813927 16.340549498796463 5218.6853068768978 141.35703648626804 2289.729821741581 40.865250788629055 3717.608575746417 1133.9832128956914 283.76637652143836 83.527451455593109 47.499267689883709 92.593635320663452 4042.2641855627298 238.37720416486263 438.53654357418418 150.84945369511843 602.1002042144537 437.61245573312044 95.06979700922966 27.477413892745972 25.372657790780067 32.529742226004601 48.870733752846718 21.300392970442772 216.54885882884264 39.54408386349678 20.720214996486902 396.14396148920059 157.97593787312508 31.400245651602745 14.671028077602385 118.21639793366194 915.86758710443974 7.4694813415408126 6.925717204809188 10.782281707972286 19.945814102888111 145.44702093303204 51.72327995300293 37.770471230149269 5.8310374468564978 7.1041231453418723
leaf_count=332 532 171 19524 3716 480 6257 185393 8505 1149 6065 108 750 116 842 36 21 4571 83 3115 33 5768 1338 850 50 223 617 8529 914 977 484 1007 980 212 21 100 142 24 10 650 1253 39 578 534 137 18 476 307 18 18 76 82 38 14 300 24 37
internal_value=0 0.0297907 0.0306947 -0.0388033 0.0294186 0.0324141 0.0283529 0.00811858 0.0278576 0.0897928 0.129177 -0.0435136 0.0479641 0.0556077 0.0362888 0.0671564 0.071359 0.00305943 0.0780307 0.108666 0.0434486 0.048539 0.0416877 -0.0897439 -0.00436314 0.031491 0.0337838 0.0240271 0.0619348 0.00671568 0.0300293 0.022617 -0.0895649 -0.0808296 0.0967745 0.14132 0.0274686 -0.114165 -0.0407998 0.006678 -0.0837361 0.0911913 -0.118024 -0.126062 -0.0618216 -0.118984 0.150479 -0.118637 -0.117314 -0.130534 -0.154532 0.154172 0.138827 -0.133529 -0.183714 -0.118735
internal_weight=0 90295.3 89120.7 1174.6 87980.7 77133.3 72034.9 10847.3 7847.32 5098.45 1140.06 3000.03 21276.8 14533.2 5437.41 9095.84 8536.16 559.68 7508.42 301.573 5144.73 4851.59 425.123 873.027 194.17 6743.59 6612.02 4910.22 1701.8 589.386 4644.36 1027.74 292.684 265.855 108.9 1093.27 81.4005 678.857 293.136 60.8445 131.566 1112.42 253.046 618.013 63.537 134.557 1011.86 110.845 48.866 103.376 46.7913 238.036 92.5885 85.2697 25.7769 21.0144
internal_count=268644 235260 229018 6242 228123 198195 191650 29928 20673 6545 895 9255 33384 19592 8654 10938 9508 1430 7686 453 7872 7106 933 5789 673 13792 13042 10471 2571 1461 9536 1822 782 935 150 581 166 5116 766 1263 750 1110 746 3853 368 497 415 711 350 693 314 85 47 523 106 208
is_linear=0
shrinkage=0.1


Tree=17
num_leaves=61
num_cat=0
split_feature=31 131 72 99 31 118 0 118 74 117 75 29 94 75 118 117 5 104 83 69 56 30 111 123 56 106 30 103 0 74 55 83 75 133 20 75 129 66 77 6 31 118 30 132 73 124 20 5 50 75 36 91 17 50 11 104 79 30 75 54
split_gain=515.014 571.228 662.736 936.562 655.337 532.956 1081.78 493.788 604.07 512.724 443.207 416.718 358.207 427.559 355.767 342.517 335.536 304.861 293.205 428.444 269.309 356.549 262.474 261.011 455.371 237.496 210.851 204.215 175.924 188.982 174.039 352.844 170.519 166.055 162.611 156.278 155.061 223.825 154.987 157.562 150.957 143.25 138.799 137.511 136.103 128.034 122.579 94.4812 88.556 83.4686 83.0698 68.7362 55.3026 57.4741 47.7277 45.9649 43.9651 8.99448 1.08819 0.205831
threshold=1.006445109844208 1.0000000180025095e-35 -0.62547284364700306 -0.86782971024513234 1.0007049441337588 -1.623650014400482 -0.23899807035923001 -0.96730154752731312 -0.95072162151336659 -1.0291532874107359 -1.0764116048812864 1.2354298233985903 -1.1447990536689756 -1.1500702500343321 -1.0828202962875364 -1.0066214203834531 0.79326272010803234 -0.82280293107032765 -1.2074504494667051 -0.22479529678821561 0.98041898012161266 1.0602989196777346 -1.2697442173957822 -1.2348136305809019 0.97585749626159679 -0.81792584061622609 1.0396667122840884 -0.83488950133323658 0.38858895003795629 -0.9361995756626128 0.92235261201858532 -1.3567801117897031 -1.0345814228057859 1.0000000180025095e-35 1.2723422050476076 -1.0455721020698545 1.0000000180025095e-35 0.19230987876653674 -1.1534608006477354 0.67782568931579601 1.0086413621902468 -1.2970066666603086 1.0981145501136782 1.0000000180025095e-35 -0.74316555261611927 -1.2785153985023496 1.3875508904457095 0.67084360122680675 1.1021020412445071 -1.1109290719032285 0.89387628436088573 -1.1822774410247801 1.1556793451309206 1.0687727332115176 0.91084393858909618 -0.83239287137985218 -1.3566067218780515 1.0420979857444765 -1.1617544889450071 0.90583291649818432
decision_type=2 2 2 2 2 2 2 2 2 2 2 2 2 2 2 2 2 2 2 2 2 2 2 2 2 2 2 2 2 2 2 2 2 2 2 2 2 2 2 2 2 2 2 2 2 2 2 2 2 2 2 2 2 2 2 2 2 2 2 2
left_child=1 2 11 36 20 22 -7 8 9 38 15 12 57 -14 35 -11 43 18 19 -6 21 46 -5 24 -19 -25 50 -23 29 -16 42 33 -18 34 -32 -10 37 -4 48 -40 -30 -37 49 -13 -20 -38 -3 -12 -2 51 -22 -9 56 -54 -51 -28 -33 -1 -44 -60
right_child=7 4 3 5 17 6 -8 30 14 10 47 16 13 -15 28 -17 32 23 44 -21 26 27 -24 25 -26 -27 55 -29 40 -31 31 52 -34 -35 -36 41 45 -39 39 -41 -42 -43 58 -45 -46 -47 -48 -49 -50 54 -52 -53 53 -55 -56 -57 -58 -59 59 -61
leaf_value=-0.10649642768066236 0.11020514610720145 -0.11083680511456612 0.035151743630110338 -0.073469988432353486 0.057208938759651495 -0.072996995983956689 0.028377095893252619 -0.0027831642360031227 0.19871531912223114 0.11254600327683047 -0.079972196648563074 -0.11739742553980331 0.077284843651641955 0.040370027982239515 0.10474844403004589 0.025075252856016042 0.061129419508892939 -0.090314343861072205 0.10493928153110255 -0.051302650833054048 0.1647319639407861 -0.024295283468061445 0.13990392683435554 0.15330314718707885 0.20012978299228307 -0.0091471231429813889 -0.010940715091393636 0.15541078647987161 -0.11916571154803604 -0.044571000110256657 -0.038773424735747311 0.16026935327882913 -0.078716797357334445 0.34932935689347505 0.077580542435231103 0.11323810797998833 -0.049586698303028587 -0.10211522652058438 -0.12582663518759271 0.089619592903290121 -0.041384408510848937 0.00336266718079579 -0.19212991656335096 0.2168092485426267 -0.14723948749539267 0.07295259733619773 0.0012243007700283718 0.015840550281054227 0.1874605969801664 -0.14468550051669585 -0.082070599517231002 0.10470066946778489 -0.093458369241837203 -0.017067059042731675 0.20218830629398929 0.15135992300510043 -0.13649015154395716 -0.19171188070988465 -0.14511050295169131 -0.12881168597471199
leaf_weight=131.55133088678122 416.78269235789776 877.29918629303575 140.08047035709023 64.155884124338627 585.17808894813061 1080.0002353321761 41574.059679703787 90.319143272936344 45.285781964659691 565.43786370009184 405.40783861279488 331.04359408095479 3354.0344549790025 48618.157430537045 131.5787658020854 2149.3470248132944 343.27974493056536 177.26364228129387 343.51425451040268 962.10994666814804 15.712912037968634 752.44343469291925 568.54857915639877 443.39127735793591 77.617047846317291 112.91183857619762 20.202108070254326 69.037471532821655 408.42769718170166 238.20173498988152 383.00874038040638 5.0835924893617621 116.87729361653328 13.762633085250853 174.98970291763544 127.198829844594 230.8037545979023 781.53531371615827 46.762380689382553 123.84158815443516 641.31132680177689 1766.9437321797013 3.311923671513795 12.786936432123182 22.823715880513191 135.2193481773138 109.83347173780203 137.93769439309835 230.39550784230232 29.553836867213249 103.2656231969595 174.35053090751171 470.18647069483995 124.58456246554852 4.581620290875434 128.07232935726643 277.91826612874866 13.673677027225493 10.131540961563585 32.936513096094131
leaf_count=2661 529 6266 381 647 1217 5568 105498 258 38 789 1765 1910 5256 93315 357 5847 649 775 578 3050 25 2796 385 365 117 299 52 88 2318 1230 1513 6 374 4 389 137 637 4478 199 180 2684 5775 16 7 108 193 820 397 147 172 448 291 2289 482 4 121 1415 59 54 216
internal_value=0 0.0319871 0.0336453 0.0246617 -0.00168855 0.0271617 0.0258103 0.00732237 0.0186866 0.0445626 0.0267935 0.0412119 0.0423141 0.0427523 -0.0127125 0.0432937 -0.0302331 0.0305602 0.00878239 -0.010264 -0.0440187 -0.0578643 0.118268 0.0819352 -0.00186741 0.120331 0.0496808 -0.00919274 -0.0507531 0.00856124 -0.0397556 -0.0549519 0.0256093 0.00617903 -0.00228453 0.0151304 -0.0593822 -0.0812514 0.115356 0.030566 -0.0716472 0.0107412 0.024058 -0.104968 0.089228 -0.0043172 -0.0983683 -0.0556485 0.137708 0.0490406 -0.0494766 0.0680216 -0.0947711 -0.077457 -0.0981285 0.129247 -0.131159 -0.11452 -0.136894 -0.132646
