tree
version=v4
num_class=1
num_tree_per_iteration=1
label_index=0
max_feature_idx=136
objective=binary sigmoid:1
feature_names=Column_0 Column_1 Column_2 Column_3 Column_4 Column_5 Column_6 Column_7 Column_8 Column_9 Column_10 Column_11 Column_12 Column_13 Column_14 Column_15 Column_16 Column_17 Column_18 Column_19 Column_20 Column_21 Column_22 Column_23 Column_24 Column_25 Column_26 Column_27 Column_28 Column_29 Column_30 Column_31 Column_32 Column_33 Column_34 Column_35 Column_36 Column_37 Column_38 Column_39 Column_40 Column_41 Column_42 Column_43 Column_44 Column_45 Column_46 Column_47 Column_48 Column_49 Column_50 Column_51 Column_52 Column_53 Column_54 Column_55 Column_56 Column_57 Column_58 Column_59 Column_60 Column_61 Column_62 Column_63 Column_64 Column_65 Column_66 Column_67 Column_68 Column_69 Column_70 Column_71 Column_72 Column_73 Column_74 Column_75 Column_76 Column_77 Column_78 Column_79 Column_80 Column_81 Column_82 Column_83 Column_84 Column_85 Column_86 Column_87 Column_88 Column_89 Column_90 Column_91 Column_92 Column_93 Column_94 Column_95 Column_96 Column_97 Column_98 Column_99 Column_100 Column_101 Column_102 Column_103 Column_104 Column_105 Column_106 Column_107 Column_108 Column_109 Column_110 Column_111 Column_112 Column_113 Column_114 Column_115 Column_116 Column_117 Column_118 Column_119 Column_120 Column_121 Column_122 Column_123 Column_124 Column_125 Column_126 Column_127 Column_128 Column_129 Column_130 Column_131 Column_132 Column_133 Column_134 Column_135 Column_136
feature_infos=[-1.8014661073684692:2.1873281002044678] [-1.7160434722900391:2.0962586402893066] [-1.6382262706756592:2.0136351585388184] [-1.5680137872695923:1.9394575357437134] [-1.5054070949554443:1.8737261295318604] [-1.4504051208496094:1.8164401054382324] [-1.4123568534851074:1.7937201261520386] [-1.3844102621078491:1.9274762868881226] [-1.3517893552780151:1.9831451177597046] [-1.3099035024642944:2.0549979209899902] [-1.2559221982955933:2.0118343830108643] [-1.1870334148406982:2.073509693145752] [-1.1039742231369019:2.1457490921020508] [-1.0067610740661621:2.2142360210418701] [-0.90047705173492432:2.2825961112976074] [-0.78966546058654785:2.3805651664733887] [-0.67814630270004272:2.4481546878814697] [-0.65620064735412598:2.4658794403076172] [-0.66012513637542725:2.4605560302734375] [-0.66667592525482178:2.4363620281219482] [-0.8555336594581604:2.3612079620361328] [-0.86833834648132324:2.2960772514343262] [-0.86565589904785156:2.1994528770446777] [-0.7797551155090332:2.1797337532043457] [-1.0841877460479736:2.1696581840515137] [-1.4308524131774902:2.0883691310882568] [-1.6366665363311768:1.9448176622390747] [-1.8254417181015015:1.7314887046813965] [-1.8748650550842285:1.5598906278610229] [-2.1252865791320801:1.3455723524093628] [-2.4022552967071533:1.1459542512893677] [-2.6850478649139404:1.0691677331924438] [-2.6397361755371094:1.0182701349258423] [-2.3245775699615479:1.0153312683105469] [-1.6179424524307251:1.0222163200378418] [-0.83407443761825562:1.0987448692321777] [-0.66328972578048706:1.3781088590621948] [-0.67049169540405273:1.4172744750976562] [-0.67192721366882324:1.4686216115951538] [-0.67710685729980469:1.427788257598877] [-0.67391806840896606:1.3506048917770386] [-0.77278417348861694:1.3033223152160645] [-0.78214722871780396:1.4334096908569336] [-0.67822211980819702:1.6771683692932129] [-0.67593681812286377:1.8418123722076416] [-0.67998087406158447:1.9795904159545898] [-0.67735743522644043:1.8671952486038208] [-0.68056988716125488:1.8940913677215576] [-0.67851173877716064:2.0411467552185059] [-0.68057990074157715:2.1347439289093018] [-0.67615658044815063:2.1180493831634521] [-0.68208664655685425:2.1010029315948486] [-0.6882440447807312:2.2836933135986328] [-0.69760811328887939:2.324758768081665] [-0.68820065259933472:2.0119130611419678] [-0.66555494070053101:1.7058380842208862] [-0.63047897815704346:1.5109990835189819] [-0.64525216817855835:1.3294024467468262] [-0.85317844152450562:1.3174220323562622] [-0.73171019554138184:1.3004671335220337] [-0.62303602695465088:1.2900781631469727] [-0.62908732891082764:1.6912268400192261] [-0.65896600484848022:1.8743280172348022] [-0.67422842979431152:1.7138135433197021] [-0.93073725700378418:1.3433690071105957] [-1.1305865049362183:1.0751444101333618] [-1.2528316974639893:0.99085426330566406] [-1.6713657379150391:0.88485002517700195] [-1.8910553455352783:0.75389385223388672] [-2.0949718952178955:0.60495084524154663] [-1.9126988649368286:0.45876148343086243] [-1.7446892261505127:0.33052113652229309] [-1.674402117729187:0.23037496209144592] [-1.5674382448196411:0.15855956077575684] [-1.4517455101013184:0.2961885929107666] [-1.6804615259170532:0.9557119607925415] [-1.8599822521209717:1.3625956773757935] [-1.985605001449585:1.0853415727615356] [-2.0616223812103271:1.1285310983657837] [-2.1171634197235107:0.92254304885864258] [-2.1664650440216064:0.73609095811843872] [-2.193009614944458:0.28676301240921021] [-2.2026488780975342:0.33890664577484131] [-2.2012209892272949:0.39074629545211792] [-2.1849808692932129:0.5232703685760498] [-2.1524448394775391:0.47703936696052551] [-2.1025960445404053:0.50853937864303589] [-2.0367574691772461:0.53271615505218506] [-1.9560787677764893:0.67684948444366455] [-1.8642418384552002:0.56802195310592651] [-1.767259955406189:0.65018975734710693] [-1.8478662967681885:1.0688302516937256] [-1.6520191431045532:1.4168777465820312] [-1.5958865880966187:1.6287872791290283] [-1.5394163131713867:1.6652539968490601] [-1.4922878742218018:1.6182962656021118] [-1.4531639814376831:1.5608183145523071] [-1.4315723180770874:1.5597559213638306] [-1.414076566696167:1.5645072460174561] [-1.522296667098999:1.5648646354675293] [-2.0638625621795654:1.5687597990036011] [-2.4396805763244629:1.5680602788925171] [-2.5584738254547119:1.5700795650482178] [-2.4521515369415283:1.5662518739700317] [-2.0341367721557617:1.5674868822097778] [-1.4165751934051514:1.5623446702957153] [-1.1201972961425781:1.563502311706543] [-1.1215335130691528:1.561995267868042] [-1.168958306312561:1.5723429918289185] [-1.225764274597168:1.5757462978363037] [-1.369315505027771:1.5827798843383789] [-1.6010570526123047:1.5861003398895264] [-2.1400496959686279:1.5904537439346313] [-2.4733853340148926:1.5896482467651367] [-2.4821960926055908:1.5896980762481689] [-1.9469403028488159:1.5865405797958374] [-1.5772113800048828:1.5868538618087769] [-1.6319060325622559:1.7016431093215942] [-1.6864286661148071:2.5795986652374268] [-1.7459897994995117:2.8008601665496826] [-1.8207311630249023:2.5472877025604248] [-1.9267433881759644:1.7488086223602295] [-2.1567583084106445:1.6308574676513672] [-2.3918964862823486:1.6220458745956421] [-2.6616356372833252:1.8138364553451538] [-2.9761693477630615:2.1341862678527832] [-3.3342947959899902:2.7791450023651123] [-3.8750591278076172:3.7871904373168945] [0:1] [0:1] [0:1] [0:1] [0:1] [0:1] [0:1] [0:1] [0:1]
tree_sizes=6275 6007 6123 6008 4967 5283 4764 6144 5086 4958 6253 5104 5154 5184 5906 6696 6214 6068 6702 6305 6049 6476 6960 6832 6180 6485 5114 6505 6954 5966 5951 5282 6374 6083 5260 6859 6733 5394 6822 6617 6087 5949 6963 6954 6935 6361 6869 6228 6299 6971 6968 5428 5790 6055 6048 5860 6995 6809 5431 6647 6656 6517 6962 5813 6947 6014 6919 6594 6745 6869 5655 5549 6937 6687 6219 6918 6691 6931 6472 6420 6605 6948 4591 6053 6486 6119 6947 6873 6487 5178 6817 6957 6175 6937 6939 6799 6665 6711 6594 6891 6932 5658 5016 5886 6184 6933 6732 4597 6334 6775 6731 5129 5647 6698 6957 5760 6888 5851 4493 6923 6939 6965 6820 6823 6396 5558 5948 6828 6959 6704 6317 6504 6814 6974 6692 6970 6481 6697 6951 6321 5994 6046 5521 5763 6857 6977 6959 6109 6817 4081 6684 6984 6347 5808 5822 5873 6931 6854 6594 6607 6675 4292 6448 5722 6444 6930 6357 6423 6963 6834 6710 6031 5153 6390 6959 6822 6400 6633 5689 6913 6775 6382 6470 6717 6492 6646 5591 6819 6323 6962 5763 6440 4830 6211 6815 6287 6673 5262 6703 6834

Tree=0
num_leaves=58
num_cat=0
split_feature=107 75 131 118 128 136 129 61 110 130 131 30 10 104 80 115 120 78 31 135 121 108 4 119 123 105 56 5 92 55 69 44 106 134 121 104 70 103 30 57 126 105 30 73 31 32 114 57 37 107 105 53 105 107 102 0 67
split_gain=13881.9 5971.24 3601.91 2768.82 2540.96 2534.64 2293.43 2185.65 2167.14 1815.35 1490.92 1370.42 1330.25 1044.07 888.234 767.969 698.143 574.271 450.749 361.628 368.96 318.225 297.125 296.414 419.261 289.536 319.445 221.522 213.437 213.323 192.246 181.385 226.263 180.115 166.783 163.364 169.875 159.67 157.994 148.323 143.691 111.942 111.261 109.382 102.2 88.8777 70.6665 70.6591 66.2507 52.3024 48.8088 45.1656 34.6772 23.2041 7.5989 1.13687e-13 3.55271e-15
threshold=-0.86763924360275257 -1.1744046211242674 1.0000000180025095e-35 -1.5838881731033323 1.0000000180025095e-35 1.0000000180025095e-35 1.0000000180025095e-35 0.78406625986099254 -1.2006455063819883 1.0000000180025095e-35 1.0000000180025095e-35 1.0539368987083437 0.11587124317884447 -0.82357141375541676 -0.34046179056167597 -0.95236971974372853 -1.742614686489105 -1.3030146956443784 1.0056754946708681 1.0000000180025095e-35 -1.8763481974601743 -0.82421705126762379 0.70478689670562755 -1.6476160287857053 -2.13836658000946 -0.81208133697509755 0.97160866856575023 -0.035967914387583726 -1.1917580366134641 1.0179570913314822 0.073016393929719939 1.0926293134689333 -0.85165259242057789 1.0000000180025095e-35 -1.8582135438919065 -0.80906596779823292 -0.2865887433290481 -0.86272940039634693 1.0764953494071963 0.91421267390251171 -2.8858385086059566 -0.85294136404991139 1.0628983974456789 -0.88493072986602772 1.0007209181785586 0.8320746421813966 -1.0222862362861631 0.95606559514999401 0.89035111665725719 -0.99706241488456715 -0.86176136136054982 1.0060200691223147 -0.79901406168937672 -0.86940026283264149 -0.8230086863040923 0.61502972245216381 -0.020818302407860752
decision_type=2 2 2 2 2 2 2 2 2 2 2 2 2 2 2 2 2 2 2 2 2 2 2 2 2 2 2 2 2 2 2 2 2 2 2 2 2 2 2 2 2 2 2 2 2 2 2 2 2 2 2 2 2 2 2 2 2
left_child=3 22 5 8 7 6 15 9 14 10 -5 29 16 31 25 -3 27 -13 -11 20 -9 -8 28 40 -25 26 -1 -10 41 -7 47 32 -4 50 -27 36 -15 42 44 -33 -14 48 53 -43 -39 -32 -44 -16 -2 -21 -30 -40 -18 -6 -37 56 -24
right_child=1 2 13 4 37 11 21 19 12 18 -12 17 23 35 30 -17 52 -19 -20 49 -22 -23 55 24 -26 34 -28 -29 33 -31 45 39 -34 -35 -36 54 -38 38 51 -41 -42 43 46 -45 -46 -47 -48 -49 -50 -51 -52 -53 -54 -55 -56 -57 -58
leaf_value=-1.6146188147911305 -1.4454335682326076 -1.4680403852334063 -1.4473316470190345 -1.3007479828056998 -1.6627437289792599 -1.2285432420937501 -1.3349627577389696 -1.3467626994122934 -1.3014821450289751 -1.4168598425116445 -1.3745686140555522 -1.4335914068312696 -1.087072918568444 -1.6716749651187706 -1.6603844860004922 -1.4051148209119553 -1.3906298901648046 -1.3136186535437431 -1.3316236914927795 -1.6948217561760317 -1.5100901984033774 -1.4203195557107668 -1.6948217561760317 -1.3111909896134568 -1.0162718609577053 -1.0149395254501914 -1.2409892231701922 -1.0936311229114581 -1.5108410824138017 -1.3651428404483044 -1.5318218541088231 -1.2787910927156885 -1.5404114302091785 -0.99146166826224336 -1.6948217561760317 -1.6026405576648139 -1.5159550429883242 -1.4876081189609933 -1.4803256751876854 -1.5604046025754066 -1.0049918793835342 -1.612378857779873 -1.6019527930748574 -1.4623303072824596 -1.4076257194357809 -1.0534737806418093 -1.4776613261307852 -1.5215303985119102 -1.1510668196177678 -1.1504061898918165 -1.6692780567598271 -1.1290682478984533 -1.6740369827309218 -1.3812641528205023 -1.6891314500656347 -1.6948217561760317 -1.6948217561760317
leaf_weight=24.070975601673126 27.094188839197159 4311.7747209966183 532.38866105675697 35709.954908430576 60.183347105979919 1406.6888668835163 3402.6094019412994 170.55960041284561 181.60091343522072 1918.6730808615685 2962.8803341686726 777.82601073384285 448.69198140501976 125.10781994462013 56.060281068086624 3525.1757090687752 4.7598980963230124 819.16587355732918 916.91602376103401 1.8482709825038899 731.54481452703476 501.09841284155846 11.37397527694702 111.96971541643143 84.642634242773056 4.2593326270580318 463.67626079916954 71.449928492307663 20.986585229635239 124.43763539195061 5.9219760894775417 73.086843430995941 512.61523061990738 4.1171579360961905 23.60099869966507 10.471566200256346 159.20125332474709 393.63378664851189 4.500229179859164 25.134331732988358 406.49773481488228 117.08486011624336 57.167090028524399 83.038023740053177 268.8843574821949 11.288117676973341 228.91830894351006 105.83533522486687 10.651285618543623 39.007322371006012 264.52592274546623 19.62115541100502 46.441763013601303 3.0784822702407828 339.27226546406746 551.21127685904503 3.6965419650077811
leaf_count=154 137 22575 2700 139603 408 4694 14225 729 711 9267 13317 3860 994 857 379 16698 22 3286 3809 13 4074 2434 80 447 140 7 1593 162 117 550 34 273 2978 6 166 66 894 2122 24 150 636 747 360 431 1279 22 1216 599 29 106 1807 50 319 14 2371 3877 26
internal_value=-1.5741 -1.41818 -1.40331 -1.31391 -1.31926 -1.38723 -1.40854 -1.31549 -1.20036 -1.31207 -1.3064 -1.30724 -1.12678 -1.53786 -1.34398 -1.43974 -1.31093 -1.37205 -1.3893 -1.46603 -1.47921 -1.34592 -1.64452 -1.07351 -1.18423 -1.27734 -1.25943 -1.24279 -1.59052 -1.23964 -1.53583 -1.48078 -1.49299 -1.64816 -1.59088 -1.64078 -1.58448 -1.474 -1.44599 -1.35085 -1.04806 -1.52033 -1.52904 -1.55012 -1.45515 -1.21807 -1.5025 -1.56961 -1.36237 -1.17504 -1.65763 -1.1946 -1.64769 -1.64905 -1.68654 -1.69482 -1.69482
internal_weight=0 17739.8 16646.1 45538.1 43487.4 14868.8 11740.7 42451.4 2050.77 41508.4 38672.8 3128.12 1356.05 1777.28 694.713 7836.95 304.253 1596.99 2835.59 942.96 902.104 3903.71 1093.78 1051.8 196.612 515.608 487.747 253.051 527.498 1531.13 179.106 1143.23 1045 289.63 27.8603 634.053 284.309 1035.99 686.64 98.2212 855.19 237.868 349.347 200.123 662.518 17.2101 286.085 161.896 37.7455 40.8556 285.513 24.1214 51.2017 63.2618 349.744 566.282 15.0705
internal_count=268644 85868 78611 182776 176391 68322 55932 170918 6385 165996 152920 12390 3431 10289 2954 39273 1214 7146 13076 4922 4803 16659 7257 2217 587 1920 1747 873 3274 5244 1034 6101 5678 1930 173 4188 1751 5473 3475 423 1630 1344 1998 1178 3401 56 1576 978 166 119 1924 74 341 422 2437 3983 106
is_linear=0
shrinkage=1


Tree=1
num_leaves=55
num_cat=0
split_feature=107 114 131 128 128 130 119 103 5 134 74 131 96 110 16 105 30 120 106 29 106 85 6 77 116 120 31 37 104 104 70 91 54 37 6 31 31 43 94 96 55 31 90 32 76 80 40 110 76 19 103 136 120 74
split_gain=7336.52 4178.04 1959.3 1457.54 1445.91 1342.68 1206.54 1691.08 3187.97 2458.31 1970.6 1113 918.024 871.572 827.481 639.272 599.903 573.502 495.532 438.247 412.656 407.537 478.692 304.975 300.6 152.32 146.168 141.871 209.745 115.932 155.254 100.674 96.5063 95.3787 143.884 117.246 99.1158 59.1223 55.6202 48.7539 41.9347 35.9388 39.3004 30.1985 29.8715 18.9521 12.3794 6.33001 5.26245 0.0468831 0.021663 0.00824081 0.00753138 0.00312318
threshold=-0.86534640192985524 -0.82366251945495594 1.0000000180025095e-35 1.0000000180025095e-35 1.0000000180025095e-35 1.0000000180025095e-35 -1.6428606510162351 -0.84323972463607777 0.6304258704185487 1.0000000180025095e-35 -1.0162269473075864 1.0000000180025095e-35 -0.98638039827346791 -1.2047826647758482 0.62261417508125316 -0.82054525613784779 1.0518711209297182 -1.742614686489105 -0.84157168865203846 1.1495288610458376 -0.90905085206031788 -1.3607181310653684 0.61299094557762157 -1.2874768376350401 -1.5221322774887083 -1.7370638251304624 0.98491051793098461 0.89543405175209057 -0.852668136358261 -0.81325221061706532 -0.2865887433290481 -1.2398279309272764 1.1265821456909182 0.99623817205429088 0.559087634086609 1.000504791736603 1.008411228656769 1.0128797292709353 -1.1410089731216428 -0.73657676577568043 1.0768632888793948 0.95450657606124889 -1.1690338253974912 0.96573510766029369 -1.3084490299224851 -1.219617962837219 1.0290234088897707 -0.78597146272659291 -0.74683779478073109 1.7590272426605227 -1.0479152798652647 1.0000000180025095e-35 -0.58686891198158253 -1.0523010492324827
decision_type=2 2 2 2 2 2 2 2 2 2 2 2 2 2 2 2 2 2 2 2 2 2 2 2 2 2 2 2 2 2 2 2 2 2 2 2 2 2 2 2 2 2 2 2 2 2 2 2 2 2 2 2 2 2
left_child=3 2 4 6 5 16 13 9 11 10 -8 -9 -11 20 17 -7 -2 -15 27 -10 24 22 -6 -23 -1 -16 32 31 -29 30 -20 -4 41 34 35 -28 -36 49 -39 -34 -22 48 -43 -35 47 -45 -31 -40 -5 50 -3 53 -52 -51
right_child=1 37 18 26 21 15 7 8 19 12 -12 -13 -14 14 25 -17 -18 -19 29 -21 40 23 -24 -25 -26 -27 33 28 -30 46 -32 -33 39 43 36 -37 -38 38 44 -41 -42 42 -44 45 -46 -47 -48 -49 -50 51 52 -53 -54 -55
leaf_value=0.10438565042758674 0.20476839291812304 -0.12558849786816315 0.2245464764702684 -0.095645331931139943 0.18467535971574517 0.15654880890614475 0.13115865419025083 0.18641470543902539 -0.046814311240607621 0.3854515591586371 0.21395028313141978 0.062584393383135359 0.25870199816909994 0.24759436505617552 0.36849699641684841 0.070591092881025649 0.14891916405483596 0.0021533241731387372 -0.02946037418177009 0.40972901473627393 -0.063662935396618187 -0.042614834662585983 0.06152929916763638 0.080518637946948357 0.26482830834237076 0.30158698927869731 0.12528368214494834 0.17806284004998682 0.059072186966653943 -0.099893627160168641 0.099997288290992747 0.016453441941236581 0.46947885937127104 0.20384839917502778 0.057969660240080101 0.2640518643385652 0.14179958006642468 0.38048134673876122 -0.12126279089847583 0.088016579860186558 0.29041405601270792 0.23134795287181276 0.0065946668885292535 0.070609895182907015 0.14549543347947891 -0.10701521806300439 -0.044102604620149005 0.037439556401215192 0.04364752275468757 -0.12046343906534751 -0.12119031295343036 -0.12821836498196926 -0.11840134173105686 -0.12424661212161203
leaf_weight=214.34522153437138 5172.8757205158472 4.2685588002204886 24.976552113890648 38.9952751994133 832.40428361296654 1596.2267663031816 3305.5104817897081 21860.040039852262 688.48157322406769 953.03326638042927 22069.837053015828 750.77180409431458 1427.0993214547634 480.61503455042839 787.7409375756979 1889.1964672207832 3061.6243952363729 118.71633061766624 438.68854835629463 21.688268318772316 80.406171202659607 218.63863885402679 508.47645987570286 2514.1837028264999 256.53394721448421 598.90461730957031 184.9722943007946 259.21264362335205 345.70548824965954 173.88933107256889 117.43671800196171 336.08205047249794 6.5230430662631989 4.4350816011428824 441.78119999170303 90.761681601405144 207.18581509590149 3.8531100749969509 15.263466417789465 6.8888235688209516 3.4900413155555716 8.1846345216035825 157.40966293215752 7.4850614219903937 7.1887867897748903 30.417113661766052 51.565345734357834 3.0086615234613445 2.9149998724460593 3.4974495172500601 9.8258532136678678 4.0716435313224784 663.56092490255833 5.8024490773677817
leaf_count=972 17629 27 95 271 3247 6762 13205 76910 3707 1817 72438 3564 4128 1346 1050 9351 12229 666 2781 46 491 1250 2566 12326 697 1151 867 1068 1826 1259 590 1857 13 18 2256 301 905 12 106 35 11 32 901 38 32 197 355 16 16 25 69 24 5056 37
internal_value=0 0.123334 0.133027 0.196519 0.144144 0.161983 0.198947 0.195601 0.175751 0.21228 0.203165 0.182303 0.309454 0.266205 0.297161 0.109957 0.184003 0.198977 0.0325544 -0.0328717 0.15539 0.0928227 0.137977 0.0706674 0.191794 0.339598 0.0869595 0.0804531 0.110061 -0.026645 -0.00212286 0.0308485 0.01357 0.103725 0.110445 0.170961 0.0847328 -0.112702 0.0263943 0.273546 -0.0489335 -0.00323328 0.0177033 -0.043047 -0.0271912 -0.0719372 -0.0871333 -0.0951311 -0.085957 -0.118603 -0.118487 -0.124466 -0.118442 -0.122824
internal_weight=0 18261.5 17541.2 54805.2 15793.6 11719.9 53617.2 51076.5 23321 27755.5 25375.3 22610.8 2380.13 2540.75 1985.98 3485.42 8234.5 599.331 1747.56 710.17 554.775 4073.7 1340.88 2732.82 470.879 1386.65 1187.95 965.977 604.918 781.58 556.125 361.059 220.916 967.038 924.701 275.734 648.967 720.341 29.314 13.4119 83.8962 207.505 165.594 42.3373 25.4609 37.9022 225.455 18.2721 41.9103 691.027 677.655 13.3715 673.387 9.2999
internal_count=268644 80595 75191 188049 65360 45971 182199 175815 84227 91588 85643 80474 5945 6384 4213 16113 29858 2012 9831 3753 2171 19389 5813 13576 1669 2201 5850 4846 2894 4985 3371 1952 1268 4582 4329 1168 3161 5404 166 48 502 1220 933 253 154 235 1614 122 287 5238 5152 86 5125 62
is_linear=0
shrinkage=0.1


Tree=2
num_leaves=56
num_cat=0
split_feature=76 106 131 136 119 98 30 131 73 35 133 75 71 72 103 10 120 129 110 111 103 121 129 113 0 51 116 75 57 92 31 107 76 103 47 85 93 52 123 124 76 118 43 115 32 96 104 32 110 99 112 9 94 33 106
split_gain=4884.55 2953.75 1934.39 1164.68 945.348 1774.94 1136.06 1033.85 972.673 842.171 783.048 736.838 662.846 653.872 607.192 561.127 551.223 527.849 478.277 474.108 442.06 387.797 348.522 327.641 323.654 272.277 250.113 253.925 231.166 142.492 103.883 131.462 127.974 102.944 94.4187 92.927 107.442 88.0801 88.0619 63.6066 34.9225 29.2388 25.6843 24.9027 24.5087 56.7166 6.24342 1.19271 0.0678089 0.00764012 0.00361264 0.001577 0.000943807 0.000160049 1.73596e-05
threshold=-1.2538419961929319 -0.86190727353095997 1.0000000180025095e-35 1.0000000180025095e-35 -1.614984333515167 -0.75495469570159901 1.0760782957077029 1.0000000180025095e-35 -0.89850160479545582 0.80575656890869152 1.0000000180025095e-35 -1.2058156132698057 -0.42609812319278711 -0.56637406349182118 -0.8108789026737212 0.15739583224058154 -1.7313150763511655 1.0000000180025095e-35 -1.1970395445823667 -1.2394526600837705 -0.81567239761352528 -1.7814396023750303 1.0000000180025095e-35 -1.3902022838592527 0.352489784359932 1.1619513034820559 -0.89401954412460316 -1.1744046211242674 0.90425142645835888 -1.1917580366134641 1.0094165205955508 -0.85764658451080311 -1.2147282958030698 -0.65980827808380116 1.0665986537933352 -1.4014551639556883 -1.098249554634094 1.0851890444755556 -1.141766309738159 -1.7083162069320676 -1.2619984149932859 -0.93285399675369252 1.0935508012771609 -0.86962541937828053 0.94971701502799999 -1.0624315142631529 -0.82581889629364003 0.96074199676513683 -0.78597146272659291 -0.98454171419143666 -0.81064406037330616 0.93220782279968273 -1.1258105039596555 0.91858562827110302 -0.87351697683334339
decision_type=2 2 2 2 2 2 2 2 2 2 2 2 2 2 2 2 2 2 2 2 2 2 2 2 2 2 2 2 2 2 2 2 2 2 2 2 2 2 2 2 2 2 2 2 2 2 2 2 2 2 2 2 2 2 2
left_child=11 4 3 10 15 6 7 -6 -8 28 17 44 20 -12 30 16 18 -3 -2 23 -5 -11 26 -17 -14 -21 40 29 -7 -28 32 -32 -4 -18 43 36 -36 -37 -29 -16 47 -42 -41 -24 48 -46 -45 -13 49 -1 -51 -50 -47 -54 -53
right_child=1 2 14 12 5 9 8 -9 -10 21 13 22 24 -15 39 19 33 -19 -20 25 -22 -23 34 -25 -26 -27 27 38 -30 -31 31 -33 -34 -35 35 37 -38 -39 -40 42 41 -43 -44 46 45 52 -48 -49 51 50 -52 54 53 -55 -56
leaf_value=-0.12493312862060933 0.07632610078231189 0.10475200499209654 -0.0091687261225703708 0.14983533353861209 0.18455962965087844 0.17986049606874366 0.10363970204254361 0.10905760934808349 0.16128357245323652 0.17950947610621437 0.39180611530450665 -0.12428053005474193 0.15645947223781942 0.003924322023728429 0.19263997740688629 0.029698772685336855 0.11666492920743739 0.14153209275452888 0.25468345763332401 0.35760812705377865 0.014796762799597711 0.097490268094492363 0.10666283344150176 0.2190566365443877 0.23316394556248082 0.2069973978492734 0.035298069098081815 0.13366113052266351 0.33576572440876851 -0.082248802682969871 0.16710571036879476 -0.0066654572877014708 0.061342667976662692 -0.041449897201269174 0.1437889544153412 0.16936767223956575 -0.088601365006658439 0.39805133281014338 0.045640812176653237 -0.11708851780940106 -0.10817320952774363 -0.019091484057062274 -0.058456350754786925 -0.12397519865593652 0.31644144553832032 -0.11995329355862638 0.0298563459167152 -0.095049075975704805 -0.11872332415831298 -0.12053093059479913 -0.11799923674870499 -0.11658024299582402 -0.12258248541021544 -0.12155210820159112 -0.1163124547366103
leaf_weight=3.552108295261859 245.29674792289734 13915.348020255566 373.3375071361661 3001.1626686602831 24666.723640561104 189.84216894209385 4218.5891262590885 1957.5167959183455 9562.885952308774 635.4176559895277 179.6291798055172 102.63503646105528 825.77620646357536 57.331538438796997 7.596895992755889 95.178013905882835 55.728077113628387 5422.4773176461458 388.41868986189365 402.92447718977928 263.72013436257839 6213.3923746049404 8.1886135041713732 2287.368686825037 1647.777979016304 170.96267569065094 188.30498203635216 175.9199883043766 190.57937437295914 227.98046313226223 147.44184246659279 61.776700392365456 828.83265940845013 157.69995744526386 125.73907974362373 53.192515894770622 23.634296625852585 24.646437019109726 321.1844213232398 252.83849868178368 55.631599389016628 109.1092498973012 106.0503320991993 17.03006120026112 4.3638188987970343 3.1533974111080161 3.1220172792673102 16.155549645423889 2.7325556129217139 32.333737291395664 6.8263699635863295 2.4336724877357474 3.1393732577562323 2.9001507982611656 457.47173865139484
leaf_count=23 1055 55602 2150 9836 70217 550 15249 7502 28879 1907 232 665 2545 259 29 459 187 17836 638 460 1097 22288 32 4884 3899 456 1006 694 318 1565 531 343 4020 799 456 174 127 34 1562 2042 342 596 679 111 12 23 16 99 21 230 53 20 21 20 3794
internal_value=0 0.148536 0.121812 0.128893 0.16261 0.15878 0.166945 0.179008 0.143638 0.113144 0.117279 -0.0108359 0.16851 0.29796 0.0209835 0.210586 0.138833 0.115065 0.185645 0.231146 0.138928 0.1051 0.025706 0.211492 0.207557 0.312741 0.00307159 0.0285403 0.257964 -0.029077 0.050763 0.115796 0.0394451 -0.000164622 0.131718 0.153185 0.107019 0.241777 0.0767903 -0.0937017 -0.0789754 -0.0491736 -0.0997629 -0.0403897 -0.113121 0.0195682 -0.100143 -0.120305 -0.11668 -0.120492 -0.12009 -0.116328 -0.121356 -0.122088 -0.116314
internal_weight=0 78529.6 27091.1 25313.2 51438.5 47634.9 40405.7 26624.2 13781.5 7229.23 19574.8 1971.38 5738.44 236.961 1777.87 3803.58 847.143 19337.8 633.715 2956.43 3264.88 6848.81 1452.47 2382.55 2473.55 573.887 1196.92 913.39 380.422 416.285 1411.39 209.219 1202.17 213.428 255.553 227.212 149.373 77.839 497.104 366.486 283.531 164.741 358.889 28.3407 518.907 13.5567 20.1521 118.791 505.35 42.7122 39.1601 462.638 9.19292 6.03952 459.905
internal_count=268644 256948 101100 91306 155848 146910 121847 77719 44128 25063 73929 11696 17377 491 9794 8938 2679 73438 1693 6259 10933 24195 7479 5343 6444 916 6529 4827 868 2571 7044 874 6170 986 950 791 583 208 2256 2750 1702 938 2721 159 4217 76 127 764 4141 306 283 3835 64 41 3814
is_linear=0
shrinkage=0.1


Tree=3
num_leaves=55
num_cat=0
split_feature=76 106 131 128 128 73 119 99 35 110 130 54 93 85 103 29 129 115 76 30 30 53 101 94 122 75 58 122 32 108 74 127 47 119 31 61 5 84 109 97 23 29 3 58 31 87 39 104 107 75 107 75 75 2
split_gain=3438.09 2083.98 1255.11 911.693 680.24 656.394 589.929 947.953 582.331 579.118 557.926 1096.82 715.94 493.911 446.403 379.441 232.218 233.88 247.534 215.556 156.907 141.849 123.36 105.02 96.7863 90.5831 143.03 88.9597 85.3456 68.6838 58.8759 60.2414 78.1419 56.3318 52.529 62.4409 57.5629 38.6366 38.0421 35.2956 35.1479 28.907 27.2796 65.9733 23.3769 21.4416 13.9808 6.11844 0.0859068 0.030784 0.0131695 0.00844598 0.00784093 0.00193095
threshold=-1.2576404213905332 -0.8570704162120818 1.0000000180025095e-35 1.0000000180025095e-35 1.0000000180025095e-35 -0.92997232079505909 -1.6428606510162351 -0.77844497561454762 0.86772245168685924 -1.2006455063819883 1.0000000180025095e-35 1.0010053515434267 -1.0040602087974546 -1.3789122104644773 -0.81030946969985951 1.2028654217720034 1.0000000180025095e-35 -0.87979832291603077 -1.2795639634132383 1.0769056677818301 1.0346184372901919 1.0465440154075625 -0.94395801424980152 -1.1410089731216428 -1.0619964003562925 -1.1367456316947935 0.85288849472999584 -1.0946120619773863 0.88573822379112255 -0.90294954180717457 -1.0566673874855039 -1.6098233461380003 1.1406109333038332 -0.92386367917060841 1.0067943930625918 0.45847125351428991 0.71195447444915783 -1.2737782597541807 -0.88917070627212513 -1.0137718319892881 1.2129834294319155 1.0930685400962832 0.6758200228214265 0.77210336923599254 1.0094165205955508 -1.366440951824188 1.006627142429352 -0.8816867172718047 -0.85874614119529713 -1.2058156132698057 -0.86763924360275257 -1.1694189906120298 -1.2058156132698057 0.74451833963394176
decision_type=2 2 2 2 2 2 2 2 2 2 2 2 2 2 2 2 2 2 2 2 2 2 2 2 2 2 2 2 2 2 2 2 2 2 2 2 2 2 2 2 2 2 2 2 2 2 2 2 2 2 2 2 2 2
left_child=8 3 4 5 10 15 9 -8 42 -7 11 -3 -12 21 25 19 17 39 23 -2 -15 -6 -17 -19 -20 27 -27 -4 37 41 52 32 -32 -33 35 -30 -36 38 -5 -10 -41 -16 43 -1 45 -45 -31 -39 50 53 -44 -51 -18 -50
right_child=1 2 14 28 13 6 7 -9 16 -11 12 -13 -14 20 29 22 30 18 24 -21 -22 -23 -24 -25 -26 26 -28 -29 34 46 31 33 -34 -35 36 -37 -38 47 -40 40 -42 -43 48 44 -46 -47 -48 -49 49 51 -52 -53 -54 -55
leaf_value=0.20516250266372538 0.16839149847200016 0.041671735481549094 -0.11381402219255857 0.24701974111937619 0.01626836314727478 0.11418339016924456 0.14153215928229382 0.10844764061702546 0.20904264038541165 0.2148814054655202 0.11232285339560949 0.1322916189987183 0.027313862526479257 0.031133244591521076 0.02346866491536544 0.038717481252810382 -0.1189932180908113 0.24334529164744026 0.15306053596115046 0.055692024202794815 0.072643653670701289 0.16342006573181397 -0.066938915342471692 -0.047233989538939848 0.047010605114694744 0.087581878591117088 0.0017140628738917263 0.019922424791825346 0.22074499673388429 -0.11533554734312085 -0.075980495481641361 0.22578569113603406 0.27933206699336816 0.1062531757137954 0.097068993283354194 0.03236004374061182 -0.098668885299134354 -0.11425743273227114 -0.017259715893759495 0.19989988258971414 -0.084167733286751645 0.31329622164511139 -0.12888819603418913 0.1378535825195645 0.10228406600620513 -0.10873651656073856 -0.064652546911723036 0.03033019332258461 -0.11753608088221877 -0.11786147583982157 -0.12116724771261211 -0.12360407418886979 -0.12460051468163931 -0.11452100576479973
leaf_weight=8.785507954657076 412.92742045223713 1489.7321217060089 60.541492596268654 6.467195436358451 73.283930391073227 832.23053225874901 43838.506559610367 10792.450871914625 4.295327126979827 1820.2842095643282 2769.6019184738398 12911.954460263252 1542.4624023139477 1529.9149033874273 16.012802347540859 616.68802542984486 5.1329540908336639 12.996745154261587 139.65212236344814 288.13779720664024 2249.4817339032888 617.40122921764851 134.63028994202614 289.21239347010851 224.24694596976042 548.1476044356823 300.23350769281387 278.74628186970949 18.057071879506111 237.611223757267 26.51551741361618 63.834403425455093 8.074449419975279 103.10863599181175 288.73582047224045 686.79176036268473 15.848936662077902 48.601265832781792 34.519650459289551 4.4242799133062354 280.93431442975998 4.3833359330892554 3.9709874093532562 3.6981315836310378 6.3380257487297049 75.843925654888153 70.596408225595951 3.1142355352640143 2.1347988173365584 12.614360414445398 4.9792870581150037 3.2136093974113455 4.8502274006605131 423.83636802434921
leaf_count=34 1178 5983 415 21 340 2630 120751 33651 15 2552 10243 37889 6841 7008 77 2367 39 41 474 1108 9447 1917 629 1822 1126 2507 1590 1504 59 2080 138 142 14 367 1059 3079 87 310 168 15 1773 11 23 18 28 526 501 16 17 99 35 21 31 3828
internal_value=0 0.123771 0.0993331 0.133858 0.105098 0.135549 0.137232 0.134996 -0.0193406 0.183287 0.11347 0.122918 0.0819144 0.0700501 0.0111887 0.0691588 0.0205179 -0.000464582 0.0321558 0.122072 0.0558401 0.147807 0.0197847 -0.0347374 0.087709 0.0397293 0.0571941 -0.00394111 0.0437489 -0.0919654 0.11533 0.127073 0.00696128 0.151959 0.0521819 0.0371862 0.0868839 -0.0480773 0.0244402 -0.0754807 -0.0797635 0.0857555 -0.104644 -0.0558436 -0.0825445 -0.0972719 -0.103726 -0.105551 -0.114894 -0.114697 -0.124593 -0.119027 -0.121717 -0.114536
internal_weight=0 84538.1 24700.1 59838 23183.8 58735.9 57283.5 54631 1712.69 2652.51 18713.8 14401.7 4312.06 4470.08 1516.27 1452.38 1167.28 955.762 666.108 701.065 3779.4 690.685 751.318 302.209 363.899 1187.67 848.381 339.288 1102.14 328.604 211.516 201.533 34.59 166.943 1009.43 704.849 304.585 92.7023 40.9868 289.654 285.359 20.3961 545.415 94.6656 85.8801 79.5421 308.208 51.7155 450.749 441.799 8.95027 15.828 9.98318 425.971
internal_count=268644 258018 88353 169665 79668 164866 159584 154402 10626 5182 60956 43872 17084 18712 8685 5282 5997 5266 3463 2286 16455 2257 2996 1863 1600 6016 4097 1919 4799 2669 731 661 152 509 4284 3138 1146 515 189 1803 1788 88 4629 606 572 544 2581 326 4023 3965 58 120 70 3845
is_linear=0
shrinkage=0.1


Tree=4
num_leaves=45
num_cat=0
split_feature=114 106 131 136 120 99 35 30 131 1 82 129 61 70 13 103 120 110 133 113 105 60 0 35 79 112 62 103 28 70 60 43 116 77 33 103 20 76 76 120 75 73 23 21
split_gain=2541.05 1832.38 1032.62 777.706 613.466 1095.8 672.793 651.504 650.626 575.93 510.053 574.129 488.052 419.799 364.175 351.447 349.831 327.233 311.978 246.118 219.845 214.38 208.92 208.894 201.414 171.272 141.842 139.93 87.0088 91.7673 68.525 50.4296 29.4578 18.6832 8.18048 0.251161 0.141466 0.0389466 0.0363631 0.0196321 0.0144529 0.00796747 0.00738556 0.00192262
threshold=-0.82366251945495594 -0.86228436231613148 1.0000000180025095e-35 1.0000000180025095e-35 -1.6832576394081114 -0.73180383443832386 0.80808231234550487 1.084876596927643 1.0000000180025095e-35 0.50353646278381359 -1.2401787638664243 1.0000000180025095e-35 0.80348470807075512 -0.26552765071392054 0.35704709589481359 -0.82142645120620716 -1.742614686489105 -1.1970395445823667 1.0000000180025095e-35 -1.3902022838592527 -0.83635434508323658 0.81201773881912243 0.34210991859436041 0.88056117296218883 -0.52079686522483815 -1.2240501642227171 0.72342619299888622 -0.85804516077041615 1.2093588113784792 -0.30816574394702906 0.66581675410270702 1.0128797292709353 -0.82324862480163563 -1.3837947249412534 0.91148731112480175 -1.0479152798652647 1.6556050777435305 -1.2392584681510923 -1.2576404213905332 -0.58686891198158253 -1.2058156132698057 -0.91751903295516957 1.4170378446578982 1.5891239643096926
decision_type=2 2 2 2 2 2 2 2 2 2 2 2 2 2 2 2 2 2 2 2 2 2 2 2 2 2 2 2 2 2 2 2 2 2 2 2 2 2 2 2 2 2 2 2
left_child=1 4 3 10 14 7 25 8 -6 -9 11 -3 -12 15 16 -5 17 -1 -8 21 23 -16 -15 30 -21 -7 -18 -25 29 -22 -4 35 33 34 -33 38 39 -38 -2 41 -36 -37 -39 -41
right_child=31 2 20 13 5 6 18 9 -10 -11 12 -13 -14 22 19 -17 26 -19 -20 24 28 -23 -24 27 -26 -27 -28 -29 -30 -31 -32 32 -34 -35 40 36 37 42 -40 43 -42 -43 -44 -45
leaf_value=0.037353866799315037 -0.12168550736859954 0.061710191330238029 0.029639050427575531 0.1050556412367977 0.12622136978558768 -0.038917387068074683 0.074975664134694392 0.011055859543572674 0.07885802742636612 0.10029638017505385 0.12371509938704506 0.099356293793843919 0.030872732646470852 0.098899276090690783 -0.10577458206526746 -0.0050416093712543301 0.20009747903462125 0.21007018481316711 0.017695580547940348 0.27899989406299713 -0.082000081564607544 0.17466634995940711 0.15753281544728889 0.14339256114935517 0.16187325824644427 0.22259715767012833 -0.02356958161349269 0.048548230123163769 0.41665665801449014 -0.0058530625774146777 -0.046808955569715767 0.080094977192362901 0.2366090893335866 0.094147361984234651 -0.11615284351683641 -0.11529613186136607 -0.11396682568965653 -0.12408311149647394 -0.13496001133296501 -0.11298589678959298 -0.12268265894828252 -0.12151614126208435 -0.12948787036906634 -0.11569103896520738
leaf_weight=183.09812998771667 3.2146614119410515 12561.834971852601 231.22145962715149 2852.3079788982868 36111.342571727931 27.078301757574081 4132.0457699000835 797.12871959805489 3153.6115594655275 7795.3605490848422 4045.5166971385479 5979.3500875160098 658.34683722257614 786.33199654519558 62.992698609828949 322.74633026123047 31.813285306096077 273.6298926025629 1235.0753177702427 153.03815788030624 214.55875372886658 48.051559641957283 2675.0487414896488 217.9870817810297 3612.0091608762741 333.27731454372406 260.674396276474 543.15074413269758 4.4681215882301322 603.19779982417822 237.87721890956163 2.4190533459186598 5.1914676353335372 8.5019058436155319 6.5800457745790499 5.0359156057238579 3.2924556434154502 5.7308887839317304 5.7631500512361509 510.14435898512602 6.9909056276082957 3.4842320680618268 4.5243144631385803 2.6409250721335402
leaf_count=741 23 48455 1140 8360 91238 103 13244 2798 10393 22331 11592 17443 2444 2212 360 1222 60 296 4497 168 1502 130 5815 757 6873 545 1114 2353 10 3740 1283 15 14 34 56 45 31 37 31 5017 47 25 26 24
internal_value=0 0.104468 0.085219 0.0899318 0.115028 0.112012 0.0706753 0.116959 0.122417 0.0920175 0.0813118 0.0738507 0.110721 0.120125 0.14997 0.0938642 0.086147 0.14083 0.0617944 0.162307 0.0166056 0.0155791 0.144213 0.0433617 0.166634 0.202946 0.000758226 0.0757113 -0.0234276 -0.0258321 -0.00912729 -0.106692 0.0202329 -0.0256316 -0.0893183 -0.11362 -0.113341 -0.12343 -0.130207 -0.113079 -0.119517 -0.11784 -0.126468 -0.113
internal_weight=0 90144.2 31933.9 29881.5 58210.2 53584.9 5727.48 47857.4 39265 8592.49 23245 18541.2 4703.86 6636.44 4625.31 3175.05 749.216 456.728 5367.12 3876.09 2052.46 111.044 3461.38 1230.24 3765.05 360.356 292.488 761.138 822.225 817.757 469.099 573.514 29.6834 24.4919 15.99 543.831 534.853 13.5477 8.97781 521.305 13.571 8.52015 10.2552 512.785
internal_count=268644 263219 108328 97543 154891 145149 18389 126760 101631 25129 79934 65898 14036 17609 9742 9582 2211 1037 17741 7531 10785 490 8027 5533 7041 648 1174 3110 5252 5242 2423 5425 166 152 118 5259 5205 94 54 5111 103 70 63 5041
is_linear=0
shrinkage=0.1


Tree=5
num_leaves=48
num_cat=0
split_feature=75 128 130 131 31 30 101 103 31 75 84 123 124 118 56 72 4 78 31 47 94 123 86 69 101 7 33 84 69 60 35 14 73 0 5 94 113 127 115 92 29 111 108 109 88 78 76
split_gain=2051.2 1301.97 1113.24 916.317 1763.21 596.083 998.627 491.414 470.046 447.202 344.816 270.252 259.901 379.498 212.312 194.664 187.848 170.73 193.657 169.445 151.616 148.554 113.872 111.778 415.528 108.365 104.01 77.4805 76.1383 72.4641 92.1591 67.9363 78.3541 65.8523 63.841 56.4648 44.2816 41.0947 26.5929 13.1941 2.65421 1.85823 0.400252 0.0432967 0.0156554 0.00337138 0.00281218
threshold=-1.1744046211242674 1.0000000180025095e-35 1.0000000180025095e-35 1.0000000180025095e-35 1.0107810497283938 1.0864607691764834 -0.86866649985313404 -0.82820111513137806 1.0001768469810488 -1.113683223724365 -1.3769852519035337 -1.5755720138549802 -1.2110647559165952 -1.0228765606880186 1.0047197937965395 -0.77295067906379689 0.71105730533599865 -1.3381326794624326 0.99886810779571544 1.2128548026084902 -1.1112958788871763 -1.288057744503021 -1.3171488642692564 -0.067848954349756227 -0.81228169798851002 0.63637736439704906 0.93222463130950939 -1.3717314600944517 -0.03709330037236213 0.78792318701744091 0.94893267750740062 1.0555112361907961 -0.88174149394035328 0.49995014071464544 0.58794099092483532 -1.1410089731216428 -0.92113825678825367 -1.4186776876449583 -0.90581563115119923 -1.1852969527244566 1.179878890514374 -0.8711719512939452 -0.86389163136482228 -0.81631037592887867 -1.2727475762367246 -1.3405593633651731 -1.2721464633941648
decision_type=2 2 2 2 2 2 2 2 2 2 2 2 2 2 2 2 2 2 2 2 2 2 2 2 2 2 2 2 2 2 2 2 2 2 2 2 2 2 2 2 2 2 2 2 2 2 2
left_child=16 2 3 5 7 6 -2 -5 11 -7 23 19 13 -10 -13 -6 20 27 22 -4 31 -20 -19 24 25 -3 38 28 -12 34 -31 32 35 -14 -25 -1 -26 -34 -22 -40 42 -29 44 45 -18 -44 -45
right_child=1 10 8 4 15 9 -8 -9 12 -11 17 14 33 -15 -16 -17 40 18 21 -21 26 -23 -24 29 36 -27 -28 41 -30 30 -32 -33 37 -35 -36 -37 -38 -39 39 -41 -42 -43 43 46 -46 -47 -48
leaf_value=0.098164243199683879 0.12397006498339323 0.14013192164415278 0.14429683623164263 0.045391117173693506 0.003656085850529199 -0.018971376409545757 0.096139768363131692 -0.034948590750374098 0.058415524412017056 0.079368405707300041 -0.036196160927096883 0.035749917083717428 -0.099686937697912245 0.12095727874356065 -0.052132441681029096 0.15573195360921288 -0.12916531355244679 0.083406762914525201 0.084436173780473286 0.0069164976339454081 0.2244866059164915 0.029576866434720087 0.010914905643597608 0.14286411175176464 0.18369945263553036 0.055502649992226573 0.31738951804664017 -0.12951953689039297 0.22551970148608499 0.024866760255237569 0.17392861016091321 0.21868598119075724 0.049357159434273601 0.016428072755066272 0.036817687429305967 -0.032376423404362524 -0.09216576481456841 0.2232702162948825 -0.054321042540139745 -0.10568911838040046 -0.037086986409407066 -0.087201518634980199 -0.11721680880318359 -0.11157879714069588 -0.13787014621770616 -0.12131316367885421 -0.11522393021191826
leaf_weight=39.933643400669098 17617.052608564496 303.21417352557182 351.94944939017296 3562.7341115102172 88.824576929211617 501.56542858481407 48086.544094622135 968.27382738143206 1894.0074103921652 5926.5018923133612 61.497161060571671 3780.6221647113562 69.609677657485008 1989.1947775185108 296.45343588292599 1606.7329588383436 3.7811395525932312 239.83628110587597 1096.8202698230743 120.52494959533215 2.6980990767478934 897.52794070541859 2245.280645519495 522.42300671339035 6.042641580104827 301.99842375516891 6.5018286257982245 84.733355864882469 13.568411797285078 159.78549447655678 56.017773285508156 17.391984827816486 32.73814731836319 163.7113716006279 63.689251884818077 194.62410426139832 157.04380987584591 23.22624097019434 69.702689304947853 176.91948083043098 4.7569426596164694 11.824502587318419 4.8499598577618599 359.5063658580184 4.5549066066741926 3.4301154613494855 2.1290264278650275
leaf_count=162 40361 887 891 13227 349 1897 124904 6101 6142 16360 299 14088 350 5700 1364 3932 22 900 3916 475 7 3607 9871 1434 16 1221 17 482 38 596 151 38 154 606 236 1178 776 73 436 1323 20 66 39 3866 23 24 19
internal_value=0 0.0906606 0.09382 0.0975813 0.0607753 0.100758 0.103602 0.0282226 0.05981 0.0716952 0.0464663 0.0376567 0.0842938 0.0904529 0.0293598 0.147765 -0.0572781 0.0327873 0.0365375 0.109252 -0.0205623 0.0597475 0.017911 0.0869846 0.0597263 0.0979023 -0.0774581 -0.0650946 0.0111101 0.1131 0.0635599 0.0267081 0.0152154 -0.018214 0.131341 -0.0101518 -0.0819445 0.121534 -0.087755 -0.091171 -0.111319 -0.124337 -0.112252 -0.111764 -0.133922 -0.118914 -0.1116
internal_weight=0 93245.6 87024.3 78358.2 6226.57 72131.7 65703.6 4531.01 8666.07 6428.07 6221.3 4549.55 4116.52 3883.2 4077.08 1695.56 946.745 4651.09 4479.47 472.474 563.736 1994.35 2485.12 1570.21 768.299 605.213 255.822 171.623 75.0656 801.916 215.803 307.914 290.522 233.321 586.112 234.558 163.086 55.9644 249.32 246.622 383.008 96.5579 378.252 369.915 8.33605 8.28008 361.635
internal_count=268644 261243 236747 207131 23609 183522 165265 19328 29616 18257 24496 16818 12798 11842 15452 4281 7401 19179 18294 1366 3388 7523 10771 5317 2900 2108 1783 885 337 2417 747 1605 1567 956 1670 1340 792 227 1766 1759 4013 548 3993 3948 45 63 3885
is_linear=0
shrinkage=0.1


Tree=6
num_leaves=43
num_cat=0
split_feature=114 106 5 102 120 32 133 114 135 30 101 35 136 110 133 73 127 72 70 103 26 5 104 0 40 102 58 52 97 72 101 44 18 116 76 31 103 20 120 75 76 32
split_gain=1642.46 1145.88 617.199 1104.53 548.831 629.763 1072.28 953.272 753.394 1146.54 786.974 743.999 492.512 394.251 384.559 368.128 355.792 294.789 271.68 392.223 247.182 231.974 326.824 283.569 178.596 171.279 155.309 113.958 101.262 83.6555 83.6317 44.1231 20.3316 19.4612 8.68451 7.05135 0.286723 0.147989 0.0682664 0.0416023 0.0345889 0.00600198
threshold=-0.82366251945495594 -0.86228436231613148 0.63720071315765392 -0.84450721740722645 -1.7146432995796201 0.92636269330978405 1.0000000180025095e-35 -1.0088051557540891 1.0000000180025095e-35 1.0718631744384768 -0.90532255172729481 0.88786163926124584 1.0000000180025095e-35 -1.1970395445823667 1.0000000180025095e-35 -0.72879749536514271 -3.2062317132949825 -0.27306151390075678 -0.25358302891254419 -0.81462916731834401 1.3292910456657412 0.66883569955825817 -0.85134494304656971 0.486402377486229 1.0639193058013918 -0.55690976977348317 0.88808950781822216 1.1327895522117617 -0.95911398530006398 -0.30691687762737269 -0.52590367197990406 1.0522345900535586 1.1523701548576357 -0.82324862480163563 -1.3084490299224851 1.0009245276451113 -1.0479152798652647 1.6556050777435305 -0.58686891198158253 -1.1694189906120298 -1.2576404213905332 0.94921088218688976
decision_type=2 2 2 2 2 2 2 2 2 2 2 2 2 2 2 2 2 2 2 2 2 2 2 2 2 2 2 2 2 2 2 2 2 2 2 2 2 2 2 2 2 2
left_child=1 4 12 21 13 8 7 -7 10 -10 -6 -8 14 16 17 -16 30 -3 19 -14 28 23 -23 -4 -20 27 -18 -15 -5 -27 -1 35 33 34 41 36 40 38 -38 -39 -2 -33
right_child=31 2 3 20 5 6 11 -9 9 -11 -12 -13 18 25 15 -17 26 -19 24 -21 -22 22 -24 -25 -26 29 -28 -29 -30 -31 -32 32 -34 -35 -36 -37 37 39 -40 -41 -42 -43
leaf_value=0.02209563323722584 -0.12081498042363181 0.059681403634579661 0.019706281571611726 -0.020683240554231305 0.093195716294156475 0.063809933043512554 0.10174630080413745 0.10614151034232318 0.14307699768334614 0.074148051431134468 0.04971508709232425 0.16824831908170215 0.085612120931392477 0.19511902605099873 0.23947819505605863 -0.016637012166304026 -0.057076632165722285 0.16038311978416644 0.11917379418172905 -0.030944900588847593 0.29370621061821717 0.056190485162094919 -0.055203747203818487 0.098232216372790226 -0.1006502906143705 -0.093342842198895465 0.12495076508403113 0.14317783431326633 -0.10298808559477123 0.13662249326818263 -0.096060887087109206 -0.11384568441810461 0.24188400735105631 0.17312307020184228 0.035848679048821358 0.066950656049311386 -0.11846567550534413 -0.11183230662198884 -0.11060982363033485 -0.12513959470114927 -0.134093574610022 -0.11863778188413002
leaf_weight=247.09702894091606 3.0054740458726883 23036.753806844354 672.11132992058992 197.10604704171419 5985.81215749681 10963.021913990378 4002.2540108114481 10334.381179578602 3483.7356626689434 7852.5794112086296 13666.719683155417 2902.1986300945282 3068.3544945120811 638.40515865385532 223.55230768024921 74.93258860707283 49.557201772928238 294.40956099331379 2864.6389665007591 318.69290521740913 17.788569733500481 767.94638599455357 400.87040565907955 1456.2513484954834 37.442197531461716 40.181729197502136 865.4421698153019 1248.3800686895847 618.71648811548948 26.089521065354347 79.073983043432236 4.8412572443485313 3.7311808392405501 4.4761100560426703 5.8146840929985073 2.2260928377509108 11.349582359194754 3.1300679892301551 436.03707827627659 9.4181889072060567 5.6485950499773008 5.6801277622580528
leaf_count=880 23 76241 2580 1040 14828 29667 9037 24179 6767 20621 38642 5242 7861 662 215 277 221 586 5897 1159 26 2748 1966 4543 151 192 1672 1847 3038 43 391 46 7 11 26 7 95 34 5041 60 31 44
internal_value=0 0.0787665 0.0640116 0.0277779 0.0868197 0.0846408 0.0954533 0.084351 0.0748008 0.0953304 0.0629585 0.1297 0.0690142 0.127196 0.0623951 0.175182 0.0831255 0.0609521 0.0938839 0.0746451 -0.0750621 0.0537785 0.0179855 0.0734347 0.116338 0.155202 0.115092 0.160752 -0.0831029 -0.00281059 -0.00654918 -0.103791 0.0269256 -0.0116118 -0.0622295 -0.110605 -0.111449 -0.11111 -0.110809 -0.12182 -0.129482 -0.116433
internal_weight=0 96434.5 34049.6 4130.79 62384.9 59190.7 28201.9 21297.4 30988.8 11336.3 19652.5 6904.45 29918.8 3194.23 23629.6 298.485 1241.17 23331.2 6289.13 3387.05 833.611 3297.18 1168.82 2128.36 2902.08 1953.06 914.999 1886.79 815.823 66.2713 326.171 495.358 24.5434 20.8122 16.3361 470.815 468.589 459.935 447.387 12.5483 8.65407 10.5214
internal_count=268644 263219 108328 15941 154891 148983 68125 53846 80858 27388 53470 14279 92387 5908 77319 492 3164 76827 15068 9020 4104 11837 4714 7123 6048 2744 1893 2509 4078 235 1271 5425 134 127 116 5291 5284 5230 5136 94 54 90
is_linear=0
shrinkage=0.1


Tree=7
num_leaves=56
num_cat=0
split_feature=76 128 130 131 31 30 101 0 113 75 94 75 102 7 81 105 39 75 117 114 75 129 116 78 75 92 26 11 53 116 78 28 75 116 92 87 74 0 107 57 0 76 118 32 94 31 32 2 0 97 47 3 90 107 11
split_gain=1349.53 864.417 633.546 647.384 1183.77 458.589 776.912 395.408 356.747 354.417 328.797 365.36 317.886 242.479 225.065 194.066 187.65 161.156 213.824 156.262 173.533 133.067 185.266 123.099 114.024 101.971 94.0431 91.0922 71.9246 98.4018 87.9135 79.0233 71.2055 57.8297 54.2564 52.9762 52.7013 46.9321 46.5502 71.8024 55.2011 25.531 24.272 16.5284 25.0069 14.8502 1.13407 0.220764 0.0401125 0.0224676 0.011333 0.0106432 0.00204595 0.00154546 4.8073e-06
threshold=-1.2538419961929319 1.0000000180025095e-35 1.0000000180025095e-35 1.0000000180025095e-35 1.0094165205955508 1.0838250517845156 -0.86866649985313404 0.46998734772205358 -0.8997327685356139 -1.2058156132698057 -0.97386404871940602 -1.0555185079574583 -0.81895938515663136 0.72138696908950817 -1.1094799041748045 -0.87467914819717396 1.0025020241737368 -1.1177335977554319 -0.93989151716232289 -0.95180562138557423 -1.0737953782081602 1.0000000180025095e-35 -0.89401954412460316 -1.3134227395057676 -1.1744046211242674 -1.1917580366134641 1.3094770908355715 0.78872036933898937 1.048579275608063 -0.91729107499122609 -1.3458048105239866 1.1513472795486452 -1.113683223724365 -0.87836387753486622 -1.0455458164215086 -1.3271030187606809 -1.0566673874855039 0.30517114698886877 -0.79790759086608876 0.950761377811432 0.41847200691699987 -1.2619984149932859 -0.93285399675369252 0.94971701502799999 -1.1410089731216428 1.0103901624679568 0.96074199676513683 0.6782577931880952 0.56720414757728588 -1.0351275801658628 1.0665986537933352 0.53521427512168895 -1.2937183976173399 -0.84856945276260365 0.96042034029960643
decision_type=2 2 2 2 2 2 2 2 2 2 2 2 2 2 2 2 2 2 2 2 2 2 2 2 2 2 2 2 2 2 2 2 2 2 2 2 2 2 2 2 2 2 2 2 2 2 2 2 2 2 2 2 2 2 2
left_child=9 2 3 5 12 6 -2 -7 17 43 13 34 -5 16 -13 -6 -4 18 45 20 -19 22 41 -21 25 -24 -15 -20 29 32 35 -31 -10 -26 -12 -30 48 -32 40 -40 -38 46 -43 47 -45 -3 -11 49 50 -1 -23 -51 -46 -49 -55
right_child=1 8 10 4 15 7 -8 -9 28 21 11 14 -14 26 -16 -17 -18 19 27 23 -22 36 24 -25 33 -27 -28 -29 30 31 37 -33 -34 -35 -36 -37 38 -39 39 -41 -42 42 -44 44 52 -47 -48 53 -50 51 -52 -53 -54 54 -56
leaf_value=-0.12430404409295773 0.099049985073087099 -0.1303512298732688 0.064023770864442706 0.02439921640691237 0.13036145683651232 -0.011465707723031328 0.074358235365491354 0.06283333931338865 -0.10679947532018917 -0.12207290056522158 0.025475979045427977 0.020306419602223635 -0.056569466655160508 -0.13523131765206842 0.083417710144090634 0.071303625958025918 0.13503965897149023 -0.031643095715731699 0.13724268416622507 0.034752056066454345 0.027022523809761514 -0.11947816607118662 0.022707722912179405 0.093746232161701762 0.015341703563807728 -0.077280662450094864 0.01085691984264699 -0.029119264174492322 0.1106263822785782 -0.08955745528295847 -0.13611941011095571 0.11495548118333908 0.1321851814293187 0.080596239970712344 -0.085905645554413226 0.031486645013287198 0.21599329456485222 0.23042053402153195 -0.016935962941713956 0.24555669213261486 0.076613955903794217 -0.1102068696499563 -0.030146844876795628 0.15155133369321147 -0.11539549995407679 -0.010816238085260076 -0.092878612994446899 -0.11248561254965153 -0.13335631129945505 -0.1247605551382923 -0.12705042957200172 -0.11620465845915262 -0.11873256164121954 -0.10943675482812405 -0.10926127503391553
leaf_weight=4.3023772314190856 17075.307808160782 155.52051630616188 4235.4320064932108 3657.1979649215937 1226.0194092839956 790.78827229142189 50223.471130624413 7601.3974114060402 55.19134446978569 94.042706929147243 50.718026489019394 2504.7236221283674 558.99718273431063 48.969807460904121 729.67012111842632 1018.7510029152036 407.91676668822765 612.47396491467953 61.271474376320839 1054.1208096593618 2852.5783856064081 5.2513754740357381 198.76067549735308 532.31225323677063 351.37554197013378 209.49916904419661 439.9714178070426 71.113999277353287 478.32127937674522 21.779414184391499 3.6753993779420844 142.58866700530052 16.105440497398376 221.37099878489971 317.61940503120422 102.75563782453537 34.171698674559593 70.479118719696999 84.127454578876495 11.894220083951948 168.67803531885147 56.145016379654408 116.32733646035194 6.1583889871835709 2.9229988381266594 11.137338459491728 15.498794063925741 1.4948984533548344 5.4217661172151557 1.5262466147541989 3.1693463921546936 30.682725943624973 4.9461167529225332 1.5694627463817585 295.02860921621323
leaf_count=29 36404 834 12602 13511 2622 2534 124028 19830 287 665 195 8864 3867 230 1955 2879 1157 2648 174 3814 11100 39 1006 1754 1455 1565 1444 299 1216 111 19 460 47 801 1520 355 41 145 330 13 478 342 596 12 26 43 99 16 30 10 19 263 38 20 3803
internal_value=0 0.0700862 0.0725584 0.0752809 0.0448968 0.0778744 0.0806231 0.0558322 0.0340866 -0.0144821 0.046954 0.0237975 0.0136641 0.0632092 0.0345441 0.103559 0.0702625 0.024331 -0.0469981 0.0285537 0.0166529 0.00570417 -0.0087556 0.054547 0.0117793 -0.0286015 -0.00377452 0.0478774 0.0926766 0.0452988 0.109717 0.0878567 -0.0528145 0.0405631 -0.070569 0.0966316 0.0641057 0.212253 0.0729407 0.015579 0.100094 -0.0801877 -0.0562088 -0.105719 0.000623492 -0.122363 -0.117942 -0.110177 -0.126648 -0.117517 -0.122328 -0.11661 -0.117493 -0.109278 -0.109262
internal_weight=0 97128.4 90887 82151.9 6460.97 75691 67298.8 8392.19 6241.43 1924.37 8735.02 3602.73 4216.2 5132.29 3234.39 2244.77 4643.35 5350.53 299.043 5051.49 3465.05 1575.73 1263.02 1586.43 981.006 408.26 488.941 132.385 890.896 235.665 655.231 164.368 71.2968 572.747 368.337 581.077 312.714 74.1545 298.871 96.0217 202.85 282.014 172.472 348.632 14.0275 166.658 109.542 334.604 13.8425 36.5113 8.42072 32.209 7.86912 298.093 296.598
internal_count=268644 256948 233642 205675 22879 182796 160432 22364 23306 11696 27967 12534 17378 15433 10819 5501 13759 20666 1350 19316 13748 7479 6529 5568 4827 2571 1674 473 2640 905 1735 571 334 2256 1715 1571 950 164 862 343 519 1702 938 4217 76 877 764 4141 88 302 58 273 64 3839 3823
is_linear=0
shrinkage=0.1


Tree=8
num_leaves=46
num_cat=0
split_feature=114 107 119 62 69 136 30 128 110 62 32 78 110 100 4 6 118 102 109 125 97 76 129 5 135 103 31 126 104 69 18 43 110 116 105 76 103 20 75 120 108 136 73 75 75
split_gain=1112.34 789.428 473.826 668.41 428.992 401.542 413.619 387.946 337.769 367.158 238.868 221.286 278.229 217.285 430.782 315.455 214.96 208.51 202.439 191.519 153.303 149.779 129.757 135.659 128.134 136.141 98.0263 96.0296 95.2377 92.7851 43.0128 40.2293 15.8538 14.8369 12.6014 10.9823 0.287275 0.129176 0.0324213 0.0308487 0.0288071 0.0233736 0.017138 0.0124895 0.00827964
threshold=-0.82366251945495594 -0.86983942985534657 -1.6428606510162351 0.73352569341659557 -0.4588340669870376 1.0000000180025095e-35 1.0525803565979006 1.0000000180025095e-35 -1.2006455063819883 0.75780838727951061 0.96443474292755138 -1.3015622496604917 -0.89006313681602467 -0.86152812838554371 0.58828541636466991 0.67727363109588634 -1.6231071949005125 -0.92584136128425587 -0.87409564852714527 -2.6348685026168819 -0.95058521628379811 -1.2147282958030698 1.0000000180025095e-35 0.60340413451194774 1.0000000180025095e-35 -0.93030777573585499 1.0135350823402407 -2.8674981594085689 -0.7349066138267516 0.073016393929719939 1.148526728153229 1.0128797292709353 -1.0823606848716734 -0.82324862480163563 -0.81774473190307606 -1.3084490299224851 -1.0479152798652647 1.6556050777435305 -1.1694189906120298 -0.58686891198158253 -0.80879539251327504 1.0000000180025095e-35 -0.91751903295516957 -1.2058156132698057 -1.2058156132698057
decision_type=2 2 2 2 2 2 2 2 2 2 2 2 2 2 2 2 2 2 2 2 2 2 2 2 2 2 2 2 2 2 2 2 2 2 2 2 2 2 2 2 2 2 2 2 2
left_child=1 2 8 4 17 10 20 -6 19 27 13 18 -13 15 -15 -3 -11 -4 -8 29 30 -22 23 -12 25 -5 -24 -10 -21 -1 -7 36 -26 34 -33 44 40 39 -39 42 -2 -40 -38 -41 -36
right_child=31 5 3 24 7 6 11 -9 9 16 22 12 -14 14 -16 -17 -18 -19 -20 28 21 -23 26 -25 32 -27 -28 -29 -30 -31 -32 33 -34 -35 35 -37 37 38 41 43 -42 -43 -44 -45 -46
leaf_value=-0.034594246158287136 -0.13527886299748615 0.062112631403490118 0.029228620441302328 0.17350039852653909 0.068440707120999145 -0.03970043291452488 -0.024704440971344659 0.014098162387272149 0.12555014330881523 0.19025741579515093 0.05141143196102909 0.053396425461694354 0.16230628210670861 0.029827102949125113 -0.056202032602130331 0.01692134593072776 -0.0014120218187642945 -0.081425985716622726 0.050127549337597055 0.088772415946743122 -0.071908369290641552 0.093783068961788882 0.078226907270089616 -0.02355749281159171 0.092263652477800301 -0.025365567174435801 -0.11906038276287548 0.17266222533506181 -0.11313239690273835 0.16271414186181934 0.16222739655374652 0.17727041093390106 0.2100166759694776 0.14960424983133153 -0.11229806918170682 0.03439863438626118 -0.11076054692528572 -0.11005649014497632 -0.11882329540908831 -0.10831268547581618 -0.12319529688610434 -0.12974727141758322 -0.12063408745824014 -0.10962493725998466 -0.11769513369140655
leaf_weight=256.04681503772736 3.2537951618432999 4718.7201329693198 1549.409376218915 35.60443027317524 65563.860058754683 10.841551080346106 640.12490925192833 1340.5444364994764 1421.1522222757339 71.735369279980659 2604.3637311905622 1597.6304767727852 274.93349075317383 8339.2848674431443 625.73187925666571 2296.327382683754 317.45242135226727 191.31592626869678 830.57135769724846 661.18399573862553 56.018570527434349 2090.8790513724089 2338.2754898220301 266.02674712985754 22.497435927391052 1038.839067235589 25.459364518523216 622.02121213078499 24.218007877469063 26.279636561870575 390.74596960842609 2.7209531068801942 23.250000178813934 6.184231534600257 6.9904850050807052 8.5488943606615013 3.7938307970762253 2.7042306810617438 5.6659350469708425 268.6572312489152 5.0117712393403036 2.9935370236635208 3.2760045975446692 99.349872715771198 4.7903123497962952
leaf_count=1070 18 15679 4277 68 157091 33 2152 5046 2106 72 9407 4014 446 28462 2889 8548 1002 671 2326 1404 192 4178 5642 1154 49 3813 103 564 105 58 569 4 29 14 75 35 45 34 43 3793 36 17 25 1248 38
internal_value=0 0.0612022 0.0666029 0.0648263 0.0660767 0.0466246 0.0697199 0.0673519 0.103056 0.122936 0.0402104 0.0465868 0.0693868 0.0341374 0.0238225 0.0473196 0.0339166 0.017067 0.0175567 0.0530866 0.100067 0.0894597 0.0587514 0.0444633 -0.0117969 -0.0187756 0.076102 0.139893 0.0816383 -0.0162283 0.156776 -0.101122 0.152109 0.0120674 -0.0248323 -0.051882 -0.109505 -0.109111 -0.119615 -0.108793 -0.127952 -0.1226 -0.115336 -0.108667 -0.114493
internal_weight=0 100271 73165.4 69765.3 68645.1 27105.9 5891.75 66904.4 3400.09 2432.36 21214.2 3343.26 1872.56 15980.1 8965.02 7015.05 389.188 1740.73 1470.7 967.728 2548.49 2146.9 5234.13 2870.39 1120.19 1074.44 2363.73 2043.17 685.402 282.326 401.588 423.941 45.7474 29.2349 23.0506 20.3297 394.706 386.441 11.3637 375.077 8.26557 8.65947 7.06984 368.007 11.7808
internal_count=268644 263219 177425 171044 167085 85794 13910 162137 6381 3744 71884 8938 4460 55578 31351 24227 1074 4948 4478 2637 4972 4370 16306 10561 3959 3881 5745 2670 1509 1128 602 5425 78 166 152 148 5259 5205 94 5111 54 60 70 5041 113
is_linear=0
shrinkage=0.1


Tree=9
num_leaves=45
num_cat=0
split_feature=114 106 120 100 72 35 131 15 103 5 102 0 5 44 127 72 58 107 135 104 133 78 52 68 73 102 58 28 6 44 33 55 56 2 103 101 31 103 20 63 75 75 76 31
split_gain=919.437 649.537 475.762 652.787 492.936 462.795 437.114 404.367 356.802 317.449 790.742 313.863 320.876 241.196 412.889 411.51 295.466 269.083 201.405 141.178 134.617 123.149 101.922 93.2152 89.5599 133.495 125.458 82.2768 46.3271 37.9733 27.4355 19.9256 17.4265 21.4351 19.5613 13.2718 5.17897 0.20267 0.090358 0.05123 0.0445419 0.0227465 0.0204404 0.00850885
threshold=-0.82366251945495594 -0.86228436231613148 -1.6832576394081114 -0.76709333062171925 -0.77295067906379689 0.80808231234550487 1.0000000180025095e-35 1.2075838446617129 -0.90577977895736683 0.64407664537429821 -0.84585013985633839 0.47725085914134985 0.63720071315765392 1.1657276153564455 -3.1829745769500728 -0.33948552608489985 0.90347567200660717 -0.9847353696823119 1.0000000180025095e-35 -0.81325221061706532 1.0000000180025095e-35 -1.3238105177879331 1.1059074997901919 0.033882988616824157 -0.82095336914062489 -0.83431455492973317 0.85288849472999584 1.2200094461441042 0.4909560382366181 1.0522345900535586 0.82608866691589367 1.0537036061286928 0.96602770686149608 0.52158436179161083 -0.81834259629249562 -0.81228169798851002 1.0009245276451113 -1.0479152798652647 1.6556050777435305 0.44134415686130529 -1.2058156132698057 -1.1694189906120298 -1.2576404213905332 0.98981061577796947
decision_type=2 2 2 2 2 2 2 2 2 2 2 2 2 2 2 2 2 2 2 2 2 2 2 2 2 2 2 2 2 2 2 2 2 2 2 2 2 2 2 2 2 2 2 2
left_child=1 2 13 4 8 20 9 -6 -4 11 21 12 -3 17 15 -15 -16 22 -7 24 -5 -11 -1 -13 25 -8 -26 -12 31 36 -19 -21 33 -31 -35 -30 37 42 39 -39 -36 -40 -2 -34
right_child=29 6 3 5 7 18 19 -9 -10 10 27 23 -14 14 16 -17 -18 30 -20 28 -22 -23 -24 -25 26 -27 -28 -29 35 32 -32 -33 43 34 40 -37 -38 38 41 -41 -42 -43 -44 -45
leaf_value=-0.045203252033932884 -0.11755152650652839 0.048724627658332458 0.045289719022332066 -0.092212464433342689 0.062764003538610266 0.021301657805021915 0.0056088416658732834 0.094962377160161565 -0.026820294795117453 0.0061687808005243365 -0.094551140661325375 0.11893536842261121 -0.055351486128489613 -0.079436260797335942 -0.0089545512394973558 0.062263962994544952 0.11920948061833886 0.059841498191575249 0.075943857589729449 0.26450797059620118 0.14017799357056968 0.057396525757465525 0.093829087363136721 -0.14927663974079999 0.10730228170002375 -0.10531168931507294 0.0045463978288008897 0.17572322064603987 -0.066311021065765599 0.25475751258792378 0.18391544787901754 0.016773431764276998 -0.12576255177622495 0.13156172566943039 -0.11035816544599708 -0.11766768213264366 0.042001028980047928 -0.10784407937937701 -0.10901851206469478 -0.11917139038425709 -0.12743352276462641 -0.11999916506097828 -0.12842608122747465 -0.11829255615418643
leaf_weight=63.466108754277229 2.6330583319067955 29932.350729800761 6283.1372790932655 26.374470457434654 40796.312157854438 7264.155763477087 1371.173178113997 4312.7143667787313 770.30017681419849 679.79758734256029 574.19218312203884 716.12407392263412 299.19518668949604 236.0918942540884 197.19047237932682 1553.521611943841 2048.6852534860373 18.430232182145119 743.59976483881474 4.8186946958303443 454.08909630775452 1515.242555141449 311.61269420385361 13.196560114622114 199.08911360800266 117.82691765576601 294.69856006652117 11.488715067505835 134.76289246976376 4.7787863835692468 539.87151494622231 9.9518900141119939 3.0767831504344931 6.272140152752403 3.8424012809991872 80.305009059607983 2.2978354692459098 340.89289938658476 2.4689931198954582 4.0400562509894362 2.5358939766883761 7.9963507503271085 5.0313439071178427 3.0231332927942276
leaf_count=217 23 84934 16480 96 94097 21013 6233 8603 2428 2554 2849 1656 1288 888 584 3646 3215 34 1723 10 709 4182 619 61 650 736 1347 19 1099 8 539 49 21 16 47 661 7 5102 34 34 17 60 31 25
internal_value=0 0.0543312 0.0602505 0.0578133 0.0619984 0.0320953 0.043528 0.0658424 0.0374146 0.0463516 0.0139861 0.0492584 0.0476946 0.0899992 0.0794033 0.0435704 0.107957 0.135811 0.0263757 0.000470308 0.127421 0.0415314 0.0703038 0.114082 0.0090704 -0.00316847 0.0459763 -0.0892494 -0.0737216 -0.0997244 0.17982 0.0975933 0.0234113 0.0743239 0.00616384 -0.0854873 -0.107654 -0.108601 -0.108254 -0.107977 -0.117147 -0.117409 -0.12469 -0.12206
internal_weight=0 101574 65619.6 60650.7 52162.5 8488.22 35954.2 45109 7053.44 33741.6 2780.72 30960.9 30231.5 4968.87 4035.49 1789.61 2245.88 933.381 8007.76 2212.63 480.464 2195.04 375.079 729.321 1982.79 1489 493.788 585.681 229.838 388.89 558.302 14.7706 23.5291 17.4292 12.6504 215.068 365.361 363.063 355.398 344.933 6.3783 10.4653 7.6644 6.09992
internal_count=268644 263219 154891 145149 121608 23541 108328 102700 18908 97543 9604 87939 86222 9742 8333 4534 3799 1409 22736 10785 805 6736 836 1717 8966 6969 1997 2868 1819 5425 573 59 134 88 80 1760 5291 5284 5230 5136 64 94 54 46
is_linear=0
shrinkage=0.1


Tree=10
num_leaves=57
num_cat=0
split_feature=76 128 130 131 31 30 101 75 31 105 86 37 118 75 124 77 123 84 72 31 97 116 129 123 5 76 70 103 116 91 60 35 105 109 34 32 125 116 55 71 101 47 33 104 32 29 34 31 64 89 81 5 126 61 33 75
split_gain=776.242 560.946 483.453 452.814 856.449 374.323 546.02 358.559 268.178 249.516 247.027 209.773 180.933 227.474 220.004 161.97 153.793 200.363 149.536 146.863 137.845 128.622 124.214 103.333 99.2768 98.825 84.4039 259.596 85.2394 84.0992 68.8328 63.4193 62.5209 81.3697 59.374 56.1628 55.3311 51.613 59.9489 50.5413 46.7718 37.0515 24.217 45.3421 20.5841 16.2629 20.1634 15.7573 14.8306 12.8464 8.18123 1.97484 4.66314 0.52098 0.0680358 0.0219532
threshold=-1.2619984149932859 1.0000000180025095e-35 1.0000000180025095e-35 1.0000000180025095e-35 1.0107810497283938 1.084876596927643 -0.86866649985313404 -1.113683223724365 0.99996462464332592 -0.89148655533790577 -1.3271744251251218 0.88944232463836681 -1.0251882672309873 -1.0614964365959165 -1.2171568274497984 -1.2818534374237058 -1.5755720138549802 -1.2852803468704221 -0.77295067906379689 1.000504791736603 -0.80086645483970631 -0.88316109776496876 1.0000000180025095e-35 -1.288057744503021 0.55489337444305431 -1.2795639634132383 -0.21497257053852079 -0.78173142671585072 -0.91729107499122609 -1.2297345995903013 0.78792318701744091 0.94893267750740062 -0.85389453172683705 -0.83550018072128285 0.9126347303390504 0.96109113097190868 -1.3598899841308592 -0.93163996934890736 0.9751049578189851 -0.41571429371833796 -0.76296213269233693 1.1050247550010683 0.9291159212589265 -0.810957372188568 0.96649596095085155 1.1364080905914309 0.87423270940780651 0.99418643116951 0.49190016090869909 -1.2923865914344785 -1.4078567028045652 0.66562262177467357 -1.2945096492767332 0.55714499950408947 0.90254452824592601 -1.1744046211242674
decision_type=2 2 2 2 2 2 2 2 2 2 2 2 2 2 2 2 2 2 2 2 2 2 2 2 2 2 2 2 2 2 2 2 2 2 2 2 2 2 2 2 2 2 2 2 2 2 2 2 2 2 2 2 2 2 2 2
left_child=11 2 3 5 9 6 -2 -7 16 -5 26 45 13 -10 -14 37 20 -18 -6 24 -4 22 42 -21 -17 29 27 28 -3 34 40 -32 -27 -34 -23 -31 48 44 -39 -29 -28 -38 50 -44 -12 51 47 -47 -24 -49 -13 52 -1 55 -55 -53
right_child=1 10 8 4 18 7 -8 -9 12 -11 15 21 14 -15 -16 19 17 -19 -20 23 -22 25 36 -25 -26 32 30 39 -30 35 31 -33 33 -35 -36 -37 41 38 -40 -41 -42 -43 43 -45 -46 46 -48 49 -50 -51 -52 53 -54 54 -56 -57
leaf_value=-0.12760136317432044 0.072499013130163173 0.030349682980310051 0.19564224572091438 0.050232124642109299 -0.032432831790874445 -0.035226989466863208 0.052464626079391868 0.041274728612705369 -0.04870693996281919 -0.0054703033754556034 -0.11910969555141629 -0.12702092987033375 0.074559770283080598 0.039571691189307756 -0.021644712106010999 0.01249141470163477 0.031560168356932865 -0.012449816308954456 0.090856993148066861 0.058452502440617962 0.043737482320651042 -0.0028128814688058949 -0.13770401274949204 0.0083878036961092424 -0.02642457815889265 0.26418700342378459 0.10692367363224575 -0.13843030201003959 0.093761049421641707 -0.094929355466323431 0.0032576857236339672 0.11859667656152911 -0.073687279342780368 0.071219263135235994 0.13358078041251825 0.19064160405254624 -0.0013519144690715048 -0.069860803711060765 0.14730941354397475 -0.032070921207264173 -0.062616298660067141 0.17292736579366894 0.14832129219188769 -0.071048812007321424 -0.019567041177262254 0.11753864125981513 0.091547847812007963 0.0035531359628519078 0.079928990801997599 -0.12165590159471995 -0.080350652569324485 -0.10672143717524195 0.040975092482511716 -0.11668761019118744 -0.12595038662535393 -0.11544192980243187
leaf_weight=3.7283359542489052 18388.874310985208 472.95068655908108 68.584695756435394 1015.2640098929405 103.87486030161381 667.97700391709805 52277.167347297072 7397.9218567162752 351.62756325304508 3867.766960196197 136.71745474636555 106.43009117990732 2261.8775535970926 1718.1734394580126 265.62011879682541 2003.1036802828312 1800.2820403426886 2431.8196007087827 1858.4848291575909 950.7763365060091 463.09368807077408 179.49300522357225 14.153305724263193 727.87249274551868 974.4102740585804 14.281150385737417 463.3735044002533 66.880263522267342 384.18432380259037 126.12984213232994 172.1065820902586 65.936775475740433 45.314483195543289 267.55332560837269 38.818344421684742 7.2846061140298835 18.70984610915184 35.455130867660046 19.814864844083786 134.58557845652103 16.864179879426956 35.053333014249802 10.488489739596842 92.668519102036953 24.495699197053909 3.9534631744027129 8.719023257493971 10.868697404861448 4.0207106769084922 33.30119077116251 58.046759769320488 227.69535547122359 2.93081510066986 22.0452935770154 12.384281583130358 2.9238617345690718
leaf_count=24 37997 1614 84 2912 360 2273 124400 18485 1316 16290 731 692 5707 4841 960 7672 6020 8507 3961 2941 1281 955 73 2626 4013 25 1085 342 1074 871 583 153 275 873 118 18 59 164 48 489 66 50 42 489 102 29 37 56 11 244 431 3863 17 188 81 26
internal_value=0 0.0488769 0.0508435 0.0532036 0.0285343 0.0553485 0.057678 0.0349392 0.0292674 0.00611117 0.0207989 -0.0275376 0.0464969 0.0245745 0.0644494 0.00915971 0.01264 0.00627147 0.0843308 0.013091 0.0633327 -0.00512341 -0.0553713 0.0367441 -0.00024409 0.0200104 0.0527165 0.0347637 0.0587719 -0.0167863 0.0791754 0.035206 0.0595715 0.0502316 0.0214395 -0.0793368 0.0612867 -0.0753947 0.00799696 -0.0673789 0.10097 0.112277 -0.0867277 -0.0487444 -0.103985 -0.0970176 -0.0483755 -0.0737269 -0.0895562 -0.0908462 -0.11055 -0.107194 -0.0534078 -0.108545 -0.120019 -0.106832
internal_weight=0 101588 94938.4 85577.3 6845.39 78731.9 70666 8065.9 9361.08 4883.03 6649.53 1347 4597.3 2069.8 2527.5 4872.65 4763.78 4232.1 1962.36 4656.16 531.678 1018.45 339.571 1678.65 2977.51 678.875 1776.88 1058.6 857.135 351.726 718.281 238.043 327.149 312.868 218.311 133.414 71.9372 216.483 55.27 201.466 480.238 53.7632 267.634 103.157 161.213 328.55 56.8424 48.1234 18.174 44.1699 164.477 271.708 6.65915 265.049 34.4296 230.619
internal_count=268644 259097 235394 206678 23523 183155 162397 20758 28716 19202 23703 9547 12824 6157 6667 18297 15892 14527 4321 17252 1365 4982 1847 5567 11685 3135 5406 3519 2688 1962 1887 736 1173 1148 1073 889 193 1045 212 831 1151 109 1654 531 833 4565 366 329 84 300 1123 4199 41 4158 269 3889
is_linear=0
shrinkage=0.1


Tree=11
num_leaves=46
num_cat=0
split_feature=114 128 130 131 31 66 62 30 35 105 105 102 124 99 85 78 75 31 70 101 75 53 70 72 79 50 103 68 43 77 81 30 115 56 3 127 72 103 20 124 76 75 136 31 76
split_gain=664.448 483.379 486.688 376.225 706.66 343.768 328.016 266.476 258.346 239.979 200.69 200.665 178.336 176.814 153.951 153.559 128.856 124.154 107.258 276.384 103.246 92.4492 79.9447 76.3481 73.8166 66.6919 58.0041 36.4758 34.4992 34.2798 33.824 22.3136 20.4889 11.8989 19.7879 12.288 6.58057 0.178592 0.0827674 0.0255251 0.0224448 0.0187787 0.0163782 0.00659793 0.00586018
threshold=-0.82366251945495594 1.0000000180025095e-35 1.0000000180025095e-35 1.0000000180025095e-35 1.0094165205955508 -0.16360093653202054 0.75780838727951061 1.0577803850173952 0.9070391356945039 -0.85897427797317494 -0.89148655533790577 -0.80077120661735524 -1.2110647559165952 -0.95862695574760426 -1.3488413095474241 -1.3295289874076841 -1.0852502584457395 0.99886810779571544 -0.23078899830579755 -0.81368663907051075 -0.96775352954864491 1.0491088628768923 -0.17736671864986417 -0.61367216706275929 -1.2398895025253294 1.1565263271331789 -0.78077214956283558 0.063650529831647887 1.0128797292709353 -1.278505742549896 -1.3883818387985227 0.99410864710807811 -0.91659414768218983 0.96602770686149608 0.55283358693122875 -1.3622087836265562 -0.68182882666587818 -1.0479152798652647 1.6556050777435305 -1.0578226447105405 -1.2576404213905332 -1.2058156132698057 1.0000000180025095e-35 0.98981061577796947 -1.2392584681510923
decision_type=2 2 2 2 2 2 2 2 2 2 2 2 2 2 2 2 2 2 2 2 2 2 2 2 2 2 2 2 2 2 2 2 2 2 2 2 2 2 2 2 2 2 2 2 2
left_child=1 2 3 5 10 13 -7 8 20 24 -5 -10 -11 -1 18 29 -6 22 19 21 -4 -3 -17 -19 -9 26 -20 -21 37 32 -31 -27 -16 34 -30 36 -36 40 39 -39 -2 -41 44 -35 -40
right_child=28 14 7 4 16 6 -8 9 11 12 -12 -13 -14 -15 15 17 -18 23 25 27 -22 -23 -24 -25 -26 31 -28 -29 33 30 -32 -33 -34 43 35 -37 -38 38 42 41 -42 -43 -44 -45 -46
leaf_value=0.029788877889621441 -0.1148166100106342 0.0052089886532706575 -0.030422757612410839 0.042316199100521423 0.047937859998822274 0.051064973187475486 -0.0094573155269171549 -0.010313634711078387 0.053716552199818718 0.07055489488773882 -0.0087380655401985211 0.0060714907396511881 -0.027172440058919251 -0.038321670353534426 -0.11919853470645106 -0.013254339427177545 0.094111190247437956 0.010857760339373468 0.1116622395665957 -0.11814284947776084 0.038273751228285968 0.068878338522891144 0.029558966640532976 0.049222827241678077 0.031981095752610288 0.087148987302193753 0.054102595263869208 -0.034313149841838551 0.26009127635516188 0.14088891373137696 -0.13957382146226147 -0.12541194886068377 -0.019271040447240456 -0.12353909115838024 -0.11775347498198388 0.11718853459620107 0.027296153850616418 -0.12190941298512514 -0.10715241811095842 -0.10605709577827066 -0.1268194099614938 -0.10782941370670791 -0.12189853255518923 -0.11674867431067511 -0.11468424790319148
leaf_weight=996.0862897336483 2.3004588112235069 398.1975461691618 1595.6634645760059 978.71739086508751 1341.210589133203 77001.907955646515 906.03304544091225 725.20300517231226 1454.113473393023 2295.4978951066732 3609.5752855986357 2254.4734963402152 203.26161813735962 617.37879402935505 123.59251809120178 1965.7182471603155 1100.1800530701876 1082.4764783158898 220.6999568939209 127.70444338768721 253.54088413715363 533.74241618812084 560.50998342037201 995.9706573933363 957.45221191644669 6.1700350791215923 846.86754584312439 87.447991475462914 3.490991070866591 12.063693165779116 6.6817556321620932 24.744150146842003 24.603296667337418 2.9034407660365096 7.2349275499582353 6.1368743404746011 5.5095887631177893 1.0890989080071438 1.3000403121113775 205.94011138007045 4.8268012329936019 84.237398155033588 3.2187226191163063 2.8214081525802612 5.0295255705714208
leaf_count=2587 23 1740 6113 2796 3426 176436 2871 2171 4247 5695 15453 8035 895 1849 695 7970 2204 3797 509 709 689 1538 2091 3149 2515 17 2356 378 4 33 33 113 109 21 77 13 26 8 22 3834 31 1269 26 25 46
internal_value=0 0.0432233 0.0450698 0.0474547 0.0252798 0.0494149 0.0503611 0.0238761 0.00952851 0.0429463 0.00215219 0.0247528 0.0626053 0.00372695 0.0178844 0.00772326 0.0687453 0.011139 0.0394757 0.0180888 -0.0210039 0.0416738 -0.00375508 0.0292419 0.0137526 0.061809 0.066002 -0.0840705 -0.0976215 -0.0864923 0.0409189 -0.0829878 -0.102609 0.00845337 0.0413725 0.000933408 -0.055047 -0.1073 -0.106929 -0.106629 -0.122945 -0.106572 -0.116091 -0.120193 -0.113137
internal_weight=0 103307 96290.3 86551.1 7029.68 79521.4 77907.9 9739.21 5557.79 4181.41 4588.29 3708.59 2498.76 1613.47 7017.19 4771.62 2441.39 4604.68 2245.57 1147.09 1849.2 931.94 2526.23 2078.45 1682.66 1098.48 1067.57 215.152 336.039 166.941 18.7454 30.9142 148.196 28.0972 22.3724 18.8814 12.7445 307.942 300.815 291.267 7.12726 290.178 9.54829 5.72485 6.32957
internal_count=268644 263219 237982 207622 23879 183743 179307 30360 19084 11276 18249 12282 6590 4436 25237 17877 5630 17007 7360 4365 6802 3278 10061 6946 4686 2995 2865 1087 5425 870 66 130 804 166 120 116 103 5259 5205 5111 54 5103 94 46 68
is_linear=0
shrinkage=0.1


Tree=12
num_leaves=47
num_cat=0
split_feature=114 119 103 5 134 70 74 26 29 63 131 110 62 98 98 120 135 118 69 125 119 113 100 69 104 56 59 5 43 34 45 31 56 3 116 26 56 103 20 125 75 75 136 31 76 23
split_gain=560.155 480.765 462.886 1481.14 1271.97 690.608 463.899 427.481 354.665 340.629 355.699 322.531 282.719 244.573 238.035 196.509 180.955 176.106 221.21 138.38 97.1479 138.992 90.7808 68.9869 68.0565 66.6062 56.4881 36.0752 32.4111 27.1394 22.4462 15.4656 10.2751 14.7528 10.1349 12.5523 6.91457 0.128295 0.0597978 0.0183754 0.0157022 0.0136814 0.0116922 0.00466585 0.00419306 0.00394613
threshold=-0.82366251945495594 -1.6428606510162351 -0.849871665239334 0.6465338170528413 1.0000000180025095e-35 -0.32177530229091639 -1.0288242697715757 1.4055884480476382 1.1495288610458376 0.67542755603790294 1.0000000180025095e-35 -1.2006455063819883 0.75780838727951061 -0.9491538107395171 -0.90730151534080494 -1.3155269622802732 1.0000000180025095e-35 -1.6231071949005125 0.087169222533702864 -2.6348685026168819 -1.65896600484848 -1.3676241636276243 -0.96875807642936695 0.073016393929719939 -0.7349066138267516 0.97160866856575023 0.86289831995964061 -0.035967914387583726 1.0128797292709353 0.85785755515098583 1.0078611373901369 0.85062974691391002 0.96602770686149608 0.55283358693122875 -0.82324862480163563 1.2300516963005068 1.0525375604629519 -1.0479152798652647 1.6556050777435305 -1.1370880603790281 -0.99999907612800587 -1.2058156132698057 1.0000000180025095e-35 0.98981061577796947 -1.2392584681510923 1.3693645000457766
decision_type=2 2 2 2 2 2 2 2 2 2 2 2 2 2 2 2 2 2 2 2 2 2 2 2 2 2 2 2 2 2 2 2 2 2 2 2 2 2 2 2 2 2 2 2 2 2
left_child=1 11 4 9 5 6 -3 13 14 10 -4 19 20 -6 -5 -7 -11 36 -19 23 27 -22 -9 26 25 -21 -1 -13 37 -25 -10 -26 33 -30 35 -35 -14 40 39 -39 45 -41 44 -34 -40 -2
right_child=28 2 3 8 7 15 -8 22 30 16 -12 12 17 -15 -16 -17 -18 18 -20 24 21 -23 -24 29 31 -27 -28 -29 32 -31 -32 -33 43 34 -36 -37 -38 38 42 41 -42 -43 -44 -45 -46 -47
leaf_value=-0.11972983911989386 -0.11405249849923081 0.00099373006384249115 0.036864858458898149 -0.045803445684103716 0.15185088019828585 0.103216322908056 0.039660497792384314 0.15819603123694098 0.04523594687206714 -0.036742520213007689 -0.0047568583110313457 0.064703329436437335 0.14205041030912741 0.091794297885518461 -0.13014679721239905 0.060576600039560669 0.15640653625546705 -0.093219398742584905 0.071338766781782553 -0.091091092382848446 -0.034638340366365837 0.10120795992053118 -0.19123720227219504 -0.031227322172928076 0.058646517314977498 0.064960877297606912 -0.016630105296829151 0.14017690347157291 0.21916112530561582 0.1816485200551895 0.19862915722955005 -0.15082991303380544 -0.12090154853677544 -0.11822492873806822 0.14035423084029391 0.071507557463387994 0.21027334249185367 -0.11945852164690476 -0.10643248479745422 -0.10544786493002614 -0.127579655085691 -0.10703298008851642 -0.11945866478572956 -0.11495095612338053 -0.11310415795701632 -0.11996613893462223
leaf_weight=73.088045820593834 2.2232804745435715 3438.6422526910901 53223.886500716209 982.05487132817507 1081.8451367020607 1783.6959306150675 31764.77570553124 8.563631519675253 11.774925470352171 871.6400071978569 2135.6432282924652 68.242243930697441 49.107002630829811 1816.91760443151 507.54099953174591 2742.8066744506359 51.363093912601471 164.84267228841782 161.94021125137806 28.556028068065643 81.99961856007576 924.23873297870159 56.399036809802055 8.5195310264825839 4.29563641548157 648.25048980116844 194.73387755453587 880.07688872516155 3.7144324332475724 20.162141248583794 50.251381829380989 19.632920473814011 2.6814928948879233 8.3319640830159241 4.0489416718482927 5.996340110898017 21.299824595451355 1.0046315938234318 1.1838754415512083 187.36393141746521 2.0657833740115157 76.759314622730017 2.9688341878354549 2.5907870158553123 4.6112120002508146 2.2913269028067589
leaf_count=328 22 11439 137841 4203 1322 3089 74538 12 33 3123 9369 137 54 3167 2275 6037 81 640 373 133 209 1399 227 33 12 1271 742 925 4 25 71 93 21 86 6 24 18 8 22 3834 13 1269 26 25 46 19
internal_value=0 0.0386695 0.0374277 0.0315975 0.0453255 0.0406112 0.0358836 0.108523 -0.0647853 0.0342547 0.0352592 0.0759424 0.0961508 0.114208 -0.0745412 0.077379 -0.0259942 0.0192365 -0.0116711 0.0282856 0.111781 0.0901377 -0.145174 -0.0289807 0.0525169 0.0583767 -0.0447658 0.134746 -0.0964248 0.118416 0.169509 -0.113225 0.00745773 0.0373934 0.00065428 -0.0388226 0.16269 -0.10656 -0.106229 -0.10596 -0.120358 -0.105909 -0.114356 -0.117977 -0.111741 -0.117054
internal_weight=0 103877 100528 57834.2 42693.6 39729.9 35203.4 2963.73 1551.62 56282.5 55359.5 3348.99 2351.75 2898.76 1489.6 4526.5 923.003 397.19 326.783 997.239 1954.56 1006.24 64.9627 296.504 700.735 676.807 267.822 948.319 307.836 28.6817 62.0263 23.9286 27.364 22.0917 18.3772 14.3283 70.4068 280.472 273.892 265.128 6.58039 264.123 8.76392 5.27228 5.79509 4.51461
internal_count=268644 263219 256827 156996 99831 95103 85977 4728 6582 150414 147210 6392 3755 4489 6478 9126 3204 1085 1013 2637 2670 1608 239 1128 1509 1404 1070 1062 5425 58 104 105 166 120 116 110 72 5259 5205 5111 54 5103 94 46 68 41
is_linear=0
shrinkage=0.1


Tree=13
num_leaves=47
num_cat=0
split_feature=52 119 103 5 68 134 32 75 101 133 106 110 62 127 111 118 52 37 62 32 30 70 107 61 82 29 56 98 34 75 127 70 118 92 88 117 123 110 116 109 125 100 105 105 132 30
split_gain=475.176 415.634 414.133 1388.21 495.702 586.484 830.543 537.435 429.556 402.732 398.693 394.664 360.421 218.134 250.3 216.68 187.632 173.469 166.941 154.738 146.516 127.541 109.137 193.792 121.121 100.251 79.9329 69.9426 50.2726 34.4614 33.9076 54.6352 30.4566 29.1609 34.5255 20.3627 19.9306 25.902 41.0039 16.884 9.36259 3.90015 0.0600428 0.0109229 0.0080653 0.00597099
threshold=0.74619314074516307 -1.6476160287857053 -0.82820111513137806 0.61530962586402904 -0.019994552247226235 1.0000000180025095e-35 0.95115959644317638 -1.0971753597259519 -0.83728185296058644 1.0000000180025095e-35 -0.94465121626853932 -1.2047826647758482 0.73892799019813549 -3.2062317132949825 -1.2481242418289182 -1.6231071949005125 1.1550768017768862 0.92828011512756359 0.56941196322441112 0.88573822379112255 1.0740588903427126 -0.31096480786800379 -0.99932193756103505 0.77167630195617687 -0.31004317104816431 1.1273341178894045 0.98581051826477062 -0.94613415002822865 0.86851257085800182 -0.45958331227302546 -3.1141208410263057 -0.11273978650569914 -1.6111911535263059 -1.0291375517845152 -1.1043748855590818 -0.97477430105209339 -1.0205035805702207 -0.90604311227798451 -0.91729107499122609 -0.90247273445129383 -1.0926519036293028 -0.91135507822036732 -0.9076828360557555 -0.89858275651931752 1.0000000180025095e-35 1.0930587053298952
decision_type=2 2 2 2 2 2 2 2 2 2 2 2 2 2 2 2 2 2 2 2 2 2 2 2 2 2 2 2 2 2 2 2 2 2 2 2 2 2 2 2 2 2 2 2 2 2
left_child=20 11 4 10 5 7 -7 -3 21 18 19 22 -12 14 15 -13 -16 -11 -6 -4 35 -5 23 24 -2 -10 29 33 -25 -15 31 -24 -28 34 -22 -1 42 38 -38 -36 -39 45 44 -44 -37 -29
right_child=1 2 3 8 9 6 -8 -9 25 17 12 13 -14 26 16 -17 -18 -19 -20 -21 27 -23 30 28 -26 -27 32 41 -30 -31 -32 -33 -34 -35 39 36 37 40 -40 -41 -42 -43 43 -45 -46 -47
leaf_value=0.053595979637754365 0.030203642281024387 0.011509933856895069 0.041846331936589473 -0.08104228796026515 0.06574338141103081 0.080881681241106312 -0.047800211695647916 0.037643449003627337 -0.1134275418682911 0.063792481410918603 0.033493832959386127 0.12517535899577853 -0.02601225649347676 0.032670015354914643 0.12725619280165376 -0.044711698883503626 0.019739314204278966 0.12023632425724443 0.035836347743055622 -0.034543322439996436 0.1578896440150136 0.012410303912402823 -0.14324906922647904 0.16137780887298714 -0.1144416563725169 0.076067222775259388 0.14971076143182038 -0.17354041535846573 0.061746641877883937 -0.24906352623539185 0.14686598289835165 -0.028748870907006552 0.11172526346325046 0.17383055410524367 -0.17345132965368684 -0.18863103255880398 -0.10995634857624209 0.14744594835532543 0.15855081801726106 0.013853036750878362 -0.10763995303025041 -0.063790365001271845 -0.17993683048430462 -0.17522729055263689 -0.18337182842079594 -0.16904883864827802
leaf_weight=8.2217910438775998 147.51824603974819 10457.597250390798 334.49537542462349 188.50939616560936 3280.9993706159294 4604.6161297410727 562.87705390155315 31792.876622691751 896.25004455074668 927.66465750336647 39646.064741510898 101.83296762406826 1044.6797366887331 11.286389514803888 588.37450498342514 285.71821488440037 224.14754810929298 1318.1943071484566 4329.1478601619601 1279.4830679148436 15.917728364467619 648.20880160853267 57.478289857506752 90.049593955278397 95.283715412020683 28.816376507282257 551.73144660890102 5.6068258434534091 115.73951780796051 7.0559500008821479 8.2164716124534589 151.5563638061285 341.87094841897488 25.174007773399353 6.0824311524629584 5.9725430160760862 13.446959838271143 1.4466223269700993 9.8559829294681531 23.051753818988804 268.68437771126628 4.7296737283468238 8.1375306099653226 12.473554104566576 5.6977441310882568 6.268915057182312
leaf_count=18 344 31071 812 1112 7548 8716 1839 73225 4096 1845 104446 136 3628 22 742 864 588 1987 11086 3950 23 2463 269 138 443 78 533 23 229 30 10 542 446 35 25 24 47 2 13 60 4987 16 33 51 23 26
internal_value=0 0.0347446 0.0336985 0.0264106 0.0393058 0.0350644 0.0668648 0.031175 -0.0605637 0.0597116 0.0300327 0.0729063 0.0319661 0.0940702 0.066055 -7.21673e-05 0.0975959 0.0969219 0.0487303 -0.0187116 -0.0717387 -0.00864421 0.00577559 0.0339501 -0.0265601 -0.107525 0.130937 0.0439832 0.105343 -0.0757075 -0.0524005 -0.060233 0.135178 0.0876256 0.0394562 -0.101829 -0.105752 -0.0975476 0.0036088 -0.0252511 -0.106274 -0.140585 -0.180332 -0.177087 -0.186063 -0.171169
internal_weight=0 104118 101340 44066.5 57274 47418 5167.49 42250.5 1761.78 9856.01 42304.7 2777.86 40690.7 2112.02 1200.07 387.551 812.522 2245.86 7610.15 1613.98 420.768 836.718 665.842 448.591 242.802 925.066 911.945 86.8313 205.789 18.3423 217.251 209.035 893.602 70.2259 45.0519 333.937 325.715 293.434 23.3029 29.1342 270.131 16.6054 32.2814 20.6111 11.6703 11.8757
internal_count=268644 263238 257902 120585 137317 114851 10555 104296 7749 22466 112836 5336 108074 3361 2330 1000 1330 3832 18634 4762 5406 3575 1975 1154 787 4174 1031 208 367 52 821 811 979 143 108 5198 5180 5049 60 85 4989 65 131 84 47 49
is_linear=0
shrinkage=0.1


Tree=14
num_leaves=54
num_cat=0
split_feature=76 118 102 5 134 32 71 97 5 100 136 61 5 100 110 72 15 120 101 5 53 34 7 101 41 60 40 126 36 61 94 34 58 74 129 69 98 126 62 69 49 121 74 97 124 32 72 116 24 67 2 92 107
split_gain=414.128 369.658 373.33 1323.78 441.515 640.259 516.378 384.561 361.216 354.692 317.547 298.348 254.02 241.916 220.956 220.596 214.347 425.514 182.155 174.843 127.805 114.711 113.341 148.369 109.493 87.8726 85.1317 83.9369 74.4458 73.9335 63.0484 102.479 62.3448 51.5374 39.2083 34.9257 52.2075 25.5651 19.3524 18.5406 16.7652 13.4083 4.58571 14.8602 25.5124 10.0588 6.7922 3.86165 1.22224 14.7005 0.766797 0.0243479 0.0097225
threshold=-1.2721464633941648 -1.5791615247726438 -0.83244556188583363 0.61530962586402904 1.0000000180025095e-35 0.95355400443077099 -0.47130568325519556 -0.9669649302959441 0.61434096097946178 -0.83954292535781849 1.0000000180025095e-35 0.65940359234809887 0.57154911756515514 -0.84522894024848927 -1.1970395445823667 -0.61203101277351368 0.54501768946647655 -1.742614686489105 -0.52590367197990406 0.63377183675766002 1.1013421416282656 0.83628064393997203 0.70799273252487194 -0.8837049901485442 1.0886230468750002 0.7799668312072755 0.9510038197040559 -2.8272657394409175 0.90646275877952587 0.77167630195617687 -1.0811504721641538 0.91071733832359325 0.89860647916793834 -0.99358424544334401 1.0000000180025095e-35 -0.16557429730892179 -0.99176305532455433 -1.3646863102912901 0.65715742111206066 -0.06933798640966414 1.0702634453773501 -0.94273844361305226 -1.07024210691452 -1.0351275801658628 -1.0903131961822508 0.95248696208000194 -0.69615852832794178 -1.533201217651367 1.3590742945671084 -0.012579212896525858 0.6782577931880952 -1.1917580366134641 -0.83042249083518971
decision_type=2 2 2 2 2 2 2 2 2 2 2 2 2 2 2 2 2 2 2 2 2 2 2 2 2 2 2 2 2 2 2 2 2 2 2 2 2 2 2 2 2 2 2 2 2 2 2 2 2 2 2 2 2
left_child=22 14 4 10 6 7 9 -6 -7 -3 12 -8 -4 19 18 -12 17 21 20 -5 24 -16 23 35 -2 38 -15 -27 -22 -19 31 34 -20 39 -25 36 -1 -33 -18 -32 -38 -37 45 44 -44 48 51 -34 50 -50 -24 -45 -46
right_child=1 2 3 13 5 8 11 -9 -10 -11 15 -13 -14 26 16 -17 25 29 32 -21 28 -23 42 30 -26 27 -28 -29 -30 -31 33 37 47 -35 -36 41 40 -39 -40 -41 -42 -43 43 46 52 -47 -48 -49 49 -51 -52 -53 -54
leaf_value=0.25764564016461694 0.021869129528542215 0.030382456001078889 0.027190622006574558 -0.0055229456942914841 0.11927627952622671 0.048963584795639281 0.068942010354945196 0.056605504735625305 -0.12744208764900389 -0.015886052590839417 -0.0003055437251414789 0.023515656164861592 0.0059079144635085417 0.052557706054823627 0.04664546880385545 0.056752149852880275 -0.23053978703148045 0.13878241737554806 0.2487929485015814 -0.10376073709416125 0.10302260837248485 0.12871460036422236 -0.11924150747501641 -0.066224154208564992 -0.12753963592625148 0.095988535538407277 -0.12544964623116781 0.1542122520225461 0.041556181892829946 -0.09777834473791483 -0.12307091642981312 0.053981201742117506 -0.10126545463146458 0.11249189302688503 0.033281345054914424 0.30661974391945024 0.13875850335808257 0.1918691868318507 0.0077868484348825682 -0.039265284214702253 -0.038982126738837303 0.15416834753394726 0.23789522503324828 -0.12096799569054145 -0.1167695407808266 0.13785335768060461 0.053437691668726243 -0.14623210662016647 -0.10740172004899584 0.25889702911249501 -0.10443004816856381 -0.11457393671362288 -0.10656606708737562
leaf_weight=10.987841688096522 143.77436116337776 38034.122509248555 33711.857255153358 599.89326749742031 1343.6351336091757 209.93703231215477 5509.876209706068 3609.106613650918 259.62471681833267 1732.3020923659205 786.13837100565434 1960.1372024267912 6727.1721857562661 28.154073528945446 391.88342106342316 4907.5310451239347 8.7697913944721204 14.190399140119551 4.6141841113567343 259.56085815280676 246.95846949517727 301.22331829369068 46.190584912896156 187.83661777153611 74.447575405240059 963.77776265144348 587.59724880754948 333.20399883389473 974.91596104949713 191.54317513108253 111.30448924005032 79.428517207503319 30.839605644345284 11.988632336258886 50.177051290869713 10.807654947042467 6.9214012920856502 16.186075150966644 5.5718292444944373 34.605859875679016 22.749367423355579 12.374769195914267 3.9138788729906082 13.109634935855867 1.3029949478805063 1.7076176106929768 2.5548859611153629 50.162528812885284 13.844458591192959 1.1897841542959202 143.66991366073489 10.912736773490904 3.296399734914301
leaf_count=26 381 93962 89576 2077 1830 446 11140 7614 1063 4573 2086 5060 20283 76 852 10009 36 17 5 1324 389 347 378 1260 342 1374 2617 327 2209 778 772 258 149 24 175 16 29 46 12 137 141 29 10 95 13 5 11 256 298 2 3543 103 63
internal_value=0 0.0313497 0.0301989 0.0237814 0.0360008 0.063027 0.0328985 0.0736075 -0.0485726 0.0283669 0.0267633 0.0570221 0.0236502 -0.069468 0.0622355 0.0488741 0.0824416 0.0448267 0.0329649 -0.0351914 0.0413898 0.0823126 -0.0410071 -0.0161306 -0.0291025 0.108225 -0.117311 0.110947 0.0539794 -0.0814617 -0.0347583 -0.0101194 -0.108745 -0.0868184 -0.0452468 0.127288 0.0714376 0.0773235 -0.137948 -0.103195 0.00248004 0.225241 -0.098169 -0.0647461 0.0502343 -0.103846 -0.101577 -0.129112 -0.10586 -0.0784135 -0.108033 -0.118063 -0.109457
internal_weight=0 104003 100267 47607.9 52658.7 5422.3 47236.4 4952.74 469.562 39766.4 46132.7 7470.01 40439 1475.21 3735.88 5693.67 2210.16 898.84 1525.71 859.454 1440.1 693.107 797.061 555.368 218.222 1311.32 615.751 1296.98 1221.87 205.734 491.527 333.628 85.6163 157.899 238.014 63.841 40.6586 95.6146 14.3416 145.91 29.6708 23.1824 241.693 35.0905 8.51327 206.602 26.5773 81.0021 204.895 15.0342 189.86 24.0224 4.59939
internal_count=268644 261210 253736 128048 125688 10953 114735 9444 1509 98535 121954 16200 109859 6094 7474 12095 3743 1994 3731 3401 3321 1199 7434 2913 723 1749 2693 1701 2598 795 2672 1739 410 933 1435 241 196 304 48 909 170 45 4521 295 86 4226 209 405 4221 300 3921 198 76
is_linear=0
shrinkage=0.1


Tree=15
num_leaves=61
num_cat=0
split_feature=78 135 104 5 134 114 74 77 53 113 0 123 30 122 96 121 86 95 113 74 115 71 82 78 38 101 135 29 53 114 72 134 122 99 30 2 97 41 76 31 5 32 79 95 123 4 42 107 98 77 110 39 44 130 31 30 120 92 118 107
split_gain=371.913 594.456 498.063 735.969 661.167 387.614 677.53 479.449 604.944 511.646 415.766 489.409 400.039 376.602 458.907 348.192 339.271 329.447 322.118 286.483 273.601 267.204 266.205 247.684 239.502 231.984 227.405 250.14 205.626 186.86 177.005 255.339 165.406 160.96 142.255 131.044 122.176 189.718 113.574 107.87 105.212 103.44 100.763 74.6169 64.0849 63.9554 53.9463 44.0162 41.1933 36.7224 73.2045 48.0709 24.654 21.3444 20.9341 19.1262 32.0485 12.7872 10.6195 0.1348
threshold=-1.2593776583671568 1.0000000180025095e-35 -0.85134494304656971 0.66883569955825817 1.0000000180025095e-35 -0.99050581455230702 -0.99100232124328602 -1.1800864338874815 1.0377246141433718 -0.9962916076183318 0.4056206494569779 -1.3256444334983823 1.0643558502197268 -1.3165865540504453 -0.89448779821395863 -1.1446524262428281 -1.252342104911804 -1.0050029158592222 -0.96584761142730702 -1.0080614686012266 -1.0119038224220274 -0.55390265583991993 -1.2075229883193968 -1.2733505368232725 0.94079679250717174 -0.91828522086143483 1.0000000180025095e-35 1.1990587711334231 1.0952932834625246 -0.96143454313278187 -0.63829028606414784 1.0000000180025095e-35 -1.2593322992324827 -0.94686880707740773 1.0694616436958315 0.65463906526565563 -0.96113967895507801 0.95593562722206127 -1.1270615458488462 0.97363072633743297 0.57559949159622203 0.94840726256370556 -1.2523643374443052 -1.0160221457481382 -1.3434161543846128 0.66313785314559948 0.96962189674377453 -0.87196257710456837 -0.89589425921440113 -1.2382642626762388 -0.90198192000389088 0.8411633074283601 0.96597662568092357 1.0000000180025095e-35 0.98152625560760509 1.0676389336586001 -0.99705070257186879 -1.134021461009979 -0.9172489047050475 -0.86763924360275257
decision_type=2 2 2 2 2 2 2 2 2 2 2 2 2 2 2 2 2 2 2 2 2 2 2 2 2 2 2 2 2 2 2 2 2 2 2 2 2 2 2 2 2 2 2 2 2 2 2 2 2 2 2 2 2 2 2 2 2 2 2 2
left_child=1 2 4 16 21 7 12 8 20 13 24 44 26 14 -9 28 23 19 -13 -14 41 25 -15 -4 48 -1 42 -28 -11 -18 31 -10 -22 -23 -19 -17 46 -38 -26 47 -32 -2 -7 45 -12 -5 -6 57 -8 55 54 -52 59 -45 -51 56 -41 -3 -57 -49
right_child=5 39 3 43 36 6 10 9 30 15 11 18 17 22 -16 35 29 34 -20 -21 32 33 -24 -25 38 -27 27 -29 -30 -31 40 -33 -34 -35 -36 -37 37 -39 -40 49 -42 -43 -44 53 -46 -47 -48 52 -50 50 51 -53 -54 -55 -56 58 -58 -59 -60 -61
leaf_value=0.021464548561384349 -0.035925166571797611 0.19638079132196753 0.015637980562819436 -0.03092820346913009 0.10301645521017576 0.056702864523672292 -0.0090065268864073286 0.078221028036512319 0.0078481409307857072 0.10438806600307021 0.17276805676032209 0.035036415030368917 0.0077625072267354517 -0.017773003644382369 0.029668385964319938 0.040600796898779754 -0.036202763567428319 0.040345196788089205 0.079321054411373881 0.049240958984851632 0.10228228410426908 0.079729168230372058 0.020562442458396567 0.056855793427714532 0.023103186009660163 -0.049369126663049871 0.15346833684865324 -0.0085533561509841503 -0.023581697235235344 0.048714583321895578 0.015191931122166392 0.096660484468852947 -0.0321775205667717 0.0318044811842857 -0.071069351585744275 -0.055882621303708635 -0.13084595422821421 0.086812276067561048 0.12198101594264102 -0.17663330196300198 -0.026094958840564314 -0.12360413950037807 -0.051971205448335861 -0.14772436018288895 0.11893187334523916 -0.10901772031315123 0.15121279181176214 -0.19991175959697671 -0.10415806397638945 -0.03699320134744255 -0.12993369971464133 0.050533886661935312 0.042883361840109192 -0.051419659707484459 -0.183935759104848 -0.1668109330433743 0.095314238602655491 0.061730704206228809 -0.11448519254064621 -0.17681140724524963
leaf_weight=1416.598115708679 183.16199503839016 11.303905174136164 15943.461909312755 225.63518909364939 875.16514943540096 307.5843343809247 62.588911354541779 2054.4692704826593 680.55543524026871 1825.2739900052547 364.95439678430557 2619.3923756629229 4580.9971685707569 2574.5897012352943 37111.486555323005 1105.04327917099 1744.9328298121691 143.6452618688345 4404.2047941610217 2616.0682010352612 106.30262686312199 892.13535406067967 6110.7020614296198 1604.6325134411454 1295.9831991717219 686.38561005145311 488.85097499191761 118.35829915106297 134.83892972022295 304.32841775566339 3489.2733444869518 617.40227346122265 656.51074996590614 3267.8099349662662 566.76049169898033 161.32151554524899 52.662831813097 167.15077233314514 127.60476170480251 8.9303104579448718 749.86449792981148 507.02161388099194 118.07090988755226 212.06158286333084 560.98454570770264 195.97111355885863 316.1272017210722 5.2373694777488708 166.62330966442823 11.939883381128309 21.666246816515923 46.304314494132996 8.4159265011548978 25.815450213849545 51.571406036615372 157.62845635414124 8.4187178909778577 18.753834217786789 51.444031596183777 4.8796965777874011
leaf_count=5010 531 11 49098 1102 1227 680 174 3858 1940 3206 474 5887 12227 7297 87957 2415 6090 302 8336 5572 203 2061 14355 3752 3518 2517 577 299 433 783 9668 1078 1894 7941 1795 481 175 267 216 37 2198 1970 384 1006 981 3237 332 21 1617 33 82 99 19 112 204 631 15 37 202 20
internal_value=0 0.0178859 0.0196332 0.0114141 0.0413289 0.0312945 0.043882 0.027275 0.0027122 0.0306365 0.0623264 0.0718145 0.0240717 0.0280376 0.0322152 0.06918 0.0149107 0.0164267 0.0628055 0.0228395 -0.0547159 0.0273962 0.00919863 0.019407 0.0166916 -0.00165461 0.0826008 0.121887 0.0955848 -0.023592 0.017782 0.0500937 -0.0134397 0.0420823 -0.0485411 0.0283098 0.103167 0.0346658 0.0319662 -0.102173 0.00788866 -0.100336 0.0265582 -0.0924919 0.140151 -0.0672258 0.115806 0.037634 -0.0781759 -0.121154 -0.0791194 -0.00699183 -0.083575 -0.137273 -0.156311 -0.145563 -0.0446692 0.112369 -0.153936 -0.18877
internal_weight=0 28337.4 27930.9 20256.8 7674.03 76610.5 18542.7 58067.8 6990.09 51077.7 9602.34 7949.54 8940.34 47851.2 39166 3226.48 19597.4 7907.47 7023.6 7197.07 1453 6262.93 8685.29 17548.1 1652.8 2102.98 1032.86 607.209 1960.11 2049.26 5537.1 1297.96 762.813 4159.95 710.406 1266.36 1411.11 219.814 1423.59 406.494 4239.14 690.184 425.655 659.483 925.939 421.606 1191.29 48.5907 229.212 357.903 131.482 67.9706 18.533 237.877 63.5113 226.422 17.349 30.0577 209.072 10.1171
internal_count=268644 86121 84710 65180 19530 182523 43039 139484 19482 120002 21203 15678 21836 113467 91815 6535 59723 19896 14223 17799 4598 17529 21652 52850 5525 7527 1940 876 3639 6873 14884 3018 2097 10002 2097 2896 2001 442 3734 1411 11866 2501 1064 5457 1455 4339 1559 108 1791 1303 418 181 60 1118 237 885 52 48 833 41
is_linear=0
shrinkage=0.1


Tree=16
num_leaves=57
num_cat=0
split_feature=119 52 103 4 134 29 132 28 26 131 32 78 30 71 71 80 120 101 42 107 110 103 62 30 72 111 120 121 102 100 46 39 118 99 98 112 118 120 88 114 58 110 106 5 123 110 117 43 123 110 76 102 90 106 106 30
split_gain=338.729 326.505 295.379 993.388 707.811 454.918 611.342 401.74 354.716 300.291 296.549 238.184 224.792 220.618 217.178 164.487 177.268 162.155 153.549 152.8 130.982 181.847 129.444 117.76 105.119 97.3022 95.0291 88.3932 75.2496 72.7851 67.242 55.8405 55.826 78.4261 55.6092 47.4403 44.9891 40.7548 154.169 79.2308 34.7066 25.6846 23.255 38.9949 23.0518 19.0167 17.8397 17.5956 16.9716 21.9301 3.9283 3.45268 3.39139 1.41088 0.026571 0.00472502
threshold=-1.6428606510162351 0.74619314074516307 -0.85274314880371083 0.63027381896972667 1.0000000180025095e-35 1.1258653402328493 1.0000000180025095e-35 1.1253465414047243 1.4055884480476382 1.0000000180025095e-35 0.93427675962448131 -0.42273993790149683 1.0760782957077029 -0.19067697972059247 -0.49465352296829218 -0.34046179056167597 -1.7492933273315427 -0.86458408832550038 1.1275650262832644 -0.91695564985275257 -1.1970395445823667 -0.66870373487472523 0.75780838727951061 1.0740588903427126 -0.27306151390075678 -1.2481242418289182 -1.742614686489105 -1.86652535200119 -0.55690976977348317 -0.96875807642936695 1.2136788964271548 1.0407661795616152 -1.6111911535263059 -0.50365984439849842 -0.94613415002822865 -1.3259137868881223 -1.6231071949005125 -1.7313150763511655 -0.29980705678462977 -1.4079132676124571 0.89600983262062084 -1.2047826647758482 -0.92060700058937062 0.80482351779937755 -2.2464389801025386 -1.2047826647758482 -0.97477430105209339 0.98660212755203258 -1.0205035805702207 -0.90604311227798451 -0.49083863198757166 -0.91724488139152516 -0.27020868659019465 -0.87503209710121144 -0.89631849527358998 1.0930587053298952
decision_type=2 2 2 2 2 2 2 2 2 2 2 2 2 2 2 2 2 2 2 2 2 2 2 2 2 2 2 2 2 2 2 2 2 2 2 2 2 2 2 2 2 2 2 2 2 2 2 2 2 2 2 2 2 2 2 2
left_child=11 23 4 9 5 7 -7 -3 19 10 -4 20 17 15 -11 16 41 -5 35 -6 21 32 25 46 36 31 -23 -18 -20 -10 -26 -15 45 -34 42 -17 -24 52 40 -40 -39 -13 -25 -44 -27 -1 -2 -14 54 -50 -28 55 53 -22 -48 -36
right_child=1 2 3 12 8 6 -8 -9 29 14 -12 13 47 22 -16 18 27 -19 28 -21 37 26 24 34 30 44 50 -29 -30 -31 -32 -33 33 -35 51 -37 -38 38 39 -41 -42 -43 43 -45 -46 -47 48 -49 49 -51 -52 -53 -54 -55 -56 -57
leaf_value=0.030535868744473262 0.044480216583248189 -0.024241893669003835 0.010525573563694851 -0.040265204724069754 -0.046239033165965115 0.025734724311673396 -0.043053091087803287 0.062982008280471541 0.1212262714744422 -0.068546512345741106 0.027173185776734374 0.010299220776026611 0.19897520304757016 -0.04199650015974446 0.0031066749364018955 -0.10799397018529321 0.12236797638662411 -0.11923645090540105 -0.033687481949802769 0.092595656556338002 0.134603994882738 0.095412118483172437 0.14829745125889687 0.1770509406998646 -0.12586504402347012 0.14343577892000689 -0.22631619094612454 -0.0082997032074803492 -0.13066108471325283 -0.19025060826120621 0.075473995980421246 0.13774772474360023 0.076776981551889764 -0.038069665646936847 -0.16584965357203313 0.053036208640553889 -0.12857803857182953 -0.014444444680585922 -0.12068140243345545 0.13584154360949949 0.13188791671886069 0.14382297674805056 0.10620849950476344 -0.066222630745484679 0.053311872888979428 0.14398119858661307 -0.17605381340074802 0.061032879709213186 -0.0032331501149589557 -0.10524194827721874 -0.16223336794485044 -0.061991419176031459 0.095569063385491315 0.16135328172164307 -0.17028004408200523 -0.16177790378923818
leaf_weight=17.031224027276039 8.2762524336576444 590.39285817369819 14282.43975315243 472.24908276647329 81.992784440517426 31554.527392223477 1347.1549200415611 5000.6303546950221 8.6556414961814863 542.1046557277441 42661.958197709173 15.970438197255133 27.80648846924305 55.965014696121216 1925.3654235601425 20.490645565092564 59.693375363945961 578.54627527669072 178.10480216145515 2390.2554850280285 428.681750446558 17.007601201534271 6.6319878846406928 15.881952777504919 18.281464457511902 314.43293431401253 13.398974999785422 390.05466591566801 145.30161502957344 56.299879834055901 179.0314132720232 25.006678193807602 275.01962196826935 75.8611950725317 5.016991004347803 170.73783646523952 50.987377777695656 17.388295292854309 45.9569081813097 16.314779788255692 238.78947603702545 147.10615834593773 34.046985372900963 21.332870677113533 31.196663975715637 111.59827640652657 15.926880910992624 13.854559630155562 23.264357641339302 223.93622068688273 33.437533654272556 4.7046436816453925 21.939072519540787 20.668784111738205 15.955429479479788 6.5981701612472534
leaf_count=42 18 2079 37019 2089 223 74735 3722 10681 12 2446 109284 50 33 188 7933 114 70 2761 698 3572 464 26 7 18 67 342 57 1016 636 227 359 40 466 196 21 343 218 40 156 18 260 149 57 68 56 112 65 30 60 4989 150 16 32 20 66 28
internal_value=0 0.0238779 0.0242219 0.0197803 0.0307717 0.0273996 0.0229182 0.0537715 0.0819304 0.0215178 0.0229977 0.0572138 -0.0747129 0.0335786 -0.0126356 0.00642702 0.0414294 -0.0837451 -0.0352536 0.0879912 0.0892865 0.0514966 0.0784954 -0.0692678 0.0221191 0.112185 -0.107048 0.00904333 -0.0772563 -0.148745 0.0568195 0.0135143 0.0726059 0.0519469 0.0322456 0.0357814 -0.0967097 0.115287 0.0876508 -0.053474 0.121955 0.130747 0.0703782 0.0397863 0.135301 0.12896 -0.100207 0.153102 -0.104498 -0.0956418 -0.180566 -0.134263 0.13396 0.135834 -0.173164 -0.163537
internal_weight=0 101909 101534 60504.3 41029.9 38492.7 32901.7 5591.02 2537.2 59411.9 56944.4 3142.09 1092.46 1808.99 2467.47 1127.46 612.825 1050.8 514.635 2472.25 1333.09 543.354 681.534 374.941 254.932 426.601 63.8441 449.748 323.406 64.9555 197.313 80.9717 479.51 350.881 87.5816 191.228 57.6194 789.739 318.449 62.2717 256.178 163.077 71.2618 55.3799 345.63 128.63 287.359 41.661 279.083 247.201 46.8365 16.3198 471.29 449.351 31.8823 11.6152
internal_count=268644 262252 256846 161595 95251 91217 78457 12760 4034 156682 146303 6392 4913 4353 10379 3076 1285 4850 1791 3795 2039 1049 1277 5406 651 626 233 1086 1334 239 426 228 816 662 208 457 225 990 474 174 300 199 143 125 398 154 5198 63 5180 5049 207 65 516 484 131 49
is_linear=0
shrinkage=0.1


Tree=17
num_leaves=55
num_cat=0
split_feature=77 113 73 77 54 113 53 115 134 76 100 5 89 53 77 35 2 0 76 5 30 29 122 31 81 53 124 30 4 115 114 123 77 134 74 134 29 5 73 84 125 42 39 72 9 29 102 76 105 98 125 134 72 123
split_gain=320.982 454.067 597.513 389.794 400.539 389.295 354.512 338.701 411.372 454.293 447.132 407.194 361.296 350.85 329.439 341.884 322.045 297.457 292.734 265.844 279.049 368.775 260.68 253.689 248.342 262.461 248.195 233.834 232.628 232.308 213.713 166 159.98 150.954 144.682 180.741 130.084 118.241 108.887 87.8328 75.2019 72.7901 71.8507 70.2884 65.5468 64.5937 41.6762 22.5256 18.4961 11.5682 21.0717 9.27353 0.311859 0.0605706
threshold=-1.2088571786880491 -0.97800126671791066 -0.89157578349113453 -1.1800864338874815 1.0155736207962038 -0.9962916076183318 0.90054529905319225 -0.98130708932876576 1.0000000180025095e-35 -1.1706674695014951 -0.90044519305229176 0.67205554246902477 -1.1783905625343321 1.0099491477012636 -1.1607100963592527 0.86961326003074657 0.65101221203804027 0.39850528538227087 -1.1370210051536558 0.79304930567741405 1.0993509292602541 1.1857233047485354 -1.2575309872627256 0.99942490458488475 -1.2683922648429868 1.0666801333427431 -1.3708316087722776 1.0744386911392214 0.67395803332328807 -1.0233570933341978 -0.95331916213035572 -1.3666826486587522 -1.1944171786308286 1.0000000180025095e-35 -0.9429759383201598 1.0000000180025095e-35 1.2415752410888674 0.76279446482658397 -0.82266816496849049 -1.2670183181762693 -1.049208879470825 0.96472847461700451 0.99045377969741832 -0.68304365873336781 0.85580360889434826 1.1434760689735415 -0.97152087092399586 -1.1608633399009702 -0.85207703709602345 -0.97634422779083241 -1.2133997082710264 1.0000000180025095e-35 -0.7702958583831786 -1.0732045769691465
decision_type=2 2 2 2 2 2 2 2 2 2 2 2 2 2 2 2 2 2 2 2 2 2 2 2 2 2 2 2 2 2 2 2 2 2 2 2 2 2 2 2 2 2 2 2 2 2 2 2 2 2 2 2 2 2
left_child=6 3 19 4 29 14 47 13 9 12 41 -12 -9 43 23 -16 27 22 26 20 21 -3 32 -5 25 -15 -19 -7 -22 38 -11 -31 -4 -26 35 -6 46 -20 -2 -36 -38 -10 -24 45 -18 -8 -21 49 -45 50 -1 -52 53 -51
right_child=1 2 17 5 34 16 7 8 10 30 11 -13 -14 24 15 -17 44 18 37 36 28 -23 42 -25 33 -27 -28 -29 -30 31 -32 -33 -34 -35 39 -37 40 -39 -40 -41 -42 -43 -44 48 -46 -47 -48 -49 -50 52 51 -53 -54 -55
leaf_value=0.16332871567446994 0.045684595176030691 0.088816633452490509 0.019588812374053091 0.015095249910675151 0.0044364239594190018 0.084896528588548306 0.0493933762381863 0.012627620345220143 0.084269663080600368 0.02966260218359635 0.04919508377751753 -0.073789340564963016 -0.055820049048785327 -0.028201013488003898 0.014514828101795258 0.03227436026708224 -0.19158693915901862 0.08519240251575258 0.10201555657182888 -0.034193576754777522 -0.11451362229510097 0.0016939803770279775 -0.081532851514626123 -0.043780957958369615 -0.094953597412330115 0.013998017748201445 0.033624682873364009 0.029565798045458405 0.088119065046809608 0.068080757399493083 0.076205016380003932 -0.036586490054465411 0.11236855738755441 0.10314586879239791 0.036756487749163562 0.094833945655288257 0.024669370309329253 -0.091055367120899955 -0.13394986941202822 -0.0033568542768945492 -0.13089867474871356 0.13577345164038587 0.025231664154566291 -0.17442982924461758 -0.032722978313266246 -0.15062560187680829 -0.13781856230424686 0.10080056745064217 -0.11549159647660961 -0.17999989262771196 -0.11337047767047118 0.048602027252413665 -0.20287172982705273 -0.16675498384381543
leaf_weight=2.8514586687088004 37.811924114823341 562.1867900788784 668.26608742028475 1781.5361548438668 430.02750869095325 2154.9872715771198 45.208382859826088 19986.638223212212 853.0609926879406 2942.3651341348886 1122.4679149985313 354.15875571221113 802.1106761470437 2661.5616936087608 18339.158540070057 26507.084519714117 29.310384854674339 1548.6567322909832 2238.9398250877857 51.05853059887886 60.695439413189888 3577.9200465679169 265.12911523133516 1242.1056705266237 43.625422850251198 3302.8957051411271 2349.0236660987139 1183.1232823431492 851.19742281734943 172.73475784808397 1484.260820761323 1234.0856093913317 257.44637960195541 325.25172403454781 696.01459570229053 455.41717912256718 176.99173292517662 32.175914227962494 313.65899585187435 2530.1776238083839 37.690404519438744 404.53341464698315 82.695045664906502 81.703509107232094 228.0066559612751 25.114570632576942 161.80560352280736 4.9875307828187934 152.87179917097092 11.091323703527454 195.94932760857046 3.5997163951396933 5.8282027728855601 5.0134257897734651
leaf_count=4 85 992 1850 4586 1227 3925 86 59379 1279 7161 2698 1257 2701 8228 43992 61198 118 2829 3573 176 240 9192 1935 3696 159 9760 5063 2638 1694 380 2831 3603 465 513 1765 758 436 107 1260 7157 146 444 200 332 648 97 625 12 815 45 4227 7 25 25
internal_value=0 0.0262733 0.0432074 0.0224568 -0.00195772 0.0252414 0.0145311 0.0153528 0.0201754 0.0161805 0.0570176 0.0196981 0.00998664 -0.00495246 0.0228578 0.0250119 0.0569764 0.0616588 0.0707425 0.0181467 0.0245544 0.0135244 0.0176589 -0.00909097 9.17741e-05 -0.00483275 0.054114 0.0652857 0.0746319 -0.0419032 0.0452684 -0.023735 0.0453914 0.0797175 0.0151245 0.0509312 -0.0575681 0.0992802 -0.114624 0.00529715 -0.00264274 0.100837 -0.0561496 -0.109731 -0.0508188 -0.0220398 -0.112963 -0.109394 -0.13602 -0.114067 -0.106592 -0.110449 -0.18305 -0.175877
internal_weight=0 70257.1 12921.9 57335.2 5869.93 51465.3 34817.1 34587.8 27949.6 25215.4 2734.22 1476.63 20788.7 6638.23 47869.9 44846.2 3595.43 7442.33 6168.8 5479.55 5052 4140.11 1273.54 3023.64 6333.33 5964.46 3897.68 3338.11 911.893 1758.29 4426.63 1406.82 925.712 368.877 4111.64 885.445 427.546 2271.12 351.471 3226.19 214.682 1257.59 347.824 304.898 257.317 70.323 212.864 229.321 234.575 224.333 202.401 199.549 21.933 16.1047
internal_count=268644 166559 29523 137036 16235 120801 102085 97740 77750 72072 5678 3955 62080 19990 113472 105190 7329 16022 11572 13501 12118 10184 4450 8282 18660 17988 7892 6563 1934 5328 9992 3983 2315 672 10907 1985 1383 3680 1345 8922 582 1723 2135 1330 766 183 801 4345 1147 4333 4238 4234 95 70
is_linear=0
shrinkage=0.1


Tree=18
num_leaves=61
num_cat=0
split_feature=128 130 109 119 127 30 32 78 78 93 75 37 30 71 57 115 75 81 75 116 111 53 114 78 76 114 83 117 78 84 108 70 120 69 28 118 54 25 35 36 89 115 77 36 121 31 76 36 79 108 76 33 25 90 114 108 31 54 83 93
split_gain=298.384 335.461 264.197 217.426 284.37 489.994 383.386 209.532 197.825 202.751 242.44 189.535 206.01 187.546 171.561 155.776 149.917 149.635 137.611 173.598 126.72 126.284 112.564 146.889 90.2393 131.902 87.637 80.3823 79.6975 73.9459 104.488 97.9405 71.503 62.7466 62.6087 53.6587 44.9423 47.9251 40.3184 38.3373 35.5155 31.3409 43.2769 28.2689 27.0005 19.9558 18.9733 42.5719 17.698 44.0701 16.4417 15.7331 15.2846 13.1064 11.9243 11.2321 5.19485 3.9966 0.119553 0.0193376
threshold=1.0000000180025095e-35 1.0000000180025095e-35 -0.84797355532646168 -1.6428606510162351 -2.3517512083053584 1.0291428565979006 0.88817921280860912 -0.42273993790149683 -1.3908655047416685 -1.0040602087974546 -1.0585510134696958 0.95636096596717846 1.045973062515259 -0.19067697972059247 0.950761377811432 -0.9306160807609557 -1.1108828186988828 -1.1094799041748045 -1.1253582835197447 -0.92326414585113514 -1.259492754936218 1.0169904828071596 -0.94863316416740406 -1.3134227395057676 -1.1675214171409605 -0.96617278456687916 -1.3730235099792478 -0.93989151716232289 -1.4113216400146482 -1.3885775804519651 -0.82421705126762379 -0.44268862903118128 -1.0733866095542905 -0.055641565471887582 1.3152091503143313 -0.91561630368232716 1.0224349498748782 1.2568714618682864 0.83971941471099865 0.92247602343559276 -1.2865892052650449 -0.90766680240631092 -1.2738157510757444 0.89244729280471813 -1.0042596459388731 1.0107810497283938 -1.2233650684356687 0.90136498212814342 -1.4193648695945738 -0.81222429871559132 -1.1483278274536131 0.93966206908226024 1.2496544718742373 -1.1915823221206663 -0.9124716818332671 -0.88683751225471485 1.0048366189002993 1.0239012241363528 -1.4260112047195432 -1.0995017886161802
decision_type=2 2 2 2 2 2 2 2 2 2 2 2 2 2 2 2 2 2 2 2 2 2 2 2 2 2 2 2 2 2 2 2 2 2 2 2 2 2 2 2 2 2 2 2 2 2 2 2 2 2 2 2 2 2 2 2 2 2 2 2
left_child=1 2 3 7 6 -6 -5 20 48 11 50 12 -10 -9 -13 16 27 -12 19 46 -1 34 24 33 26 -26 -18 45 39 30 -23 -31 -25 -24 43 -30 41 40 59 -21 -38 42 -20 -4 -40 53 56 -48 51 58 -11 57 -43 -2 -39 -47 -17 -3 -50 -29
right_child=15 8 21 4 5 -7 -8 13 9 10 17 14 -14 -15 -16 18 22 -19 36 28 -22 29 23 32 25 -27 -28 38 35 31 -32 -33 -34 -35 -36 -37 37 54 44 -41 -42 52 -44 -45 -46 55 47 -49 49 -51 -52 -53 -54 -55 -56 -57 -58 -59 -60 -61
leaf_value=0.04325283421594691 -0.075214241486881994 -0.10425216775252136 -0.094457858141205053 0.028336097854246685 0.059970012493909486 0.023951057739207759 -0.0062213318217166982 0.003328909167464025 -0.038071485383798183 -0.11897880308280065 -0.016000732029924743 0.088958098530722604 0.019096241739216764 0.070560546710716557 -0.069161339766558055 -0.13615227059356494 0.020988923903806474 0.032831098861133091 -0.056436112796574733 -0.080538212375290186 0.10772665028824652 0.054592065205513456 -0.032501364258327413 0.17375438527461692 -0.010263578335943824 0.060804808240206371 -0.056491077920194414 -0.14632857116450571 0.0064838885792778108 0.031306697345551922 -0.0085793783120384839 -0.057550182511814554 0.054738429095791942 0.021386089164851574 0.12403488768013421 0.06275802205403469 -0.087068726749151185 0.10605606203797704 0.0054272172300612043 0.0088176587993537073 0.064852068579900543 0.034560263601764223 0.06235148765612844 0.091114955224960645 0.15135138205801252 0.088907107994902992 -0.11622655999182785 0.1737589155749848 -0.14160108795590703 0.17745976888031079 -0.054929000468559287 0.069415181986095878 0.18838442488002879 -0.12931552560419632 0.2007216135994471 -0.086574129480217282 -0.075011000848700993 -0.13786140690484375 -0.12119263608920761 -0.13816847310271541
leaf_weight=510.2100086659193 64.041380301117897 68.356977151706815 241.40124293416739 6005.8955598324537 4008.1751708090305 65438.132185347378 6897.0899475514889 1107.3877432048321 725.88174383528531 203.07754840701818 2806.2913986667991 554.0257533043623 4789.9984932541847 663.5252621024847 78.320231974124908 86.27223976701498 185.1478423923254 808.25274875760078 79.983398512005806 103.4647124838084 757.36189110577106 388.98715078830719 363.33818586915731 59.100446313619614 2888.4475443065166 287.11454902589321 690.16634005308151 4.2773744761943808 349.70337837189436 176.52084187418222 800.98639560863376 417.27102473378181 346.05386702716351 533.14730867743492 14.725907728075979 328.71614879928529 15.811465486884115 23.711938977241516 39.716824144124985 89.591612257063389 574.60051860660315 13.225413359701635 49.744969576597214 8.4977690763771516 18.626673430204391 7.867432177066803 16.494148537516597 7.3045599013566962 4.3038817793130884 7.444947386160492 49.933038257062435 4.4450292885303488 12.626758873462675 148.86870820075274 30.32032211124897 6.8003040552139264 16.564630724489689 73.343616746366024 8.6180254518985748 9.0454927831888181
leaf_count=1020 288 1201 4116 14374 8167 153818 18291 3076 2635 995 8986 1318 13217 1277 289 449 607 1957 327 1358 1019 1125 1344 109 10074 830 2762 20 1220 501 2602 1683 985 1556 28 1079 53 53 128 321 1318 52 140 37 35 19 74 13 21 21 193 13 21 761 40 26 87 402 67 46
internal_value=0 0.0216144 0.0236149 0.0244662 0.023497 0.0260299 0.00986396 0.0507362 0.00443619 0.0062334 -0.0117055 0.0175179 0.0115731 0.0285192 0.069374 0.000851743 -0.00730459 -0.00508139 0.0264881 0.00172087 0.0817753 -0.0118754 -0.00345365 0.0221293 -0.011674 -0.00383802 -0.0401024 -0.0761856 0.0176185 -0.00231202 0.0120706 -0.031135 0.0720995 -0.000454052 -0.0763399 0.0337505 0.0573877 0.0690333 0.0161724 -0.0390709 0.0607836 0.00914947 -0.0108864 -0.0881475 0.0520148 -0.10527 -0.107683 -0.027221 -0.103666 -0.0163352 -0.106338 -0.115837 0.109691 -0.113042 0.159178 0.00754992 -0.126304 -0.121648 -0.12799 -0.140788
internal_weight=0 97618.5 87436.2 85387.8 82349.3 69446.3 12903 3038.48 10182.3 10015.8 3867.55 6148.23 5515.88 1770.91 632.346 7449.9 5651.76 3614.54 1798.14 998.111 1267.57 2048.39 5352.52 1301.64 4050.88 3175.56 875.314 299.244 871.476 1783.77 1189.97 593.792 405.154 896.485 264.625 678.42 800.025 644.444 71.6664 193.056 590.412 155.581 129.728 249.899 58.3435 227.578 126.636 23.7987 166.512 20.3669 253.011 146.146 25.8522 212.91 54.0323 14.6677 102.837 141.701 12.9219 13.3229
internal_count=268644 242449 211134 201042 194650 161985 32665 6392 31315 29590 12131 17459 15852 4353 1607 26195 19590 10943 6605 4601 2039 10092 18267 3994 14273 10904 3369 1323 3978 5911 3727 2184 1094 2900 4181 2299 2004 1464 229 1679 1371 540 467 4153 163 1094 623 87 1725 109 1188 1616 73 1049 93 45 536 1603 88 66
is_linear=0
shrinkage=0.1


Tree=19
num_leaves=58
num_cat=0
split_feature=120 98 120 28 5 78 76 134 115 71 62 111 51 125 127 109 127 60 118 74 1 111 77 69 117 101 64 124 38 124 118 11 116 38 37 42 113 113 50 108 72 72 44 37 69 33 123 86 120 43 12 118 61 39 78 119 104
split_gain=253.015 445.603 369.304 361.829 313.674 311.17 242.594 369.909 335.059 210.405 242.675 188.199 335.126 270.543 145.797 144.059 143.625 222.389 104.578 102.082 102.061 101.967 101.633 93.4442 137.242 90.1906 88.1744 68.5077 68.2376 62.1582 61.1698 55.4011 74.9871 51.4726 45.3617 44.6735 42.0831 37.153 53.7109 44.6518 35.8821 32.8764 38.9251 38.5103 30.0069 29.2075 44.6272 27.7829 114.969 22.6298 22.1642 17.5713 11.8571 4.53848 4.51292 4.10249 0.699791
threshold=-1.7313150763511655 -0.44832213222980494 -1.6724375486373899 1.1197468638420107 0.57939970493316661 -0.40774856507778162 -1.1675214171409605 1.0000000180025095e-35 -0.99178931117057789 -0.17718517780303952 0.75037127733230602 -1.2394526600837705 1.1572304368019106 -2.5488661527633663 -2.676028728485107 -1.1078234910964964 -3.1141208410263057 0.77588513493537914 -1.6231071949005125 -0.50128689408302296 -0.12875603139400479 -1.2696231007575987 -0.39258325099945063 0.021402499638497833 -1.4953877925872801 -0.48309825360774988 0.61459991335868847 -2.3395935297012325 0.95776683092117321 -2.4296817779541011 -1.5693290829658506 1.0000000180025095e-35 -1.4728648662567136 0.87627676129341137 0.99367898702621471 1.1308500766754153 -1.3428195714950559 -1.3201867938041685 1.2098708748817446 -0.99966624379158009 -0.32005408406257624 -0.33287310600280756 1.1958509683609011 0.96174687147140514 0.050005679950118072 0.86081033945083629 -2.1626188755035396 -0.26634474098682398 -1.742614686489105 1.143702030181885 0.31772933900356298 -1.6231071949005125 0.76175448298454296 1.0013430714607241 -0.42273993790149683 -1.6528097987174986 -0.7349066138267516
decision_type=2 2 2 2 2 2 2 2 2 2 2 2 2 2 2 2 2 2 2 2 2 2 2 2 2 2 2 2 2 2 2 2 2 2 2 2 2 2 2 2 2 2 2 2 2 2 2 2 2 2 2 2 2 2 2 2 2
left_child=5 2 11 4 14 21 7 -5 -8 10 15 16 27 -14 -4 26 19 -18 44 -2 22 41 23 49 -25 30 -7 -13 -17 40 -24 32 55 -31 -6 -27 -20 39 -39 -33 50 51 52 -44 -12 47 -47 54 -49 -3 -22 -1 -43 -35 -23 -11 -53
right_child=1 20 3 6 34 9 8 -9 -10 31 18 12 13 -15 -16 28 17 -19 36 -21 29 45 25 24 -26 35 -28 -29 -30 33 -32 37 -34 53 -36 -37 -38 38 -40 -41 -42 42 43 -45 -46 46 -48 48 -50 -51 -52 56 -54 -55 -56 -57 -58
