tree
version=v4
num_class=1
num_tree_per_iteration=1
label_index=0
max_feature_idx=136
objective=binary sigmoid:1
feature_names=Column_0 Column_1 Column_2 Column_3 Column_4 Column_5 Column_6 Column_7 Column_8 Column_9 Column_10 Column_11 Column_12 Column_13 Column_14 Column_15 Column_16 Column_17 Column_18 Column_19 Column_20 Column_21 Column_22 Column_23 Column_24 Column_25 Column_26 Column_27 Column_28 Column_29 Column_30 Column_31 Column_32 Column_33 Column_34 Column_35 Column_36 Column_37 Column_38 Column_39 Column_40 Column_41 Column_42 Column_43 Column_44 Column_45 Column_46 Column_47 Column_48 Column_49 Column_50 Column_51 Column_52 Column_53 Column_54 Column_55 Column_56 Column_57 Column_58 Column_59 Column_60 Column_61 Column_62 Column_63 Column_64 Column_65 Column_66 Column_67 Column_68 Column_69 Column_70 Column_71 Column_72 Column_73 Column_74 Column_75 Column_76 Column_77 Column_78 Column_79 Column_80 Column_81 Column_82 Column_83 Column_84 Column_85 Column_86 Column_87 Column_88 Column_89 Column_90 Column_91 Column_92 Column_93 Column_94 Column_95 Column_96 Column_97 Column_98 Column_99 Column_100 Column_101 Column_102 Column_103 Column_104 Column_105 Column_106 Column_107 Column_108 Column_109 Column_110 Column_111 Column_112 Column_113 Column_114 Column_115 Column_116 Column_117 Column_118 Column_119 Column_120 Column_121 Column_122 Column_123 Column_124 Column_125 Column_126 Column_127 Column_128 Column_129 Column_130 Column_131 Column_132 Column_133 Column_134 Column_135 Column_136
feature_infos=[-1.7391834259033203:2.1873281002044678] [-1.6486232280731201:2.0962586402893066] [-1.5678098201751709:2.0136351585388184] [-1.4949060678482056:1.9394575357437134] [-1.4299124479293823:1.8737261295318604] [-1.3728283643722534:1.8164401054382324] [-1.333403468132019:1.7788288593292236] [-1.3043193817138672:1.7939627170562744] [-1.2702003717422485:1.9694005250930786] [-1.226288914680481:2.0549979209899902] [-1.1696058511734009:2.0165181159973145] [-1.0977727174758911:2.073509693145752] [-1.011857271194458:2.1457490921020508] [-0.91207128763198853:2.2142360210418701] [-0.8030850887298584:2.2825961112976074] [-0.68971306085586548:2.355140209197998] [-0.63882678747177124:2.3940322399139404] [-0.65620064735412598:2.4998569488525391] [-0.66012513637542725:2.5653238296508789] [-0.66667592525482178:2.5221147537231445] [-0.66619455814361572:2.4413206577301025] [-0.67410272359848022:2.3840618133544922] [-0.78228282928466797:2.2409591674804688] [-0.7797551155090332:2.1797337532043457] [-1.0841877460479736:2.1614029407501221] [-1.4308524131774902:2.0620582103729248] [-1.6366665363311768:1.9191513061523438] [-1.8254417181015015:1.7025836706161499] [-1.9454965591430664:1.5450669527053833] [-2.1668190956115723:1.3473584651947021] [-2.5042393207550049:1.1459542512893677] [-2.6881959438323975:1.0691677331924438] [-2.6397361755371094:1.0182701349258423] [-2.1005656719207764:1.0153312683105469] [-1.5155016183853149:1.0222163200378418] [-0.8696785569190979:1.0987448692321777] [-0.66409575939178467:1.3781088590621948] [-0.67050886154174805:1.4357191324234009] [-0.67336314916610718:1.5244829654693604] [-0.67729061841964722:1.3697364330291748] [-0.67391806840896606:1.309401273727417] [-0.67713803052902222:1.2273765802383423] [-0.67526406049728394:1.2647323608398438] [-0.67815649509429932:1.3601771593093872] [-0.67593681812286377:1.5217618942260742] [-0.67998087406158447:1.6551241874694824] [-0.67735743522644043:1.6520490646362305] [-0.68056988716125488:1.6482166051864624] [-0.67851173877716064:1.8138210773468018] [-0.68057990074157715:2.0951991081237793] [-0.67868822813034058:2.3221406936645508] [-0.68411111831665039:2.3866791725158691] [-0.68785721063613892:2.3278176784515381] [-0.6967010498046875:2.41339111328125] [-0.68777680397033691:2.0181429386138916] [-0.66555494070053101:1.5453798770904541] [-0.63047897815704346:1.3767448663711548] [-0.6819922924041748:1.3603483438491821] [-0.88048118352890015:1.3460699319839478] [-0.69688475131988525:1.3262704610824585] [-0.62303602695465088:1.3006186485290527] [-0.62908732891082764:1.6912268400192261] [-0.65896600484848022:1.8743280172348022] [-0.67422842979431152:1.7138135433197021] [-0.89532732963562012:1.3433690071105957] [-1.1747497320175171:1.0574370622634888] [-1.3727543354034424:0.96944224834442139] [-1.6710461378097534:0.85952615737915039] [-1.7223098278045654:0.72384035587310791] [-1.8947262763977051:0.56993401050567627] [-1.6609858274459839:0.41874155402183533] [-1.7446892261505127:0.28619131445884705] [-1.674402117729187:0.18248416483402252] [-1.5674382448196411:0.10744565725326538] [-1.4517455101013184:0.30397361516952515] [-1.6804615259170532:0.9557119607925415] [-1.8599822521209717:1.3625956773757935] [-2.0371255874633789:1.0853415727615356] [-2.1728529930114746:0.99276179075241089] [-2.2573421001434326:0.52897804975509644] [-2.3058340549468994:0.21864555776119232] [-2.3315773010253906:0.26390209794044495] [-2.3403120040893555:0.3133491575717926] [-2.3343968391418457:0.36315670609474182] [-2.3124566078186035:0.40882810950279236] [-2.2730567455291748:0.44707387685775757] [-2.2140905857086182:0.47906926274299622] [-2.1362462043762207:0.50354379415512085] [-2.0426793098449707:0.67684948444366455] [-1.9374580383300781:0.53568804264068604] [-1.8240519762039185:0.64909452199935913] [-1.8478662967681885:1.0685811042785645] [-1.6520191431045532:1.4172115325927734] [-1.5958865880966187:1.6290324926376343] [-1.5394163131713867:1.6652539968490601] [-1.4922878742218018:1.6182962656021118] [-1.4547033309936523:1.5607637166976929] [-1.4384253025054932:1.5597559213638306] [-1.4264529943466187:1.5645072460174561] [-1.5819015502929688:1.5648646354675293] [-1.8966314792633057:1.5687597990036011] [-2.4619696140289307:1.5660412311553955] [-2.648137092590332:1.5680723190307617] [-2.5047333240509033:1.5647550821304321] [-2.1062953472137451:1.5674868822097778] [-1.4475361108779907:1.5623446702957153] [-1.2213733196258545:1.563502311706543] [-1.117332935333252:1.561995267868042] [-1.168958306312561:1.5723429918289185] [-1.2179133892059326:1.5757462978363037] [-1.3164699077606201:1.5827798843383789] [-1.5990560054779053:1.5860384702682495] [-2.1418814659118652:1.5903582572937012] [-2.4733853340148926:1.5896482467651367] [-2.5047738552093506:1.5896980762481689] [-2.0072333812713623:1.5865405797958374] [-1.5763039588928223:1.5868538618087769] [-1.6282110214233398:1.611059308052063] [-1.6828017234802246:2.4495923519134521] [-1.7428308725357056:2.6529664993286133] [-1.8188323974609375:2.5047237873077393] [-1.9267433881759644:1.7488086223602295] [-2.1567583084106445:1.6308574676513672] [-2.3918964862823486:1.6220458745956421] [-2.6616356372833252:1.8138364553451538] [-2.9761693477630615:2.1645474433898926] [-3.3342947959899902:3.0688047409057617] [-3.8750591278076172:4.2020993232727051] [0:1] [0:1] [0:1] [0:1] [0:1] [0:1] [0:1] [0:1] [0:1]
tree_sizes=6452 5888 5839 6051 5301 5295 6364 5193 5191 6045 5209 5815 5183 5007 6905 6033 5087 6349 6728 6914 5878 6477 6057 6516 6676 6352 6289 5946 6936 5965 6627 6291 5776 5616 6272 6971 6815 6834 5962 5982 6794 6418 6817 6934 6788 6810 6777 6792 6100 5887 6949 6568 6957 6943 6943 5463 6980 6955 6192 6705 6563 5406 6548 6927 5982 6948 6954 6934 6942 5511 6152 6511 5726 6777 6766 6689 6931 6852 6839 5415 6806 6917 5197 5127 4635 6713 6495 6960 6442 6917 6251 6982 6724 6529 6783 6772 5841 6703 6845 6122 6583 6941 6487 6926 6717 6836 6929 5158 5764 5449 6817 6947 6957 6611 6827 6727 6741 6621 6913 6848 6956 6297 6819 5350 5012 4521 5995 6960 6297 6358 6931 6713 6833 6971 6498 6714 6163 6406 6806 6842 5626 6834 6959 6886 6266 4199 6953 6616 6466 6589 6171 6696 6621 5327 6815 6469 6323 6852 5015 5885 6807 6502 6459 4292 6082 6822 6570 5888 5930 6684 6280 6965 6933 5576 6290 5257 6921 6816 5683 5482 6324 6941 6990 6901 6923 6768 6459 6622 6923 6503 6378 6709 6907 6320 6636 6564 6792 6962 6401 6293

Tree=0
num_leaves=60
num_cat=0
split_feature=107 75 136 129 128 118 103 4 134 74 110 61 30 131 1 104 80 96 115 78 120 33 110 29 119 101 104 75 92 70 78 91 31 69 134 107 34 102 30 112 35 31 115 92 22 56 84 99 85 32 89 75 107 66 34 32 79 2 2
split_gain=13438.1 5951.7 3668.07 3467.08 2693.18 2488.45 2206.86 3667.29 2864.54 2526.71 1933.82 1631.61 1399.65 1394.83 1295.2 997.46 985.946 982.566 780.315 543.528 524.893 414.834 407.925 371.753 356.32 317.369 316.818 313.549 298.696 263.976 210.663 226.788 194.526 185.113 152.122 132.504 124.871 117.174 136.265 112.159 121.577 82.8655 78.61 160.951 73.2143 64.0832 66.4645 62.5659 52.4116 49.8493 49.5827 48.6041 48.4306 42.4307 10.8937 10.304 19.8057 1.13687e-13 7.10543e-15
threshold=-0.86671292781829823 -1.1750839352607725 1.0000000180025095e-35 1.0000000180025095e-35 1.0000000180025095e-35 -1.5835858583450315 -0.84468427300453175 0.60462617874145519 1.0000000180025095e-35 -1.0184955000877378 -1.200631260871887 0.78343278169631969 1.0539565682411196 1.0000000180025095e-35 -0.23498532176017758 -0.82094714045524586 -0.34163126349449152 -0.98630180954933155 -0.9525398015975951 -1.3015448451042173 -1.7494691014289854 0.94363519549369823 -0.8899957239627837 1.131776034832001 -1.6475557088851926 -0.85904914140701283 -0.73485079407691944 -1.2076698541641233 -1.1920917630195615 -0.20442178845405576 -1.3433918952941892 -1.1563900113105772 0.98153311014175426 0.072720881551504149 1.0000000180025095e-35 -0.83384051918983448 0.94832572340965282 -0.86112496256828297 1.0760107040405276 -0.85757812857627858 0.90909883379936229 1.007898807525635 -1.0304622054100034 -1.0472148060798643 1.4894012212753298 1.0072901248931887 -0.94137939810752858 -0.97265511751174916 -1.2561834454536436 0.94838696718215953 -0.67996037006378163 -0.91050550341606129 -0.93124407529830922 0.027847724966704849 0.9083600938320161 0.94970610737800609 -1.4409210681915281 0.64742037653923046 0.57257995009422313
decision_type=2 2 2 2 2 2 2 2 2 2 2 2 2 2 2 2 2 2 2 2 2 2 2 2 2 2 2 2 2 2 2 2 2 2 2 2 2 2 2 2 2 2 2 2 2 2 2 2 2 2 2 2 2 2 2 2 2 2 2
left_child=4 27 3 13 5 10 8 11 9 -7 16 -8 30 18 20 -15 26 -10 -3 25 -12 29 -21 -9 -16 -14 -1 55 39 -5 35 -32 45 -18 47 -4 -23 42 41 49 -41 -39 44 -44 -34 48 51 -30 53 -29 -50 -47 -40 -6 -48 57 -57 58 -2
right_child=1 2 12 21 32 6 7 23 17 -11 14 -13 19 15 24 -17 33 -19 -20 22 -22 36 -24 -25 -26 -27 -28 28 34 -31 31 -33 37 -35 -36 -37 -38 38 52 40 -42 -43 43 -45 -46 46 54 -49 50 -51 -52 -53 -54 -55 -56 56 -58 -59 -60
leaf_value=-1.2486602570343674 -1.6947961197449175 -1.4693081187358803 -1.3354687551619207 -1.3567848799460203 -1.2417627837594316 -1.4010738842784052 -1.3267876758707462 -1.6219884296161817 -1.0898336298841753 -1.2931406193263664 -1.2458744302045268 -1.4659145450038347 -1.3897314153629519 -1.4863163745515331 -1.059450560737623 -1.6468682179681948 -1.5733374521854664 -1.2374324994790076 -1.4050834929264615 -1.343497142865518 -1.5628471976667819 -1.3174319362249101 -1.149713449596411 -1.4106122473179863 -1.2058237737017077 -1.532802373357105 -1.5738913942945989 -1.4335347688562119 -1.481988442745378 -1.4512162653342244 -1.1567952282169134 -1.2494963120373215 -1.6611287563953545 -1.2192870545490211 -0.99144811705316827 -1.6947961197449175 -1.2448316296026305 -1.4543656165291514 -1.54608354371751 -1.5442515352393893 -1.2488479879211281 -1.3524138020915193 -1.5071785399617648 -1.2285640099354471 -1.2150872048006629 -1.5368580322305634 -1.5144867399123849 -1.6741329960583238 -1.6414027002792171 -1.1343657190127017 -1.2417627837594316 -1.2446237114709475 -1.1290552347007727 -1.5538044504793995 -1.6947961197449175 -1.6947961197449175 -1.3812484606337672 -1.6947961197449175 -1.6947961197449175
leaf_weight=482.48113277554512 16.77690190076828 4130.9171456098557 38.951152980327606 2170.3264229595661 6.3919548988342312 2453.2149052917957 18351.250454515219 490.53170028328896 771.45507165789604 18716.077362090349 182.76412203907967 883.51881408691406 604.34371730685234 1187.588844448328 894.08555030822754 573.98302799463272 162.91758215427399 1085.8413343131542 3490.0304433107376 563.27384230494499 73.15377813577652 1028.2719352245331 134.58412185311317 100.1994172334671 204.3142506480217 208.55106046795845 31.934441387653351 11.083800345659258 18.143259316682816 342.78147912025452 348.96286824345589 1082.7435181736946 43.005575180053711 16.239542633295059 3.4309339523315421 13.933359205722807 307.83377397060394 473.73453906178474 3.2453752160072353 173.11760464310646 15.151523321866987 95.853990375995636 231.5163100361824 22.773674666881561 4.0243413746356955 9.167417109012602 5.353333353996276 256.92674905061722 108.46912148594856 11.195262432098387 3.1959774494171134 15.009346187114717 19.621078819036484 13.692386537790297 8.9571594893932325 5.8292625248432159 3.0784991979598981 552.35816851258278 20.615684539079666
leaf_count=1687 118 21670 163 9449 22 11542 75532 3167 1726 72041 635 4611 2789 6390 1785 3819 989 3700 16531 2393 438 4156 365 479 645 1199 194 55 97 1749 966 3793 291 53 5 98 1067 2429 19 1011 53 414 1284 76 13 53 30 1765 717 29 11 52 50 81 63 41 14 3885 145
internal_value=-1.57408 -1.4182 -1.40303 -1.42565 -1.31484 -1.31111 -1.31626 -1.34072 -1.2952 -1.30565 -1.20342 -1.33318 -1.3031 -1.45843 -1.13388 -1.53863 -1.33921 -1.17613 -1.4399 -1.37086 -1.33648 -1.34573 -1.30613 -1.58613 -1.08668 -1.42644 -1.26885 -1.64466 -1.58525 -1.36967 -1.23414 -1.2269 -1.47208 -1.54124 -1.65321 -1.43014 -1.30071 -1.45342 -1.4276 -1.49537 -1.52048 -1.43721 -1.50419 -1.48223 -1.62296 -1.57005 -1.45654 -1.66146 -1.60322 -1.2832 -1.62996 -1.35543 -1.18824 -1.4545 -1.62735 -1.69318 -1.58643 -1.6948 -1.6948
internal_weight=0 17314.8 16227.1 13231.7 45964 44900 42852.1 19825.5 23026.6 21169.3 2047.89 19234.8 2995.34 9382.52 1354.32 1761.57 693.573 1857.3 7620.95 1510.75 255.918 3849.21 697.858 590.731 1098.4 812.895 514.416 1087.71 489.049 2513.11 1484.59 1431.71 1064.01 179.157 278.501 52.8845 1336.11 893.775 592.455 210.548 188.269 569.589 301.32 254.29 47.0299 170.237 38.4873 275.07 131.749 22.2791 111.665 24.1768 22.8665 20.0843 14.3105 598.659 8.90776 589.751 37.3926
internal_count=268644 83815 76597 64831 184829 179224 172798 83789 89009 83583 6426 80143 11766 48410 3503 10209 2923 5426 38201 6746 1073 16421 2758 3646 2430 3988 1881 7218 3015 11198 5020 4759 5605 1042 1867 261 5223 4576 2912 1148 1064 2843 1664 1360 304 1029 198 1862 831 84 728 105 69 103 93 4203 55 4148 263
is_linear=0
shrinkage=1


Tree=1
num_leaves=54
num_cat=0
split_feature=107 45 136 129 130 128 131 31 30 100 76 74 30 116 30 30 105 80 79 30 5 109 108 30 116 31 0 104 54 37 74 126 31 31 97 76 72 124 118 99 29 61 97 25 6 89 46 85 15 26 21 75 136
split_gain=7124.98 4255.78 2012.75 2049.43 1761.81 1625.72 1267.32 2037.75 1147.31 1386.38 897.794 829.049 649.186 614.216 473.015 446.556 496.453 424.532 396.425 302.742 356.961 297.416 292.127 273.68 271.171 266.597 260.006 242.218 175.525 149.697 193.539 149.397 144.403 143.235 137.985 221.912 99.2297 93.7417 89.298 89.1666 83.1014 77.9767 77.6658 65.4528 50.8647 50.1561 48.8272 42.1766 34.4109 5.24755 0.0749622 0.0184477 0.00600097
threshold=-0.86529776453971852 0.73836237192153942 1.0000000180025095e-35 1.0000000180025095e-35 1.0000000180025095e-35 1.0000000180025095e-35 1.0000000180025095e-35 1.0096492171287539 1.0858602523803713 -0.88122266530990589 -1.2544192075729368 -1.0322639346122739 1.0527884364128115 -0.95524689555168141 1.0858602523803713 1.0684764981269839 -0.85798767209053028 -1.113453686237335 -1.3162485361099241 1.0513797998428347 0.58877727389335643 -0.87711140513420094 -0.82434087991714466 1.0496218204498293 -0.89392480254173268 0.97121301293373119 0.42428293824195867 -0.86695063114166249 1.0172004699707033 0.91537243127822887 -0.96434581279754628 -1.4699400067329405 0.98153311014175426 1.0030769705772402 -0.95334824919700611 -1.2151677608489988 -0.4877637773752212 -1.3286497592926023 -0.99900251626968373 -0.8281702697277068 1.1679597496986391 0.77114352583885204 -0.99792626500129689 1.4659999012947085 0.43495596945285803 -0.88993364572525013 1.0825841426849367 -1.2561834454536436 0.98158925771713268 1.548511326313019 1.6401831507682803 -1.2076698541641233 1.0000000180025095e-35
decision_type=2 2 2 2 2 2 2 2 2 2 2 2 2 2 2 2 2 2 2 2 2 2 2 2 2 2 2 2 2 2 2 2 2 2 2 2 2 2 2 2 2 2 2 2 2 2 2 2 2 2 2 2 2
left_child=4 40 3 10 5 6 8 14 9 -1 24 -10 34 -12 -8 17 28 19 21 33 -21 -14 23 -5 -3 41 -20 -9 31 30 -18 -17 44 -6 48 -36 -27 38 -34 -30 49 -19 -39 -24 45 -7 -31 -46 -4 50 51 -2 -52
right_child=1 2 12 22 15 32 7 27 11 -11 13 -13 18 -15 -16 16 29 25 26 20 -22 -23 43 -25 -26 36 -28 -29 39 46 -32 -33 37 -35 35 -37 -38 42 -40 -41 -42 -43 -44 -45 47 -47 -48 -49 -50 -51 52 -53 -54
leaf_value=0.24537332980180959 -0.11836367565679806 -0.078146858670661012 0.063444453551953911 0.19923843818772924 0.011716877228745173 0.21348756224958138 0.065175746046249691 0.26841109965103443 0.018358887670314007 0.20312201614615177 0.080236844809292759 0.17493710953437172 0.074166875986358766 0.13343784261380731 0.19964304650852885 0.17962272435165433 0.2016469063519801 0.10477403345914996 0.14585331545097993 0.15392984406183247 0.03312624636851505 0.17298953470460263 0.1056759840079953 0.1340619609438867 0.036606553902248186 0.22984069392532336 0.3003739859828809 0.18307584733618656 -0.078077958158369501 -0.082502645871252805 0.36043973850016298 0.093485193878999506 0.11140016355199643 0.14804182795708706 0.03120667445885765 0.24857699684981296 -0.12664015718880006 0.14328708235650997 0.35743759675343822 0.37155684462734978 0.23518586838097219 -0.070610103130511068 0.0095702976258951692 0.36608083892878129 0.08283232826108286 0.013630743775221409 0.16181724715379048 -0.067542799557828923 0.32793377287650144 -0.005342544025364551 -0.12358644374012727 -0.11955460242134608 -0.1273922388321273
leaf_weight=10387.831305027008 506.7390983402729 267.1506909430027 5.0229500234127036 2963.6538157016039 622.20329059660435 18.469278678297997 1831.2845823466778 932.88803236186504 363.42029599845409 30770.90051998198 4921.126846164465 4864.326725885272 492.95185798406601 3881.9714929312468 305.20059448480606 542.3794217556715 126.46984201669693 87.603099808096886 173.49960769712925 714.36925378441811 371.96490488946438 796.81891410052776 589.63592357933521 823.21760508418083 898.55741971731186 384.48970618844032 292.44854402542114 516.93334376811981 49.348590865731239 11.010514363646505 195.25676195323467 320.2354649156332 763.12241798639297 87.969074696302414 48.876217156648636 1201.4674443304539 7.9703989475965491 58.174392059445381 15.042380183935164 4.8433050960302344 6.7174145132303229 35.673471868038177 171.46015205979347 9.8129140734672529 23.350832968950272 39.226528495550156 31.816974610090256 92.684478536248207 237.77078896760941 4.0960219800472251 17.417847543954853 174.98210686445236 5.4362645447254172
leaf_count=30362 3866 1658 22 10356 3092 64 8316 2746 1861 104189 24504 17386 2282 17053 1074 1895 435 367 668 2734 1783 3059 2606 3376 4945 1228 759 1829 276 63 426 1376 3510 343 239 3299 48 269 40 10 24 210 960 22 114 231 120 639 459 23 113 1282 33
internal_value=0 0.12421 0.133926 0.11784 0.196257 0.201012 0.203753 0.14648 0.208181 0.213786 0.0927768 0.164052 0.205003 0.103697 0.0843846 0.128575 0.175929 0.102333 0.16378 0.0793751 0.112566 0.135219 0.174802 0.18507 0.010308 0.182305 0.242837 0.237985 0.136678 0.274639 0.298019 0.147645 0.0850735 0.0286035 0.253476 0.24008 0.222601 0.0995885 0.116156 -0.0378926 -0.114884 0.0540218 0.0434454 0.109939 0.000873089 0.0776079 0.0990051 -0.0372815 0.322462 -0.118202 -0.118858 -0.118669 -0.124492
internal_weight=0 18319.4 17604 14355.1 54747.9 51154.3 49972.8 3586.31 46386.5 41158.7 9968.81 5227.75 3248.86 8803.1 2136.49 3593.6 1281.36 2312.24 1755.72 1796.51 1086.33 1289.77 4386.32 3786.87 1165.71 515.737 465.948 1449.82 916.807 364.554 321.727 862.615 1181.53 710.172 1493.14 1250.34 392.46 1007.8 778.165 54.1919 715.389 123.277 229.635 599.449 173.731 57.6958 42.8275 116.035 242.794 708.671 704.575 681.721 22.8541
internal_count=268644 80648 75307 64520 187996 173590 167763 13965 153798 134551 48160 19247 10787 41557 9390 14406 4601 9805 6768 7952 4517 5341 16360 13732 6603 1853 1427 4575 3557 1044 861 3271 5827 3435 4019 3538 1276 4779 3550 286 5341 577 1229 2628 1048 295 183 753 481 5317 5294 5148 146
is_linear=0
shrinkage=0.1


Tree=2
num_leaves=53
num_cat=0
split_feature=75 106 131 119 100 136 35 72 13 128 133 129 71 31 103 113 120 110 29 103 120 120 46 60 75 92 105 22 70 57 107 134 75 37 76 110 120 97 121 105 107 103 32 93 22 110 129 105 0 108 58 41
split_gain=4600.8 3301.29 2455.68 1286.32 1627.22 1119.86 921.772 875.657 784.124 780.238 686.181 714.574 674.515 656.865 647.025 505.002 494.618 663.902 473.772 446.053 409.691 345.015 317.507 316.181 259.208 229.509 205.847 218.913 200.93 193.673 143.391 86.8067 83.5174 63.1521 53.8004 52.815 50.2903 32.7728 35.5028 26.0356 19.7921 17.8652 9.05349 17.2214 5.94126 0.0341209 0.00245667 0.00152522 0.000524155 0.000375314 0.000340537 5.55169e-06
threshold=-1.1750839352607725 -0.8619059920310973 1.0000000180025095e-35 -1.614060580730438 -0.76702779531478871 1.0000000180025095e-35 0.80815646052360546 -0.79783746600151051 0.35796935856342321 1.0000000180025095e-35 1.0000000180025095e-35 1.0000000180025095e-35 -0.42616906762123102 0.99136704206466686 -0.81207117438316334 -1.3906605243682859 -1.7368787527084348 -1.1971049308776853 1.1987883448600771 -0.81471914052963246 -1.6607890129089353 -1.7311646342277525 1.1349449157714846 0.81386327743530285 -1.2076698541641233 -1.1920917630195615 -0.84292519092559803 1.3150150775909426 -0.28925639390945429 0.91485285758972179 -0.98274412751197804 1.0000000180025095e-35 -1.1894597411155698 0.93993726372718822 -1.2372732162475584 -0.94986060261726368 -0.88834255933761586 -1.058961749076843 -0.9489794373512267 -0.86300572752952565 -0.88422432541847218 -0.80918937921524037 0.94970610737800609 -1.1802434921264646 1.4226460456848147 -0.77491205930709828 1.0000000180025095e-35 -0.79330256581306446 0.52803191542625438 -0.83966559171676625 0.65166810154914867 0.70009401440620433
decision_type=2 2 2 2 2 2 2 2 2 2 2 2 2 2 2 2 2 2 2 2 2 2 2 2 2 2 2 2 2 2 2 2 2 2 2 2 2 2 2 2 2 2 2 2 2 2 2 2 2 2 2 2
left_child=24 3 5 8 7 10 29 18 16 -9 11 -3 19 -12 26 23 17 -2 -5 -7 -8 -17 -14 -10 42 32 27 -4 -28 -6 -18 34 33 36 39 40 -26 44 -39 -27 -16 -37 45 -44 -34 46 49 -45 -48 -1 51 -47
right_child=1 2 14 4 6 12 20 9 15 -11 13 -13 22 -15 35 21 30 -19 -20 -21 -22 -23 -24 -25 25 31 28 -29 -30 -31 -32 -33 37 -35 -36 41 -38 38 -40 -41 -42 -43 43 47 -46 50 48 -49 -50 -51 -52 -53
leaf_value=-0.12015726667972633 0.038429536081657556 0.10311217252630643 0.124916909779469 0.18654712828947495 0.19721727396944602 0.14707381064508809 0.16595934582772187 0.17162482250959016 -0.11473954700194421 0.068540104046384873 -0.0024800825224016321 0.14524094587847833 0.23208570631694425 0.39297480689416003 -0.055931857650066988 0.29389654785105729 0.18309295278426846 0.28347948903101167 0.089112337078956369 0.0019731069855957874 0.094729317617715469 0.22262040067644487 0.15713406324059087 0.23993468859654976 -0.062696546720727026 -0.010205889777018711 -0.031109753275924218 0.017644716596523929 0.073108125796494755 0.34265704659356416 -0.033555487287769289 0.33584634592084045 -0.12653002797222088 0.29050563361276066 0.32628512951437327 -0.048892206000861381 0.089846052870511062 0.05700771677426162 0.17250601817384939 -0.099406706573578071 0.10785966992408028 -0.11168254784980786 0.16457303811252783 -0.12230279958779067 0.049089483947537399 -0.11631363091005112 -0.12041050926932001 -0.11904835078186918 -0.12219034961446902 -0.11893856490009434 -0.11747952757486223 -0.11646531785356512
leaf_weight=2.7691162228584316 188.8773133456707 14399.956723436713 450.99224734306335 649.45008473098278 188.81231290102005 3089.7542146965861 941.11414889991283 37141.287530228496 63.781493604183197 749.04833786189556 56.392644792795181 5588.717535212636 1623.1147168427706 164.61107397079468 13.407040894031526 1052.6915118694305 36.381937578320503 266.63178749382496 2154.9139646440744 227.4557362049818 5686.5432765334845 1913.7339530587196 867.12865668535233 41.48196092247963 80.256897911429405 37.864868655800819 501.30893483012915 329.03031489253044 293.18824097514153 177.7587998509407 190.58325959742069 5.0458055734634391 6.0208696722984296 6.8889465332031241 3.1813077479600897 51.926036074757576 29.577165082097054 42.460462465882301 71.312519088387489 240.8806277513504 16.404198989272118 355.80072215944529 3.3438904583454132 2.9401403069496155 2.8326182514429092 461.83627922087908 4.0824709683656684 2.8224740624427778 2.7822679430246353 28.89722540974617 2.5222450196743003 2.4255134686827651
leaf_count=20 834 58390 1832 1978 526 9995 2908 108685 358 3556 257 18567 3814 216 71 1591 98 421 8089 966 20680 4680 2629 105 494 205 2820 1635 1416 291 903 5 37 16 7 313 150 209 282 1732 67 2591 14 20 16 3830 29 21 19 216 20 20
internal_value=0 0.14733 0.119719 0.162375 0.157938 0.12795 0.113382 0.165596 0.218734 0.169587 0.116829 0.114891 0.166653 0.292068 0.0132824 0.240276 0.121776 0.181869 0.111677 0.137124 0.104844 0.247914 0.205987 0.0250296 -0.064296 -0.0149575 0.0431757 0.0796672 0.00734911 0.267744 0.0011727 -0.0752649 0.0573491 -0.00319698 -0.0826228 -0.0942913 -0.0216184 0.11498 0.129402 -0.0872896 0.0341975 -0.103686 -0.114776 -0.0159539 -0.0703417 -0.116557 -0.119417 -0.120709 -0.121132 -0.119045 -0.116321 -0.116314
internal_weight=0 79472.3 28029.2 51443.1 47688.9 26017.1 6994.23 40694.7 3754.16 37890.3 20209.7 19988.7 5807.45 221.004 2012.06 3071.69 682.474 455.509 2804.36 3317.21 6627.66 2966.43 2490.24 105.263 1040.74 526.322 1574.52 780.023 794.497 366.571 226.965 286.973 239.349 116.723 281.927 437.538 109.834 122.626 113.773 278.745 29.8112 407.727 514.422 9.1065 8.85349 505.315 38.5311 5.76261 6.86474 31.6663 466.784 464.262
internal_count=268644 261282 105579 155703 146713 94834 24405 122308 8990 112241 77430 76957 17404 473 10745 6734 2256 1255 10067 10961 23588 6271 6443 463 7362 3153 7703 3467 4236 817 1001 1949 1204 660 1944 3042 644 544 491 1937 138 2904 4209 55 53 4154 284 41 48 236 3870 3850
is_linear=0
shrinkage=0.1


Tree=3
num_leaves=55
num_cat=0
split_feature=75 106 131 119 62 110 128 130 54 128 103 131 104 125 86 104 11 77 120 5 75 92 34 56 127 93 75 31 32 69 52 105 21 75 110 91 134 89 42 121 32 130 31 74 32 106 129 110 129 95 22 108 58 60
split_gain=3326.91 2233.74 1688.09 829.036 830.251 774.752 728.58 740.238 1057.14 645.185 643.413 551.941 444.485 397.743 381.139 359.335 320.001 298.025 288.812 262.647 241.73 190.786 181.511 166.907 138.871 116.348 193.66 111.259 96.6863 92.8255 75.8878 73.241 68.5626 60.92 59.8772 51.3645 46.1274 44.594 33.0277 46.4513 16.2632 11.5433 39.4525 11.5377 8.751 14.6715 4.28373 0.0239748 0.00172251 0.00101594 0.000383741 0.000265492 0.000240706 4.03929e-06
threshold=-1.1750839352607725 -0.85637426376342762 1.0000000180025095e-35 -1.642493665218353 0.73312455415725719 -1.200631260871887 1.0000000180025095e-35 1.0000000180025095e-35 1.0023428797721865 1.0000000180025095e-35 -0.80918937921524037 1.0000000180025095e-35 -0.8111000359058379 -2.6331871747970577 -1.3413645029067991 -0.73967260122299183 0.16423051804304126 -1.2939625382423399 -1.7583887577056883 0.59646615386009227 -1.2076698541641233 -1.1920917630195615 0.90026065707206737 0.98424601554870617 -3.1592253446578975 -1.1470698118209837 -1.1457031965255735 0.98525097966194164 0.95434418320655834 0.072720881551504149 1.1455525159835818 -0.86186039447784413 1.3082253336906435 -1.1894597411155698 -0.98020887374877919 -1.2404180169105528 1.0000000180025095e-35 -1.2925786972045896 1.0390325188636782 -0.9489794373512267 0.93208512663841259 1.0000000180025095e-35 1.0029571652412417 -1.0290370583534239 0.94970610737800609 -0.80699333548545826 1.0000000180025095e-35 -0.77491205930709828 1.0000000180025095e-35 -1.0710559487342832 1.3018948435783388 -0.83966559171676625 0.65166810154914867 0.557112216949463
decision_type=2 2 2 2 2 2 2 2 2 2 2 2 2 2 2 2 2 2 2 2 2 2 2 2 2 2 2 2 2 2 2 2 2 2 2 2 2 2 2 2 2 2 2 2 2 2 2 2 2 2 2 2 2 2
left_child=20 3 6 5 9 13 7 8 -3 11 -9 -5 25 29 19 22 18 -16 -7 -8 44 33 -6 -15 -18 28 -27 -11 -4 -2 -17 32 -23 35 -14 37 -34 -22 39 -35 -37 46 -43 -36 47 -46 -33 48 51 -47 -50 -1 53 -49
right_child=1 2 12 4 15 16 14 10 -10 27 -12 -13 34 23 17 30 24 -19 -20 -21 21 31 -24 -25 -26 26 -28 -29 -30 -31 -32 41 36 38 43 40 -38 -39 -40 -41 -42 42 -44 -45 45 49 -48 52 50 -51 -52 -53 -54 -55
leaf_value=-0.11788317116019316 -0.013523205440155657 0.046019243824244493 0.037738749147225942 0.13645213446238533 0.14403379300506308 0.25285454223951237 0.15112624844712255 0.11887314133760803 0.13441652477644914 -0.0049849800689959443 0.042498923714466084 0.099342009447843604 0.16780790368432477 0.0033336640040494848 -0.074881008987405642 0.29888996975072624 0.21666054168959606 0.059471798511092494 -0.031353337844174475 0.053651853364429805 0.029397417594485598 0.41135478788171564 -0.017969890271978893 0.17330509654085238 0.27740679382719446 -0.052195733907933417 0.041974918647311343 0.072330499982171365 0.27445406464119582 0.19666537699536346 -0.07400253018823047 -0.11741696416397607 -0.037745961018834623 -0.015015603500390282 0.14344578469485975 0.10565448964439844 0.26856715450302809 0.33270270814749636 0.27575299906642675 0.12150048030590165 -0.099979370323874717 -0.09331559645079443 0.11976755135556796 -0.10684000055661769 0.14293626304624432 -0.11969509195749391 -0.06550150627178436 -0.11452232264094318 -0.11808509029557204 -0.11696262067666444 -0.11967055897476685 -0.11681528849856596 -0.11554472091117858 -0.11465733027582921
leaf_weight=2.5514402166008976 232.70025314390659 1516.2256248444319 35.296189844608307 51784.323226049542 202.27335773408413 60.52375140786171 803.98635296523571 2062.8854994922876 12556.444729015231 241.34206140041351 2370.6932550817728 4344.0168741494417 8.2055220454931241 64.883547902107239 173.75802348554134 5.565128654241561 1043.4967458546162 3315.2765874415636 87.372219741344452 421.2822350859642 62.776058778166771 4.5004213601350775 105.09224426746368 527.16280488669872 588.61705221235752 284.69085749983788 937.52964350581169 813.50561103224754 33.757664799690247 23.096562758088112 282.5573543459177 135.61815963685513 38.324461907148361 34.996207267045975 1.8517089039087284 4.2137230038642874 5.6396192312240592 5.2531237602233878 9.5066097825765592 86.607801213860512 44.080537095665932 59.716523811221123 10.168752729892729 344.84035225212574 3.5522573292255402 2.7153050601482391 18.003819689154625 424.08642293512821 3.7612168937921515 2.7274629622697812 2.5694888234138489 26.598035164177418 2.3184684813022605 2.2277388721704474
leaf_count=20 1098 6003 169 144483 615 91 2708 7579 36918 1316 10448 14402 31 264 896 10 1573 14313 391 1783 333 10 479 1193 580 1632 4546 3494 101 55 1419 1075 213 189 11 20 5 13 23 332 294 459 61 2681 13 20 126 3830 29 22 19 216 20 20
internal_value=0 0.123015 0.097789 0.133399 0.130901 0.188331 0.104726 0.113667 0.124892 0.132124 0.0780348 0.13358 -6.68991e-05 0.109657 0.0696307 0.0134329 0.225805 0.0527809 0.0849536 0.117612 -0.0611324 -0.0140321 0.0886427 0.154678 0.238568 0.0271747 0.0200398 0.0546412 0.153459 0.00545527 -0.0668001 -0.07184 0.039602 0.0495086 -0.099184 -0.00317015 0.00154724 0.0528183 0.096246 0.0822128 -0.0820376 -0.0960047 -0.0623106 -0.105503 -0.112842 -0.0151499 -0.111333 -0.114735 -0.117233 -0.118326 -0.118729 -0.116909 -0.114529 -0.114523
internal_weight=0 85273.3 24866.7 60406.5 57778.7 2627.85 23220.6 18506.2 14072.7 57183.2 4433.58 56128.3 1646.17 847.843 4714.3 595.488 1780.01 3489.03 147.896 1225.27 992.514 519.406 307.366 592.046 1632.11 1291.27 1222.22 1054.85 69.0539 255.797 288.122 271.972 48.4645 247.434 354.898 116.323 43.9641 68.0292 131.111 121.604 48.2943 223.507 69.8853 346.692 473.108 8.99503 153.622 464.113 35.4802 5.44277 6.33071 29.1495 428.633 426.314
internal_count=268644 261282 89819 171463 166218 5245 80648 60948 42921 163695 18027 158885 9171 2610 19700 2523 2635 15209 482 4491 7362 3153 1094 1457 2153 6448 6178 4810 270 1153 1429 1949 228 1204 2723 660 218 346 544 521 314 1721 520 2692 4209 55 1201 4154 284 42 48 236 3870 3850
is_linear=0
shrinkage=0.1


Tree=4
num_leaves=48
num_cat=0
split_feature=113 106 131 119 127 136 73 36 130 81 129 61 70 110 52 126 127 53 102 44 105 31 30 0 37 2 122 105 104 71 60 43 76 124 122 102 20 120 108 75 75 80 33 75 124 80 31
split_gain=2561.84 1741.39 1220.95 743.208 1200.19 690.901 660.166 595.575 541.778 471.41 594.812 475.044 412.238 399.977 650.457 513.29 420.246 507.805 378.121 321.78 303.463 292.413 267.122 209.603 188.911 176.013 149.036 128.762 115.043 178.16 83.4849 63.4091 50.1882 40.9035 3.43923 0.320087 0.166682 0.0654557 0.0635841 0.0371374 0.0212462 0.0144045 0.0116172 0.00914693 0.0056527 0.00382076 0.000614407
threshold=-0.81457293033599842 -0.86229828000068653 1.0000000180025095e-35 -1.6059547662734983 -2.4604940414428706 1.0000000180025095e-35 -0.93013316392898548 0.83512407541275036 1.0000000180025095e-35 -1.2384092211723325 1.0000000180025095e-35 0.80337339639663707 -0.26564611494541163 -1.1826072335243223 1.1378530859947207 -2.8660937547683711 -3.2028592824935909 1.1014105677604678 -0.82530087232589711 1.1696598529815676 -0.84292519092559803 0.91685286164283764 1.0748081803321841 0.3702759593725205 0.89526075124740612 0.33016885817050939 -1.9751426577568052 -0.85350015759468068 -0.8111000359058379 -0.48285461962223047 0.66026955842971813 1.0126345753669741 -1.3105170130729673 -1.7085935473442075 -0.99801823496818531 -1.0709146857261655 1.6982761025428774 -0.57362511754035939 -0.81517592072486866 -1.1750839352607725 -1.1700410842895506 -1.3471186161041258 0.92149952054023754 -1.2076698541641233 -0.14590577781200406 -1.3992378711700437 0.99350491166114818
decision_type=2 2 2 2 2 2 2 2 2 2 2 2 2 2 2 2 2 2 2 2 2 2 2 2 2 2 2 2 2 2 2 2 2 2 2 2 2 2 2 2 2 2 2 2 2 2 2
left_child=1 3 5 13 7 9 22 25 -8 10 -3 -11 18 16 26 -16 19 -18 -7 -1 24 -9 -6 -14 30 -5 -15 -26 29 -22 -4 35 34 -30 -33 38 37 39 -2 -37 -40 -38 46 -39 -43 -42 -36
right_child=31 2 20 4 6 12 8 21 -10 11 -12 -13 23 14 15 -17 17 -19 -20 -21 28 -23 -24 -25 27 -27 -28 -29 33 -31 -32 32 -34 -35 42 36 41 43 40 -41 45 44 -44 -45 -46 -47 -48
leaf_value=0.18653032022871893 -0.14169554330574566 0.063639514047645215 0.027667546614231139 0.19116612988285511 0.11067914773113968 0.10495463934817979 0.12185961808207087 0.09416246239593673 0.076895664739800168 0.12638911079555351 0.10176669533962707 0.032946103510333336 0.11361413611401053 0.27155107195172684 0.055463122971196627 0.24093355846079675 0.046888559187404713 0.17292795649921344 -0.0084322630825731954 0.035772316985784793 -0.056834682769357707 0.046158777473319243 0.02138042615600471 0.16357101388106937 0.14259528362638571 0.00019509756156317005 0.017266413379886408 0.051010625491043626 0.10983325458655416 0.03026535620502073 -0.085817612181390363 -0.0074515783407139427 0.20320325608461198 -0.096979229489987107 -0.11515335806269354 -0.11684138127110891 -0.12025834347929887 -0.11295690087959631 -0.11895320961225689 -0.12971963247284762 -0.12604604273828182 -0.13153803733755948 -0.12375401536866404 -0.11392668793578119 -0.12590125510694702 -0.13049887155090609 -0.11718233655669681
leaf_weight=184.38096830248833 3.0002956837415686 12760.388045482337 171.58693259209394 478.89757689833641 506.00030544400215 2891.4978647083044 42824.493610307574 1862.5306051373482 2858.6137865334749 3670.4883717894554 6023.1563398316503 638.72556558251381 1422.9927649646997 702.78377617895603 399.11056527495384 238.31386134028435 375.53856605291367 2148.1860092878342 327.40928648412228 609.88658080995083 407.18869587033987 3981.784098893404 991.11384464800358 2049.462416023016 235.98992384970188 53.671460866928101 23.830543786287308 439.23957708477974 10.029128193855284 554.83279091119766 104.18138786405325 4.0550545677542678 11.452917933464049 205.88281509280205 3.5414964780211466 6.2085639834403992 2.683459147810936 388.59650141745806 3.5815819278359404 3.5024410188198072 3.8505883514881125 3.7354153394699097 2.8324033468961716 129.72471430897713 3.396935433149336 3.8573564141988754 2.579510934650898
leaf_count=307 15 49206 839 919 1486 8329 110677 5545 8771 10547 17704 2413 3713 702 1299 326 1194 3888 1253 2118 2516 13511 3852 4309 799 193 81 1821 37 2723 596 23 32 1578 31 53 20 3827 28 20 24 21 20 1214 21 22 21
internal_value=0 0.104453 0.0856779 0.114741 0.111401 0.0909073 0.116905 0.0706825 0.119046 0.0827088 0.0758654 0.112539 0.119201 0.152948 0.198533 0.124805 0.134208 0.154173 0.0934216 0.0707692 0.0125174 0.0614571 0.0515619 0.143099 0.0545361 0.17192 0.263211 0.0830191 -0.0214062 -0.00660092 -0.0152055 -0.107004 0.0505468 -0.0873728 -0.0838551 -0.113984 -0.113592 -0.113352 -0.128756 -0.121486 -0.125317 -0.126504 -0.118459 -0.1132 -0.128853 -0.128274 -0.116008
internal_weight=0 90152.2 31913.1 58239.1 53557.1 29784.1 47180.2 6376.88 45683.1 23092.8 18783.5 4309.21 6691.36 4682.03 1364.04 637.424 3317.99 2523.72 3218.91 794.268 2128.93 5844.31 1497.11 3472.46 950.998 532.569 726.614 675.23 1177.93 962.021 275.768 576.599 24.4614 215.912 13.0085 552.138 537.848 528.032 14.2898 9.71101 11.2895 9.81581 8.95341 518.321 7.13235 7.70794 6.12101
internal_count=268644 263252 108383 154869 144954 97474 124786 20168 119448 79870 66910 12960 17604 9915 2408 1625 7507 5082 9582 2425 10909 19056 5338 8022 4055 1112 783 2620 6854 5239 1435 5392 127 1615 95 5265 5176 5114 89 73 74 62 72 5041 42 46 52
is_linear=0
shrinkage=0.1


Tree=5
num_leaves=48
num_cat=0
split_feature=113 106 131 119 98 30 131 74 128 130 54 30 32 110 62 125 100 105 85 77 6 119 0 55 34 51 83 104 70 101 43 77 127 124 120 31 102 20 73 120 108 75 75 80 75 124 79
split_gain=2015.13 1309.32 912.084 599.757 698.442 609.285 754.314 574.498 532.938 541.783 674.373 508.978 450.202 448.732 448.319 364.57 278.412 239.796 201.169 278.903 256.293 178.053 537.254 166.6 145.625 109.381 105.534 101.88 148.923 101.88 58.1026 40.0852 37.1668 35.1468 16.1176 4.28266 0.224845 0.1173 0.116576 0.0463812 0.0430414 0.0256881 0.0146359 0.00986515 0.00653709 0.00388673 0.00261005
threshold=-0.81457293033599842 -0.86229828000068653 1.0000000180025095e-35 -1.6273501515388487 -0.754583179950714 1.0748081803321841 1.0000000180025095e-35 -1.0080978870391843 1.0000000180025095e-35 1.0000000180025095e-35 1.0010297298431399 1.0597780942916872 0.88809245824813854 -1.1971049308776853 0.71803227066993724 -2.6331871747970577 -0.72574898600578297 -0.84292519092559803 -1.3607633113861082 -1.28595894575119 0.61245751380920421 -1.652790307998657 -0.19981816411018369 1.0109885334968569 0.88529300689697277 1.1115766763687136 -1.3352501988410947 -0.8111000359058379 -0.3081925213336944 -0.52698978781700123 1.0126345753669741 -1.3864854574203489 -3.2028592824935909 -1.7085935473442075 -0.91072449088096608 0.99402892589569103 -1.0709146857261655 1.6982761025428774 -0.85117161273956288 -0.57362511754035939 -0.81517592072486866 -1.2076698541641233 -1.1700410842895506 -1.3471186161041258 -1.2076698541641233 -0.14590577781200406 -1.384533107280731
decision_type=2 2 2 2 2 2 2 2 2 2 2 2 2 2 2 2 2 2 2 2 2 2 2 2 2 2 2 2 2 2 2 2 2 2 2 2 2 2 2 2 2 2 2 2 2 2 2
left_child=1 3 8 13 5 6 -5 -7 9 10 -3 -11 14 15 -6 29 -14 24 20 -20 -10 32 -23 -17 25 -4 -26 28 -19 -1 36 34 -15 -29 -32 38 40 39 -36 41 -2 -38 -42 -39 -41 -45 -44
right_child=30 2 17 4 12 7 -8 -9 18 11 -12 -13 16 21 -16 23 -18 27 19 -21 -22 22 -24 -25 26 -27 -28 33 -30 -31 31 -33 -34 -35 35 -37 37 43 -40 44 42 -43 46 45 -46 -47 -48
leaf_value=0.034301935321708103 -0.13629807722066117 0.047576449982331515 -0.020217554711711921 0.11430450535018406 0.11063085033401659 0.057988799352451652 0.053692146255636647 0.097932493180348412 0.10963723830903807 0.039857555289003255 0.099885977595327413 0.10986636562766011 0.073835838720668276 0.17611167325002938 0.011915262145898959 -0.067456587823004774 0.027542775527048025 -0.054695840611620174 -0.058393877596453238 0.045042238000581866 0.027086860203402244 0.042497948545416026 0.18714405635762385 0.13001012422296179 0.1375132918160494 0.11107082820997426 0.047325864297775709 0.09316105160406607 0.025931998068355895 -0.097419255532684712 0.16276971350104896 0.23162404396933975 0.21387502637940248 -0.093822168113742763 -0.11622707592430546 -0.003027131685992742 -0.11263547574691282 -0.11799492916176257 -0.13906651654940144 -0.11157299668254522 -0.11685604197448329 -0.1235212118814658 -0.12299443739185319 -0.12770239043901976 -0.112429573591399 -0.12285105854526986 -0.1268149926228298
leaf_weight=270.85974837839603 2.8166488707065573 2880.1331539005041 348.75773197412491 28023.077476516366 3311.6619175076485 5052.7754790633917 2215.5186390429735 12529.874701231718 1027.8033530041575 4212.297614634037 17080.487624138594 1378.255423784256 2730.1256439983845 484.19484724104404 534.28521524369717 44.402904033660889 2478.5813694745302 379.51570388674736 281.8408035710454 3472.0340567082167 593.13941169530153 382.40536551177502 781.6707219928503 1131.0836145281792 208.9019007012248 77.573363393545151 342.4257944971323 10.607341229915617 577.92963563650846 74.971677422523499 3.138452455401425 7.8169689923524848 564.44241997599602 192.23881440609694 6.2736828401684788 4.1467783004045495 3.6782622039318085 2.4722670167684555 3.471362784504886 355.75400108844042 3.2959111779928199 5.2789344489574415 3.5660671889781943 3.4761780127882957 118.86249271035194 3.1460313051938993 3.5864471942186356
leaf_count=1008 15 9842 1797 66905 8215 15592 7053 31406 3235 16710 45434 4309 8050 627 1917 191 8525 2424 1378 13963 2603 1186 1088 2233 698 280 1280 37 2815 384 8 18 489 1578 55 28 38 20 18 3827 28 35 24 21 1214 21 22
internal_value=0 0.0902511 0.0742441 0.0989832 0.0964344 0.101256 0.109864 0.0864538 0.0786111 0.0846319 0.0923382 0.057117 0.0709675 0.137806 0.0969171 0.0959986 0.0518071 0.0110753 0.0499891 0.0372763 0.0794302 0.166551 0.139627 0.122551 0.04756 0.00367111 0.0814985 -0.0196667 -0.00602756 0.00574652 -0.105147 0.0441485 0.196438 -0.0840443 -0.0419036 -0.0881436 -0.11248 -0.112134 -0.124363 -0.111922 -0.125327 -0.119051 -0.12237 -0.123385 -0.111788 -0.125398 -0.12491
internal_weight=0 93673.9 33063.9 60609.9 56875.9 47821.2 30238.6 17582.7 30926 25551.2 19960.6 5590.55 9054.65 3734.03 3845.95 1521.32 5208.71 2137.95 5374.82 3753.87 1620.94 2212.71 1164.08 1175.49 977.659 426.331 551.328 1160.29 957.445 345.831 530.78 24.8472 1048.64 202.846 17.0303 13.8918 505.933 492.668 9.74505 483.574 13.2651 8.9572 10.4484 9.09448 474.616 6.62221 7.15251
internal_count=268644 263252 108383 154869 147663 120956 73958 46998 97474 76295 55276 21019 26707 7206 10132 3816 16575 10909 21179 15341 5838 3390 2274 2424 4055 2077 1978 6854 5239 1392 5392 127 1116 1615 109 101 5265 5176 73 5114 89 73 74 62 5041 42 46
is_linear=0
shrinkage=0.1


Tree=6
num_leaves=58
num_cat=0
split_feature=75 128 131 31 130 102 30 101 0 31 86 77 117 31 30 75 123 69 103 68 30 92 127 106 70 61 127 70 35 114 52 105 102 36 75 118 3 8 134 36 36 108 57 32 130 31 32 94 117 89 106 131 45 129 83 6 105
split_gain=1622.96 985.212 836.722 1348.24 1006.27 455.95 455.859 810.656 564.666 433.833 254.825 234.82 219.149 216.151 207.126 175.583 174.731 163.451 335.287 183.279 158.564 156.627 143.846 136.515 132.354 122.816 108.551 74.4649 74.2624 61.625 84.5346 58.1969 54.2097 48.883 40.0645 41.8418 58.4807 39.7143 34.9561 25.9955 23.9627 39.4465 15.5937 12.1579 9.21326 28.7819 7.30229 13.7053 3.45682 0.0860351 0.00560706 0.00443791 0.00230492 0.00223352 0.000624996 0.000270258 0.000115163
threshold=-1.1750839352607725 1.0000000180025095e-35 1.0000000180025095e-35 1.0107172727584841 1.0000000180025095e-35 -0.81893306970596302 1.0837699770927431 -0.86886650323867787 0.46987803280353552 1.0000851154327395 -1.3272801637649534 -1.2822487354278562 -1.0069863200187681 0.99889037013053905 1.0907076597213747 -1.2076698541641233 -1.5759824514389036 -0.052199363708496087 -0.78076586127281178 0.064779873937368407 1.1106632351875307 -1.1920917630195615 -2.1263771057128902 -0.89470106363296498 -0.17733586579561231 0.73602834343910228 -1.9168855547904966 -0.2334112077951431 0.9502837359905244 -0.90939831733703602 1.0621442198753359 -0.86186039447784413 -0.74530842900276173 0.88120856881141674 -1.1894597411155698 -0.85325831174850453 0.63551458716392528 0.78699916601181041 1.0000000180025095e-35 0.92333444952964794 0.86025387048721325 -0.84833127260208119 0.82912883162498485 0.96647828817367565 1.0000000180025095e-35 1.0029571652412417 0.94970610737800609 -1.1442745923995969 -0.86860084533691395 -1.3329488635063169 -0.79239016771316517 1.0000000180025095e-35 0.73836237192153942 1.0000000180025095e-35 -1.3897280693054197 0.65691843628883373 -0.91447168588638295
decision_type=2 2 2 2 2 2 2 2 2 2 2 2 2 2 2 2 2 2 2 2 2 2 2 2 2 2 2 2 2 2 2 2 2 2 2 2 2 2 2 2 2 2 2 2 2 2 2 2 2 2 2 2 2 2 2 2 2
left_child=15 2 4 5 6 14 7 -2 -8 16 17 29 -11 24 -4 46 -6 18 19 -3 23 34 -7 -5 -13 32 -15 -20 -27 43 -31 33 -19 38 35 39 -37 -22 -23 -17 42 -42 -36 -12 48 -46 49 -48 -33 52 -49 53 56 -51 -53 -54 -1
right_child=1 10 3 20 9 22 8 -9 -10 12 11 13 -14 26 -16 21 -18 25 27 -21 37 31 -24 -25 -26 28 -28 -29 -30 30 -32 44 -34 -35 40 36 -38 -39 -40 -41 41 -43 -44 -45 45 -47 47 50 -50 51 -52 54 55 -55 -56 -57 -58
leaf_value=-0.11115310259644982 0.11019875071259055 0.054053002413732357 0.024772953938683277 0.16024041467744821 0.088339237260855213 0.040827619273985906 -0.012394725766983108 0.08467274344784792 0.074899204125549221 0.05123129004041193 -0.11752273376872334 0.0019827372305385705 0.096691027231714827 0.10474740141487321 0.11506979320474141 -0.053585351023302807 0.024660689049938882 0.1366804099286438 -0.13168598901340539 0.16389140293350682 -0.14525893135492698 -0.043413074873256047 -0.085744688995117169 0.10304713836278241 0.057546282721268376 -0.030946757840165276 0.046318809409848505 -0.013098868110898313 0.15818868427496202 -0.072776649116916267 0.24545164216384907 -0.11616543212324802 -0.047690593237676104 0.31100922613197352 0.040945839968446196 0.184979149394707 -0.1224151394971313 0.17931045699777093 0.21530155639511828 0.20251654450240142 0.20642438619234121 0.06165201806651123 -0.13276357287609888 -0.03309471351927816 -0.094301838213659048 0.073664409720455709 0.13378397523849056 -0.12141655585926803 -0.072353776962603297 -0.1162762396339021 -0.11502379958470849 -0.11338661571179896 -0.11193492572691946 -0.11864488881061071 -0.11523121048158276 -0.113468357399788 -0.11034541987536534
leaf_weight=1.774944245815276 16642.842133484781 776.02324214577675 3804.6978651881218 658.1087211817503 481.38821218907833 109.92441125959158 822.60162578523159 49283.903745621443 7470.7875647842884 1975.3125658333302 136.49702143669128 1958.5234142839909 2289.6057834327221 408.03109522163868 272.20799277722836 83.70171108096838 4109.0687790811062 539.95625321567059 89.368521824479103 188.89506091177464 27.558168217539791 40.197342582046986 490.17074552178383 1140.7403074502945 548.83930194377899 83.488208830356598 1440.5645216107368 129.94324849545956 27.630200877785683 24.297063872218132 12.716347172856329 122.89263854175806 16.432808429002762 5.2939308434724799 13.964187659323217 21.232770010828975 8.7351567372679693 4.3673684000968924 6.0023796558380118 4.160451427102088 23.367104679346085 96.734119758009911 8.203755319118498 19.491912618279457 60.899552009999752 12.25464081764221 3.5360634922981262 2.9445030316710472 21.101702563464642 15.059515483677393 2.5691192820668203 4.7843549996614456 2.7623935788869849 5.4114727154374114 2.9815723598003379 1.9682878777384756 326.85960115492344
leaf_count=20 36291 2871 14678 1219 1368 398 2636 124703 19792 6289 736 8379 6699 1346 671 525 15295 1462 454 473 129 217 3634 2921 2112 335 5479 516 73 121 29 1044 74 6 61 66 61 8 5 8 48 390 45 91 459 61 11 21 157 126 23 46 29 41 26 19 3847
internal_value=0 0.0791224 0.0818305 0.0473004 0.0845354 0.0188229 0.088337 0.0911166 0.0662407 0.0526731 0.0412201 0.0284897 0.0756362 0.0332722 0.0308019 -0.0558375 0.0313385 0.0724934 0.0501879 0.0755553 0.120051 -0.0188438 -0.0625594 0.123971 0.0141451 0.112066 0.0592155 -0.0614226 0.0160828 -0.0794477 0.036554 -0.0723981 0.131235 0.0231814 0.0364695 -0.00665637 0.0953788 -0.100858 -0.00980024 -0.0414584 0.0721872 0.0898192 -0.0233393 -0.106973 -0.0950634 -0.0661645 -0.10861 -0.019885 -0.109745 -0.11083 -0.118438 -0.11613 -0.110381 -0.116902 -0.114095 -0.112573 -0.11035
internal_weight=0 95984 89583.3 6507.78 83075.5 4677 74220.1 65926.7 8293.39 8855.38 6400.7 4548.96 4264.92 4355.96 4076.91 899.393 4590.46 1851.74 1184.23 964.918 1830.77 528.741 600.095 1798.85 2507.36 667.507 1848.6 219.312 111.118 193.002 37.0134 268.642 556.389 51.4937 260.099 117.83 29.9679 31.9255 46.1997 87.8622 142.269 120.101 22.1679 155.989 217.149 73.1542 370.652 9.04969 143.994 361.602 5.51362 28.2369 333.365 20.471 7.76593 4.73068 328.635
internal_count=268644 261282 236731 23658 213073 19381 183422 160994 22428 29651 24551 18293 12988 17316 15349 7362 16663 6258 4314 3344 4277 3153 4032 4140 10491 1944 6825 970 408 977 150 1949 1536 228 1204 660 127 137 222 533 544 438 106 827 1721 520 4209 55 1201 4154 44 239 3915 167 72 48 3867
is_linear=0
shrinkage=0.1


Tree=7
num_leaves=47
num_cat=0
split_feature=113 106 5 119 59 110 131 32 133 106 105 26 128 130 11 105 58 120 103 116 135 104 75 118 68 69 69 135 89 79 43 102 76 116 122 102 20 120 107 75 75 32 75 127 79 32
split_gain=1326.52 867.763 525.806 497.98 493.936 491.352 418.574 418.064 1358.51 715.988 343.468 280.086 255.91 249.049 215.574 193.273 203.148 192.198 179.63 171.162 161.813 159.047 129.977 126.173 105.311 59.9056 58.525 58.3978 54.8401 68.0562 50.011 39.385 27.1344 13.8405 3.16668 0.247938 0.119807 0.0529917 0.0425542 0.0351182 0.0176477 0.0163674 0.00741028 0.00604932 0.00313266 0.00303299
threshold=-0.81457293033599842 -0.85637426376342762 0.65973398089408886 -1.642493665218353 0.88661456108093273 -1.204893887042999 1.0000000180025095e-35 0.92685502767562877 1.0000000180025095e-35 -0.93729370832443226 -0.80794620513916005 1.3055453896522524 1.0000000180025095e-35 1.0000000180025095e-35 0.16423051804304126 -0.82189878821372975 0.9045194983482362 -1.7494691014289854 -0.85007211565971363 -0.94644281268119801 1.0000000180025095e-35 -0.82094714045524586 -1.1457031965255735 -1.6108722090721128 -0.051153013482689851 0.072720881551504149 -0.12316158413887023 1.0000000180025095e-35 -1.1685574650764463 -1.278388440608978 1.0126345753669741 -0.84952563047409047 -1.3105170130729673 -0.90419372916221608 -0.99801823496818531 -1.0709146857261655 1.7304682135581972 -0.57362511754035939 -0.85983368754386891 -1.1750839352607725 -1.1700410842895506 0.95294010639190685 -1.2076698541641233 0.68515142798423778 -1.3951748609542844 0.94810956716537487
decision_type=2 2 2 2 2 2 2 2 2 2 2 2 2 2 2 2 2 2 2 2 2 2 2 2 2 2 2 2 2 2 2 2 2 2 2 2 2 2 2 2 2 2 2 2 2 2
left_child=1 3 6 5 7 15 12 9 -9 -5 20 18 13 -3 17 16 -1 -7 24 -14 -6 22 -8 -16 -4 -17 -23 -12 29 -13 35 -20 34 -30 -32 38 37 39 -2 -37 -40 45 -39 -38 -42 -36
right_child=30 2 11 4 10 14 21 8 -10 -11 27 28 19 -15 23 25 -18 -19 31 -21 -22 26 -24 -25 -26 -27 -28 -29 33 -31 32 -33 -34 -35 41 36 43 42 40 -41 44 -43 -44 -45 -46 -47
leaf_value=-0.036556744874652644 -0.13513768878014001 0.071286250606586943 -0.020667756066701751 0.041870882746874033 0.029586391899634263 0.12559988321870497 -0.0436203202175647 0.07211700277951924 0.12161094473492209 0.075503833831073466 -0.085390980064194655 0.082473197145131683 0.027985722383714308 0.045448545678267338 0.18284847120850595 -0.12668024958684521 0.094880754105971854 -0.08386602821163841 -0.05205043593533374 0.066432271299299878 0.19679001747156485 -0.10202007553581215 0.04635729609692904 0.13039709920285489 0.080988121950499911 0.10346525608629392 -0.022190106004594312 0.21284272886079092 -0.13999023823162229 0.246415270761 -0.0057279770481155337 -0.11422675819069801 0.13015567561336933 0.027867890690238803 -0.11139560101820574 -0.11226663388971159 -0.12582564729458326 -0.10926951969504801 -0.11474219125507834 -0.12545512001302958 -0.12139835026274633 -0.12356058284241252 -0.11025710718446963 -0.12003351180147176 -0.12574892469055834 -0.11628102653784134
leaf_weight=152.49683710932732 2.7587413787841788 15945.198684126139 437.59376296401024 8656.0393327921629 701.88315285742283 100.99828192591667 205.86000648140907 26698.539762832224 6999.6685903966427 23550.657035700977 318.94573785364628 174.07132852077484 3541.2877610176802 4869.9833525642753 722.16782465577126 75.543593645095825 513.72885347902775 77.35516294836998 198.82965788245201 1720.5614535138011 63.081072509288788 133.2666894942522 729.3380730599165 1256.7032946795225 132.84578550606966 13.301421150565146 295.39351890236139 6.7037269026041022 11.3281736522913 29.631728500127792 3.9595010131597519 208.93253337591887 13.641921274363993 8.6727259606122953 3.4561657160520571 5.0480743795633316 3.249882571399211 297.39509894698858 3.0346562489867202 3.364827521145342 2.8604561388492575 2.1101459190249443 102.04804723709822 4.0504745990037918 3.927652396261692 2.009690597653389
leaf_count=588 15 41220 2074 23503 2201 193 1219 67448 13982 57831 1485 587 13895 17731 714 395 1127 360 999 5844 118 982 3128 1835 436 33 2064 12 58 52 23 1105 32 33 38 55 21 3831 29 21 20 15 1218 30 25 19
internal_value=0 0.0692601 0.0546004 0.0752665 0.0735068 0.115747 0.0574359 0.0746114 0.0823977 0.0664645 0.00675919 -0.0101391 0.0602604 0.0652412 0.140048 0.0463196 0.0647951 0.0347507 -0.0332242 0.0405573 0.0433745 0.00343127 0.026551 0.149539 0.00300619 -0.092224 -0.0470085 -0.0792516 0.0908066 0.106321 -0.102272 -0.0839088 0.0346927 -0.0672041 -0.0782022 -0.110334 -0.109915 -0.109687 -0.124164 -0.117542 -0.121082 -0.11608 -0.109522 -0.122612 -0.123916 -0.113192
internal_weight=0 98550.6 28642.8 69907.8 66995.5 2912.3 27440.9 65904.9 33698.2 32206.7 1090.61 1201.91 26077 20815.2 2157.22 755.071 666.226 178.353 978.202 5261.85 764.964 1363.86 935.198 1978.87 570.44 88.845 428.66 325.649 223.704 203.703 452.915 407.762 25.1774 20.0009 11.5355 427.738 415.156 407.856 12.5815 8.4129 9.82276 7.576 399.443 7.30036 6.78811 5.46586
internal_count=268644 263252 91427 171825 166580 5245 86083 162764 81430 81334 3816 5344 78690 58951 3102 2143 1715 553 4614 19739 2319 7393 4347 2549 2510 428 3046 1497 730 639 5392 2104 127 91 95 5265 5176 5125 89 76 74 72 5049 51 45 57
is_linear=0
shrinkage=0.1


Tree=8
num_leaves=47
num_cat=0
split_feature=113 106 120 100 136 36 6 98 5 71 5 128 134 57 71 135 101 72 112 44 118 52 102 30 0 70 108 112 122 37 127 30 43 77 120 31 102 73 20 120 107 75 75 75 127 79
split_gain=1086.77 705.603 509.115 670.218 441.38 437.162 406.602 680.952 480.382 404.04 399.074 354.119 353.868 476.161 325.278 307.708 291.091 289.527 273.665 264.149 373.161 248.999 236.374 214.072 184.295 190.58 139.723 129.049 125.711 99.149 90.1479 85.5928 46.3857 22.6746 11.1614 4.33408 0.176241 0.156679 0.0854147 0.0378852 0.0292334 0.024533 0.012324 0.00535569 0.00423301 0.00219566
threshold=-0.81457293033599842 -0.86229828000068653 -1.6820879578590391 -0.74551981687545765 1.0000000180025095e-35 0.82280170917510997 0.58687633275985729 -0.88932245969772328 0.61621016263961803 -0.69345679879188526 0.66563692688941967 1.0000000180025095e-35 1.0000000180025095e-35 0.96231529116630565 -0.41577458381652826 1.0000000180025095e-35 -0.81773987412452687 -0.2729447185993194 -1.3264063596725462 1.1637451052665713 -1.6108722090721128 1.142256021499634 -0.92578038573265065 1.0496218204498293 0.34175847470760351 -0.20442178845405576 -1.0534263253211973 -1.2244411706924436 -1.3172380328178404 0.96615636348724376 -3.2311267852783199 1.0451285243034365 1.0126345753669741 -1.3864854574203489 -0.91072449088096608 0.99402892589569103 -1.0709146857261655 -0.85117161273956288 1.7304682135581972 -0.57362511754035939 -0.85983368754386891 -1.1750839352607725 -1.1700410842895506 -1.2076698541641233 0.68515142798423778 -1.3951748609542844
decision_type=2 2 2 2 2 2 2 2 2 2 2 2 2 2 2 2 2 2 2 2 2 2 2 2 2 2 2 2 2 2 2 2 2 2 2 2 2 2 2 2 2 2 2 2 2 2
left_child=1 2 18 9 6 27 12 10 -9 22 -8 -11 17 -14 16 -7 23 -3 21 26 -21 29 -4 -6 25 -16 -20 -5 -26 -1 -23 -18 36 34 -34 37 40 -36 39 41 -2 -38 -42 -41 -40 -44
right_child=32 4 3 5 14 15 7 8 -10 11 -12 -13 13 -15 24 -17 31 -19 19 20 -22 30 -24 -25 28 -27 -28 -29 -30 -31 -32 -33 33 -35 35 -37 38 -39 44 43 42 -43 45 -45 -46 -47
leaf_value=-0.09919057459971356 -0.13078220402573837 0.046276699184831425 0.033701932364424175 -0.11967022770248857 0.11590302068665276 0.021278224235623526 0.055291746617480313 0.010645545221016734 -0.092079684018619171 0.071378199197688327 -0.005576476591313868 0.010667178542259535 0.07038942129064911 0.18910760191468728 0.032152017530743371 0.1022289212625228 0.069286270705288686 0.14404547177508131 0.10716510668420623 0.15995131501757001 0.079134084038246844 -0.018248516961710742 -0.096008165078281055 0.054518779897265758 0.20401443127157057 0.13984517284884843 0.19268747209491621 0.15380202106455254 0.11147237731039872 0.094218633065179289 0.096917860577364318 -0.06160414731143015 0.1190250145075559 0.15698701997914699 -0.11333025101840095 0.0019853146120485696 -0.11098182045188398 -0.140860277886283 -0.12283146722042287 -0.10831004765525912 -0.11316738786277734 -0.12246579291643374 -0.11896753549336103 -0.1091887111136845 -0.11779017662978682 -0.12275707144789097
leaf_weight=145.05093978345394 2.5750069394707671 12165.85880690068 1748.4528961181641 18.150735929608345 660.95163208246231 5587.7711192965508 7695.6123215183616 3623.7173735201359 520.63754948228598 50481.250749029219 1252.4426537901163 979.39700384438038 1953.1398319303989 408.5091582685709 584.27107644081116 512.64643023908138 62.162490218877792 310.62576973438263 315.50481916964054 714.75286030769348 2847.290529742837 83.204569339752197 152.76732042431831 4045.3618479669094 163.05232468247414 228.62357887625694 484.22200497984886 349.84476916491985 1471.7177731096745 32.431674897670746 371.16123297810555 254.50543186068535 3.4312340021133414 9.1065212190151197 5.0834582746028882 3.9593759402632704 4.6178534924983978 3.4841653406620061 3.0085828006267539 271.35597280412912 2.7821177914738646 3.1150868460535994 2.6383998095989218 93.194106586277485 3.7312196642160416 3.6360144317150116
leaf_count=650 15 38525 5013 67 1228 16831 26064 12501 2324 117132 5294 3705 4839 638 1543 1217 149 594 629 777 6118 365 569 10501 194 410 468 509 2693 70 749 886 8 18 55 28 55 18 21 3831 29 21 20 1218 30 25
internal_value=0 0.061225 0.0674256 0.0648653 0.0498709 0.0344659 0.0440961 0.0312514 -0.00225939 0.0685502 0.0467721 0.0702227 0.0554297 0.0909248 0.0714612 0.0280809 0.0568951 0.0487108 0.0981012 0.107011 0.0953507 0.0365939 0.0232794 0.0631395 0.101353 0.0624403 0.158948 0.140313 0.120703 -0.0638486 0.0758283 -0.0359101 -0.100795 0.0310787 -0.0407706 -0.0845398 -0.109256 -0.124526 -0.108884 -0.108682 -0.12138 -0.115608 -0.118707 -0.108535 -0.120041 -0.121164
internal_weight=0 100225 64823.9 59830.3 35401.2 6468.41 27930.5 13092.4 4144.35 53361.9 8948.05 51460.6 14838.1 2361.65 7470.65 6100.42 5022.98 12476.5 4993.62 4361.77 3562.04 631.848 1901.22 4706.31 2447.66 812.895 799.727 367.996 1634.77 177.483 454.366 316.668 415.719 25.0648 15.9582 12.527 390.654 8.56762 379.023 372.283 11.6315 7.73294 9.05653 364.55 6.7398 6.27441
internal_count=268644 263252 154869 145043 108383 18624 90779 46183 14825 126419 31358 120837 44596 5477 17604 18048 12764 39119 9826 7992 6895 1834 5582 11729 4840 1953 1097 576 2887 720 1114 1035 5392 127 109 101 5265 73 5176 5125 89 76 74 5049 51 45
is_linear=0
shrinkage=0.1


Tree=9
num_leaves=55
num_cat=0
split_feature=76 128 131 31 130 93 75 30 101 0 105 116 75 34 115 38 102 31 115 129 18 73 104 0 76 57 86 89 32 117 91 85 129 76 118 29 90 123 51 60 124 116 116 122 55 99 79 87 58 75 44 104 8 2
split_gain=928.532 512.467 542.845 907.52 546.164 369.602 400.647 361.65 697.877 475.04 281.988 268.792 386.659 265.845 237.577 230.812 213.612 148.635 137.992 219.569 133.845 130.093 177.93 132.962 121.745 109.452 98.6229 87.0202 85.2872 75.42 59.936 58.3167 55.9572 53.91 88.0385 59.9653 45.9113 45.6456 85.1908 58.0467 40.5377 25.2605 20.4206 17.4111 13.7275 12.1127 6.05429 30.6326 29.9357 0.337419 0.111727 0.0810312 0.0462764 0.0112235
threshold=-1.2581348419189451 1.0000000180025095e-35 1.0000000180025095e-35 1.0096492171287539 1.0000000180025095e-35 -1.0065039992332456 -1.0582414865493772 1.0818403363227846 -0.86886650323867787 0.45831817388534551 -0.89160883426666249 -0.92075029015541066 -1.119246184825897 0.86941123008728038 -0.93622180819511402 0.98338168859481823 -0.81893306970596302 0.99277651309967052 -0.87965473532676686 1.0000000180025095e-35 1.3902668952941897 -0.91224491596221913 -0.87716370820999134 0.49991586804389959 -1.2799993753433225 0.76588329672813427 -1.3786588907241819 -1.3113841414451597 0.96144393086433422 -0.93650397658348072 -1.1655300855636594 -1.3902845978736875 1.0000000180025095e-35 -1.2423180937767027 -0.91514831781387318 1.0682458281517031 -1.2431730628013609 -1.1420536637306211 1.0962429046630862 0.72936487197875988 -1.1272506117820738 -0.89392480254173268 -0.93249329924583424 -1.0445790886878965 0.99104112386703502 -0.86316245794296254 -1.3759312033653257 -1.3213881850242613 0.77176350355148327 -1.2076698541641233 0.68167626857757579 -0.87716370820999134 0.72355142235755932 0.67430534958839428
decision_type=2 2 2 2 2 2 2 2 2 2 2 2 2 2 2 2 2 2 2 2 2 2 2 2 2 2 2 2 2 2 2 2 2 2 2 2 2 2 2 2 2 2 2 2 2 2 2 2 2 2 2 2 2 2
left_child=13 2 4 10 7 15 -7 8 -2 -9 20 12 29 45 17 -6 -12 -14 19 40 -4 23 -23 -5 27 43 36 32 -29 42 -16 -31 -20 34 -27 -35 -21 38 -26 -39 41 -15 -3 -13 -28 46 49 48 -48 53 -45 -49 -51 -1
right_child=1 11 3 21 5 6 -8 9 -10 -11 16 25 14 18 30 -17 -18 -19 24 26 -22 22 -24 -25 37 33 44 28 -30 31 -32 -33 -34 35 -36 -37 -38 39 -40 -41 -42 -43 -44 50 -46 -47 47 51 -50 52 -52 -53 -54 -55
leaf_value=-0.11420494286781242 0.08243456581889938 -0.13086568501835055 0.074324522605682591 -0.14040078609504875 0.047326625840662939 -0.098441246157537812 0.021515482353940626 -0.024290840621839657 0.058653889765688708 0.050940634631918572 0.00076524836571964636 0.080593586459951475 -0.0050811597136495336 -0.11474584123326957 0.031827262885545098 0.13180607431900165 -0.067599660169213177 0.032196246222884105 -0.011434795570372115 0.070700481153114517 -0.0090136020235425645 0.1262317749170308 0.065743331477841643 0.047685753851298696 0.17061368829738294 0.017344399839060051 0.11341308451700134 -0.092816974000886565 0.25782082501835912 0.13434054800047168 0.10184010880189423 -0.04813173964944132 0.10193779127110279 -0.0029665217281496133 0.14369414098994915 0.13023654796805129 -0.15341418561217524 0.055500722318543985 0.022739304168045732 -0.035288127179837862 0.24242942823735839 -0.056069312115590832 -0.069461952798245505 -0.115557108248956 0.23143906974217598 0.18836100544832907 0.1857655877218829 -0.13071605749884582 -0.12215677686465383 -0.13078319765394525 -0.13808888284421586 -0.1201307848621614 -0.1177636087741816 -0.10745732792385783
leaf_weight=2.4895866662263861 16220.867672108114 166.51920428872108 697.87044607102871 46.855323642492294 4947.5702635273337 302.64999458938837 3478.9271196946502 923.85670913755894 51585.020315393806 9173.2616261690855 2974.1201180666685 4.3785274475812939 1605.0061409920454 191.40901955962181 163.41680970788002 346.03075912594795 540.03419543802738 3206.534889087081 165.466418877244 21.256989017128944 266.2333047837019 784.28200867772102 1279.9228567630053 189.95844852924347 78.322681486606598 167.41729490458965 14.465006723999975 157.21836970746517 7.2571179866790763 22.128693148493767 485.65731212496758 83.997176498174667 59.079263173043728 37.208225846290588 82.235663503408432 368.57922683656216 16.036539524793625 279.62793869525194 77.51707860827446 94.128267124295235 3.6617036759853354 118.97276051342487 80.266820684075356 2.4436459913849857 30.917901024222374 1.4299314096570004 7.6917501837015134 12.913743376731871 5.3555215150117874 3.0773522406816509 22.13856303691864 16.436345055699352 24.187573060393333 250.21922909095883
leaf_count=23 33376 855 1853 210 14761 1408 11249 2811 123980 22737 11297 14 6544 1158 517 981 3879 11636 844 54 922 1358 3212 489 182 587 34 1125 14 51 1263 353 195 133 207 921 72 1167 266 389 5 629 347 21 37 4 30 75 38 18 112 127 199 3875
internal_value=0 0.0550024 0.0568846 0.0296295 0.0590089 0.0357919 0.011915 0.0617136 0.0643428 0.0440572 0.00340288 0.0278446 0.0208662 -0.0208749 0.0274225 0.0528489 -0.00974066 0.0197615 -0.00089349 -0.0501806 0.051311 0.0806719 0.0887255 0.0104715 0.0203919 0.0871215 0.0948127 -0.022084 -0.0773459 -0.080579 0.084213 -0.0100838 0.0183942 0.0955276 0.058964 0.118023 -0.0256708 0.0515932 0.0970587 0.0326361 -0.0883521 -0.0922545 -0.110894 -0.103125 0.19382 -0.102043 -0.103331 -0.068115 0.0593725 -0.108664 -0.135849 -0.124788 -0.119233 -0.107524
internal_weight=0 100255 93757.5 6779.28 86978.2 9075.18 3781.58 77903 67805.9 10097.1 4478.26 6497.93 5813.53 1639.14 5460.62 5293.6 3514.15 4811.54 1315.34 396.72 964.104 2301.02 2064.2 236.814 918.617 684.401 82.6764 389.021 164.475 352.912 649.074 106.126 224.546 655.44 249.653 405.787 37.2935 529.596 155.84 373.756 314.043 310.382 246.786 28.9607 45.3829 323.801 322.371 42.3974 13.0473 279.974 24.5822 29.3501 27.2649 252.709
internal_count=268644 258084 234523 23220 211303 28399 12657 182904 157356 25548 17951 23561 21566 10560 19960 15742 15176 18180 6171 1989 2775 5269 4570 699 4182 1995 197 2178 1139 1606 1780 404 1039 1848 794 1054 126 2004 448 1556 1792 1787 1202 147 71 4389 4385 270 68 4115 133 202 217 3898
is_linear=0
shrinkage=0.1


Tree=10
num_leaves=47
num_cat=0
split_feature=113 76 134 102 5 89 114 73 0 119 135 31 32 101 74 122 110 62 129 29 100 93 135 35 99 91 53 99 40 114 100 33 43 76 122 102 20 120 108 75 32 79 75 127 75 31
split_gain=758.133 570.73 770.377 1369.93 709.463 592.362 586.761 580.67 509.877 491.543 460.594 791.684 777.945 423.587 402.563 363.443 328.72 345.801 277.693 271.643 412.979 242.384 220.435 207.918 189.415 170.908 148.817 148.038 404.668 120.404 113.877 113.557 42.0847 17.7572 3.32744 0.141744 0.0738314 0.0292153 0.0263346 0.0168392 0.0106086 0.0102441 0.00570759 0.00424135 0.00377291 0.00235724
threshold=-0.81457293033599842 -1.1644287705421446 1.0000000180025095e-35 -0.85865887999534596 0.65565776824951183 -1.1675739884376524 -0.9793543517589568 -0.89828222990036 0.40645590424537664 -1.642493665218353 1.0000000180025095e-35 0.99001869559288036 0.9274483621120454 -0.84384542703628529 -1.0322639346122739 -1.2022923231124876 -1.200631260871887 0.75768873095512401 1.0000000180025095e-35 1.1854620575904848 -0.93568021059036244 -1.1101346611976621 1.0000000180025095e-35 0.9082622528076173 -0.96748831868171681 -0.25993055105209345 1.0706614851951601 -0.92351052165031422 0.93062093853950512 -0.95934146642684925 -0.88213422894477833 0.86173084378242504 1.0126345753669741 -1.3105170130729673 -0.99801823496818531 -1.0709146857261655 1.7304682135581972 -0.57362511754035939 -0.81796950101852406 -1.180977940559387 0.95294010639190685 -1.3951748609542844 -1.2076698541641233 0.68515142798423778 -1.1750839352607725 0.99402892589569103
decision_type=2 2 2 2 2 2 2 2 2 2 2 2 2 2 2 2 2 2 2 2 2 2 2 2 2 2 2 2 2 2 2 2 2 2 2 2 2 2 2 2 2 2 2 2 2 2
left_child=1 2 5 27 13 14 9 19 23 16 12 -12 -11 -5 24 -10 25 -18 29 22 -21 -16 -8 -9 -1 -3 -20 31 -29 -7 -6 -4 35 34 -34 38 37 39 -2 -37 45 44 -39 -38 -40 -36
right_child=32 6 3 4 30 18 7 8 15 10 11 -13 -14 -15 21 -17 17 -19 26 20 -22 -23 -24 -25 -26 -27 -28 28 -30 -31 -32 -33 33 -35 40 36 43 42 41 -41 -42 -43 -44 -45 -46 -47
leaf_value=0.025128699969117204 -0.12862071879666387 0.055279469781052082 0.08152905636844672 0.10031165078694491 -0.010590897657362569 -0.097524943419723384 0.0107086724831082 -0.032716561594285758 0.13800979272038436 0.027850603443549251 0.098275482606605152 0.026710373094085527 0.052942812428916991 -0.048032348145777566 0.063829479032064054 0.085768250714350375 0.12309866932728718 0.021968817757486818 -0.087031232716746815 0.043602071206208681 -0.073516607847837701 0.033039330591906294 0.17440652959301869 0.055816985738539798 -0.027793977997579673 -0.059144062920687884 0.13380004629561998 -0.050172963443554985 0.13925235749833192 -0.013583218706438031 -0.13177402843668637 0.16862251869188427 0.0036300832196733582 0.099454254734111638 -0.10973737284090153 -0.10927495617804556 -0.12106672238030623 -0.10669956363741173 -0.11004244340668159 -0.11935087531781728 -0.12025503120491757 -0.12060346694623883 -0.10768191042149243 -0.1157874899467724 -0.11580040593407744 -0.11431913500778415
leaf_weight=1259.6926527544856 2.2885916158556929 826.77279162406921 174.15238811075687 616.40922504663467 101.94502729177475 550.81161644309759 120.75333951413631 318.52372145652771 1805.2898474484682 19643.516714163125 4150.6387287974358 2463.0910761356354 33304.242665193975 279.88910119235516 3019.3295101001859 5076.2573879212141 1989.6328431069851 407.34012779593468 41.697534695267677 3460.6632192581892 329.76536950469017 16686.438538230956 258.05848322808743 1586.3928350582719 1460.2342725545168 155.01072192192078 113.80150391161442 144.41396504640579 514.80926188826561 247.73030324280262 323.9759621322155 1066.5147468596697 3.7510364726185799 14.372498743236063 2.998004727065565 3.8653922490775585 2.7723817303776732 225.4036145620048 1.9248971492052067 2.9053136184811583 1.9171357899904249 3.4765945300459853 80.186573095619678 3.3737237229943275 2.7836989536881447 1.7953301072120664
leaf_count=3926 14 1883 319 1362 338 2436 356 1116 3226 52054 7996 6158 82264 1074 8269 10231 2706 1104 147 8830 1092 49313 318 4407 6663 732 202 443 764 794 1484 1245 23 32 40 54 21 3831 25 22 15 26 1218 30 24 17
internal_value=0 0.0484179 0.0358138 0.0816538 0.0034926 0.0294962 0.0528356 0.0722157 0.086799 0.0488464 0.0467416 0.0716231 0.0436337 0.0539879 0.0327794 0.0994732 0.0859504 0.105913 -0.0476763 0.0414821 0.0334128 0.037757 0.122225 0.0410132 -0.00328365 0.0372135 0.0745835 0.13605 0.0977555 -0.0714838 -0.102769 0.156397 -0.0982155 0.0273111 -0.0718025 -0.107691 -0.107315 -0.107101 -0.119138 -0.113599 -0.113968 -0.116486 -0.106957 -0.118169 -0.113447 -0.111453
internal_weight=0 102498 26601.8 3222.11 1322.22 23379.7 75895.9 12955.7 8786.46 62940.2 59561.5 6613.73 52947.8 896.298 22425.7 6881.55 3378.76 2396.97 954.041 4169.24 3790.43 19705.8 378.812 1904.92 2719.93 981.784 155.499 1899.89 659.223 798.542 425.921 1240.67 353.815 24.834 10.4615 328.981 318.507 312.361 10.4738 6.77071 6.71047 8.18519 305.59 6.14611 4.7086 4.79333
internal_count=268644 263252 78779 7029 4258 71750 184473 29576 18980 154897 148472 14154 134318 2436 68171 13457 6425 3810 3579 10596 9922 57582 674 5523 10589 2615 349 2771 1207 3230 1822 1564 5392 127 95 5265 5176 5125 89 76 72 75 5049 51 49 57
is_linear=0
shrinkage=0.1


Tree=11
num_leaves=53
num_cat=0
split_feature=76 119 103 5 70 134 32 102 131 133 36 62 100 79 120 110 92 35 98 5 16 71 129 117 32 101 38 58 99 85 124 52 96 43 48 31 134 76 31 99 127 70 106 79 111 34 93 89 110 106 6 30
split_gain=641.671 407.292 462.57 1469.08 636.679 745.363 540.818 512.677 491.301 421.083 458.299 389.714 389.603 287.029 263.365 323.268 238.168 237.592 235.439 196.406 147.45 134.022 112.054 199.149 129.452 110.033 84.7073 81.4905 73.2675 72.2457 75.6908 75.4252 67.7887 63.314 56.8875 53.837 42.3414 41.6173 41.1221 36.3934 32.7145 95.1434 28.6216 28.3968 24.5266 2.44392 1.8417 1.40991 17.1932 1.28517 0.713289 0.0836905
threshold=-1.2544192075729368 -1.642493665218353 -0.8314240276813506 0.61621016263961803 -0.31691472232341761 1.0000000180025095e-35 0.95137408375740062 -0.85696396231651295 1.0000000180025095e-35 1.0000000180025095e-35 0.90043550729751598 0.73312455415725719 -0.84929022192955006 -0.43389479815959925 -1.7368787527084348 -1.204893887042999 -0.21237213164567945 0.85387197136878978 -0.42459841072559351 0.64054906368255626 1.0400527119636538 -0.23772059381008145 1.0000000180025095e-35 -0.90159705281257618 0.95625928044319164 -0.82111144065856922 0.90734997391700756 0.9045194983482362 -0.96091818809509266 -1.4015440344810484 -1.2542920708656309 1.0835603475570681 -1.049671411514282 1.0565155148506167 1.1805064082145693 0.88374853134155285 1.0000000180025095e-35 -1.2622863650321958 0.99987882375717174 -0.88683456182479847 -3.1592253446578975 -0.11861247196793555 -0.79011735320091236 -0.41864664852619166 -1.2639293074607847 0.86288487911224376 -1.103807210922241 -1.2925786972045896 -0.84159514307975758 -0.92378965020179737 0.60549470782279979 1.0748081803321841
decision_type=2 2 2 2 2 2 2 2 2 2 2 2 2 2 2 2 2 2 2 2 2 2 2 2 2 2 2 2 2 2 2 2 2 2 2 2 2 2 2 2 2 2 2 2 2 2 2 2 2 2 2 2
left_child=17 13 4 8 5 7 -7 -3 11 20 -11 -4 19 34 15 27 -17 36 21 -5 -6 -16 23 37 28 -10 -14 -15 -25 30 42 39 -26 -32 35 -2 45 50 -39 -31 41 -36 -24 -20 -42 47 -33 48 -1 -37 -19 -49
right_child=1 2 3 12 9 6 -8 -9 25 10 -12 -13 26 14 18 16 -18 22 43 -21 -22 -23 29 24 32 -27 -28 -29 -30 31 33 46 -34 -35 40 49 -38 38 -40 -41 44 -43 -44 -45 -46 -47 -48 51 -50 -51 -52 -53
leaf_value=0.28456783216235654 0.12601495816526589 0.043951201888869536 0.042026898673076081 0.0078626960503469165 0.030668743085729845 0.090522636570931 -0.045277172937285233 0.012286522041393595 -0.00033633814139857069 0.057435333118846355 0.13294894482047331 -0.019556781033832571 0.11998040335674219 -0.089697274852723788 -0.067386680850290245 0.12919658950557075 0.047005085541672098 -0.10748862608125156 0.046443876750383278 -0.096916967118362549 0.065024640738323786 0.059608039442150068 0.096048715159703854 0.065515723650726984 0.18870979127468987 -0.065422414993938777 -0.11935049020748215 0.022757454395284815 -0.034432926029830599 0.076132351417246488 -0.011979880137309199 0.19451537382775508 0.041697604510391999 0.11936351002235131 -0.18262470817582732 -0.15401062934628523 0.36532136515818314 -0.013579823397454394 -0.11033225950423345 -0.16700652630992163 0.10052662557887158 0.12942745966776847 -0.11531874978074302 -0.1290826062572801 0.15519290442292796 -0.041298409705167488 0.23783966428430908 -0.11878945261284693 -0.10643674658024956 -0.22616401882477288 -0.12785544989047798 -0.12847170275505188
leaf_weight=1.1304014101624478 10.925363257527353 32729.866827204823 40497.973025038838 770.44473264366388 1597.7571301013231 4341.3098712265491 314.50531539320946 6059.9134836047888 599.14730748534203 1405.0716986507177 1877.8503530621529 1054.3290778547525 15.120015189051626 83.877397209405899 100.84613764286041 1045.6875948607922 531.88417653739452 20.238072343170643 10.030053690075873 232.9979306012392 5726.8990268483758 472.26056209206581 7.4265687912702552 85.692361198365688 34.67127713561058 458.52685697376728 674.43678165972233 278.06433141231537 508.92028736695647 74.389518909156322 75.218068964779377 15.77537865936756 328.95184706151485 71.673369526863098 11.962399661540983 4.3722275197505951 1.9189546108245839 111.6833898127079 72.410825818777084 6.7116474211215964 97.259492784738541 53.327929243445396 46.639828413724899 113.68668952584267 525.61061003804207 5.6927066817879668 25.95610710978508 13.814607396721838 218.70942352712154 5.6696938872337324 114.38521775603294 25.234749540686607
leaf_count=2 16 79162 105751 2558 4280 8133 1036 16550 2758 3030 2879 3679 32 400 320 1301 1300 112 22 1064 13437 899 16 375 76 3274 2973 879 2908 204 307 19 1231 145 45 20 2 510 432 28 159 64 190 484 493 34 23 114 3986 23 751 158
internal_value=0 0.0438635 0.0426964 0.0351214 0.048905 0.0435423 0.0813492 0.0390044 0.0387511 0.0708691 0.10063 0.0404643 -0.0562339 0.0781767 0.0629854 0.0819303 0.101485 -0.0152935 0.0102547 -0.016467 0.0575304 0.0372615 -0.00073883 -0.0140617 0.00871382 -0.0285527 -0.114103 -0.00330312 -0.0200289 0.0518034 0.0148735 0.112222 0.0557151 0.0521071 0.134654 -0.0276093 -0.102717 -0.0825371 -0.051636 0.056011 0.139598 0.0722537 -0.0862853 -0.114852 0.146657 -0.106111 0.221462 -0.107536 -0.104426 -0.194749 -0.124794 -0.125046
internal_weight=0 101702 98356.1 44303 54053.2 43445.6 4655.82 38789.8 42610 10607.6 3282.92 41552.3 1693 3345.46 2636.34 1939.51 1577.57 1867.24 696.823 1003.44 7324.66 573.107 1600.74 1276.95 958.236 1057.67 689.557 361.942 594.613 323.79 200.958 122.833 363.623 146.891 709.128 20.9673 266.501 318.718 184.094 81.1012 688.16 65.2903 54.0664 123.717 622.87 264.582 41.7315 258.889 219.84 10.0419 134.623 39.0494
internal_count=268644 257021 250596 122089 128507 104881 9169 95712 115462 23626 5909 109430 6627 6425 5605 3880 2601 11623 1725 3622 17717 1219 7327 6395 4590 6032 3005 1279 3283 932 658 274 1307 452 820 59 4296 1805 942 232 761 109 206 506 652 4294 42 4260 3988 43 863 272
is_linear=0
shrinkage=0.1


Tree=12
num_leaves=47
num_cat=0
split_feature=51 77 114 73 135 104 134 5 130 76 76 132 113 118 62 33 30 37 72 108 81 123 98 80 114 30 30 31 20 53 30 98 94 109 75 110 81 123 112 115 116 111 118 99 73 100
split_gain=553.46 476.379 566.112 750.858 429.35 594.017 896.074 713.198 421.154 350.995 342.197 340.622 330.926 325.047 371.985 308.673 293.201 245.421 242.415 199.436 191.352 192.455 176.929 145.165 137.841 134.463 119.427 100.413 92.6576 82.9966 55.2397 44.6736 39.4034 17.9692 16.5993 16.2358 11.2423 9.96927 14.5326 33.8659 9.76185 5.35802 4.13847 2.87434 0.110041 0.0849937
threshold=0.74922025203704845 -1.2113175988197324 -0.98994034528732289 -0.89479440450668324 1.0000000180025095e-35 -0.84943380951881398 1.0000000180025095e-35 0.65973398089408886 1.0000000180025095e-35 -1.1276364326477049 -1.189991235733032 1.0000000180025095e-35 -0.96468904614448536 -1.5642046928405759 0.75768873095512401 0.90294679999351513 1.0640833377838137 0.86325791478157055 -0.72479039430618275 -0.89515885710716236 -1.3060006499290464 -1.5759824514389036 -0.93821799755096424 -1.2894077897071836 -0.95111319422721852 1.0768429040908816 1.0739861726760866 0.98002299666404735 1.2139199376106264 1.1033508181571963 1.0648258328437807 -0.94903665781021107 -1.0044769644737241 -0.8972988724708556 -1.0496798157691953 -0.93153774738311756 -1.0740192532539365 -1.0200144052505491 -0.91624912619590748 -0.93327108025550831 -0.90804174542427052 -0.84023895859718312 -0.87633940577507008 -0.9113207459449767 -0.89828222990036 -0.93568021059036244
decision_type=2 2 2 2 2 2 2 2 2 2 2 2 2 2 2 2 2 2 2 2 2 2 2 2 2 2 2 2 2 2 2 2 2 2 2 2 2 2 2 2 2 2 2 2 2 2
left_child=26 4 8 11 5 6 18 17 13 12 27 16 -5 14 -3 -15 -4 -7 -2 25 28 -22 -8 -21 -9 -12 35 30 -10 -11 -6 32 33 -28 -35 36 -1 44 39 -39 -29 -40 -13 -33 45 -37
right_child=1 2 3 9 10 7 22 24 20 29 19 42 -14 15 -16 -17 -18 -19 -20 23 21 -23 -24 -25 -26 -27 31 40 -30 -31 -32 43 -34 34 -36 37 -38 38 41 -41 -42 -43 -44 -45 -46 -47
leaf_value=-0.076813163468151119 0.010206381008744783 0.07506362367200857 0.099755394752897436 0.047631665855169952 0.16365864187118481 0.21840364206260646 0.12937370622935596 -0.13422851701152258 0.20519486532050835 0.12790276050901703 0.051273509119341323 -0.17560975243433355 0.092707876712913487 0.031422746120934424 -0.0087691448976330074 0.047385856937685322 0.02680067338243371 0.024733789813189168 0.047331829569349143 -0.076643105485971141 0.055740317482988133 -0.0077891576707923189 0.066453952399280508 0.04514048871280528 -0.043556604241427543 -0.10060335772795981 -0.11729950532804355 -0.16097388358281792 0.049111259617258152 -0.072720760717254487 -0.057748129971602662 -0.16902806206432064 0.17629316640492629 -0.03454292132847573 0.14381472756251415 -0.18028943601220704 0.09211315909297936 -0.11116566362292793 -0.17140190538614425 0.090112051614298125 -0.11394974176090736 -0.10642199468786161 -0.079954779480592 -0.068967346310337449 -0.1858636008633604 -0.16385487917253727
leaf_weight=8.9968886226415652 2516.5610001385212 4537.9993375688791 627.6348971426487 3107.1976607590914 14.148188993334768 65.645867623388767 1421.6996377110481 228.08824202418327 66.078194603323936 1466.7128395885229 76.045885860919952 76.970117136836052 3422.776788406074 26076.923336274922 599.18121384084225 22621.58596354723 4504.8101570755243 20042.681308608502 5841.0477531701326 114.23209013044834 565.10867165029049 3053.0473462045193 651.81394256651402 683.65701791644096 632.84861381351948 249.71074737608433 8.4865432828664762 178.60236404836178 89.61375817656517 20.9144107401371 55.365344017744064 7.2337781935930252 24.961021885275844 10.36159907281399 10.51159620285034 4.9046223014593133 7.0087454468011847 24.713030517101288 13.34601856023073 12.632277742028235 58.640282794833183 257.97353846952319 4.8053616881370536 4.7598988711833936 6.1339266002178183 8.7801950722932816
leaf_count=29 7873 8809 1140 7281 20 113 1860 1094 126 2271 160 317 6305 63889 1849 52999 11588 61507 14097 371 1437 9756 1231 1590 3161 903 31 735 265 76 180 30 34 31 16 20 13 95 56 25 241 4926 16 16 25 37
internal_value=0 0.0387675 0.0433822 0.062035 0.02881 0.0312508 0.0507518 0.02155 0.0390979 0.0812456 -0.0247701 0.0324959 0.071259 0.0413617 0.0652857 0.038838 0.0357221 0.025366 0.036153 0.000785754 0.00680436 0.00213332 0.109595 0.027705 -0.0675783 -0.0651486 -0.0775339 -0.118381 0.115356 0.125082 -0.0126849 0.0453567 0.0839236 0.00539293 0.0552768 -0.10119 -0.00284161 -0.105983 -0.101568 -0.0430823 -0.149351 -0.109618 -0.169989 -0.129317 -0.174734 -0.169745
internal_weight=0 103672 70841.4 13231.8 32830.8 31400.4 10431.1 20969.3 57609.5 8017.6 1430.4 5214.22 6529.97 53835.7 5137.18 48698.5 5132.45 20108.3 8357.61 1123.65 3773.85 3618.16 2073.51 797.889 860.937 325.757 410.804 306.756 155.692 1487.63 69.5135 66.3144 54.3208 29.3597 20.8732 344.489 16.0056 328.484 308.665 37.3453 237.243 271.32 81.7755 11.9937 19.8187 13.6848
internal_count=268644 263260 168124 28994 95136 90936 25061 65875 139130 15933 4200 13061 13586 127546 10658 116888 12728 61620 21970 3024 11584 11193 3091 1961 4255 1063 5384 1176 391 2347 200 158 112 78 47 5226 42 5184 5102 120 976 4982 333 46 82 57
is_linear=0
shrinkage=0.1


Tree=13
num_leaves=45
num_cat=0
split_feature=113 128 130 131 31 31 30 103 0 125 117 105 85 30 70 77 112 69 101 76 84 59 30 104 69 6 116 53 56 107 4 43 100 77 32 73 20 104 76 136 71 75 121 21
split_gain=461.445 401.198 357.92 409.346 694.915 292.587 269.272 606.428 458.777 188.082 231.495 188.016 140.839 135.93 189.677 139.599 131.58 129.927 266.29 117.404 209.223 100.278 94.454 93.9393 193.57 87.1718 79.2253 66.1187 59.9902 39.3413 38.6859 38.0039 34.7824 14.8888 10.2863 0.12037 0.105732 0.0692249 0.0150337 0.0155091 0.0123905 0.00604604 0.00283413 0.000256036
threshold=-0.81457293033599842 1.0000000180025095e-35 1.0000000180025095e-35 1.0000000180025095e-35 1.0107172727584841 1.0000851154327395 1.0760107040405276 -0.85288435220718373 0.44766291975975042 -1.2998313903808592 -1.0047035217285154 -0.89160883426666249 -1.3487986326217649 1.0331466794013979 -0.17733586579561231 -1.278802692890167 -0.90710604190826405 -0.071866132318973527 -0.81568911671638478 -1.0196811556816099 -1.2852139472961424 0.90471747517585765 1.1106632351875307 -0.7704690396785735 -0.043153880164027207 0.61636030673980724 -0.921930432319641 1.0750238895416262 0.90296053886413585 -0.82253772020339955 0.53632831573486339 1.0126345753669741 -0.75143480300903309 -1.3864854574203489 0.95248925685882579 -0.85226166248321522 1.656272888183594 -1.0077357292175291 -1.2257909774780271 1.0000000180025095e-35 -0.25734765827655787 -1.2076698541641233 -0.93181437253952015 1.7117082476615908
decision_type=2 2 2 2 2 2 2 2 2 2 2 2 2 2 2 2 2 2 2 2 2 2 2 2 2 2 2 2 2 2 2 2 2 2 2 2 2 2 2 2 2 2 2 2
left_child=1 2 3 6 11 19 7 -1 -8 10 -7 -5 17 14 27 26 -17 18 25 20 -4 -21 -6 29 -25 -3 -15 -14 -11 -19 -20 36 -16 34 35 42 37 -2 -38 43 41 -39 -33 -40
right_child=31 12 5 4 22 9 8 -9 -10 28 -12 -13 13 15 32 16 -18 23 30 21 -22 -23 -24 24 -26 -27 -28 -29 -30 -31 -32 33 -34 -35 -36 -37 38 40 39 -41 -42 -43 -44 -45
leaf_value=0.058517510788289852 -0.11967349399412697 0.075635330421037927 0.019494143190241009 0.033908741153106728 0.067837294050345387 0.01894929553684465 -0.020515145906734991 0.037147848191672321 0.034649261815133836 0.014615845798112523 0.064702154168962314 -0.01364296941054273 -0.11043663385537528 -0.093965995397262581 0.039656028220762279 0.012814625922797064 0.086621309751099218 0.15713513877463495 0.01864439780290069 0.052370833808476361 -0.024070059038344485 -0.089888424428771596 -0.10501101318459356 -0.081038950679946375 0.056994027080864255 0.0096716406263914947 0.039063902087601327 -0.039345924075305246 -0.071333953757664714 0.076281222717603625 -0.11232448303615417 -0.11396237984879364 -0.0094689691081184784 0.1228269064825647 0.046202186295473568 -0.13719224608625655 -0.10827659602234355 -0.10490821352660291 -0.11487819259833157 -0.12264522624769281 -0.11672633065597382 -0.10603619519757534 -0.10887673907522888 -0.11346298561293727
leaf_weight=18566.701200857759 3.3816159889101973 295.9627483561635 2030.0654356554151 1042.8845562785864 1996.8538695201278 2229.7311696112156 1705.1729342490435 46633.55866330117 13010.952221788466 137.83885274082422 2194.0414364114404 4102.3231500461698 159.28807926177979 178.05902060866356 369.14831228554249 2936.5585649162531 263.19390997290611 69.226003870368004 25.846631392836571 612.19496820867062 2412.5703567564487 53.913679733872414 32.123350501060486 126.23663958907127 520.46478545665741 620.06788133084774 59.803663358092308 732.2103256136179 197.65056326985359 460.48825198411942 177.021953381598 1.6306748092174528 236.44949425756931 9.4689943045377714 7.4188866019248962 2.5722584500908869 2.3113668970763674 172.15791589766741 2.0838264524936658 3.386256068944931 0.93949585407972236 65.635646246373653 3.3406980708241463 3.3074012100696564
leaf_count=37481 28 780 7008 2861 4208 6471 4739 110998 30481 408 5511 16734 744 866 1217 10238 716 147 86 1482 8377 237 138 517 1414 2427 199 3019 852 1146 880 16 870 18 32 14 36 3867 19 23 8 1252 47 32
internal_value=0 0.0346816 0.0363761 0.0384213 0.0155395 0.0183264 0.0404754 0.0432332 0.0282573 0.0361666 0.0416412 -0.00400469 0.0119572 0.00243845 -0.0227111 0.0133912 0.0188856 0.0324217 0.00802602 0.00170661 -0.00416337 0.0408566 0.0651007 0.0556247 0.0300499 0.030984 -0.0605195 -0.052048 -0.0360207 0.0868477 -0.0956383 -0.0944108 0.0204757 0.0246961 -0.0374058 -0.119631 -0.105903 -0.105466 -0.115452 -0.117341 -0.105265 -0.10522 -0.110545 -0.11401
internal_weight=0 104189 96958.6 87090.6 7174.18 9868.01 79916.4 65200.3 14716.1 4759.26 4423.77 5145.21 7230.03 4934.71 1497.1 3437.62 3199.75 2295.31 1118.9 5108.74 4442.64 666.109 2028.98 1176.42 646.701 916.031 237.863 891.498 335.489 529.714 202.869 277.635 605.598 24.4315 14.9625 7.54363 253.204 242.115 11.0889 8.77748 238.733 237.794 4.97137 5.39123
internal_count=268644 263252 237986 207640 23941 30346 183699 148479 35220 13242 11982 19595 25266 17869 5850 12019 10954 7397 4173 17104 15385 1719 4346 3224 1931 3207 1065 3763 1260 1293 966 5392 2087 127 109 77 5265 5155 110 74 5127 5119 63 51
is_linear=0
shrinkage=0.1


Tree=14
num_leaves=63
num_cat=0
split_feature=76 134 102 89 4 5 136 81 114 54 28 70 111 74 79 114 101 0 102 123 129 75 91 115 39 53 125 76 114 50 129 113 103 89 93 33 73 109 31 41 116 31 88 110 32 35 126 132 29 80 31 50 69 98 89 104 101 68 121 108 29 6
split_gain=419.936 545.009 798.852 465.139 417.202 416.998 374.939 354.196 421.877 580.309 401.316 319.452 558.577 542.608 334.493 279.513 263.262 224.366 204.025 203.016 192.073 186.314 327.573 275.659 170.911 166.598 161.567 204.382 218.68 147.345 144.139 140.376 137.617 129.207 124.948 205.774 110.722 111.993 97.0845 96.195 92.5006 90.0753 73.2334 70.0767 67.5583 65.811 52.5096 46.5707 42.248 40.3849 37.72 34.3359 44.4033 37.3596 29.8247 25.5613 23.1301 50.2416 16.3308 8.47908 34.0593 3.60675
threshold=-1.170596122741699 1.0000000180025095e-35 -0.85865887999534596 -1.1783694624900816 0.72527137398719799 0.66261142492294323 1.0000000180025095e-35 -1.2397831082344053 -0.9793543517589568 0.99971145391464245 1.1819127202033999 -0.57223922014236439 -0.96189880371093739 -0.99097943305969227 -1.2003891468048093 -0.95358487963676442 -0.85152825713157643 0.34635296463966375 -0.9299354851245879 -1.2496208548545835 1.0000000180025095e-35 -1.1138423681259153 -1.1682797670364378 -0.9453451633453368 1.0265051722526553 1.0691529512405398 -1.7532319426536558 -1.151937663555145 -0.97454461455345143 1.0961499214172366 1.0000000180025095e-35 -0.94295024871826161 -0.93489748239517201 -1.1685574650764463 -1.1101346611976621 0.86252844333648693 -0.7108115255832671 -0.97725719213485707 1.0059598088264468 0.94375059008598339 -0.9910549223423003 0.99723911285400402 -1.231690466403961 -0.89501631259918202 0.94374439120292675 0.94218099117279064 -1.5727846622467039 1.0000000180025095e-35 1.1564003229141238 -1.3319385051727293 0.95683079957962047 0.98171141743659984 -0.35423335433006281 -0.97630828619003285 -1.1932297348976133 -0.91574445366859425 -0.86470317840576161 -0.065768141299486146 -1.1015639305114744 -0.87482708692550648 1.1449032425880434 0.68057250976562511
decision_type=2 2 2 2 2 2 2 2 2 2 2 2 2 2 2 2 2 2 2 2 2 2 2 2 2 2 2 2 2 2 2 2 2 2 2 2 2 2 2 2 2 2 2 2 2 2 2 2 2 2 2 2 2 2 2 2 2 2 2 2 2 2
left_child=1 3 34 4 21 16 7 8 9 10 -2 18 14 -14 -13 26 38 24 32 -19 31 22 -1 -23 -10 46 36 33 -29 -18 -11 45 -9 -28 59 48 44 -38 -4 -37 -27 -33 43 49 -8 -5 -22 -20 -36 -17 55 53 -53 -6 -52 -44 57 -7 -45 -3 -61 -58
right_child=6 2 5 20 51 56 15 11 17 30 -12 12 13 -15 -16 42 29 19 47 -21 25 23 -24 -25 -26 40 27 28 -30 -31 -32 41 -34 -35 35 39 37 -39 -40 -41 -42 -43 50 58 -46 -47 -48 -49 -50 -51 54 52 -54 -55 -56 -57 61 -59 -60 60 -62 -63
leaf_value=0.021078562453501242 -0.10453541162270825 0.15885640182318395 0.094580242409610576 -0.097776527897740009 -0.10395354451431521 -0.1398788289248431 0.086983744646790068 -0.016625827849590515 -0.065522399899190162 0.0090310360048876364 -0.0075357646955328096 0.0044200546494376517 0.038407856999422722 0.09656777706484293 0.036102046046720168 -0.11804462346419536 -0.07522576928308336 0.061567562657772947 -0.075018113302280184 0.026049200800361064 -0.14742006241480318 0.013803514732850226 -0.020380106935531467 0.046475162567534187 0.029425018312896952 0.14420222514717049 0.034683750814022987 0.0529878018874455 0.10920901731900322 0.10661480700603905 0.035457825987069251 -0.057685711492129067 0.04367530001827459 -0.037040461866488239 0.081969724232641872 0.059207895028014726 -0.024470414486442729 0.06776012356013944 -0.13411276257869992 0.11588602101722088 -0.09721174923421505 0.040255313382365036 0.093031829006481534 0.18483560240914487 -0.091988577294193685 0.044984055343318591 0.030167899975184355 0.13905623789308341 -0.14235504763388704 0.036546312818710236 0.10309826380064345 0.12060767584182613 -0.091900188474223085 0.080183041683140263 0.14532119352842021 -0.14084818869058993 -0.068439579246297177 0.0082701902903264748 0.07938369643564662 0.17587365390465814 0.069040313895616254 -0.13924715651509822
leaf_weight=6704.0273014716804 683.06659337133169 292.91172423958778 375.41409720480442 629.48817599564791 322.10853518918157 52.324587553739548 24.530666068196297 789.69205965846777 338.28503773361444 6227.4353796318173 1135.6779073774815 3623.5673970207572 3509.9502857774496 2954.3191088289022 41478.055857948959 19.626343220472336 240.61888313293457 3410.9911622107029 374.87393518537283 3046.5998958200216 43.865795373916626 5651.2160727158189 2662.7610647007823 4755.622153557837 431.2953125834465 113.09060131013393 1202.6678938418627 4851.4255362600088 806.9145133793354 54.688845425844193 3087.0255142301321 211.80027233064175 726.76153465360403 317.45957545936108 10.290210887789724 474.80074372887611 246.12337625026703 283.08279471099377 19.528436452150345 810.81322056055069 18.462678745388985 168.69288243353367 9.8660643547773379 37.053944900631905 150.438416197896 34.037008300423622 26.835861936211586 10.445254266262053 45.59926150739193 121.58699555695057 307.47025004029274 17.377705574035645 22.645857840776443 11.4087594486773 366.95002380013466 8.878034330904482 7.502173349261283 40.693855762481689 24.327868863940239 65.674643248319626 54.693530142307281 174.99778054654598
leaf_count=21986 2747 277 746 2677 4617 215 45 2303 1277 19606 3133 9554 8053 5159 96358 68 984 8421 2240 7246 174 16720 9002 11631 1248 168 2610 10006 1223 112 7169 731 1731 910 16 848 697 564 82 1120 64 467 18 34 496 121 63 16 153 262 499 38 98 28 479 35 38 128 48 77 94 914
internal_value=0 0.0192404 0.0613983 0.0138793 0.0175466 -0.0116449 0.0342817 0.0318975 0.0199141 0.00770098 -0.043966 0.0360125 0.0374969 0.0649883 0.0335566 0.0537907 0.0298698 0.0387279 -0.0042369 0.0448105 -0.0454067 0.0195244 0.00929282 0.0287335 -0.0123111 0.0437864 0.0477755 0.0522595 0.0610053 -0.0415502 0.0177895 -0.0626858 0.0122735 0.019705 0.101599 0.0867878 0.00206502 0.0248655 0.0832722 0.0949538 0.110321 -0.0142632 0.106725 0.0538359 -0.0668967 -0.0904533 -0.0800139 -0.069215 -0.101053 0.0150607 0.122183 -0.0871519 0.000367935 -0.0976547 0.126072 -0.0177441 -0.115651 -0.0750664 0.143041 0.149674 0.12733 -0.136336
internal_weight=0 24114 2720.55 21393.4 20147.2 965.769 80606.4 71828 18360.4 11133.2 1818.74 53467.7 51565.9 6464.27 45101.6 8778.4 690.25 7227.17 1901.77 6457.59 1246.27 19773.6 9366.79 10406.8 769.58 202.255 7882.64 7178.47 5658.34 295.308 9314.46 1044.02 1516.45 1520.13 1754.78 1341.5 704.175 529.206 394.943 1285.61 131.553 380.493 895.76 202.595 174.969 663.525 70.7017 385.319 55.8895 141.213 693.164 373.541 40.0236 333.517 674.42 18.7441 275.518 93.0184 61.3818 413.28 120.368 182.5
internal_count=268644 74389 5804 68585 64120 3219 194255 176261 50847 32655 5880 125414 119124 13212 105912 17994 1924 18192 6290 15667 4465 59339 30988 28351 2525 469 16551 14749 11229 1096 26775 3996 4034 3520 2585 2137 1802 1261 828 1968 232 1198 1443 412 541 2798 237 2256 169 330 1031 4781 136 4645 978 53 1295 343 82 448 171 952
is_linear=0
shrinkage=0.1


Tree=15
num_leaves=55
num_cat=0
split_feature=75 119 62 110 121 102 6 72 50 110 127 135 127 120 112 90 75 105 106 61 93 46 75 92 108 69 104 36 75 130 92 31 75 111 75 69 90 57 130 31 97 56 32 96 117 71 111 99 131 106 123 31 103 51
split_gain=360.138 317.502 365.92 353.955 342.937 384.414 1143.93 513.801 308.162 450.116 360.928 255.587 224.399 258.772 243.466 175.863 142.842 110.292 105.345 147.686 98.7932 94.9426 79.7331 117.498 51.375 33.3133 30.6491 30.8322 26.0424 25.3299 30.1708 37.1354 32.0659 14.1567 13.4375 12.1844 11.4421 37.3048 9.35342 25.4991 6.9764 6.13617 5.51089 12.0169 3.09729 0.708474 0.212467 0.0386949 0.00755165 0.00472485 0.00262865 0.00226407 0.00114829 0.000140491
threshold=-1.1750839352607725 -1.6475557088851926 0.73873808979988109 -1.204893887042999 -1.780475318431854 -0.82067853212356556 0.61339658498764049 -0.5931400954723357 1.1730116605758669 -1.1802362799644468 -3.085130929946899 1.0000000180025095e-35 -3.1592253446578975 -1.7425914406776426 -1.3103646636009214 -0.19030407071113584 -0.40534327924251551 -0.81060892343521107 -0.9093172252178191 0.77114352583885204 -0.32876479625701899 1.2158964276313784 -1.2076698541641233 -1.1920917630195615 -1.0762490630149839 0.072720881551504149 -0.87080645561218251 0.88120856881141674 -1.180977940559387 1.0000000180025095e-35 -1.2009152770042417 1.0066056847572329 -1.1894597411155698 -1.1343355178833006 -0.47106936573982233 1.0000000180025095e-35 -1.275547921657562 0.89059206843376171 1.0000000180025095e-35 1.0029571652412417 -0.53828424215316761 0.99373975396156322 0.94970610737800609 -1.0635581016540525 -0.86860084533691395 -0.2739399373531341 -0.79927310347557057 -0.93887823820114125 1.0000000180025095e-35 -0.79239016771316517 -1.0037125945091245 0.92552492022514354 -0.86200678348541249 0.74922025203704845
decision_type=2 2 2 2 2 2 2 2 2 2 2 2 2 2 2 2 2 2 2 2 2 2 2 2 2 2 2 2 2 2 2 2 2 2 2 2 2 2 2 2 2 2 2 2 2 2 2 2 2 2 2 2 2 2
left_child=22 3 4 18 8 7 -7 -6 9 -3 -10 16 13 15 -15 -5 17 -4 19 20 -2 -18 42 29 -21 34 27 28 -25 30 31 -24 -32 40 -20 -35 47 -38 44 -40 -13 -14 46 -44 -28 -43 48 -31 50 -45 -1 53 -50 -48
right_child=1 2 11 12 5 6 -8 -9 10 -11 -12 33 41 14 -16 -17 21 -19 25 24 -22 -23 23 26 -26 -27 38 -29 -30 36 32 -33 -34 35 -36 -37 37 -39 39 -41 -42 45 43 49 -46 -47 51 -49 52 -51 -52 -53 -54 -55
leaf_value=-0.11438004071702822 0.014963392182621389 0.041837638359951461 -0.0049983099349349448 0.12259205999934142 0.029322480946983462 0.022715261925554533 -0.062092084868614311 0.065606936892496859 0.006220778104936377 0.16850628471154538 0.10639755714771529 0.16630493620339823 0.081425104977632001 -0.090535579394543306 0.060311925905708219 0.040155844493120443 -0.079604856192996371 -0.079649857904093735 -0.18087150550151668 0.089290837077334539 -0.10832297530308838 0.063801032229359053 0.087379251744738151 -0.13030900041548685 -0.0054217235103593761 0.057060024740452409 -0.11420471599754585 0.20387622255266591 0.021227037924109633 -0.14190502785212766 -0.078581018884286938 -0.040862723562826775 0.036005107304393276 0.12637731744303388 -0.091783987207741405 0.23770557489387262 -0.12994207003719407 0.2624932065405377 -0.090616850022702866 0.066922499549012235 0.046452416729253258 0.12844501368638114 0.12320609144531579 -0.11966149142934901 -0.071937520323088186 0.14213450281062243 -0.10394959361320984 -0.12961076107369174 -0.11249053252786363 -0.11364646264441461 -0.11742302708794244 -0.10768086508693675 -0.10980850976472481 -0.10430993748247214
leaf_weight=15.501350633800033 151.06021074950695 582.2192298322916 289.7816886305809 646.14747694134712 56258.569548130035 35244.986702807248 1665.6680671796203 4193.4922687411308 1224.6424118876457 541.40068504214287 509.19672521948814 8.5256478339433688 17.886104851961136 180.68248733878136 262.35042698681355 431.6712432205677 60.905848667025566 624.24090182781219 22.113811463117599 219.58463281393051 114.0859090089798 190.76945753395557 113.09518208727241 17.783010765910145 77.479098305106163 13.180179372429846 107.91053865104914 6.1484219878911963 31.306075312197212 3.3434327170252791 40.571188762784004 28.213135004043579 61.354014523327351 14.8877005726099 72.242714568972588 28.943418487906456 7.095222167670725 3.6779612749814987 55.901190586388111 12.587651424109934 11.285426184535025 41.147769391536713 3.3911868780851364 3.1456439644098282 20.655561752617359 465.36045743525028 130.82234667986631 10.926130101084711 2.8424432277679443 2.2328853607177717 3.4752022214233884 1.6718717999756325 3.6413686461746684 11.795243751257656
leaf_count=147 377 1254 874 794 137334 94290 6510 8058 3038 549 784 12 28 586 485 982 230 2459 93 401 495 465 449 105 200 33 1047 6 120 20 282 124 212 28 350 31 44 9 454 61 28 46 8 24 156 468 3580 64 29 23 28 26 45 299
internal_value=0 0.0281697 0.0272665 0.0619182 0.0279317 0.0269296 0.0188882 0.0318395 0.0620774 0.102871 0.0356409 -0.0269597 0.0825802 0.06313 -0.00120834 0.089576 -0.0376137 -0.0559823 -0.00117858 0.0161667 -0.0380837 0.0290966 -0.043845 -0.0240681 0.0645882 -0.0918609 -0.073059 -0.00722759 -0.0336684 0.0220039 0.0318634 0.0617749 -0.00960574 0.168184 -0.112663 0.199892 -0.0737588 0.0040352 -0.0915125 -0.0616625 0.0980307 0.13899 -0.101515 -0.0242148 -0.107414 0.141022 -0.105508 -0.132491 -0.113931 -0.117164 -0.114937 -0.104022 -0.110984 -0.103979
internal_weight=0 104165 101450 2714.99 100220 97362.7 36910.7 60452.1 2857.46 1123.62 1733.84 1229.34 2045.25 1520.85 443.033 1077.82 1165.7 914.023 669.747 562.21 265.146 251.675 699.088 520.569 297.064 107.537 252.292 55.2375 49.0891 268.276 243.234 141.308 101.925 63.6422 94.3565 43.8311 25.0427 10.7732 197.055 68.4888 19.8111 524.394 178.52 8.76972 128.566 506.508 169.75 14.2696 25.4604 5.37853 18.9766 144.289 6.48381 142.618
internal_count=268644 261282 255944 5338 251817 246192 100800 145392 5625 1803 3822 4127 3389 2847 1071 1776 4028 3333 1949 1473 872 695 7362 3153 601 476 1949 231 225 1204 1067 573 494 99 443 59 137 53 1718 515 40 542 4209 55 1203 514 4154 84 249 47 175 3905 74 3879
is_linear=0
shrinkage=0.1


Tree=16
num_leaves=46
num_cat=0
split_feature=50 77 113 74 77 112 53 77 135 104 134 5 76 30 53 73 42 30 115 131 88 99 108 107 74 16 77 28 30 31 93 31 99 98 30 73 109 71 72 110 94 113 98 28 103
split_gain=320.216 288.87 480.06 590.109 353.678 408.895 375.218 310.961 304.652 374.487 587.676 536.283 293.921 271.531 270.705 263.998 250.869 222.852 216.501 186.635 178.71 167.777 160.507 151.539 145.453 139.013 137.779 120.92 96.6452 84.8222 38.3115 37.8629 24.7533 36.1376 21.9124 16.4238 13.5247 10.7716 22.7382 31.0503 14.9871 8.88566 7.03265 0.227443 0.0619954
threshold=0.74776041507720958 -1.2079986333847044 -0.97744357585906971 -0.99528998136520375 -1.181969881057739 -0.97680681943893422 1.0394200682640078 -1.1654047966003416 1.0000000180025095e-35 -0.84943380951881398 1.0000000180025095e-35 0.65973398089408886 -1.189991235733032 1.0640833377838137 1.0645760893821719 -0.87120211124420155 0.72112077474594127 1.0993030071258547 -1.0121859312057493 1.0000000180025095e-35 -1.1839697360992429 -0.92245906591415394 -0.90172097086906422 -0.8833373188972472 -0.94345581531524647 1.2179642319679262 -1.1941473484039304 1.2201091647148135 1.0739861726760866 0.97276264429092418 -1.1084131002426145 1.0061023235321047 -0.94457453489303578 -0.96440151333808888 1.0648258328437807 -0.92303407192230214 -0.93836542963981617 -0.72983664274215687 -0.84049084782600392 -0.89977678656578053 -0.96727257966995228 -0.83701229095458973 -0.95539927482604969 1.3931132555007937 -1.0478313565254209
decision_type=2 2 2 2 2 2 2 2 2 2 2 2 2 2 2 2 2 2 2 2 2 2 2 2 2 2 2 2 2 2 2 2 2 2 2 2 2 2 2 2 2 2 2 2 2
left_child=28 8 4 13 6 7 18 -6 9 10 20 19 29 23 16 -7 -5 -15 -3 -11 -2 -12 31 -4 -8 -24 -16 -13 36 30 -10 -14 33 35 -31 -30 -1 38 40 -40 -38 43 -35 -39 -43
right_child=1 2 3 14 5 15 24 -9 12 11 21 27 22 17 26 -17 -18 -19 -20 -21 -22 -23 25 -25 -26 -27 -28 -29 32 34 -32 -33 -34 42 -36 -37 37 41 39 -41 -42 44 -44 -45 -46
leaf_value=0.10752233809857595 0.026152753133693158 -0.092005634833647348 0.11605126807031313 -0.050626061354477205 -0.0062458014812753542 -0.0024487812903356194 0.048862582576325662 0.027573443627776834 0.1885431797612945 0.017983238572857572 0.10745006579396743 -0.072490953645432191 -0.13117326057269607 0.005288885932450413 -0.010329848530284354 0.081378838840484816 0.078089817520757457 0.058862500175162015 -0.0077265471798032802 -0.019833354786243099 -0.06367725320310326 0.049724208680825076 -0.074100305675654163 0.0045603419131298745 0.0047558077906878788 0.020194970163753968 0.089408173559760371 0.14260464844641974 -0.12772317457078641 0.016972974992095335 -0.044808577424132391 0.055263284329777673 -0.1133410524640845 0.088908327556553451 -0.13621150237465013 0.0540803291334521 -0.16574265212944062 -0.18292785042840057 0.097726914133304033 -0.15820784525006076 -0.047134694697899562 -0.11612039419481482 0.18400238719315845 -0.16210811221087273 -0.10409471843760948
leaf_weight=3.1519422382116309 8653.7260054312646 583.68552363663912 449.3115953207016 155.58263482153416 2887.2736463174224 456.80869390070438 972.97843289375305 46594.987403817475 11.698302879929544 20034.760830365121 1193.0468057841063 819.51035946980119 111.5291548371315 4075.7013929337263 611.2417029067874 2115.5716625601053 5659.6360381394625 959.18425799906254 637.93603932857513 1395.9868821464479 227.2826120108366 871.12128803133965 182.98768129944801 167.30705022066832 3228.8139147236943 1073.6878957599401 179.08349046111107 26.996724873781204 9.9166997820138914 9.683382645249365 17.652231335639954 12.072202920913695 8.7515443265438062 15.706982150673868 261.91867670416832 9.9593639075756055 21.826776321977377 7.6118505746126202 15.088689997792246 6.9117411449551573 20.811243541538715 4.3941237032413474 15.403969720005991 16.890083730220795 175.63707670196891
leaf_count=5 22178 2083 644 468 7855 1163 2248 109222 13 57079 1594 4227 429 10338 1847 4092 10280 2184 1693 6986 760 1640 570 428 8977 2637 379 55 37 25 53 26 33 29 1088 21 132 31 27 35 78 44 16 72 4823
internal_value=0 0.0252032 0.0289204 0.0468876 0.0250889 0.0276209 0.000786674 0.0256001 0.0177765 0.0198781 0.035025 0.0124363 -0.0237541 0.0231659 0.0671831 0.0664926 0.0746461 0.0154951 -0.0479947 0.0155199 0.0238538 0.0830886 -0.0042302 0.0858005 0.0149693 0.0064644 0.0122703 -0.0656311 -0.0731526 -0.113298 0.0481989 -0.112964 0.0420324 0.0687011 -0.13075 -0.0366263 -0.0984203 -0.100832 -0.0652472 0.0173215 -0.107851 -0.112078 0.135992 -0.168576 -0.104388
internal_weight=0 104639 69735.1 12257 57478.1 52054.6 5423.41 49482.3 34903.7 33222.4 10945.2 22277.3 1681.23 5651.5 6605.54 2572.38 5815.22 5034.89 1221.62 21430.7 8881.01 2064.17 1380.28 616.619 4201.79 1256.68 790.325 846.507 332.062 300.953 29.3505 123.601 59.7386 50.987 271.602 19.8761 272.324 269.172 64.6385 22.0004 42.638 204.533 31.111 24.5019 180.031
internal_count=268644 263261 163901 26568 137333 122332 15001 117077 99360 94519 26172 68347 4841 13594 12974 5255 10748 12522 3776 64065 22938 3234 3662 1072 11225 3207 2226 4282 5383 1179 66 455 136 103 1113 58 5247 5242 272 62 210 4970 45 103 4867
is_linear=0
shrinkage=0.1


Tree=17
num_leaves=58
num_cat=0
split_feature=119 73 103 5 68 102 101 106 131 72 110 133 62 38 118 5 5 127 69 30 18 31 45 103 135 76 32 129 69 18 61 56 100 70 40 90 126 29 125 127 28 19 54 35 10 32 111 48 118 116 74 35 116 47 106 119 56
split_gain=285.431 269.397 293.309 998.053 493.555 374.487 345.654 331.095 313 285.997 254.076 253.252 239.179 197.446 191.878 190.537 187.574 187.435 179.982 147.792 147.43 126.525 122.237 114.739 131.678 108.107 105.05 91.994 91.3269 230.735 140.287 88.7068 82.5881 81.6782 74.3202 66.189 59.323 69.2108 56.8548 55.9639 54.3268 116.439 62.9297 51.6041 38.7321 36.4856 30.4211 32.6924 22.5098 22.3632 19.3672 15.1652 14.7348 11.2724 10.9199 7.47274 3.80423
threshold=-1.642493665218353 -0.93610531091690052 -0.83089834451675404 0.61621016263961803 -0.018880601041018959 -0.83126553893089283 -0.83924818038940419 -0.94374620914459217 1.0000000180025095e-35 -0.5885808765888213 -1.1971049308776853 1.0000000180025095e-35 0.75768873095512401 0.94997304677963268 -1.6228350996971128 0.64054906368255626 0.79381483793258678 -3.2028592824935909 0.086777456104755415 1.0764304995536806 1.1504432559013369 0.95550629496574413 1.2174293994903567 -0.92108672857284535 1.0000000180025095e-35 -0.45589886605739588 0.88445743918418895 1.0000000180025095e-35 0.072720881551504149 0.79217854142189037 0.78836318850517284 0.98424601554870617 -0.8437337577342986 -0.10797283798456191 1.0792083144187929 -0.33619469404220576 -2.9894968271255489 0.86457064747810375 -2.6173688173294063 -3.1102191209793086 1.1349569559097292 1.3532322049140932 0.99562954902648937 0.89861151576042186 0.89875173568725597 0.86721226572990429 -1.2451164722442625 1.2010043263435366 -1.6017648577690122 -0.91575109958648671 -0.81459468603134144 0.87535455822944652 -1.5009326338768003 0.92677748203277599 -0.85446104407310475 -1.677930414676666 1.0518144369125368
decision_type=2 2 2 2 2 2 2 2 2 2 2 2 2 2 2 2 2 2 2 2 2 2 2 2 2 2 2 2 2 2 2 2 2 2 2 2 2 2 2 2 2 2 2 2 2 2 2 2 2 2 2 2 2 2 2 2 2
left_child=10 16 4 7 5 9 15 26 -9 -3 17 20 28 -13 56 -5 19 33 25 40 -6 -7 -20 24 -21 -16 -4 44 29 30 -12 35 -8 52 39 45 48 -38 -31 -33 41 -2 -42 -36 -18 -19 47 -30 -35 -29 -46 -37 55 -25 -48 -1 -14
right_child=1 2 3 6 11 21 32 8 -10 -11 12 13 14 -15 18 -17 27 31 22 23 -22 -23 -24 53 -26 -27 -28 49 46 38 -32 34 -34 36 43 51 37 -39 -40 -41 42 -43 -44 -45 50 -47 54 -49 -50 -51 -52 -53 -54 -55 -56 -57 -58
leaf_value=-0.08875838523323748 0.08905430389309632 0.023518079551850216 0.03030537380897896 0.014790883434631278 0.011617019365553186 0.048859967492401728 -0.06759789199194996 0.022603828333247124 -0.033230318916186795 0.072613995782147014 0.076007800401325598 0.036417273555593432 0.14090388685956734 0.10241433773403792 0.062597623642834541 -0.082065183008602813 0.20520218545388677 0.12613009207738718 0.089528217106190591 0.041287239410330877 0.048123499802714527 -0.031121587311548377 -0.11443384811211228 -0.069342396797614628 -0.07464400728478901 -0.14412210543373444 -0.032068386159485825 0.1893555624893008 0.14652037696201434 0.078705875450397964 -0.084684469713372082 0.047228914851750098 -0.12471572990372082 -0.15717196031208946 -0.13707414847915178 -0.0024357883117208465 0.20059333841134164 -0.012612487443743915 0.12543603090822231 0.11483396066601959 0.031169322259854183 -0.11199536646126332 0.12263465620009886 0.019449464459114205 -0.10736345471624631 -0.087554462102240133 0.13378552357442416 -0.09499050618931601 0.029370046883889903 -0.0029488820984864867 0.16567435214525425 -0.14727966517912436 0.048502991770626662 -0.1369032464840034 0.17463843617745073 -0.15668942312910056 0.18977789000782369
leaf_weight=21.895050153136253 51.354277588427067 43131.141629656777 325.75766508281231 760.58638421446085 1444.7008697446436 225.56486581265926 570.70407923869789 41086.086606703699 1029.1739401817322 1220.0722584202886 98.376019045710564 682.24958516657352 36.796295210719109 1350.9101603478193 31.598029136657715 277.1067876983434 4.0756500586867324 23.128952816128731 134.15247732400894 213.79394116997719 4721.7100317627192 1606.0917264819145 37.62425822019577 33.024384945631027 180.85381391644478 126.890718922019 1578.0376505255699 13.113866537809374 11.749510720372202 572.57892274856567 121.33792918920517 515.33130744099617 454.94992896169424 35.967698082327843 30.850271046161652 8.6129510402679426 16.544409230351448 191.01282680034637 477.47112219035625 160.60999982059002 306.39986416697502 65.609892949461937 99.697538264095783 66.394324153661728 309.96127473190427 12.208168998360632 142.58672402799129 10.717764824628828 7.8872091174125663 11.222027691081164 2.6198474913835517 44.970385238528252 4.4109673202037802 97.926363669335842 120.91429327428341 62.187475681304932 28.079501986503601
leaf_count=109 127 103245 766 2515 3917 490 2715 105548 6071 2183 178 1419 39 2041 64 1873 8 38 254 571 10761 4415 135 121 674 528 4722 16 12 881 401 1003 2220 180 104 27 19 637 553 205 844 278 210 139 3962 46 157 32 28 39 3 217 11 465 119 285 24
internal_value=0 0.0214741 0.022079 0.0162093 0.0270528 0.0230387 -0.0517649 0.0193955 0.0212394 0.0248687 0.0520245 0.0496619 0.0743071 0.0802683 0.00483057 -0.0110737 -0.0222539 0.0158595 -0.0260544 -0.00130372 0.0395706 -0.021272 0.0448544 -0.0387541 -0.0118402 -0.102908 -0.0213956 -0.0866824 0.0919535 0.0804554 -0.0127352 0.0406548 -0.0929337 -0.0470291 0.051533 -0.0539339 -0.0179463 0.00438217 0.0999547 0.0632925 0.0363284 -0.0237225 0.0536242 -0.0302067 -0.101081 0.052307 0.143008 0.0313103 -0.123623 0.100678 -0.105075 -0.123998 -0.129654 -0.119865 0.152532 -0.139 0.162058
internal_weight=0 101854 100465 46082.4 54382.4 46182.9 2063.35 44019.1 42115.3 44351.2 3152.89 8199.57 1950.87 2033.16 395.141 1037.69 1389.65 1202.01 330.265 1048.66 6166.41 1831.66 171.777 525.599 394.648 158.489 1903.8 340.993 1555.73 1269.76 219.714 862.106 1025.65 339.906 773.186 88.9205 251.412 207.557 1050.05 675.941 523.062 116.964 406.097 97.2446 316.657 35.3371 285.968 22.4673 43.8549 24.3359 312.581 53.5833 88.4935 130.951 263.501 84.0825 64.8758
internal_count=268644 262219 254901 126430 128471 110333 9323 117107 111619 105428 6425 18138 3377 3460 1044 4388 7318 3048 981 3290 14678 4905 389 1831 1245 592 5488 4028 2333 2013 579 1779 4935 1269 1451 328 864 656 1434 1208 1459 405 1054 243 3973 84 320 44 208 55 3965 244 405 586 276 394 63
is_linear=0
shrinkage=0.1


Tree=18
num_leaves=62
num_cat=0
split_feature=120 98 119 28 77 70 11 132 31 106 111 126 60 62 69 1 122 62 70 49 8 115 111 111 62 113 111 70 56 39 111 116 104 75 74 70 60 51 26 111 61 0 45 40 118 110 44 71 24 63 105 119 103 111 112 29 115 7 110 72 108
split_gain=257.204 439.897 336.926 311.68 304.009 309.868 295.817 290.274 721.907 364.795 289.859 187.306 241.925 187.305 167.09 147.389 146.138 170.641 142.283 120.944 98.578 97.6793 95.8023 93.2097 84.3434 108.082 76.7085 66.3835 66.0549 60.0282 54.7296 53.6894 52.7803 50.8487 45.9029 45.4301 66.2957 42.9877 66.1504 42.7194 41.4529 39.1734 34.7146 34.3443 27.7596 50.8192 85.9023 26.567 25.2976 25.6694 19.7744 18.9224 15.3814 13.8265 11.1362 9.61814 7.92624 4.35122 1.94457 1.49362 1.05239
threshold=-1.7368787527084348 -0.43755172193050379 -1.6059547662734983 1.1156124472618105 -0.41120426356792444 -0.069947924464941011 0.72500947117805492 1.0000000180025095e-35 0.96252071857452404 -0.97398114204406727 -1.2394910454750059 -2.8250111341476436 0.77579805254936229 0.75768873095512401 0.086777456104755415 -0.11148530989885329 -2.0491206645965572 0.7502938210964204 -0.21148715913295743 1.2132366895675661 0.11525389552116395 -1.4883763194084165 -1.2480964660644529 -1.2700391411781309 0.74421870708465587 -1.3623284697532652 -1.278523802757263 -0.069947924464941011 0.99765649437904369 1.0229142308235171 -1.234124958515167 -1.5329002141952512 -0.97029650211334217 -0.48194661736488337 -0.43373684585094446 -0.078881397843360887 0.82943651080131542 1.1983167529106142 0.98936483263969432 -1.2288579940795896 0.78343278169631969 -0.23891399055719373 1.1959899663925173 1.0464170575141909 -1.6228350996971128 -1.1971049308776853 1.1957508325576784 -0.2141977325081825 1.038921654224396 0.65260046720504772 -0.80319663882255543 -1.642493665218353 -0.60039690136909474 -1.2480964660644529 -1.2960488796234129 0.9043751358985902 -1.4312990903854368 0.091394096612930312 -1.200631260871887 -0.32041276991367335 -1.0400539040565489
decision_type=2 2 2 2 2 2 2 2 2 2 2 2 2 2 2 2 2 2 2 2 2 2 2 2 2 2 2 2 2 2 2 2 2 2 2 2 2 2 2 2 2 2 2 2 2 2 2 2 2 2 2 2 2 2 2 2 2 2 2 2 2
left_child=4 2 10 6 23 24 18 9 -9 -5 11 19 -13 22 21 29 17 35 -4 -2 37 -15 26 34 25 28 -7 52 -6 -12 -16 47 -8 55 42 36 -3 41 -39 -17 -27 -18 -1 -29 58 46 -46 -26 -36 -50 -35 -33 -19 -47 -24 -22 -37 -44 59 -25 -60
right_child=1 16 3 7 5 13 32 8 -10 -11 15 12 -14 14 30 39 20 27 -20 -21 33 -23 54 44 31 40 -28 43 -30 -31 -32 51 -34 50 48 56 -38 38 -40 -41 -42 -43 57 -45 45 53 -48 -49 49 -51 -52 -53 -54 -55 -56 -57 -58 -59 60 -61 -62
leaf_value=0.067831113521748532 -0.016202469909057104 0.1314102160602458 -0.016664086122456057 0.058861526994986528 -0.11974913786687874 0.15696903005471122 -0.033973039135562294 0.02830374105015462 -0.070733909435346895 0.021045462970805114 -0.066155368112267715 -0.078330775655410551 0.079602569875312779 0.1431597387830798 -0.037820852048409681 0.11170123538354995 -0.12150095020623485 -0.045166150372660308 0.012158890103626876 0.051825755085601215 -0.020446906285972458 -0.1345616367137247 0.12202603801083399 0.14264431921275242 -0.10645372964607965 0.091422381313738935 -0.076166322703896616 0.15676004070202063 -0.010228909439063877 0.075731659330860943 0.08653731384211738 -0.14437596338601885 -0.1102134929091166 -0.016013963190027021 -0.070655624172213924 0.13426479779095421 -0.012332436250154408 -0.096797783300065957 0.022941163281682928 0.16960257233164552 -0.027470964377801995 -0.042604594470513249 -0.11234467691596571 -0.027192208293304872 0.077944245224655567 0.091106618339379289 -0.18043789209604266 0.12538811920669365 0.0050560598329069638 0.14554831056962431 0.13200526993226841 -0.015175840235909725 -0.14931663671031029 0.12932198256805244 0.16254528674361612 -0.18621202891270897 0.2307062641412094 -0.19857502733509549 0.13255066704319443 0.1749791362941337 0.15670482887475901
leaf_weight=11.006772965192793 746.88528650999069 58.358486533164978 2129.8497924767435 2632.8445849791169 91.454502195119858 21.934304565191269 143.81540240719914 1968.7046535462141 1175.4480794072151 81973.946038741618 56.179469734430313 107.02557049691677 1034.495048135519 14.856556430459021 44.197325333952904 378.53580422699451 319.91826502978802 18.054569631814957 8743.8310549259186 402.00480154156685 5.8885233104228965 85.827706500887871 119.84153582155704 36.286858916282654 7.7149281501770046 101.34067998826504 39.580887049436569 12.012566000223158 138.4224117398262 63.543045923113823 177.58129234611988 102.78470253944397 246.33694594912231 12.069624766707419 11.986046224832533 17.176051035523415 71.271254390478134 113.97062896192074 77.520648807287216 192.08209599554539 41.266422808170319 78.344463244080544 15.103887453675272 65.440641894936562 65.835588663816452 157.76426550745964 15.992730051279066 13.754743024706839 21.548804610967636 32.800596609711647 35.783910468220711 12.740911304950712 66.073132812976837 236.75138002634048 156.28432720899582 8.6304881572723371 16.913808315992355 9.5530092120170575 185.85078360140324 23.561364889144897 19.977120339870453
leaf_count=25 1827 85 6348 5129 452 40 525 4450 3511 206738 179 342 1736 17 122 525 2352 66 23891 773 18 347 146 38 39 158 131 20 445 142 345 447 3728 32 34 23 225 485 218 180 117 242 78 213 108 231 69 18 57 36 48 38 284 269 160 35 17 40 210 21 19
internal_value=0 0.0194608 0.0201006 0.0191034 0.0555483 0.0225405 0.00344357 0.0211135 -0.00872169 0.0222222 0.0532262 0.0361061 0.0647952 0.0677604 0.0132529 0.110027 -0.0473063 0.00744098 0.00651328 0.00760109 -0.0746159 -0.0935822 0.119818 0.101288 -0.0360484 -0.0113732 0.00696212 -0.0654635 -0.0538006 0.00915155 0.0617545 -0.103139 -0.0821102 0.0449377 0.0116561 0.0793931 0.0523796 -0.0872599 -0.0483243 0.131192 0.057018 -0.105981 -0.0798356 0.00133777 0.113609 0.0991643 0.0274454 0.0420779 0.0608444 0.089845 0.0946718 -0.130127 -0.126965 0.11404 0.14496 -0.118982 0.182115 -0.145754 0.139508 0.155374 0.134895
internal_weight=0 102973 101996 99014.8 2013.6 1169.58 11263.8 87750.9 3144.15 84606.8 2980.75 2290.41 1141.52 660.104 322.463 690.34 977.427 325.301 10873.7 1148.89 652.127 100.684 337.641 844.019 509.479 372.484 61.5152 161.581 229.877 119.723 221.779 136.995 390.152 62.3725 101.999 163.72 129.63 589.754 191.491 570.618 142.607 398.263 35.6637 77.4532 742.02 476.344 81.8283 21.4697 66.3354 54.3494 47.8535 115.526 84.1277 394.516 276.126 14.519 34.0899 24.6569 265.676 59.8482 205.828
internal_count=268644 264387 260024 254320 4257 3022 34492 219828 7961 211867 5704 4678 2078 1308 831 1026 4363 933 30239 2600 3430 364 477 1235 1714 1172 171 583 897 321 467 542 4253 133 270 350 310 3297 703 705 275 2594 143 233 965 677 177 57 127 93 80 485 350 500 306 53 40 118 288 59 229
is_linear=0
shrinkage=0.1


Tree=19
num_leaves=63
num_cat=0
split_feature=76 134 101 89 4 136 135 105 35 133 100 105 54 30 133 30 1 5 75 100 96 28 52 124 73 19 129 113 0 71 53 27 103 10 4 6 115 112 104 29 100 126 80 29 75 109 53 126 31 98 7 123 54 95 32 85 5 8 76 0 62 93
split_gain=250.739 404.29 592.01 392.739 362.88 315.327 285.235 520.512 497.401 1088.22 592.798 530.18 502.879 468.267 397.21 329.311 327.609 267.117 266.028 247.73 214.112 215.187 200.729 204.918 193.098 150.444 127.634 147.72 123.915 154.835 123.191 122.087 111.333 103.208 92.3774 89.3286 72.0878 70.1093 69.9798 66.813 149.864 110.358 64.8316 126.823 99.8739 73.6585 62.7613 59.9295 56.9258 56.3895 84.1651 56.0437 53.9969 53.5803 36.2929 32.6735 28.2765 26.4611 24.3029 23.4196 42.6179 11.3833
threshold=-1.1738564372062681 1.0000000180025095e-35 -0.87982431054115284 -1.1814202070236204 0.63914543390274059 1.0000000180025095e-35 1.0000000180025095e-35 -0.92714178562164296 0.86262255907058727 1.0000000180025095e-35 -0.73856624960899342 -0.94667664170265187 0.97732475399971019 1.0658782720565798 1.0000000180025095e-35 1.0257855057716372 0.65407380461692821 0.71678444743156444 -1.0837360024452207 -0.86454689502716053 -0.97609484195709217 1.2064987421035769 1.076016962528229 -1.4286607503890989 -0.7817414104938506 1.5444411635398867 1.0000000180025095e-35 -0.9399614930152892 0.56362172961235057 -0.57001289725303639 1.075570344924927 1.2608373165130617 -0.89415633678436268 0.83924743533134472 0.72527137398719799 0.62323883175849926 -0.97531068325042714 -1.2318938970565794 -0.95882856845855702 1.1420702934265139 -0.90792164206504811 -1.4478986859321592 -1.2937799096107481 1.1511027216911318 -1.089114725589752 -0.93660593032836903 0.97086587548255932 -1.6127495169639585 0.95797994732856762 -0.93241381645202626 0.71736589074134838 -1.2370853424072263 1.0445165634155276 -1.0549565553665159 0.94406208395957958 -1.2308624386787412 0.67366769909858715 0.82243776321411144 -1.188030958175659 0.54042488336563121 0.47350311279296881 -1.0959916710853574
decision_type=2 2 2 2 2 2 2 2 2 2 2 2 2 2 2 2 2 2 2 2 2 2 2 2 2 2 2 2 2 2 2 2 2 2 2 2 2 2 2 2 2 2 2 2 2 2 2 2 2 2 2 2 2 2 2 2 2 2 2 2 2 2
