tree
version=v4
num_class=1
num_tree_per_iteration=1
label_index=0
max_feature_idx=136
objective=binary sigmoid:1
feature_names=Column_0 Column_1 Column_2 Column_3 Column_4 Column_5 Column_6 Column_7 Column_8 Column_9 Column_10 Column_11 Column_12 Column_13 Column_14 Column_15 Column_16 Column_17 Column_18 Column_19 Column_20 Column_21 Column_22 Column_23 Column_24 Column_25 Column_26 Column_27 Column_28 Column_29 Column_30 Column_31 Column_32 Column_33 Column_34 Column_35 Column_36 Column_37 Column_38 Column_39 Column_40 Column_41 Column_42 Column_43 Column_44 Column_45 Column_46 Column_47 Column_48 Column_49 Column_50 Column_51 Column_52 Column_53 Column_54 Column_55 Column_56 Column_57 Column_58 Column_59 Column_60 Column_61 Column_62 Column_63 Column_64 Column_65 Column_66 Column_67 Column_68 Column_69 Column_70 Column_71 Column_72 Column_73 Column_74 Column_75 Column_76 Column_77 Column_78 Column_79 Column_80 Column_81 Column_82 Column_83 Column_84 Column_85 Column_86 Column_87 Column_88 Column_89 Column_90 Column_91 Column_92 Column_93 Column_94 Column_95 Column_96 Column_97 Column_98 Column_99 Column_100 Column_101 Column_102 Column_103 Column_104 Column_105 Column_106 Column_107 Column_108 Column_109 Column_110 Column_111 Column_112 Column_113 Column_114 Column_115 Column_116 Column_117 Column_118 Column_119 Column_120 Column_121 Column_122 Column_123 Column_124 Column_125 Column_126 Column_127 Column_128 Column_129 Column_130 Column_131 Column_132 Column_133 Column_134 Column_135 Column_136
feature_infos=[-1.7844352722167969:1.9731968641281128] [-1.6962581872940063:1.9330692291259766] [-1.6161398887634277:1.893924355506897] [-1.5440802574157715:1.8557635545730591] [-1.4800789356231689:1.8185858726501465] [-1.4241359233856201:1.7823913097381592] [-1.3852788209915161:1.7937201261520386] [-1.3575865030288696:1.9274762868881226] [-1.3260828256607056:2.0758624076843262] [-1.2853907346725464:2.0974209308624268] [-1.2320997714996338:2.0165181159973145] [-1.1626077890396118:2.064321756362915] [-1.0779223442077637:2.1106562614440918] [-0.97803342342376709:2.1771299839019775] [-0.86829191446304321:2.2825961112976074] [-0.75375783443450928:2.4052433967590332] [-0.63882678747177124:2.5269482135772705] [-0.65591526031494141:2.5277442932128906] [-0.65817779302597046:2.5653238296508789] [-0.66488730907440186:2.5221147537231445] [-0.8555336594581604:2.4413206577301025] [-0.86833834648132324:2.3840618133544922] [-0.86565589904785156:2.2409591674804688] [-0.7797551155090332:2.1787192821502686] [-1.0841877460479736:2.1696581840515137] [-1.4308524131774902:2.0883691310882568] [-1.6366665363311768:1.9448176622390747] [-1.8254417181015015:1.7314887046813965] [-1.8748650550842285:1.5598906278610229] [-2.1252865791320801:1.3473584651947021] [-2.4037775993347168:1.1459542512893677] [-2.6881959438323975:1.0691677331924438] [-2.8964071273803711:1.0182701349258423] [-2.6209216117858887:1.0153312683105469] [-1.9672813415527344:1.0222163200378418] [-1.2877312898635864:1.0386093854904175] [-0.66342759132385254:1.2123075723648071] [-0.67050886154174805:1.4357191324234009] [-0.67336314916610718:1.5244829654693604] [-0.67729061841964722:1.237102746963501] [-0.67358070611953735:1.1841682195663452] [-0.77278417348861694:1.2266663312911987] [-0.78214722871780396:1.2681889533996582] [-0.67815649509429932:1.3808037042617798] [-0.67482441663742065:1.5838102102279663] [-0.67939788103103638:1.7493973970413208] [-0.67687302827835083:1.7343066930770874] [-0.68056988716125488:1.8940913677215576] [-0.67851173877716064:2.0411467552185059] [-0.68057990074157715:2.1347439289093018] [-0.67868822813034058:2.1180493831634521] [-0.68411111831665039:2.1010029315948486] [-0.6882440447807312:2.2836933135986328] [-0.69760811328887939:2.324758768081665] [-0.68820065259933472:2.0119130611419678] [-0.66498374938964844:1.663224458694458] [-0.63047897815704346:1.3939603567123413] [-0.79989981651306152:1.3641012907028198] [-0.9627259373664856:1.3483799695968628] [-0.83332031965255737:1.3266682624816895] [-0.62303602695465088:1.3006186485290527] [-0.62908732891082764:1.4118657112121582] [-0.65896600484848022:1.6471337080001831] [-0.67422842979431152:1.5962808132171631] [-0.93073725700378418:1.2496439218521118] [-1.1305865049362183:1.0613176822662354] [-1.2528316974639893:0.98026233911514282] [-1.6713657379150391:0.87500208616256714] [-1.706031322479248:0.74292320013046265] [-1.8179357051849365:0.59156680107116699] [-1.6767393350601196:0.44254273176193237] [-1.7446892261505127:0.31167539954185486] [-1.674402117729187:0.20973041653633118] [-1.5674382448196411:0.13722024857997894] [-1.3156384229660034:0.30397361516952515] [-1.5821062326431274:0.9557119607925415] [-1.8401819467544556:1.4404212236404419] [-2.0371255874633789:1.2026444673538208] [-2.1728529930114746:1.1285310983657837] [-2.2573421001434326:0.92254304885864258] [-2.3058340549468994:0.73609095811843872] [-2.3315773010253906:0.27998179197311401] [-2.3403120040893555:0.32789856195449829] [-2.3343968391418457:0.37759476900100708] [-2.3124566078186035:0.5232703685760498] [-2.2730567455291748:0.46151745319366455] [-2.2140905857086182:0.49370381236076355] [-2.1362462043762207:0.51996833086013794] [-2.0426793098449707:0.54197138547897339] [-1.9374580383300781:0.55988889932632446] [-1.8240519762039185:0.65060514211654663] [-1.7565661668777466:1.0689502954483032] [-1.6520191431045532:1.4172115325927734] [-1.5958865880966187:1.6290324926376343] [-1.5394163131713867:1.6652539968490601] [-1.4922878742218018:1.6182962656021118] [-1.4547033309936523:1.5608183145523071] [-1.4384253025054932:1.5595740079879761] [-1.4264529943466187:1.5645072460174561] [-1.5819015502929688:1.5648646354675293] [-2.0638625621795654:1.5687597990036011] [-2.4619696140289307:1.5660412311553955] [-2.648137092590332:1.569068431854248] [-2.5047333240509033:1.5662518739700317] [-2.1062953472137451:1.5671930313110352] [-1.4165751934051514:1.5610309839248657] [-1.1194825172424316:1.5632989406585693] [-1.1215335130691528:1.561995267868042] [-1.168958306312561:1.5723429918289185] [-1.225764274597168:1.5757462978363037] [-1.3164699077606201:1.5827798843383789] [-1.5627152919769287:1.5861003398895264] [-2.1400496959686279:1.5903582572937012] [-2.4733853340148926:1.5886306762695312] [-2.4821960926055908:1.5883719921112061] [-1.8389110565185547:1.5865405797958374] [-1.6131480932235718:1.5868538618087769] [-1.6321159601211548:1.7016431093215942] [-1.6864286661148071:2.5795986652374268] [-1.7459897994995117:2.8008601665496826] [-1.820858359336853:2.5472877025604248] [-1.9268163442611694:1.7180403470993042] [-2.1567583084106445:1.6308574676513672] [-2.3918964862823486:1.6220458745956421] [-2.6616356372833252:1.6080794334411621] [-2.9761693477630615:2.1645474433898926] [-3.3559722900390625:3.0688047409057617] [-3.8750591278076172:4.2020993232727051] [0:1] [0:1] [0:1] [0:1] [0:1] [0:1] [0:1] [0:1] [0:1]
tree_sizes=6042 6011 6344 5508 4635 5633 4646 4966 5283 4877 5901 6911 6876 4873 6006 6916 5736 5897 5932 6493 6073 5920 6936 6058 6294 6392 5812 6951 6108 6025 5210 6947 6781 6720 5345 5570 5325 6826 6880 6685 5870 6942 5868 6954 6793 6946 6392 6963 6671 6109 5128 6336 6955 6926 6814 6598 6936 6933 5665 5892 6941 6927 6939 6956 6849 6831 6994 5825 4382 6627 5447 6963 6955 5556 6723 6937 6579 5867 6966 6926 6953 6709 6548 6821 6827 6367 5958 6846 6970 6708 6941 6620 6960 6739 6943 6828 6903 5539 6493 6924 6973 6221 4654 6745 6383 6950 6948 6080 4571 6471 6703 6820 6858 6953 6933 6900 6960 3940 6726 4644 5206 5447 6970 6984 6566 6961 6923 6817 6349 6963 6717 6904 6924 6818 6172 6933 6186 5331 6508 6903 6262 6951 6847 6330 5556 6051 6431 6312 6234 5218 5155 6881 6453 6097 5246 6683 5017 6597 6924 6499 6979 6247 6857 5980 5702 6953 6950 6888 4435 6677 3052 6708 6799 6604 6675 6682 6931 5224 6920 6968 3644 6745 6928 6696 6328 6794 5242 5358 6966 6607 6523 5733 6212 4222 4946 6368 6726 6964 6254 6945

Tree=0
num_leaves=56
num_cat=0
split_feature=107 75 136 129 118 128 103 5 134 75 110 30 61 131 11 104 97 80 120 115 79 29 33 33 109 55 101 70 119 79 3 0 92 55 78 29 134 75 31 38 74 119 125 88 33 103 29 104 93 109 97 18 92 110 0
split_gain=13824.5 6034.82 3613.55 3606.67 2774.15 2534.4 2095.03 3804.37 3049.39 2487.3 1941.89 1681.24 1567.75 1359.56 1313.13 955.386 952.627 892.995 848.436 731.202 566.982 421.832 394.823 388.843 381.87 357.876 380.006 317.846 298.881 417.353 286.721 284.707 217.26 195.037 188.197 184.097 181.464 179.448 166.98 154.178 128.264 117.908 116.192 104.215 99.3351 98.0809 134.868 97.9899 82.6043 82.4366 75.922 65.427 32.5127 22.2007 1.13687e-13
threshold=-0.86730214953422535 -1.1751033067703245 1.0000000180025095e-35 1.0000000180025095e-35 -1.5836604237556455 1.0000000180025095e-35 -0.84354299306869496 0.62966912984848034 1.0000000180025095e-35 -1.0972614884376524 -1.2008758187294004 1.0526384711265566 0.78361964225769054 1.0000000180025095e-35 0.18831336498260501 -0.81115016341209401 -0.96144092082977284 -0.34126020967960352 -1.7424525618553159 -0.9461705982685088 -1.3162691593170164 1.131424129009247 0.94264245033264171 0.819775551557541 -0.87811428308486927 1.0172210931777956 -0.55296263098716725 -0.2042959928512573 -1.6475479006767271 -0.48101061582565302 0.67655789852142345 0.40478821098804479 -1.1924443840980528 1.0190947055816653 -1.3433036804199217 1.0936141014099123 1.0000000180025095e-35 -1.1905800104141233 0.98364126682281505 1.0013479590415957 -0.37622015178203577 -0.9670337140560149 -2.6189411878585811 -0.22040937095880506 0.9571531116962434 -0.86620151996612538 1.1402745842933657 -0.82060098648071278 -1.182299733161926 -0.84964862465858448 -1.0028706192970274 0.79257437586784374 -1.1858984827995298 -1.2181935906410215 0.778334140777588
decision_type=2 2 2 2 2 2 2 2 2 2 2 2 2 2 2 2 2 2 2 2 2 2 2 2 2 2 2 2 2 2 2 2 2 2 2 2 2 2 2 2 2 2 2 2 2 2 2 2 2 2 2 2 2 2 2
left_child=4 30 3 13 10 6 8 12 9 -6 17 33 -8 19 18 -15 -10 25 23 -3 24 -9 27 -12 -13 53 -27 -5 42 -30 32 -22 37 34 -4 -35 52 48 44 43 -41 -24 -16 -19 47 50 -47 -7 -2 -39 -40 -20 -34 -1 -32
right_child=1 2 11 22 5 38 7 21 16 -11 14 20 -14 15 28 -17 -18 39 51 -21 31 -23 41 -25 -26 26 -28 -29 29 -31 54 -33 36 35 -36 -37 -38 49 45 40 -42 -43 -44 -45 -46 46 -48 -49 -50 -51 -52 -53 -54 -55 -56
leaf_value=-1.6947961197449175 -1.4175299618411854 -1.4664221148753078 -1.409547903150669 -1.3563936019061991 -1.3803094969939669 -1.6243392944208461 -1.3258243372665108 -1.6328072373497562 -1.0877624200554994 -1.2905848469312882 -1.3096019815428073 -1.4832469635011492 -1.4616449494866597 -1.5002380928688615 -1.0808220702875135 -1.6805228652438564 -1.2315125222896299 -1.4664332639817479 -1.6388573670513091 -1.4038446217510723 -1.4513289917046928 -1.4052716079547602 -1.3018856923173872 -1.081233341122229 -1.3664250795741166 -1.2243377845018271 -1.5312788695904462 -1.4692975353247526 -1.0086074728432579 -1.3049183338496029 -1.6947961197449175 -1.2516918214345505 -1.6033282528997974 -1.2816267005060411 -1.2027061891366739 -1.5938466557212587 -0.99144811705316827 -1.2314566602316708 -1.3890393804742789 -1.4675439306806766 -1.0131759532647067 -1.6947961197449175 -1.0040834852404292 -1.6411919133093233 -1.0452797434495866 -1.4485558568215759 -1.294808877497112 -1.4765466370337059 -1.6352217521600716 -1.4635008034077388 -1.5310378378823477 -1.3883254673886416 -1.68069090709783 -1.5200557743782783 -1.6947961197449175
leaf_weight=15.355130553245546 20.88800647854805 4592.2515588998795 45.682876080274582 2123.6049253344536 3750.6940262615681 116.44972375035286 17914.851185292006 474.92894667387009 756.89695575833321 17529.108508706093 182.93036383390427 435.74727675318718 892.17958697676659 1401.5606845319271 401.6830413043499 371.94805106520653 1179.2669152915478 54.949088722467422 60.394567221403122 3146.7290191948414 85.239468812942505 98.351114481687546 1466.639522343874 125.85590270161629 781.91473162174225 453.43361568450928 44.27313706278801 282.51578825712204 81.588147580623627 113.88642182946205 20.473507404327393 441.12500083446503 73.870679974555969 89.944615036249161 1185.7535522282124 23.904441356658936 4.1171207427978507 18.749333292245865 45.775655448436737 19.113800376653671 9.2047825455665606 7.6775652766227713 387.80034831166267 90.035491734743118 3.7152882218360892 529.19692239165306 63.950264036655426 72.974869787693024 105.31652563810349 83.465262711048126 212.19826820492744 12.598351061344145 205.29776641726494 13.809864789247511 556.90783682465553
leaf_count=108 101 23985 218 9239 17029 754 73599 3107 1681 67117 728 2334 4626 7696 870 2574 3963 287 398 14874 435 466 5747 273 3464 1498 254 1482 130 449 144 1553 466 338 3714 149 6 63 211 100 15 54 604 595 7 2689 247 387 691 434 1217 58 1421 78 3917
internal_value=-1.57408 -1.41851 -1.40344 -1.42593 -1.31414 -1.3195 -1.31573 -1.34 -1.29547 -1.3064 -1.20094 -1.30595 -1.33227 -1.45908 -1.13156 -1.53805 -1.17532 -1.33636 -1.289 -1.44098 -1.37074 -1.59377 -1.34468 -1.21652 -1.40823 -1.27159 -1.25164 -1.36965 -1.07054 -1.18124 -1.64649 -1.28402 -1.59199 -1.22196 -1.21038 -1.34718 -1.6505 -1.51942 -1.47342 -1.53327 -1.31985 -1.30393 -1.04313 -1.57496 -1.55736 -1.45437 -1.43198 -1.5674 -1.59919 -1.42094 -1.50584 -1.59562 -1.66022 -1.61206 -1.6948
internal_weight=0 17571.3 16482.2 13392.9 45707.5 43640.5 42596.3 19380.3 23216 21279.8 2066.91 3089.31 18807 9512.49 1366.74 1773.51 1936.16 700.175 381.779 7738.98 1744.03 573.28 3880.44 308.786 1217.66 526.872 497.707 2406.12 984.958 195.475 1089.09 526.364 511.705 1345.29 1231.44 113.849 283.286 228.419 1044.26 173.303 28.3186 1474.32 789.483 144.985 193.14 851.121 593.147 189.425 126.205 102.215 257.974 72.9929 279.168 29.165 577.381
internal_count=268644 85099 77856 65651 183545 177100 171588 81798 89790 84146 6445 12205 78225 49129 3510 10270 5644 2935 1457 38859 7786 3573 16522 1001 5798 1938 1752 10721 2053 579 7243 1988 3182 4419 3932 487 1893 1289 5512 997 115 5801 1474 882 1148 4364 2936 1141 792 497 1428 456 1887 186 4061
is_linear=0
shrinkage=1


Tree=1
num_leaves=55
num_cat=0
split_feature=107 114 131 130 128 131 31 30 100 128 130 74 76 30 105 30 81 106 30 85 5 30 78 105 31 5 53 91 89 38 56 31 127 104 70 1 124 72 57 46 105 106 32 57 53 115 79 96 124 54 19 136 117 13
split_gain=7338.28 3996.69 1751 1743.18 1800.35 1444.01 2404.66 1373.56 1334.1 1167.17 1267.53 740.269 613.177 529.366 629.112 486.791 447.156 443.36 416.975 362.189 485.653 352.487 281.632 243.511 228.737 194.187 192.356 179.018 230.367 147.622 139.29 132.795 131.583 129.007 169.947 119.982 112.869 107.569 93.363 110.334 91.4849 86.9398 77.5661 61.0267 59.2122 50.8486 18.8743 15.4979 13.5211 8.37267 0.0566443 0.00686573 0.00653467 3.52797e-05
threshold=-0.86057353019714344 -0.81937423348426808 1.0000000180025095e-35 1.0000000180025095e-35 1.0000000180025095e-35 1.0000000180025095e-35 1.0096884369850161 1.086032032966614 -0.88075092434883107 1.0000000180025095e-35 1.0000000180025095e-35 -1.0321045517921446 -1.2544885277748106 1.0701375603675845 -0.86037483811378468 1.0544759631156924 -1.1137534379959104 -0.84340733289718617 1.086032032966614 -1.3606806993484495 0.59506583213806163 1.0440903306007387 -1.3408659696578977 -0.87500232458114613 0.96722799539566051 0.58927929401397716 1.0468186140060427 -1.1306754946708677 -1.2286412119865415 0.92484372854232799 0.91646024584770214 1.0076888203620913 -1.5216613411903379 -0.81115016341209401 -0.28938966989517206 0.4513558298349381 -1.3301325440406797 -0.48712220788002009 0.91538548469543468 1.1158460974693301 -0.91448968648910511 -0.88315540552139271 0.94961604475975048 0.9759468436241151 1.1486678123474123 -0.93147611618041981 -1.0895664095878599 -1.0300437808036802 -1.2934530377387998 1.0564532279968264 1.75715047121048 1.0000000180025095e-35 -0.63247603178024281 0.82617387175560009
decision_type=2 2 2 2 2 2 2 2 2 2 2 2 2 2 2 2 2 2 2 2 2 2 2 2 2 2 2 2 2 2 2 2 2 2 2 2 2 2 2 2 2 2 2 2 2 2 2 2 2 2 2 2 2 2
left_child=3 2 9 4 5 7 18 8 -1 10 15 -9 -12 16 26 -2 21 29 -7 20 -11 43 -21 -8 44 -23 32 28 -16 41 -31 36 -15 34 -19 -29 40 -26 39 -33 -6 -4 49 -5 -18 -38 -28 -44 -35 50 52 -52 -3 -40
right_child=1 42 17 13 31 6 23 11 -10 19 12 -13 -14 14 27 -17 24 33 -20 22 -22 25 -24 -25 37 -27 46 35 -30 30 -32 38 -34 48 -36 -37 45 -39 53 -41 -42 -43 47 -45 -46 -47 -48 -49 -50 -51 51 -53 -54 -55
leaf_value=0.24304957922403991 0.19849647062879786 -0.12055734771328515 0.21216207921240349 0.02402210001582589 -0.10154271376577102 0.064896347986313149 0.27584611633991712 0.022444439727263111 0.20271719582772346 0.18395673074492105 -0.0072250881345950584 0.1689431337378472 0.12307244524903485 0.1713402270361126 0.39250097678630197 0.13466501610253825 0.13415627177407377 -0.029419985770271891 0.19178869588015554 -0.081751379540485253 0.06049802318231054 0.13179732447713871 0.078924365820559006 0.19497175722701868 0.22664729700894118 0.060490413783879107 -0.1007229756459983 0.11902420952658728 0.03977894724782665 0.3157139885282626 0.11539238967165882 0.1290462863072728 0.081898450996984062 -0.11124433412309337 0.084973556620634605 0.32962404438504334 -0.011281029340185537 -0.12662445958368423 -0.12347219098970628 0.29464243854864119 0.092162921818490118 0.030601461488184146 0.25433377565564586 -0.095210758363882403 -0.023079594413841432 0.13223283387891299 0.13792486979607102 0.0016358374800577375 -0.053669739726970714 0.060885979381614136 -0.1234903968086081 -0.12832943353987999 -0.11845288432499393 -0.12307883957717647
leaf_weight=11031.448048681021 5006.3784826099873 15.087257280945776 28.859294876456261 448.19567537307739 25.118856564164162 2069.9669590294361 883.06064058840275 371.87415212392807 31966.264461517334 818.85302177071571 419.82721227407455 4759.2888890057802 2585.0847078412771 538.14399492740631 27.068343475461006 1569.2234187871218 44.42272587120533 506.71787725389004 295.9941661208868 114.1769156306982 521.5823822170496 1157.3889712840319 2448.1112929284573 643.68418619036674 428.91058135032654 569.98604793846607 36.949259132146835 29.491726398468018 58.607188180088997 40.76974381506443 233.56345793604851 212.22692812979221 236.88614767789841 130.73457887768745 174.6267487257719 327.02559716999531 196.06735846400261 8.7959761917591077 9.0829354375600797 49.648169636726379 830.88991275429726 306.24945034086704 6.3929483294487 47.473591312766075 51.968598827719688 28.24482224881649 3.6405574083328238 3.912213057279585 59.287843078374863 2.6079001277685157 9.496567636728285 4.2416172921657553 670.11965791881084 3.0444070994853965
leaf_count=32773 17263 108 117 2234 173 9607 2534 1865 108196 3209 2371 17178 11625 1921 60 6552 176 3085 1057 694 2629 4733 12035 2311 1379 2668 214 121 291 132 1130 961 1061 980 884 800 1159 53 59 159 4014 1694 23 281 282 124 14 23 415 13 62 25 5097 20
internal_value=0 0.117547 0.12856 0.194748 0.199527 0.202491 0.143908 0.207229 0.213065 0.139896 0.158675 0.158326 0.104868 0.131202 0.184963 0.183264 0.106677 0.0253396 0.0807712 0.0937985 0.135917 0.0869376 0.0717646 0.241749 0.188838 0.108268 0.132889 0.281012 0.151218 0.0907676 0.145163 0.0857026 0.144003 -0.0204213 -0.000101236 0.312203 0.0699326 0.219548 0.14788 0.160441 0.0864788 0.0462373 -0.113959 0.0126024 0.0493838 0.00678987 -0.0793183 0.1584 -0.0932808 -0.117959 -0.118627 -0.124984 -0.118499 -0.123373
internal_weight=0 15675.9 14964 57390.9 53375.9 52021.6 3892.71 48128.9 42997.7 13483.2 9580.51 5131.16 3004.91 4014.95 1257.81 6575.6 2757.14 1480.81 2365.96 3902.72 1340.44 2223.04 2562.29 1526.74 534.098 1727.38 815.62 442.193 85.6755 609.442 274.333 1354.32 775.03 871.367 681.345 356.517 1080.32 437.707 274.002 261.875 856.009 335.109 711.858 495.669 96.3913 224.312 40.5898 10.3052 190.022 701.553 698.945 13.7382 685.207 12.1273
internal_count=268644 70166 64815 198478 182190 175521 15509 160012 140969 56378 37811 19043 13996 16288 4482 23815 11806 8437 10664 18567 5838 9916 12729 4845 1890 7401 3210 1272 351 3073 1262 6669 2982 5364 3969 921 5470 1432 1199 1120 4187 1811 5351 2515 458 1283 228 46 1395 5305 5292 87 5205 79
is_linear=0
shrinkage=0.1


Tree=2
num_leaves=58
num_cat=0
split_feature=76 106 131 119 100 136 72 35 75 128 71 12 103 133 31 129 108 29 54 71 103 52 0 120 129 116 120 75 114 71 92 103 18 72 103 59 112 123 102 31 37 96 35 51 134 31 98 116 15 66 77 34 72 129 31 93 105
split_gain=4688.04 3056.28 1908.37 1357.43 1599.35 1155.59 983.982 976.016 842.519 734.166 727.239 670.95 582.445 564.351 748.035 560.261 508.17 507.207 488.409 473.058 432.592 425.867 371.981 370.471 340.199 366.061 262.025 209.295 189.642 182.063 173 156.276 131.518 127.979 170.158 137.745 100.218 96.0759 84.1278 106.894 57.6133 156.819 56.5158 47.8824 43.6975 41.8756 37.8944 31.4334 30.0574 21.3271 15.18 35.0836 7.01868 6.96941 0.10324 0.0221627 0.000191942
threshold=-1.2544885277748106 -0.86209917068481434 1.0000000180025095e-35 -1.6149605512619016 -0.76703718304634083 1.0000000180025095e-35 -0.79558509588241566 0.80748629570007335 -1.1905800104141233 1.0000000180025095e-35 -0.42628109455108637 0.27386629581451422 -0.8247733712196349 1.0000000180025095e-35 0.99131402373313915 1.0000000180025095e-35 -1.0602332949638364 1.1974167227745058 1.0671288371086123 -0.22588782757520673 -0.81633546948432911 1.1326810121536257 0.34667493402957922 -1.662268280982971 1.0000000180025095e-35 -0.89054042100906361 -1.7257367372512815 -1.1751033067703245 -1.2963543534278867 -0.45728740096092219 -1.1924443840980528 -0.81040471792221058 0.80734124779701244 -0.65547388792037953 -0.85087221860885609 0.79189810156822216 -0.87000551819801319 -1.1411432623863218 -0.77687516808509816 1.0033974647521975 0.89492070674896251 -1.0551494956016538 0.91378733515739452 1.0987382531166079 1.0000000180025095e-35 0.99874860048294078 -0.992038995027542 -0.89375868439674366 1.0407038331031802 0.33356486260890966 -1.3293141722679136 0.87102007865905773 -0.76823163032531727 1.0000000180025095e-35 0.92545473575592052 -1.182299733161926 -0.91448968648910511
decision_type=2 2 2 2 2 2 2 2 2 2 2 2 2 2 2 2 2 2 2 2 2 2 2 2 2 2 2 2 2 2 2 2 2 2 2 2 2 2 2 2 2 2 2 2 2 2 2 2 2 2 2 2 2 2 2 2 2
left_child=8 3 5 11 6 13 17 28 40 -8 20 19 33 15 -15 -3 18 -5 -13 32 -7 -18 -12 -9 25 44 -21 30 -6 48 -27 -31 -2 34 -4 -35 43 -29 39 -38 50 45 53 -26 47 -42 -47 -10 -14 -40 54 52 -52 -43 56 -56 -1
right_child=1 2 12 4 7 10 9 23 24 -11 22 16 29 14 -16 -17 21 -19 -20 26 -22 -23 -24 -25 36 27 -28 37 -30 31 -32 -33 -34 35 -36 -37 38 -39 49 -41 41 42 -44 -45 -46 46 -48 -49 -50 -51 51 -53 -54 -55 55 -57 -58
leaf_value=-0.11719623445727152 -0.091612898839781298 0.10424939850310273 0.083986457057577277 0.18562854671985038 -0.031371708689911709 0.14754347375059434 0.17226959241830239 0.16436994047922016 -0.091017691104342949 0.071708310861880009 0.14782280095838846 0.07783754171885203 -0.11168254200158922 -0.020883563858866132 0.39033230803017183 0.14213846745953018 0.34204308892754004 0.089714492941390334 0.2253564932869225 0.19693308298844869 0.016417273828821858 0.23929492062048019 0.23269969894960285 0.096203212543246555 0.14361963114805779 0.08735696534728514 -0.038042930450043484 0.16377775363242919 0.29250798544014711 0.059946921380345623 -0.082373128577184887 -0.069271504835224165 0.12394702142665669 0.19921483520913433 -0.0064689962556263971 0.053250685056737912 0.17247239972420358 0.064388776069803311 -0.12886660929286872 -0.032203037267831087 0.39772379377166206 -0.11422736454080973 0.31509117221730748 0.40752614173088397 0.27921432057437318 0.31185039275558996 -0.018542371048357303 -0.016513117502182133 0.21273794982813388 0.1421635216276409 -0.12083952256164565 0.23435242280242227 0.052334857045014997 -0.025732152169467622 -0.12534653228577528 -0.12002505809166074 -0.11631343076092625
leaf_weight=2.4757926166057578 102.84751677513123 13919.033326283097 516.63700583577156 716.01607636362314 19.099068939685822 3029.3020712137222 36726.985391244292 925.02335146069527 263.54822132736444 740.63323076069355 727.32457683980465 287.37555547058582 302.08555442094803 61.300299733877182 158.9179985076189 5423.2752752304077 619.17314359545708 2397.2664325237274 1024.7058335542679 474.19661717116833 274.38185031712055 1157.4992368668318 1780.0544725954533 5773.150047019124 10.56099382042885 97.684171184897423 52.734047129750252 144.83352022618055 338.3816192895174 187.55956122279167 155.8811392635107 186.8138136267662 39.051301240921021 132.03541810810566 348.06843228638172 126.68501465022564 164.34907584637403 296.10716062784195 15.656516015529634 30.206424385309219 7.3822024166584042 85.902605652809143 3.312203884124755 19.698435485363007 3.5190943926572791 5.5736568570137033 9.2041231691837275 72.124242223799229 2.8831020146608344 3.5642945766448966 14.463953852653507 4.0460923612117758 2.7921884357929239 9.9278175830841047 9.5830109193921071 42.69387686252594 471.71180704236031
leaf_count=20 570 55751 2448 2157 88 9916 107548 2871 1641 3515 2293 1103 2233 286 208 17852 834 8829 2414 1256 1153 2330 4194 20882 36 453 263 555 687 897 1102 1279 126 470 1903 602 538 1433 91 155 16 621 11 24 8 20 54 411 12 13 103 15 16 58 60 308 3912
internal_value=0 0.148375 0.121253 0.162717 0.158153 0.128316 0.165793 0.114209 -0.00871497 0.170282 0.167472 0.220583 0.0218368 0.116685 0.275866 0.114873 0.240246 0.111774 0.193047 0.129774 0.136653 0.275103 0.208079 0.105617 0.0388891 0.0138179 0.173417 0.0554055 0.275204 -0.0512578 -0.0169859 -0.00453359 -0.0322897 0.0660376 0.0475756 0.127742 0.145087 0.0970346 0.120977 0.140695 -0.0996254 -0.0372679 -0.0910229 0.315419 -0.0713342 0.203229 0.10607 -0.0750093 -0.108616 -0.078607 -0.113434 -0.0306765 -0.0928185 -0.105059 -0.116783 -0.121001 -0.116318
internal_weight=0 78570.5 27176.4 51394.1 47636.6 25373.6 40580.9 7055.65 1946.8 37467.6 5811.06 3757.58 1802.77 19562.5 220.218 19342.3 3088.75 3113.28 1312.08 668.829 3303.68 1776.67 2507.38 6698.17 1277.73 1033.7 526.931 694.506 357.481 679.342 253.565 374.373 141.899 1123.43 864.705 258.72 244.036 440.941 213.776 194.556 669.069 121.303 99.1426 30.2594 339.192 22.16 14.7778 335.672 304.969 19.2208 547.767 21.3022 17.2561 95.8304 526.464 52.2769 474.188
internal_count=268644 256970 101497 155473 146577 91653 122049 24528 11674 111063 17556 8896 9844 74097 494 73603 6681 10986 3517 2215 11069 3164 6487 23753 6460 5603 1519 3543 775 4421 1555 2176 696 5423 4351 1072 857 1988 797 693 5214 780 690 60 2060 90 74 2052 2245 104 4434 134 119 679 4300 368 3932
is_linear=0
shrinkage=0.1


Tree=3
num_leaves=50
num_cat=0
split_feature=75 106 131 119 98 128 130 54 30 131 74 80 32 63 99 122 103 85 98 109 120 105 4 77 5 92 105 70 110 99 75 109 34 134 37 93 130 119 30 101 82 117 29 87 107 75 88 108 79
split_gain=3361.6 2353.84 1279.61 882.722 859.368 711.227 732.018 1232.32 650.762 1036.75 752.179 629.043 599.835 621.104 589.372 487.334 433.248 342.553 319.963 317.951 324.38 275.924 227.883 179.816 171.499 153.161 142.828 166.534 141.652 113.399 110.909 106.244 105.751 103.483 55.5994 63.9788 40.892 35.7896 30.4056 25.9202 12.5485 10.6821 5.03973 3.76683 0.204283 0.0165176 0.00827898 0.00426474 0.00221344
threshold=-1.1751033067703245 -0.85686376690864552 1.0000000180025095e-35 -1.627784192562103 -0.74527260661125172 1.0000000180025095e-35 1.0000000180025095e-35 1.0014578700065615 1.0765919089317324 1.0000000180025095e-35 -1.0186000466346739 -0.34126020967960352 0.88896372914314281 0.65861263871192943 -0.88062208890914906 -2.0653294324874873 -0.81040471792221058 -1.3659623861312864 -0.68508833646774281 -1.1353414654731748 -1.7310995459556577 -0.82438203692436207 0.70860686898231517 -1.298594534397125 0.59506583213806163 -1.1858984827995298 -0.84311506152153004 -0.28938966989517206 -1.1938458085060117 -0.4234707504510879 -1.1905800104141233 -0.92577502131462086 0.88553947210311901 1.0000000180025095e-35 0.94197830557823192 -1.182299733161926 1.0000000180025095e-35 -0.89927425980567921 1.0422357916831972 -0.94596228003501881 -1.4149141311645506 -0.85850203037261952 1.1802641749382021 -1.2910056114196775 -0.86686781048774708 -1.1905800104141233 -1.2726837396621702 -0.83138379454612721 -1.3635373711585996
decision_type=2 2 2 2 2 2 2 2 2 2 2 2 2 2 2 2 2 2 2 2 2 2 2 2 2 2 2 2 2 2 2 2 2 2 2 2 2 2 2 2 2 2 2 2 2 2 2 2 2
left_child=22 3 5 11 8 6 7 -3 9 -5 -10 19 13 -6 -8 28 26 24 -14 21 -21 -2 25 -19 -7 30 32 -28 -13 -17 34 38 -4 39 35 -1 37 -32 -18 -27 -33 -38 44 -41 46 47 -24 -46 -47
right_child=1 2 16 4 12 17 14 -9 10 -11 -12 15 18 -15 -16 29 31 23 -20 20 -22 -23 42 -25 -26 33 27 -29 -30 -31 36 40 -34 -35 -36 -37 41 -39 -40 43 -42 -43 -44 -45 45 48 -48 -49 -50
leaf_value=0.09409105125340407 0.1639136882358761 0.038281556342416416 0.029212789459803976 0.14820684972216761 0.14559870604867028 0.13925318176503304 0.13089414119717468 0.13302611613520507 0.072066383703773926 0.081762626077139841 0.12924684157215524 -0.017711987047417242 0.098856371062167464 0.019473364548266574 0.052546447159834031 0.057804033539061689 0.062314613247836305 -0.069489743873196688 0.043636114333232959 0.25899179996674454 0.17981440664829873 -0.085627551912559205 -0.12775006734395727 0.056509208804772761 0.059875383053753763 0.19665465435303886 -0.024675850987543633 0.068415620575614441 0.2379584112055384 -0.060645220117920444 -0.028035758203290559 -0.028426191851465041 0.12327337321657135 0.31296992551392033 0.31277627463059604 -0.07922557041214251 -0.091916486848689999 0.11438837346134728 0.34304097743053358 -0.1072999231708039 -0.10709318197609093 0.078906865043497365 0.0045797644460467543 -0.050437541741170447 -0.11710779453813847 -0.11806426327895257 -0.1344146605856392 -0.11452039113537174 -0.12195420985491473
leaf_weight=25.833420939743519 827.59084528684616 1536.6029778569937 215.83910770714283 31508.485384270549 3168.3512745052576 838.40437391400337 1388.7526413351297 12880.211759611964 2864.6970705240965 2537.4603661894798 11681.264204904437 24.365974605083466 2396.2514344751835 445.32349374890327 3111.0118869543076 285.94447313249111 15.46494482457638 117.25008578598499 1866.750430971384 1119.9419719874859 961.79492853581905 46.816963821649551 3.5120995342731476 3332.0740938037634 403.02612440288067 2.9182746261358252 481.3625797778368 319.86584961414337 195.86467128992081 112.67324025928974 20.284043058753014 21.733538649976254 267.8710500150919 6.2892011404037467 4.3792314082384101 121.33842129260302 16.143886610865597 135.54606884717941 5.1407455056905738 180.12579461932182 302.57866798341274 4.734191119670867 3.557815045118331 12.455576978623865 6.4648774415254584 3.1034958884119987 3.971860706806182 435.78044724464417 2.7669302225112906
leaf_count=105 1961 6134 1087 84744 8767 2731 5028 37821 10193 9070 33123 106 7880 1809 13178 1070 75 650 7012 1319 2026 223 21 14575 1757 8 2833 1472 324 558 122 159 1075 6 11 879 108 557 12 1390 2507 22 16 68 52 24 21 3936 19
internal_value=0 0.123004 0.0973779 0.133774 0.130724 0.103294 0.111938 0.122928 0.13569 0.143255 0.117986 0.181963 0.100083 0.130056 0.0767267 0.0902834 0.0116806 0.0684382 0.0746757 0.201156 0.222411 0.150553 -0.0624069 0.0522262 0.113483 -0.0177348 0.0383928 0.0124881 0.209671 0.0243232 0.0244112 -0.0878317 0.0813021 -0.0862956 -0.0383547 -0.0488029 0.0782413 0.0958494 0.132351 -0.0991399 -0.101821 -0.0531816 -0.113976 -0.103622 -0.114902 -0.114628 -0.131287 -0.114558 -0.119898
internal_weight=0 85280.8 25237.2 60043.6 56468.6 23607.3 18916.6 14416.8 48591.9 34045.9 14546 3574.99 7876.68 3613.67 4499.76 618.848 1629.86 4690.75 4263 2956.14 2081.74 874.408 989.206 3449.32 1241.43 530.048 1284.94 801.228 220.231 398.618 328.259 344.918 483.71 201.789 151.551 147.172 176.708 155.83 20.6057 195.5 324.312 20.8781 459.158 192.581 455.6 448.116 7.48396 442.245 5.87043
internal_count=268644 261279 91094 170185 162598 81874 62161 43955 137130 93814 43316 7587 25468 10576 18206 2058 9220 19713 14892 5529 3345 2184 7365 15225 4488 3276 6467 4305 430 1628 1804 2753 2162 1472 995 984 809 679 87 1466 2666 130 4089 1458 4073 4031 42 3988 43
is_linear=0
shrinkage=0.1


Tree=4
num_leaves=42
num_cat=0
split_feature=114 106 136 131 119 32 133 135 30 101 114 35 5 103 71 72 112 102 30 118 0 52 105 0 70 74 127 34 35 127 70 78 32 97 46 103 21 108 120 75 76
split_gain=2551.9 1885.18 997.974 729.532 704.939 805.099 1238.14 1136.89 1277.23 1001.89 913.58 834.715 488.51 448.951 421.588 406.879 404.629 299.894 324.987 293.438 653.906 287.927 241.527 231.877 213.043 161.941 151.848 121.558 104.763 85.643 70.4601 65.414 57.871 12.3975 9.99532 0.324913 0.147038 0.0541008 0.049641 0.0359136 0.0141846
threshold=-0.81937423348426808 -0.86209917068481434 1.0000000180025095e-35 1.0000000180025095e-35 -1.6149605512619016 0.92725425958633434 1.0000000180025095e-35 1.0000000180025095e-35 1.0708033442497256 -0.90343642234802235 -1.0079010128974912 0.88814809918403637 0.65867874026298534 -0.85087221860885609 -0.42628109455108637 -0.27351918816566462 -1.3258394002914426 -0.81789326667785633 1.0507039427757265 -1.6109737157821653 -0.23825456947088239 1.1421890258789065 -0.83367061614990223 0.3436990380287171 -0.20806783437728879 -0.88787460327148426 -3.2035433053970332 0.88502368330955516 0.9024639129638673 -3.261117577552795 -0.30837428569793696 -1.2428671717643736 0.94961604475975048 -1.0111509561538694 1.1220008134841921 -1.0431127548217771 1.6265869140625002 -0.81225779652595509 -0.57520508766174305 -1.1751033067703245 -1.2582361698150633
decision_type=2 2 2 2 2 2 2 2 2 2 2 2 2 2 2 2 2 2 2 2 2 2 2 2 2 2 2 2 2 2 2 2 2 2 2 2 2 2 2 2 2
left_child=1 4 3 12 16 7 10 9 -9 -6 -7 -8 15 -14 17 -3 21 18 -4 29 -21 28 27 24 -16 -25 -23 -5 -1 -18 -24 -19 34 -34 35 37 38 -2 -37 -38 -39
right_child=32 2 14 22 5 6 11 8 -10 -11 -12 -13 13 -15 23 -17 19 31 -20 20 -22 26 30 25 -26 -27 -28 -29 -30 -31 -32 -33 33 -35 -36 36 39 40 -40 -41 -42
leaf_value=-0.070739570378385006 -0.14131284799446683 0.082430317421907373 0.18041306656680822 0.0022392057772931294 0.11843552152320723 0.091687572700667616 0.1315663588277485 0.1802275576998289 0.10386326401650739 0.067716877449247592 0.1347018291866687 0.20541221831403031 0.072741390251528426 -0.054712685159687059 0.067386729629533057 0.199855116488207 0.10645068111484722 -0.046184944029577936 0.092505443435288492 0.049588158689274964 0.17392924744902433 0.028602363392336502 -0.08495456668706991 0.15534655352956339 0.18210253898380291 0.24401243687515142 0.15514863244223859 0.065968902601721349 0.14021381746057546 0.2345551317512703 -0.010821816790229513 0.053027922982712021 0.22328716662845871 0.018558423685287238 0.11168707673326128 -0.11877689011440265 -0.11396588752936719 -0.12065371002447758 -0.1130592258000761 -0.12734981123900391 -0.1301249426068834
leaf_weight=135.4277825653553 3.6445346027612686 21542.643266223371 490.14503142237663 457.07411577552557 5838.8169680386782 10258.413169175386 3540.6645103693008 3087.6035738885403 7535.8348096013069 11697.929887190461 9519.8375527188182 2696.3657280802727 624.42831473052502 495.81785935163498 549.12072151899338 299.1823004335165 56.722907274961472 156.54870709776878 2961.6608482152224 509.59814931452274 2487.3600092828274 131.56983658671379 166.00933228433132 1889.4748010933399 229.57240374386311 231.19372293353081 339.496965020895 867.0418770685792 28.494699567556381 652.63056150078773 563.08718287944794 115.47698491811752 5.2994090765714645 6.6941558569669706 1.9728009551763523 15.645201973617075 2.5535442456603041 2.7623910680413246 515.78158730268478 9.3312622010707837 3.6982159614562971
leaf_count=625 18 73995 1000 2423 15557 29616 8608 6403 21223 36306 23780 5194 2275 2445 1683 640 138 670 9003 1680 4516 533 1182 3978 492 334 697 3689 68 639 3483 396 11 35 7 128 24 21 5052 56 21
internal_value=0 0.104433 0.0847676 0.0756289 0.115066 0.111959 0.124642 0.100242 0.126058 0.0846035 0.112392 0.163491 0.0807355 0.0163306 0.119284 0.0840388 0.153839 0.0970215 0.104988 0.166476 0.152786 0.0800816 0.0185195 0.147876 0.101207 0.165013 0.119804 0.0439699 -0.0340695 0.224311 -0.0277012 -0.00406832 -0.10831 0.109019 -0.113003 -0.113804 -0.113474 -0.131571 -0.113228 -0.124474 -0.126075
internal_weight=0 90155.2 31638.5 25015.3 58516.8 54175.5 26015.3 28160.2 10623.4 17536.7 19778.3 6237.03 22962.1 1120.25 6623.19 21841.8 4341.3 3723.83 3451.81 3706.31 2996.96 634.989 2053.21 2899.36 778.693 2120.67 471.067 1324.12 163.922 709.353 729.097 272.026 567.383 11.9936 555.39 553.417 543.312 10.1051 531.427 11.8848 6.46061
internal_count=268644 263271 107688 90132 155583 146687 67198 79489 27626 51863 53396 13802 79355 4720 17556 74635 8896 11069 10003 6973 6196 1923 10777 6487 2175 4312 1230 6112 693 777 4665 1066 5373 46 5327 5320 5260 60 5180 80 42
is_linear=0
shrinkage=0.1


Tree=5
num_leaves=51
num_cat=0
split_feature=75 128 130 131 31 30 101 0 31 103 86 77 31 4 105 90 74 75 69 103 70 124 114 68 92 112 59 75 35 134 32 102 70 116 54 120 75 35 130 120 100 32 117 77 32 107 112 77 78 75
split_gain=2027.72 1406.72 1195.27 1221.57 1415.04 525.665 722.391 515.104 482.899 465.305 306.988 252.789 262.584 185.491 181.962 181.503 337.634 261.406 163.016 400.813 158.711 153.558 222.289 152.969 130.63 125.41 121.014 82.2618 78.7426 78.6324 77.3547 71.9964 70.3406 56.2605 62.2751 42.8625 44.1712 36.1049 31.1116 26.8837 23.1111 15.4163 8.49267 4.07124 3.10647 0.277344 0.0339577 0.0116852 0.00479127 0.0020331
threshold=-1.1751033067703245 1.0000000180025095e-35 1.0000000180025095e-35 1.0000000180025095e-35 1.0096884369850161 1.0844551324844363 -0.86669668555259693 0.47053036093711859 1.0045858621597292 -0.82845389842987049 -1.3248714208602903 -1.2803245186805723 1.000485420227051 0.70860686898231517 -0.85224869847297657 -1.1298930644989011 -0.89034774899482716 -1.131605803966522 -0.052337793633341782 -0.78172093629837025 -0.17744743078947064 -1.216221749782562 -0.94931602478027333 0.063618060201406493 -1.1858984827995298 -0.90714731812477101 0.84534755349159252 -1.1905800104141233 0.94873821735382091 1.0000000180025095e-35 0.94463440775871288 -0.74942263960838307 -0.23342284560203549 -0.9316226840019225 1.0092568993568423 -0.88822481036186207 -1.2087407708168028 0.91378733515739452 1.0000000180025095e-35 -0.92586040496826161 -0.96881085634231556 0.96594843268394481 -0.85850203037261952 -1.278595447540283 0.95882758498191845 -0.86592745780944813 -0.80699378252029408 -1.2937108278274534 -1.3383885622024534 -1.1905800104141233
decision_type=2 2 2 2 2 2 2 2 2 2 2 2 2 2 2 2 2 2 2 2 2 2 2 2 2 2 2 2 2 2 2 2 2 2 2 2 2 2 2 2 2 2 2 2 2 2 2 2 2 2
left_child=13 2 3 5 9 6 -2 -7 15 -5 18 33 20 24 -6 17 -17 -4 19 23 -13 22 -10 -3 27 -14 31 35 -28 40 -23 -20 -21 41 -35 37 -37 -1 39 -29 -26 -12 -40 45 -42 47 48 -15 -47 -48
right_child=1 10 8 4 14 7 -8 -9 21 -11 11 12 25 43 -16 16 -18 -19 26 32 -22 30 -24 -25 29 -27 28 38 -30 -31 -32 -33 -34 34 -36 36 -38 -39 42 -41 44 -43 -44 -45 -46 46 49 -49 -50 -51
leaf_value=-0.087793257139230169 0.12196607886936946 0.065937157283343026 0.016769550744247613 0.04052471667064985 0.13087857592102978 -0.0043767165856138119 0.098029407263075269 0.084950121048629368 0.082910671833266725 -0.038164658782748842 -0.1205120115594506 0.0044868292953938954 0.059269745266822028 -0.12681505499824797 0.023612060677198479 0.0060053739351351946 0.070609810121121094 0.084429362611414122 0.15251944601184503 -0.1213672835624648 0.064076188442575718 0.098285825996445253 0.15146232139874571 0.16808961998773772 0.18031112427772991 0.15316861865838108 0.024051250375658455 -0.11985754864435566 0.15806447106193433 0.24368634675104706 -0.043085015567092683 -0.13583801867968978 -0.012191734107052916 -0.065651807666458145 0.18542777239023855 -0.062712536281967809 0.12753706603049816 0.22042732944497351 -0.090316021814103489 0.083869190087213358 -0.10446188068793004 -0.034698465110320632 0.057405050666034241 -0.0087517141095212279 -0.027904223682817454 -0.11586068143999032 -0.11156478596564399 -0.13453244196829872 -0.12064741253985459 -0.1144707663198602
leaf_weight=96.136604830622673 17194.00981862843 766.6457564085722 827.57454206049442 3268.7310105264187 1963.274082839489 713.10326525568962 47269.748952895403 6814.7625483423471 1605.4360622912645 975.78512953966856 132.74346028268337 2130.9013594090939 1327.2690787017345 3.8773724660277367 171.99822396039963 2281.7328000813723 1253.2778881490231 1841.9880786240101 450.48787640035152 103.23654535412788 565.59576122462749 58.757567465305328 670.60919387638569 181.24629285931587 2.9419148862361899 159.30901725590229 171.95861424505711 6.74912305176258 58.849281892180443 6.9961419105529776 113.4126110970974 8.8282932937145215 137.76703985035419 28.511929631233215 15.115606322884558 22.933511473238468 26.083703204989433 3.9569498598575583 15.721225634217264 160.82305458188057 179.08884036540985 24.854600146412849 5.1723164319992057 3.8487081453204146 5.4618079438805571 4.7037438973784447 365.89142950624228 3.9717080891132346 3.7647305428981763 2.4234881624579421
leaf_count=737 38979 2897 3367 12349 4588 2410 123166 19000 4664 6035 722 9265 5031 24 694 8897 4062 6127 1205 531 2197 178 1774 472 6 472 638 50 162 6 498 46 556 138 42 149 102 7 108 629 1418 117 22 17 42 40 3938 21 27 22
internal_value=0 0.0905887 0.0938831 0.0977772 0.0558382 0.101494 0.104414 0.0764883 0.0586124 0.0224346 0.0448157 0.0303222 0.0355887 -0.0585579 0.122238 0.0437729 0.0289098 0.0634546 0.0786334 0.0561924 0.0169858 0.0962205 0.103109 0.0854697 -0.0202012 0.0693324 0.117293 0.0174085 0.0582207 -0.0854807 0.00516147 0.146977 -0.0589583 -0.0791579 0.0213396 -0.0380892 0.0385257 -0.0756085 0.0613173 0.0756639 -0.0977634 -0.106978 -0.0537468 -0.111091 -0.102196 -0.112115 -0.111728 -0.13072 -0.117989 -0.111584
internal_weight=0 93287.5 87024.2 78371.4 6379.79 71991.6 64463.8 7527.87 8652.79 4244.52 6263.32 4384.3 4183.08 920.546 2135.27 6204.57 3535.01 2669.56 1879.02 1188.9 2696.5 2448.22 2276.05 947.892 532.065 1486.58 690.124 337.576 230.808 194.489 172.17 459.316 241.004 201.226 43.6275 149.111 49.0172 100.094 188.466 167.572 187.493 157.598 20.8935 388.481 184.551 384.632 376.783 7.84908 8.46847 368.315
internal_count=268644 261279 236788 207221 23666 183555 162145 21410 29567 18384 24491 17984 16965 7365 5282 22453 12959 9494 6507 4456 11462 7114 6438 3369 3276 5503 2051 1804 800 1472 676 1251 1087 1019 180 995 251 744 809 679 1466 839 130 4089 1460 4072 4027 45 67 3960
is_linear=0
shrinkage=0.1


Tree=6
num_leaves=42
num_cat=0
split_feature=114 106 119 136 32 133 135 75 0 31 114 5 100 110 125 70 134 54 129 5 104 30 5 0 124 55 70 31 53 127 106 105 32 44 96 103 19 120 12 78 74
split_gain=1646.54 1185.2 602.219 598.709 573.186 838.545 692.051 1014.09 669.859 635.717 588.612 521.761 919.862 461.313 428.574 351.803 329.277 758.341 329.41 323.461 270.488 241.082 226.483 187.835 226.091 183.513 171.514 150.356 147.583 391.762 219.324 64.2976 48.8881 10.888 10.7519 0.396102 0.165864 0.0729467 0.049292 0.0147129 0.00846145
threshold=-0.81937423348426808 -0.86209917068481434 -1.627784192562103 1.0000000180025095e-35 0.92788949608802807 1.0000000180025095e-35 1.0000000180025095e-35 -1.0832815766334531 0.4790529608726502 1.0079067945480349 -0.99072098731994618 0.61868375539779674 -0.86637195944786061 -1.1938458085060117 -2.6339937448501582 -0.26565855741500849 1.0000000180025095e-35 1.0706343650817873 1.0000000180025095e-35 0.66940000653266918 -0.82379367947578419 1.0540071129798891 0.63748052716255199 0.36946165561676031 -1.460625886917114 1.0172210931777956 -0.20615836232900617 0.99930745363235485 1.1053023934364321 -3.1820415258407588 -0.90953397750854481 -0.80132287740707386 0.94961604475975048 1.0795043706893923 -1.0551494956016538 -1.0431127548217771 1.75715047121048 -0.57520508766174305 1.1205564141273501 -1.2977056503295896 -1.0083772540092466
decision_type=2 2 2 2 2 2 2 2 2 2 2 2 2 2 2 2 2 2 2 2 2 2 2 2 2 2 2 2 2 2 2 2 2 2 2 2 2 2 2 2 2
left_child=1 2 13 11 6 10 8 -8 -4 -7 -6 16 19 14 31 20 18 -18 -3 -13 21 -5 -14 26 -25 -16 -17 -22 30 -30 -15 -1 33 35 -34 38 37 -37 -2 -38 -40
right_child=32 3 4 15 5 9 7 -9 -10 -11 -12 12 22 28 25 23 17 -19 -20 -21 27 -23 -24 24 -26 -27 -28 -29 29 -31 -32 -33 34 -35 -36 36 39 -39 40 -41 -42
leaf_value=0.019938453303240559 -0.14159792046231809 0.048082506748942988 0.049497715845787216 0.13114572361647028 0.071968118127622382 0.1368005980967438 0.056161606317337312 0.11745787042084198 0.087576661733372252 0.037742471696149006 0.1064840200588848 0.068333761455764183 -0.015253917281232033 -0.091436098116880637 -0.036883415307046911 0.066191659582216233 0.071724816092890248 0.19993048694940804 0.076485244344964287 0.0021523687588928682 0.059114080542497963 0.06137367722184614 -0.10540017330899552 0.18494929005998628 0.1108989913814499 0.12358903779049131 0.1527048627669518 -0.07819030139187555 0.083426055797597487 0.19268156216834464 0.20698077774162155 -0.076467902810392285 0.19145691366835352 0.13502341330989384 0.0064740201951350943 -0.11785295241874989 -0.11757731316794139 -0.11065084361509406 -0.12212267020866441 -0.12645269252946056 -0.12934258020555123
leaf_weight=326.09933780133724 3.1709669679403287 11688.659682705998 12365.522891625762 619.375089854002 13009.555858701468 5889.6965689212084 4308.9641713202 7223.9977255314589 7374.9423009976745 727.93614514172077 7966.0488892868161 2891.2711952924728 741.88996160775423 25.577627286314964 75.242728739976883 1186.4473650753498 3032.5681839436293 544.15846478939056 6275.721140190959 991.83907848596573 137.92853793501854 2470.6076787561178 446.39917773008347 544.6951150149107 1696.5355897992849 1347.3714145421982 284.01447117328644 189.09183411300182 647.91315491497517 665.10159736871719 663.76994669437408 87.808739602565765 5.6032425612211227 1.7971626669168461 7.1536856740713102 14.528629861772059 2.5313274040818214 439.05101701617241 2.6769491508603096 7.1252209395170194 4.1238041520118713
leaf_count=1095 16 43488 36076 1250 34736 11426 12239 15530 18289 2002 18114 10553 3085 92 298 3094 8467 971 16906 4389 379 7115 2273 802 3608 2479 511 797 1494 686 624 403 10 7 36 131 22 5062 21 44 24
internal_value=0 0.078734 0.0868656 0.0636219 0.084363 0.0948681 0.0750942 0.0945563 0.0637238 0.125904 0.0850765 0.0567276 0.0278698 0.125241 0.0890447 0.0893593 0.0635215 0.0912299 0.0580048 0.0514295 0.0662063 0.0753592 -0.0491188 0.110674 0.128896 0.115102 0.0829014 -0.0202789 0.15844 0.138769 0.195908 -0.000513722 -0.105461 -0.110649 0.0877243 -0.111582 -0.111158 -0.110882 -0.131302 -0.124126 -0.126501
internal_weight=0 96446.8 62705.5 33741.2 58866.7 27593.2 31273.4 11533 19740.5 6617.63 20975.6 26612.5 5071.4 3838.88 1836.52 7128.7 21541.1 3576.73 17964.4 3883.11 3417 3089.98 1188.29 3711.69 2241.23 1422.61 1470.46 327.02 2002.36 1313.01 689.348 413.908 487.762 475.005 12.7569 473.208 463.236 453.58 9.97172 9.65655 6.80075
internal_count=268644 263271 155583 107688 148412 66278 82134 27769 54365 13428 52850 90132 20300 7171 4275 17556 69832 9438 60394 14942 9541 8365 5358 8015 4410 2777 3605 1176 2896 2180 716 1498 5373 5327 46 5320 5259 5193 61 66 45
is_linear=0
shrinkage=0.1


Tree=7
num_leaves=45
num_cat=0
split_feature=114 128 130 131 31 119 62 110 31 105 85 31 78 75 90 30 69 103 68 56 125 108 53 111 103 69 34 107 86 32 43 90 30 76 24 103 54 21 32 12 75 120 74 31
split_gain=1336.49 977.111 839.131 890.857 1008.53 455.195 735.95 566.886 351.974 268.455 190.907 188.592 200.589 182.776 164.477 161.576 150.138 290.63 152.397 123.999 123.273 149.781 116.844 114.238 70.7644 65.6943 61.4002 61.0462 57.0566 54.8806 44.5587 43.8764 15.1856 13.7744 12.3051 0.277583 0.177352 0.108837 0.0664611 0.0331003 0.0243597 0.0236131 0.00563254 0.00128904
threshold=-0.81937423348426808 1.0000000180025095e-35 1.0000000180025095e-35 1.0000000180025095e-35 1.0107372403144839 -1.6475479006767271 0.73865565657615673 -1.2049928307533262 1.0045858621597292 -0.88904029130935658 -1.3486995100975034 0.98093965649604808 -1.3255556821823118 -1.1699967384338377 -1.1335043311119077 1.1106675863265993 -0.052337793633341782 -0.78172093629837025 0.063618060201406493 1.0073084831237795 -1.2986394762992857 -0.86867851018905629 1.1011520624160769 -0.89734309911727894 -0.76275157928466786 -0.06776604056358336 0.92069813609123241 -0.8117467164993285 -1.3248714208602903 0.94496437907218944 1.0132430195808413 -1.1548551917076109 1.0514253377914431 -1.3114790320396421 1.2417569160461428 -1.0431127548217771 0.99469527602195751 1.6265869140625002 0.95287981629371654 1.1205564141273501 -1.1751033067703245 -0.57520508766174305 -1.0083772540092466 0.99345549941062938
decision_type=2 2 2 2 2 2 2 2 2 2 2 2 2 2 2 2 2 2 2 2 2 2 2 2 2 2 2 2 2 2 2 2 2 2 2 2 2 2 2 2 2 2 2 2
left_child=1 2 3 5 9 7 -7 -1 13 -5 16 19 28 32 -15 -6 17 18 -3 31 21 -10 24 -14 -18 -19 -24 -21 -13 -22 35 -12 -4 34 -32 39 37 41 43 -2 -39 -37 -41 -36
right_child=30 10 8 4 15 6 -8 -9 20 -11 11 12 23 14 -16 -17 22 25 -20 27 29 -23 26 -25 -26 -27 -28 -29 -30 -31 33 -33 -34 -35 38 36 -38 40 -40 42 -42 -43 -44 -45
leaf_value=0.035689698641846186 -0.13621716132201864 0.041659341961484603 -0.11630624091106685 0.060804907665399491 0.10510897959587542 0.077874531880539236 -0.0065989811453378636 0.14090793710705524 0.067749362071415714 0.003717425904521305 -0.023814274203882612 0.052304812043539761 0.02782019485272498 0.052536993135857038 0.019960128752694685 -0.10598527884483411 0.13254358055908991 -0.10732353487570366 0.13748151018922602 0.10318362456392415 0.061844834365578354 0.12997565254259086 0.20994043178388533 0.083254485989559313 0.070300835148307192 -0.00682959697046187 -0.11531765618264395 -0.13481683471651582 -0.080322442200970304 -0.052962618602143886 0.10807702986715793 -0.085453729037023904 -0.051117116357876261 0.14468045655222037 -0.11095020561922186 -0.11512576684907366 -0.14016379068721682 -0.11010819853332576 -0.13472962816993189 -0.11969603463877228 -0.12249085455243605 -0.10953759887846409 -0.12582139439403889 -0.1146399717490771
leaf_weight=662.85010200738907 2.9766046553850156 896.26193748414516 64.93719258159399 1051.0870405137539 1918.0705212950706 71965.752822212875 1046.3480262756348 2250.7766377329826 1946.3514152914286 3808.3747251927853 227.21866019070148 38.496564261615276 3315.4025388658047 2629.3658953756094 3774.8771781027317 36.958464249968529 367.93210290372372 132.80221939831972 203.69807705283165 80.634177073836327 69.319410234689713 482.76336781680584 6.8608831763267508 418.7000215947628 362.73435568809509 127.50600092113018 37.669510439038277 12.439752653241156 206.07296262681484 104.26260498166084 3.885159008204937 234.8343997746706 79.45967136323452 8.2839387059211731 1.9390805438160899 7.7071484178304663 1.9451378732919682 1.9686601310968388 2.160397469997406 2.4687762930989265 8.231623061001299 400.41262850910425 3.8303692638874054 1.8502787202596662
leaf_count=1956 16 3493 456 3159 4245 174747 3690 3421 5286 16397 1000 144 12754 8799 13345 144 888 714 485 266 209 1193 14 1377 1115 503 177 65 1055 478 15 1182 514 23 22 79 10 24 12 21 56 5053 24 18
internal_value=0 0.0692416 0.071924 0.0751021 0.0404664 0.0782107 0.0766639 0.116971 0.0431902 0.0160653 0.0322828 0.0206713 0.0282896 0.0308265 0.0333351 0.101118 0.056935 0.0369183 0.0594043 -0.03393 0.0742985 0.0801162 0.0920592 0.034036 0.101644 -0.0580989 -0.0652045 0.0713738 -0.0594462 -0.00711464 -0.103936 -0.055142 -0.0804335 0.0496772 -0.030344 -0.110416 -0.110038 -0.109898 -0.120732 -0.127527 -0.120101 -0.109643 -0.123421 -0.112752
internal_weight=0 98560.8 91891.6 82740.2 6814.49 75925.7 73012.1 2913.63 9151.34 4859.46 6669.26 4533.8 3978.67 6548.64 6404.24 1955.03 2135.47 1360.27 1099.96 555.127 2602.7 2429.11 775.197 3734.1 730.666 260.308 44.5304 93.0739 244.57 173.582 447.66 462.053 144.397 18.1189 9.83492 429.541 420.265 418.32 5.94976 9.27575 10.2003 408.12 6.29915 3.78936
internal_count=268644 263271 238039 207759 23945 183814 178437 5377 30280 19556 25232 17843 15330 23114 22144 4389 7389 5195 3978 2513 7166 6479 2194 14131 2003 1217 191 331 1199 687 5373 2182 970 90 67 5283 5222 5212 52 61 80 5132 45 40
is_linear=0
shrinkage=0.1


Tree=8
num_leaves=48
num_cat=0
split_feature=75 106 119 100 35 72 72 131 14 71 5 102 29 104 0 5 26 110 51 51 135 120 4 4 114 88 75 92 69 123 134 75 62 120 37 35 76 121 42 34 100 130 29 30 107 112 75
split_gain=1101.19 771.061 479.937 587.138 565.571 516.197 430.414 397.565 287.751 327.053 279.964 601.886 269.765 266.635 263.322 264.51 232.513 227.236 332.4 267.184 182.698 166.003 145.238 137.478 128.889 123.022 110.058 104.416 96.3558 70.6618 61.397 59.2936 58.3134 34.5017 32.3742 28.0596 24.0225 23.3644 41.8999 34.5859 17.4516 3.76733 3.15346 0.437191 0.053387 0.0234012 0.000824848
threshold=-1.1751033067703245 -0.8609851300716399 -1.6070342063903806 -0.76703718304634083 0.80950182676315319 -0.79842036962509144 -0.57235097885131825 1.0000000180025095e-35 0.45019753277301794 -0.22588782757520673 0.64446720480918895 -0.84686067700386036 1.2032101750373843 -0.81115016341209401 0.48220883309841162 0.63748052716255199 1.3282676339149477 -1.182993948459625 1.1585425138473513 1.1670877933502199 1.0000000180025095e-35 -1.7424525618553159 0.65280240774154674 0.70860686898231517 -1.2963543534278867 -1.3349788188934324 -1.136968672275543 -1.1858984827995298 -0.11180386692285536 -1.5699032545089719 1.0000000180025095e-35 -1.1905800104141233 0.71397781372070324 -0.88822481036186207 0.89492070674896251 0.91378733515739452 -1.2802720069885252 -0.94883060455322255 1.0395148396492007 0.88299581408500682 -0.96881085634231556 1.0000000180025095e-35 1.1802641749382021 1.0801132321357729 -0.8681860864162444 -0.80699378252029408 -1.1905800104141233
decision_type=2 2 2 2 2 2 2 2 2 2 2 2 2 2 2 2 2 2 2 2 2 2 2 2 2 2 2 2 2 2 2 2 2 2 2 2 2 2 2 2 2 2 2 2 2 2 2
left_child=23 2 8 5 24 12 -7 10 9 32 14 22 -4 25 15 -3 -13 19 -19 -10 -6 -11 -12 27 -5 -9 -27 31 -16 -15 40 33 -2 35 -35 -1 -31 38 -33 -39 -29 -42 43 45 -45 -25 -47
right_child=1 7 3 4 20 6 -8 13 17 21 11 16 -14 29 28 -17 -18 18 -20 -21 -22 -23 -24 42 -26 26 -28 30 -30 36 -32 37 -34 34 -36 -37 -38 39 -40 -41 41 -43 -44 44 -46 46 -48
leaf_value=-0.085870807204091182 0.19026172974538871 0.054529774045287319 0.077104465930766836 -0.074061166097543998 0.029365436168881973 0.068974383901353339 0.10206908333933072 0.33094224792704269 0.056197513428819693 0.10835799336520063 0.062427901903878459 -0.08923063112195416 0.015398355069119225 0.18711965590865065 0.14178037987638736 -0.025848500325265131 0.2714691474671454 0.18888733675505393 0.085599317194128915 0.11733217279447994 0.081881341398526652 0.0062719864339152503 -0.0040243642346036237 -0.11571962825975335 0.15617619855448464 -0.019804536693889166 0.035402023819045191 0.13524170779144357 -0.15256585209975676 0.17413964295840773 0.20156979656302615 -0.017870992906860537 -0.10412587161170461 -0.062340540308285224 0.098614351226597716 0.17503006432802565 -0.09760420012409321 0.023710346235077936 0.18205115279438303 0.13792896695778431 -0.10990000503677831 -0.077934144630982416 -0.01991873421392977 -0.1341607222318757 -0.12018824323542157 -0.10830516115848288 -0.11036900770504772
leaf_weight=92.577493846416473 7.0627615898847571 28471.095250725746 977.71103319525719 25.639017507433891 7162.9888232350349 44895.406418889761 4306.7715169340372 12.672108910977839 1193.3133748918772 457.17023724317551 1331.0121193230152 501.52581723034382 2572.8639123439789 9.2284964472055417 402.97015875577927 415.38867926597595 18.531596571207047 707.87074427306652 556.53607392311096 1783.0887774825096 729.95603935420513 244.46408939361572 436.84345091879368 4.3392381891608229 470.63059778511524 524.6475473716855 1158.4979855194688 3.2074387520551673 11.437083244323729 3.2933305799961081 7.2213284969329825 81.652050979435444 142.24700264632702 22.37069358676672 28.312024317681789 4.3143208622932425 266.40655679255724 57.655374765396118 12.027299225330351 49.077667385339737 120.97038917243481 53.031739450991154 4.0098432451486579 6.7093645632266998 4.6158862337470037 279.01676386594772 1.9500403255224217
leaf_count=737 13 81951 2347 101 21147 105982 8872 32 2845 892 3853 2393 7651 34 886 1597 26 692 1165 2893 1721 787 1602 38 757 2587 5058 6 51 17 6 420 673 135 116 7 2654 214 30 145 987 473 16 36 34 3942 23
internal_value=0 0.0615054 0.0677626 0.0653061 0.0407328 0.0692139 0.0718712 0.0491575 0.0972603 0.0441903 0.0518787 0.0181884 0.0323902 0.00562829 0.0545094 0.0533739 -0.0763775 0.107909 0.143425 0.0928218 0.0342222 0.0727891 0.0460073 -0.0539456 0.144281 0.0205308 0.0181938 -0.0234192 0.133657 -0.0849755 -0.0842497 0.00882057 -0.0902005 -0.0392832 0.027571 -0.0742536 -0.0942859 0.044242 0.0077966 0.07623 -0.0958969 -0.100158 -0.108006 -0.109197 -0.128466 -0.108432 -0.108319
internal_weight=0 99797.3 66233.7 61142 8389.21 52752.8 49202.2 33563.6 5091.75 850.944 31588.8 2287.91 3550.57 1974.75 29300.9 28886.5 520.057 4240.81 1264.41 2976.4 7892.94 701.634 1767.86 833.059 496.27 1695.82 1683.15 532.418 414.407 278.928 184.431 347.987 149.31 147.575 50.6827 96.8918 269.7 200.412 93.6794 106.733 177.21 174.002 300.641 296.631 11.3253 285.306 280.967
internal_count=268644 261279 158538 148578 23726 124852 114854 102741 9960 2365 92359 7874 9998 10382 84485 83548 2419 7595 1857 5738 22868 1679 5455 7365 858 7677 7645 3276 937 2705 1472 1804 686 995 251 744 2671 809 450 359 1466 1460 4089 4073 70 4003 3965
is_linear=0
shrinkage=0.1


Tree=9
num_leaves=44
num_cat=0
split_feature=114 128 130 131 31 30 101 0 31 123 105 125 118 85 31 74 99 118 96 73 53 70 28 103 27 68 4 116 3 62 77 106 43 82 69 103 54 21 32 106 120 75 76
split_gain=918.893 743.545 652.229 631.253 764.976 390.106 522.515 389.449 275.069 202.165 188.596 160.167 257.714 156.004 150.17 159.238 149.165 130.08 127.159 126.806 117.105 114.983 150.596 98.5264 90.9216 135.946 88.3037 79.2203 57.5621 51.5889 51.0034 49.3547 36.7604 14.1398 9.21836 0.268015 0.136643 0.0943628 0.071691 0.0387685 0.0217781 0.0195788 0.00869215
threshold=-0.81937423348426808 1.0000000180025095e-35 1.0000000180025095e-35 1.0000000180025095e-35 1.0093861222267153 1.0839557051658633 -0.87007972598075856 0.49019429087638861 1.000156104564667 -1.5766370892524717 -0.8916962444782256 -1.2986394762992857 -1.0241267085075376 -1.3486995100975034 1.0003775358200075 -0.9896254539489745 -0.82381284236907948 -0.93792089819908131 -0.80425715446472157 -0.91265919804573048 1.0564494132995608 -0.17744743078947064 1.1047059893608095 -0.78814801573753346 1.1885775327682497 0.063618060201406493 0.58333441615104686 -0.95607289671897877 0.51949158310890209 0.65860241651535045 -1.3092972040176389 -0.80291616916656483 1.0132430195808413 -1.4547793269157407 -0.12643534690141675 -1.0431127548217771 0.99469527602195751 1.6265869140625002 0.95287981629371654 -0.91190397739410389 -0.57520508766174305 -1.1751033067703245 -1.2236759662628172
decision_type=2 2 2 2 2 2 2 2 2 2 2 2 2 2 2 2 2 2 2 2 2 2 2 2 2 2 2 2 2 2 2 2 2 2 2 2 2 2 2 2 2 2 2
left_child=1 2 3 5 10 6 -1 -7 9 18 -5 12 -10 20 21 17 -11 -16 -4 -6 23 22 -15 26 25 -22 -3 -17 -25 -23 -13 -26 35 34 38 39 37 40 -34 -2 -37 -39 -41
right_child=32 13 8 4 19 7 -8 -9 11 16 -12 30 -14 14 15 27 -18 -19 -20 -21 24 29 -24 28 31 -27 -28 -29 -30 -31 -32 -33 33 -35 -36 36 -38 41 -40 42 -42 -43 -44
leaf_value=0.079590717113393994 -0.13549518152587181 0.0976246000232463 0.18343213362451471 0.045947553042948015 0.0098168822906997966 -0.011296481725125292 0.059512756003174863 0.050418778750918894 0.028473991803272244 0.020298993038420865 -0.0044930169849024979 -0.078495066008521019 0.07795856090355506 -0.086238873497353624 -0.068513944711567742 0.040351579194875767 -0.020138105671674116 0.073111485664292361 0.05206187169558775 0.082991678438575009 -0.0090482459956754153 0.11667115412940697 -0.0031805960821305319 0.22688489514650706 0.16085292208624186 0.068570598202078809 0.0060136725528685524 0.11227325211584312 -0.081837072728306565 0.026282258831768469 0.0086857057025821072 -0.087046100325786246 -0.11055863778667807 0.19952808372642145 0.044999481003736588 -0.11346569863453426 -0.13550816029996343 -0.10812568808590906 -0.13459348054613371 -0.11685510691398569 -0.10770225250497237 -0.12016774752977794 -0.12461398563045303
leaf_weight=17225.489368863404 2.8579612672328949 140.06243094801903 89.043649807572365 936.22497919201851 265.14300198853016 1186.9236720055342 52363.450323104858 7381.3284264951944 1993.4101942628622 3153.076062515378 3559.6079574674368 102.40013434737921 2229.5741417184472 244.50996236503124 231.61436852067709 1313.6892181634903 1283.601424485445 90.073546223342419 427.05225056409836 2216.8465750589967 282.776411883533 71.67006117105484 2036.1889074891806 6.3432961404323569 112.57255497574806 1116.9170441552997 422.91826087981462 173.3602179735899 126.11014807969332 530.72649782896042 194.69280945509672 8.6481568366289121 2.667979672551156 4.0656490474939337 9.8890301510691643 6.6874755993485442 1.826636254787444 1.6402156725525854 2.3203632086515427 2.5166789889335632 334.10999646037817 7.634856276214121 3.3871645629405958
leaf_count=35894 15 401 131 2728 753 3570 125656 18694 6059 10822 15500 581 5797 1173 1014 4518 4980 271 1243 4964 1097 209 8249 9 266 3121 1842 473 615 1936 667 38 31 8 38 79 10 24 13 24 5053 56 22
internal_value=0 0.0543485 0.0566611 0.0594308 0.0306122 0.0620037 0.0644827 0.0418696 0.0317697 0.0154906 0.00601087 0.0496071 0.0546 0.022677 0.0123486 0.0349358 0.0085999 -0.0288584 0.0747276 0.0751746 0.0445415 -0.00182167 -0.0120851 0.0105481 0.0600848 0.0528895 0.0288053 0.0487362 -0.0670521 0.0370363 -0.0213632 0.143167 -0.101527 0.0342574 -0.0109074 -0.108659 -0.108229 -0.108086 -0.121739 -0.125935 -0.107815 -0.118038 -0.121307
internal_weight=0 101516 94607.9 85135 6977.82 78157.2 69588.9 8568.25 9472.85 4952.77 4495.83 4520.08 4222.98 6908.18 4691.83 1808.74 4436.68 321.688 516.096 2481.99 2216.35 2883.1 2280.7 695.434 1520.91 1399.69 562.981 1487.05 132.453 602.397 297.093 121.221 379.604 18.943 14.8774 360.661 351.899 350.073 4.98834 8.7618 340.797 9.27507 5.90384
internal_count=268644 263271 238039 207759 23945 183814 161550 22264 30280 17176 18228 13104 11856 25232 17843 6276 15802 1285 1374 5717 7389 11567 9422 2867 4522 4218 2243 4991 624 2145 1248 304 5373 90 82 5283 5222 5212 44 61 5132 80 46
is_linear=0
shrinkage=0.1


Tree=10
num_leaves=54
num_cat=0
split_feature=76 119 128 10 110 122 130 62 116 35 75 77 118 69 115 122 105 105 129 116 62 104 75 4 72 117 69 18 57 108 36 86 118 113 102 134 113 97 53 110 99 111 66 76 30 89 75 72 75 76 2 89 71
split_gain=771.267 521.907 472.002 467.801 387.811 384.772 358.639 329.625 292.825 261.842 254.719 214.019 189.644 206.507 180.394 153.306 167.842 151.154 135.226 213.699 134.784 133.401 121.017 113.523 110.606 109.89 101.888 218.022 98.6917 146.077 74.0704 68.1913 66.8553 65.8992 53.1527 49.449 48.8243 46.7996 45.6551 34.5744 34.1974 30.0946 20.1127 19.7202 7.14838 22.9801 32.3156 5.94984 0.417287 0.0794281 0.0618286 0.0543055 0.0435194
threshold=-1.2544885277748106 -1.6426660418510435 1.0000000180025095e-35 0.18858619779348376 -1.2008758187294004 -2.0123010873794551 1.0000000180025095e-35 0.7574349343776704 -0.91976919770240773 0.86162543296813976 -1.1191428303718565 -0.41161186993122095 -1.6228370070457456 0.086284991353750243 -0.94429019093513478 -2.0486305952072139 -0.82386085391044606 -0.85362246632575978 1.0000000180025095e-35 -0.89375868439674366 0.74997448921203624 -0.73500418663024891 -1.1751033067703245 0.64788076281547557 -0.3206047117710113 -0.93980315327644337 0.072533309459686293 0.79257437586784374 0.95598646998405468 -1.0795977115631101 0.87942817807197582 -1.3792546987533567 -1.6228370070457456 -1.0730325579643247 -0.77687516808509816 1.0000000180025095e-35 -1.3538736104965208 -1.0046278238296507 1.0638950467109682 -1.1805113554000852 -0.9775325059890746 -1.2638644576072691 0.14604751765728 -1.2582361698150633 1.0718779563903811 -1.2774985432624815 -1.1905800104141233 -0.30719940364360804 -1.1905800104141233 -1.2672643065452573 0.67083203792572033 -1.2774985432624815 -0.55835455656051625
decision_type=2 2 2 2 2 2 2 2 2 2 2 2 2 2 2 2 2 2 2 2 2 2 2 2 2 2 2 2 2 2 2 2 2 2 2 2 2 2 2 2 2 2 2 2 2 2 2 2 2 2 2 2 2
left_child=9 4 3 15 11 36 -7 26 10 35 25 21 47 -14 -12 20 -17 30 19 43 -3 32 -21 33 -23 -4 27 -6 41 -30 40 34 -2 -10 -20 44 -5 -25 -33 -28 -11 -13 -32 -19 48 46 -46 -9 50 -47 -1 -42 -50
right_child=1 2 8 5 7 6 -8 12 23 17 14 28 13 -15 -16 16 -18 18 31 22 -22 24 -24 37 -26 -27 39 -29 29 -31 42 38 -34 -35 -36 -37 -38 -39 -40 -41 51 -43 -44 -45 45 49 -48 -49 52 -51 -52 -53 -54
leaf_value=-0.11498503854346859 0.17287654388711762 0.11039291238977696 -0.11502188242638992 0.020390223717618026 0.028992568320572832 0.052121636854590994 0.03116244470806705 0.13484832194729221 -0.10584137750563727 0.12683972082761705 0.011727121266288209 -0.13464734067230477 -0.076170547274680714 0.074121657730834331 0.058113796880532823 0.091865880986569226 -0.060318827594562488 -0.11553004155407021 0.037650949429406916 -0.047634979620114329 -0.012087996653826765 -0.13948647924820573 0.03005704646677132 0.039000779911499854 0.20434514629719516 -0.0038749808095116219 0.076542194930140472 0.13183191134521263 0.10219224544156363 -0.071201265379510686 0.3413747055451205 0.070070940976340965 0.067280740097946712 0.11153454492284981 -0.12525889854359903 0.30431439463447596 0.17069020625396925 -0.11801534935540677 0.20749789291179163 0.19251915339375969 -0.1362792223321497 0.10303958479607525 0.17851699398049081 -0.059341030530300758 -0.12039943234276598 -0.11642077520808114 0.10611789782597432 0.19714475015578417 -0.11722590133113225 -0.12836778085857833 -0.10669192758983699 -0.11963639895988408 -0.12605340394783685
leaf_weight=9.3527455031871778 66.694116964936256 148.03408609330654 203.08041536808014 23.308162674307823 240.4391934722662 80529.982366733253 9085.1478016749024 21.970299482345581 14.343136385083197 14.004115268588068 4534.24304702878 89.161230161786079 176.89542497694492 189.21704199910164 1028.5448487997055 81.88088184595108 630.54055545479059 185.13663343340158 192.86064398288727 303.83842297643423 228.57579055428505 50.372635424137115 589.43215292692184 48.236424401402473 11.489977061748503 158.28722542524338 28.488123863935471 1445.48714004457 85.4584591537714 112.60999508202076 16.877173639833931 68.101730078458786 593.57891112565994 503.98790743947029 22.348470285534859 3.0344499349594107 297.20093077421188 31.300061859190464 37.476902395486832 263.08010837435722 2.971745103597641 5.665431097149848 13.770579017698763 94.263419575989246 11.671604134142401 7.1782085746526745 13.679894611239432 50.7354816198349 12.2545203268528 24.759912356734276 231.71877733618021 5.7622154206037504 10.261136457324026
leaf_count=84 72 329 1042 57 645 194501 27910 27 68 36 17035 421 645 419 2956 172 3210 1143 578 2176 768 240 2236 149 13 585 52 1729 180 474 22 183 1209 1270 101 3 309 170 38 253 16 14 38 498 91 61 44 46 109 161 3943 45 68
internal_value=0 0.0490855 0.0477371 0.0495991 0.0874171 0.050388 0.0499968 0.109206 0.0217502 -0.0157153 0.0150189 0.0355473 0.0308003 0.00150462 0.0203039 -0.0155482 -0.0428278 0.00140463 -0.00450559 -0.0202438 0.0360556 0.064791 0.00363076 0.0884499 -0.0756253 -0.066337 0.126605 0.117165 -0.0365535 0.00361096 0.166742 0.0530269 0.077947 0.105519 0.0207335 -0.0974716 0.15976 -0.0227899 0.118853 0.181187 0.0299902 -0.120447 0.2682 -0.0965731 -0.101271 -0.0692558 0.00183134 0.17832 -0.10823 -0.125683 -0.107014 -0.125299 -0.121249
internal_weight=0 100978 97546.7 91024.7 3431.34 89935.6 89615.1 2416.31 6522.02 1870.76 5924.16 1015.03 438.818 366.112 5562.79 1089.03 712.421 1546.84 1493.46 1172.67 376.61 722.136 893.271 597.868 61.8626 361.368 1977.49 1685.93 292.895 198.068 53.3858 320.788 660.273 518.331 215.209 323.911 320.509 79.5365 105.579 291.568 22.7381 94.8267 30.6478 279.4 320.877 57.2896 25.3515 72.7058 263.587 31.9381 241.072 8.73396 22.5157
internal_count=268644 256970 250531 227256 6439 222777 222411 3816 23275 11674 21618 2623 1137 1064 19991 4479 3382 7110 6953 6053 1097 1534 4412 1657 253 1627 2679 2374 1089 654 157 900 1281 1338 679 4564 366 319 221 305 97 435 60 1641 4561 357 135 73 4204 222 4027 61 177
is_linear=0
shrinkage=0.1


Tree=11
num_leaves=63
num_cat=0
split_feature=76 134 104 5 136 89 81 69 112 80 74 113 129 54 4 100 112 102 83 123 129 73 98 101 114 77 112 77 73 127 49 53 93 34 87 31 101 99 6 31 30 109 82 35 77 122 81 44 79 77 114 109 53 113 112 92 7 112 30 103 124 107
split_gain=691.615 897.272 1204.52 607.462 498.492 488.172 444.659 452.076 499.173 606.709 505.165 399.895 625.617 408.456 380.347 359.486 298.191 230.888 217.338 297.846 214.403 214.162 321.816 313.616 202.025 159.886 313.723 157.368 147.597 146.11 141.012 139.54 133.001 209.704 119.407 118.184 113.1 103.277 101.078 94.1726 93.8853 92.9208 115.053 92.8862 78.7623 78.5218 107.473 52.609 51.0899 37.1467 35.7627 64.5937 50.4488 32.4132 28.5927 15.502 13.3724 12.7927 47.0046 11.7542 40.9288 8.83544
threshold=-1.1705903410911558 1.0000000180025095e-35 -0.84904798865318287 0.75188523530960094 1.0000000180025095e-35 -1.1781739592552183 -1.2556877136230467 -0.45878136157989496 -0.97671276330947865 -1.220704913139343 -0.9955410063266753 -0.96521067619323719 1.0000000180025095e-35 1.0008029937744143 0.62936541438102733 -0.86485856771469105 -0.93806564807891835 -0.92604389786720265 -1.269893944263458 -1.2816948294639585 1.0000000180025095e-35 -0.88218006491661061 -0.97301450371742237 -0.91140344738960255 -0.95249506831169117 -1.211230397224426 -0.95432487130165089 -1.2278317809104917 -0.93301197886466969 -2.0576953887939449 1.1038250923156741 1.0690011382102969 -1.1099793910980222 0.83107453584671032 -1.2196955680847166 0.99292594194412243 -0.86508256196975697 -0.9228115677833556 0.70093920826911937 1.0009109377861025 1.0549340248107912 -0.88638764619827259 -1.3237633705139158 0.95561558008193981 -1.2070366740226743 -1.1476711630821226 -1.2942805886268614 0.7891911268234254 -1.3136389851570127 -1.2198515534400938 -0.91365584731101979 -0.89871168136596669 0.8991660773754121 -0.91695979237556446 -0.93355938792228688 -1.1300539970397947 0.68655061721801769 -0.89182114601135243 1.0665187835693362 -0.93794992566108693 -1.0316634774208067 -0.88791587948799122
decision_type=2 2 2 2 2 2 2 2 2 2 2 2 2 2 2 2 2 2 2 2 2 2 2 2 2 2 2 2 2 2 2 2 2 2 2 2 2 2 2 2 2 2 2 2 2 2 2 2 2 2 2 2 2 2 2 2 2 2 2 2 2 2
left_child=1 3 32 5 6 21 11 17 9 -9 -10 12 13 -2 15 39 25 28 35 -20 24 23 -23 -1 -7 34 29 41 -8 -27 -17 -22 57 53 40 -13 38 -35 -16 -4 -6 42 -18 -14 -28 54 -47 -19 -43 -36 51 55 -53 -34 -29 -5 -38 -3 -59 60 -52 -61
right_child=4 2 14 50 16 20 7 8 10 -11 -12 18 43 -15 36 30 27 47 19 -21 31 22 -24 -25 -26 26 44 45 -30 -31 -32 -33 33 37 49 -37 56 -39 -40 -41 -42 48 -44 -45 -46 46 -48 -49 -50 -51 59 52 -54 -55 -56 -57 -58 58 -60 61 -62 -63
leaf_value=0.022769174653957679 -0.057025539636279203 0.18522159653641379 0.14851246683532968 -0.047350662929933653 0.067690641859195308 -0.08625677346654953 -0.032759101761708896 0.0018396095970621624 0.044492251815590106 0.048730978936107498 0.090865661356115179 0.0063401785799875772 0.046585321452255926 0.0092485353720292828 0.05819430522619419 -0.09143497681328272 -0.022588571609881081 -0.098112164084178624 0.14651588400271728 0.052492106953714937 -0.055289868786021316 0.10326160488598457 0.029195272360300607 -0.047092674830952981 0.0097430150407093949 0.020670545131359113 0.070650570522856046 0.13966240501000829 0.033976856026368046 0.066634785623527218 0.11017601057797394 0.12065891562159532 -0.029214662339738656 0.14628873391257238 -0.10222043797861335 0.046125278710331237 -0.038610136523190952 0.091987313200200774 -0.13841530412922987 0.037055913799413399 0.010564848235956215 0.064444186418242622 0.089754726450312919 0.10184745639386016 0.13920015074612455 0.056657913949180072 0.1492810066458142 0.037334575937214419 0.16916247762003486 -0.010167353883322634 0.061944345353865171 -0.15829254750207478 0.097297310616440202 -0.20164941872612194 0.19180989738001561 -0.14710446355315848 -0.1402409264100028 0.23780141417693784 0.033315645618106259 -0.15230276626924705 -0.10987949285727293 -0.10717824422630184
leaf_weight=2376.9098830595613 1185.1074914485216 351.14685669541359 201.83512330055237 26.103217884898186 721.27595943212509 703.83066211640835 461.93321856111288 2950.3058020994067 4138.2539789974689 42614.007248930633 5433.2129139602184 990.46215227991343 2353.4850714057684 4319.1778486073017 72.427611336112022 194.68761290609837 165.72365002334118 251.09407091885805 472.36688687652349 1174.8960070312023 70.151807174086571 609.61957132816315 15557.026871353388 880.63337729126215 318.36928275227547 833.94197560846806 221.09096117317677 196.76380138099194 1172.8053584247828 4051.1035368293524 42.214211851358414 126.08881203830242 44.209896832704544 758.27462302148342 56.451098442077637 3033.2545678168535 13.74747012555599 650.9132786989212 40.923081085085869 121.40740731358528 478.59102545678616 80.392777010798454 202.61014008522034 349.29751922190189 692.96200129389763 220.62595403194427 289.85957868397236 32.373544991016388 110.80260714888573 196.18727540969849 17.692446053028107 9.6596965789794904 38.510145589709282 14.468834340572355 225.81296433508396 38.638106256723404 222.25355634093285 21.066096782684326 24.103066831827164 53.585346966981888 64.051608819514513 228.08926111832261
leaf_count=6903 4190 332 360 90 1450 2963 1466 8615 10017 100149 10695 3174 5611 14602 198 817 456 1787 805 2670 224 1264 47059 4218 919 2125 441 286 2895 8472 86 230 116 944 207 8618 55 1143 182 324 1224 166 387 679 1010 465 423 83 133 546 47 42 84 58 235 163 1085 23 59 239 737 3598
internal_value=0 0.0278699 0.0813434 0.020847 0.0472677 0.0234233 0.0444905 0.0483954 0.0500557 0.0456947 0.070816 0.0284369 0.0143264 -0.00502069 -0.0130025 0.0380681 0.0697958 0.000671977 0.0488578 0.0794542 -0.0379774 0.0272748 0.0319882 0.00388296 -0.0563572 0.0614178 0.0688492 0.1105 0.0151191 0.0587881 -0.0555093 0.057761 0.127373 0.113494 0.0317484 0.0363319 -0.0948882 0.121207 -0.0127878 0.10665 0.0449049 0.0685688 0.0392083 0.0537272 0.122619 0.135644 0.10925 -0.0826434 0.125131 -0.0307363 -0.0908013 -0.0416431 0.0460428 -0.0717331 0.167529 -0.106884 -0.134321 0.178778 0.128684 -0.106074 -0.0726904 -0.115763
internal_weight=0 23892.6 2773.68 21119 79676.2 20642.6 70932 57054 55135.8 45564.3 9571.47 13878 8207.07 5504.29 909.496 560.144 8744.2 1918.21 5670.98 1647.26 1218.44 19424.2 16166.6 3257.54 1022.2 7251.6 5799.1 1492.59 1634.74 4885.05 236.902 196.241 1864.18 1467.87 1452.51 4023.72 349.352 1409.19 113.351 323.243 1199.87 559.529 368.334 2702.78 914.053 933.062 510.486 283.468 191.195 252.638 476.33 112.911 48.1698 58.6787 422.577 64.7413 236.001 396.316 45.1692 363.419 81.7441 281.675
internal_count=268644 74562 5782 68780 194082 63780 176056 135707 129476 108764 20712 40349 25082 18792 3107 1587 18026 6231 15267 3475 4336 59444 48323 11121 3882 15475 12048 2551 4361 10597 903 454 2675 2261 3427 11792 1520 2087 380 684 2674 1142 843 6290 1451 1409 888 1870 299 753 5000 379 126 174 521 253 1140 414 82 4621 784 3837
is_linear=0
shrinkage=0.1


Tree=12
num_leaves=63
num_cat=0
split_feature=77 135 105 134 5 136 119 6 122 88 110 112 62 102 31 71 117 129 37 101 135 77 97 51 118 122 58 71 77 111 30 127 29 122 57 0 34 31 112 93 122 76 16 106 54 90 111 5 113 104 26 78 110 115 36 108 85 116 122 35 95 92
split_gain=564.933 597.573 610.602 866.804 709.943 401.258 434.116 363.579 357.16 346.516 333.77 303.458 287.4 257.403 256.14 238.356 239.728 215.054 200.885 191.914 186.839 173.73 164.628 253.384 157.424 154.895 136.332 123.274 119.534 252.701 109.808 98.1353 89.4632 84.8585 83.4963 77.953 66.4052 61.3706 52.4592 49.6144 48.5564 48.0993 44.6884 65.8216 40.914 40.7736 53.6732 46.2453 39.1096 37.9935 29.3075 28.8318 28.1637 26.2165 23.7145 18.0589 15.9382 13.839 20.97 11.6268 10.619 10.3148
threshold=-1.2269802093505857 1.0000000180025095e-35 -0.85362246632575978 1.0000000180025095e-35 0.66940000653266918 1.0000000180025095e-35 -1.6426660418510435 0.1008717678487301 -2.0123010873794551 -1.1965105533599851 -1.2008758187294004 -0.94323346018791188 0.7574349343776704 -0.83263620734214772 0.97826582193374645 -0.56844520568847645 -0.92140814661979664 1.0000000180025095e-35 0.85830798745155346 -0.93047046661376942 1.0000000180025095e-35 -0.41161186993122095 -0.96144092082977284 1.0385822057724001 -1.6228370070457456 -2.0486305952072139 0.93306535482406627 -0.24335869401693341 -1.2044661641120908 -0.94534954428672779 1.044649660587311 -3.1612691879272456 1.133604943752289 -1.2194257974624632 0.95598646998405468 0.43466739356517797 0.85532763600349437 0.99721473455429088 -0.90888020396232594 -1.1099793910980222 -1.212176978588104 -1.1824977993965147 0.91508707404136669 -0.85179850459098805 0.97723314166069042 -1.1769973635673521 -0.91311636567115773 0.72050321102142345 -1.3538736104965208 -0.89332655072212208 1.1765443682670595 -1.2659969329833982 -0.90804672241210926 -0.95151036977767933 0.77270394563674938 -0.88288259506225575 -1.2624261975288389 -0.91314384341239918 -1.0295302271842954 0.79133647680282604 -0.96812522411346424 -0.36531589925289149
decision_type=2 2 2 2 2 2 2 2 2 2 2 2 2 2 2 2 2 2 2 2 2 2 2 2 2 2 2 2 2 2 2 2 2 2 2 2 2 2 2 2 2 2 2 2 2 2 2 2 2 2 2 2 2 2 2 2 2 2 2 2 2 2
left_child=1 2 3 15 9 6 10 20 48 18 21 26 31 -10 38 19 -17 -11 -4 -1 25 27 39 -24 -14 -8 28 -2 30 -30 -7 -12 44 51 -23 40 -34 -37 41 -5 -35 55 43 -28 -6 57 59 -48 -9 56 -44 52 -13 -43 -51 -3 -40 -16 -59 -47 -53 -22
right_child=5 14 4 22 32 11 7 8 13 17 12 33 24 -15 45 16 -18 -19 -20 -21 61 34 23 -25 -26 -27 42 -29 29 -31 -32 -33 36 35 -36 37 -38 -39 49 -41 -42 53 50 -45 -46 46 47 -49 -50 54 -52 60 -54 -55 -56 -57 -58 58 -60 -61 -62 -63
leaf_value=0.02852862031933534 -0.019203981683059666 0.172239725272546 0.19812577786850516 0.16337060924782276 -0.11164211538535791 0.093608395732131477 0.026241366825088541 0.020079069249308544 0.044837746624996511 -0.07216650795249642 0.097756477702347536 0.066469497247655912 0.15871962675411347 0.03230321338639322 -0.15943207588905936 0.032966825744857223 0.091697246353771411 0.053804609517126435 0.024626345139858511 -0.044407751185593425 0.2188245817835493 -0.11686347468818925 -0.077265898887362378 0.10860358872031212 -0.0035613171633507874 -0.052293943741728355 -0.13688378435239432 0.076899367741958852 0.052821655928294554 0.10966089915821725 0.018660092518655091 0.14728393817154103 0.083600601330065596 0.088033897955807239 -0.0017050059776651312 0.077259207114112938 -0.04793753647971722 0.1262935099135177 0.16946608417551801 0.1203723460162322 -0.058651923419968346 0.072562204076346434 0.14063264241622986 0.1579305598762312 -0.054699947498481942 -0.031230722659890027 -0.0021246628021382137 -0.13519121458470637 0.15652010149854143 -0.15467781014731699 -0.081599796407997943 0.20118745132888352 0.16898125649575052 -0.18161499408593748 0.015351428128382985 0.066829565372383756 -0.012497752707448948 -0.00056985981672753904 -0.13219613103378927 -0.16832442643957343 0.15217196832538049 0.10681012378291591
leaf_weight=908.9047232195735 176.69600196182728 39.879918843507767 67.008139692246914 385.00984342396259 403.06117822602391 233.97849394381046 383.68641668558121 22.6694325953722 34171.629405222833 592.81224622577429 1356.2260715514421 58.054214373230934 71.352846294641495 31471.910825528204 155.51266849040985 3059.4835805743933 899.30606291815639 175.68339894711971 16345.694307669997 598.19437181949615 31.039970621466637 92.042255610227585 101.22747839987278 266.26372197270393 368.47692608833313 726.94591323658824 64.143742769956589 545.6468565762043 4033.0685519725084 970.38502267003059 1188.1865107119083 567.46038311719894 48.469108507037163 40.023503825068474 199.2771777510643 515.29896841943264 184.36841263622046 505.77738896012306 9.748272046446802 885.66051107645035 51.739534437656403 7.6528863757848766 15.085488960146906 8.5868500769138318 183.69105213135481 6.9271456301212302 88.176689058542252 37.108735367655754 286.72687909007072 23.18094727396965 9.7823379039764387 98.816607639193535 49.782049745321274 8.6383617371320707 12.695290252566336 27.432679429650307 9.5090285390615445 14.712083876132963 68.264734387397766 57.837245866656303 79.967820316553116 11.182323709130285
leaf_count=2971 509 51 116 396 4680 411 1097 54 78961 2509 2122 111 73 82177 637 7606 2066 402 51018 2201 45 435 307 409 1064 3502 254 1025 8721 1540 2883 557 156 74 654 970 801 753 13 1204 158 16 23 12 1077 21 246 151 292 91 32 88 51 35 33 58 29 43 295 233 98 27
internal_value=0 0.0254281 0.0277215 0.0525468 0.0179242 0.0425193 0.0401209 0.0383603 0.0393334 0.0222617 0.0751044 0.0638569 0.0956924 0.0388282 -0.0760672 0.0334238 0.0463084 -0.0433686 0.0253347 -0.00042112 -0.0173133 0.0271002 0.116352 0.0574048 0.0227652 -0.0251626 0.054792 0.053391 0.0565736 0.0638452 0.0309908 0.112366 -0.0730031 0.10611 -0.0380893 0.0936135 -0.0205556 0.101548 0.0420301 0.133401 0.00532678 0.0919656 -0.0625096 -0.102077 -0.0938156 -0.114301 -0.0797469 -0.0415381 0.146523 -0.0336914 0.0532123 0.154632 0.113794 -0.0622141 -0.0945107 0.129281 0.0796145 -0.141836 -0.108858 -0.153661 0.179263 0.189158
internal_weight=0 25672.1 25104.8 7104.05 18000.8 78405.6 70483 67105.8 65952.9 17181.2 3377.18 7922.68 2363.52 65643.5 567.277 5465.89 3958.79 768.496 16412.7 1507.1 1152.85 1013.66 1638.16 367.491 439.83 1110.63 6523.22 722.343 6425.62 5003.45 1422.17 1923.69 819.59 1399.46 291.319 1112.84 232.838 1021.08 138.737 1270.67 91.763 83.6038 97.5984 72.7306 586.752 428.539 190.05 125.285 309.396 55.1335 24.8678 286.621 107.836 16.2912 35.8762 67.3126 19.2573 238.489 82.9768 64.7644 178.784 42.2223
internal_count=268644 79871 77919 17160 60759 188773 172594 166155 161484 54045 6439 16179 3816 161138 1952 14844 9672 2911 51134 5172 4671 2623 2316 716 1137 4599 13876 1534 13555 10261 3294 2679 6714 2303 1089 1955 957 1723 326 1600 232 160 321 266 5757 1626 651 397 346 166 55 348 162 51 124 109 42 975 338 254 186 72
is_linear=0
shrinkage=0.1


Tree=13
num_leaves=44
num_cat=0
split_feature=114 76 134 103 89 5 113 6 76 113 77 5 0 74 29 101 74 5 97 101 37 129 93 115 6 1 5 99 41 53 26 43 101 80 69 103 54 20 75 47 76 120 76
split_gain=483.648 423.776 533.31 921.634 520.106 439.425 374.378 429.338 419.293 431.498 401.137 345.325 286.103 392.002 271.534 259.832 237.744 234.808 601.926 256.73 224.993 200.242 186.469 162.34 160.358 153.277 151.983 125.526 398.622 120.372 89.7632 33.9426 26.7036 13.5544 7.98149 0.282688 0.129096 0.0915114 0.0617092 0.0453124 0.0200245 0.0129146 0.00650606
threshold=-0.81937423348426808 -1.164386451244354 1.0000000180025095e-35 -0.84681543707847584 -1.1684956550598142 0.65597450733184826 -0.96595695614814747 0.7973318099975587 -1.1268704533576963 -0.99451556801795948 -1.1603320240974424 0.75560057163238536 0.40119533240795141 -0.9955410063266753 1.2417017817497256 -0.84671556949615467 -1.0321045517921446 0.60945403575897228 -0.90473029017448414 -0.82178387045860279 0.93777438998222362 1.0000000180025095e-35 -1.1099793910980222 -0.97160562872886647 0.838025063276291 0.49718813598155981 0.78586214780807506 -0.9228115677833556 0.9449276626110078 1.0737823843955996 1.4060440659523012 1.0132430195808413 -0.86508256196975697 -1.444048225879669 -0.12643534690141675 -1.0431127548217771 0.99469527602195751 1.6554776430130007 -0.94483110308647145 1.0873134732246401 -1.225587725639343 -0.57520508766174305 -1.2322887182235716
decision_type=2 2 2 2 2 2 2 2 2 2 2 2 2 2 2 2 2 2 2 2 2 2 2 2 2 2 2 2 2 2 2 2 2 2 2 2 2 2 2 2 2 2 2
left_child=1 2 4 27 16 15 8 12 17 10 -10 -11 20 -14 26 -5 25 19 -19 -3 -8 23 -18 -6 -16 -1 -9 30 -29 -23 -4 35 -7 34 39 38 37 41 42 -33 -39 -37 -2
right_child=31 6 3 5 21 32 7 14 9 11 -12 -13 13 -15 24 -17 22 18 -20 -21 -22 29 -24 -25 -26 -27 -28 28 -30 -31 -32 33 -34 -35 -36 36 -38 40 -40 -41 -42 -43 -44
leaf_value=-0.11117004374501305 -0.11592755834480317 0.044968755047554897 0.12392786136094565 0.076838538967298101 -0.10183017011119321 -0.031593367429176747 -0.059226384360822254 -0.0034079820475693572 0.0054788701083204544 0.072234929504755116 0.038656363554618232 -0.045096634712562492 0.043169404886524772 0.085385432471483225 0.084220650089081514 -0.041354055026952573 0.048259293882428216 0.012324376896658409 -0.10887543032701903 0.0059145306084849355 0.039947592817103479 -0.07460067844816097 0.021666762559553951 -0.016721934646064317 -0.064667218603255902 -0.00024390688458767558 -0.092152963436182345 -0.11790249410995744 0.094227127138849273 0.10900899002241429 -0.10042863774181371 -0.1290589130546195 -0.13213198820572974 0.19740965870904464 0.039114599422734909 -0.11030035793200615 -0.13299398401231136 -0.10659594931953061 -0.13865131304578757 -0.10939182507924727 -0.11827971529259325 -0.1052622118086682 -0.1226469808853785
leaf_weight=130.77400783449411 2.819707565009594 3754.7996519058943 1200.7273471802473 420.62802292406559 544.4936004653573 29.497354656457901 259.37453357875347 642.1752111017704 3965.8337025344372 4933.9132775813341 44938.151510223746 264.27702245116234 3676.764189645648 5474.6318162530661 442.42666600644588 333.44976216554642 3124.9732186421752 2903.1930329054594 477.1102033033967 3050.8763952553272 1937.8992502093315 51.717846006155014 16881.583348415792 380.90897649526596 86.478349149227142 2625.4326799064875 275.88227370381355 98.924109548330307 847.54973189532757 115.32337091863155 18.101696699857712 2.2367673665285119 253.08252677321434 3.9517878890037528 10.065608836710453 5.1998383179306975 1.7494236826896656 1.8647680841386316 2.3278581202030164 2.4597656317055225 6.8749018311500532 236.40745776519179 2.9469736590981483
leaf_count=714 29 8992 1537 951 2448 113 909 1759 11127 10374 105409 789 8481 10344 915 1231 8463 7348 1901 9317 5377 169 48888 1155 287 9922 975 349 1446 204 58 14 1319 6 38 79 10 35 12 32 55 5043 20
internal_value=0 0.0347031 0.023936 0.0622566 0.0187924 -0.0152811 0.0384824 0.0541034 0.0353733 0.0388775 0.0359659 0.0662698 0.0606441 0.0684243 0.00280398 0.0245743 0.0220272 0.016761 -0.00478227 0.0274614 0.0282407 -0.0486087 0.0258204 -0.0667984 0.0598768 -0.00550703 -0.0300764 0.0993784 0.0720556 0.0521614 0.120596 -0.0971583 -0.121637 0.0329209 -0.0111123 -0.106514 -0.105923 -0.105734 -0.124909 -0.118758 -0.115787 -0.105371 -0.119361
internal_weight=0 104141 27057.2 3201.96 23855.2 1036.66 77083.8 12795.6 64288.2 54102.2 48904 5198.19 11348.7 9151.4 1446.96 754.078 22762.8 10186 3380.3 6805.68 2197.27 1092.44 20006.6 925.403 528.905 2756.21 918.057 2165.3 946.474 167.041 1218.83 278.905 282.58 18.7139 14.7621 260.191 252.096 250.347 8.09454 4.69653 8.73967 241.607 5.76668
internal_count=268644 263271 78967 7004 71963 3614 184304 29047 155257 127699 116536 11163 25111 18825 3936 2182 67987 27558 9249 18309 6286 3976 57351 3603 1202 10636 2734 3390 1795 373 1595 5373 1432 90 84 5283 5222 5212 61 46 90 5122 49
is_linear=0
shrinkage=0.1


Tree=14
num_leaves=55
num_cat=0
split_feature=76 119 110 62 120 28 69 132 111 52 135 127 53 120 127 35 32 106 61 91 117 129 112 56 105 73 86 105 46 81 55 59 36 38 124 119 134 119 54 99 76 117 69 74 66 84 30 89 75 4 32 76 75 73
split_gain=414.979 383.709 380.146 338.299 295.384 375.795 298.476 287.516 266.903 324.843 243.198 211.022 257.868 300.951 167.07 165.39 148.711 130.783 146.411 143.404 118.944 170.984 113.62 83.515 79.7861 87.9136 76.8346 68.8968 60.2424 54.2949 60.6868 52.1095 43.0965 41.1716 40.3372 36.0839 35.103 32.9053 29.6336 25.8685 25.7712 24.0001 22.218 18.7071 16.218 11.4887 6.74636 20.5563 26.5907 1.04192 0.308356 0.0625896 0.0381735 0.0351842
threshold=-1.2544885277748106 -1.6475479006767271 -1.2049928307533262 0.73865565657615673 -1.6728494763374326 1.1166662573814394 -0.088512104004621492 1.0000000180025095e-35 -1.2397986650466917 1.1338838934898379 1.0000000180025095e-35 -3.2035433053970332 1.112449109554291 -1.7424525618553159 -3.0876573324203487 0.86162543296813976 0.80610698461532604 -0.91029831767082203 0.77145469188690197 -0.31149683892726893 -0.90164476633071888 1.0000000180025095e-35 -1.3103929162025449 0.98493313789367687 -0.85362246632575978 -0.88696497678756703 -1.3496123552322385 -0.81567993760108937 1.21609503030777 -1.4449551701545713 1.0030911564826968 0.85173153877258312 0.87942817807197582 1.0051174163818362 -1.0970577597618101 -1.6587067246437071 1.0000000180025095e-35 -1.6525832414627073 1.115346431732178 -0.9775325059890746 -1.26270055770874 -0.90597912669181813 -0.030571354553103443 -0.46106860041618342 0.14604751765728 -0.52112737298011769 1.0718779563903811 -1.2774985432624815 -1.1905800104141233 0.55785945057868969 0.85294321179389965 -1.2672643065452573 -1.1751033067703245 -0.90582343935966481
decision_type=2 2 2 2 2 2 2 2 2 2 2 2 2 2 2 2 2 2 2 2 2 2 2 2 2 2 2 2 2 2 2 2 2 2 2 2 2 2 2 2 2 2 2 2 2 2 2 2 2 2 2 2 2 2
left_child=15 2 17 4 8 6 -6 -7 14 -10 16 12 22 -14 -3 36 28 18 19 -2 21 40 -4 37 32 34 -27 -18 -5 31 -31 -23 39 -20 -26 -25 46 -13 43 -22 49 -42 -12 -19 -34 -44 50 48 -48 -17 52 -49 -1 -52
right_child=1 3 11 10 5 7 -8 -9 9 -11 42 23 13 -15 -16 20 27 38 33 -21 24 29 -24 35 25 26 -28 -29 -30 30 -32 -33 44 -35 -36 -37 -38 -39 -40 -41 41 -43 45 -45 -46 -47 47 51 -50 -51 53 -53 -54 -55
leaf_value=-0.10447129901039143 0.039527943091205942 0.011736388375165122 -0.011023335334834348 -0.058876711023495322 -0.030485516664456886 0.033701422579519691 0.019141055387216343 0.0029489347605274226 0.15699827632150157 0.046173357317912951 0.041746148833970424 -0.2211058463722354 0.058645833559167776 -0.095903197208646637 0.073690310291484831 -0.098858199027541949 -0.0078811348908539771 -0.17391641041190586 0.088078660028699116 -0.10830385043812779 0.099628098459969783 -0.089031614893880021 0.13839991859606673 0.14341290841777021 -0.08287738650552938 0.011843524138944232 0.14472586320509165 -0.07167431728722623 0.0464823538308946 0.010655305507911437 0.18808847006334309 0.22950221534642426 0.2605429436392051 -0.0094980980208164215 0.038805488393279179 0.097728431481910502 0.23996996155434261 0.048433113969439057 0.1595336579704634 -0.12427069014409881 -0.084508145205769811 0.0032959465282194449 0.22418265608072541 -0.078588553350510695 0.11986656425304253 0.12450270841311602 -0.11844035577749382 -0.11436066477997109 0.089579219288799819 -0.12680351168835469 -0.11459472906813278 -0.12551517457235806 -0.11572493320324789 -0.12333937526803235
leaf_weight=161.43931125104427 137.88141244649887 976.81929191946983 57.951180905103683 68.240972876548767 1394.3146966323256 82186.46518612653 9265.5819807052612 3156.975521594286 541.56894056499004 516.93929049372673 11.812527492642401 9.0440084040164948 602.84798368811607 159.29054576158524 785.12262611091137 15.12967976182699 234.32092207670212 26.637969329953194 249.96834270656109 125.20369124412537 14.919514507055284 34.321050345897675 417.53569686412811 627.08099770545959 139.65641846880317 866.57896756380796 45.813745602965355 610.08686964213848 265.07702524960041 37.536725997924805 39.625208869576454 6.0395253449678412 19.173773095011711 52.287011548876762 33.844440914690495 238.70629443228245 3.1269849538803092 9.072868138551712 4.5619083046913138 7.8886578753590575 137.83675158768892 40.212196961045265 37.157797679305077 90.604492574930191 14.312407314777372 16.786081746220589 10.770205289125444 6.4478971213102367 14.30917653441429 112.90685849636793 17.158560335636142 22.881864152848721 3.0715786963701239 6.2869978286325923
leaf_count=3964 309 2296 143 248 5445 202373 26046 8002 594 1194 31 37 1222 588 1498 84 721 113 457 533 36 133 448 631 1140 3443 134 2359 712 103 37 6 22 128 187 335 3 17 9 58 775 174 41 407 36 33 91 61 44 742 169 161 27 44
internal_value=0 0.0316607 0.0681142 0.0306375 0.0312897 0.0303527 0.0126499 0.0325638 0.0631865 0.102875 -0.0211965 0.0890517 0.0623986 0.0263444 0.0393431 -0.016624 -0.0316463 0.00347074 0.0237209 -0.030826 -0.00465898 -0.0499165 0.120189 0.126371 0.0121259 0.00610813 0.0185159 -0.0539719 0.0249119 0.0526149 0.101773 -0.0413665 0.128205 0.0711989 -0.059141 0.130817 -0.0929388 -0.0861217 -0.0905179 0.0221883 -0.0892838 -0.0646777 0.165964 -0.100247 0.200416 0.193165 -0.097234 -0.0662247 0.000246334 -0.123501 -0.10621 -0.123063 -0.104681 -0.11694
internal_weight=0 102876 2808.67 100067 98823.8 96003.3 10659.9 85343.4 2820.45 1058.51 1243.48 2121.53 1237.63 762.139 1761.94 1811.29 1177.73 687.145 565.34 263.085 1565.8 423.608 475.487 883.904 1142.19 1085.89 912.393 844.408 333.318 117.523 77.1619 40.3606 56.2944 302.255 173.501 865.787 245.493 18.1169 121.804 22.8082 306.085 178.049 65.7564 117.242 33.4862 53.9439 242.366 54.4091 25.0794 128.037 187.956 29.3298 164.511 23.4456
internal_count=268644 256970 5377 251593 247448 241866 31491 210375 5582 1788 4145 3421 2401 1810 3794 11674 4040 1956 1427 842 7110 2054 591 1020 5056 4904 3577 3080 960 279 140 139 152 585 1327 966 4564 54 529 94 1775 949 105 520 58 74 4561 357 135 826 4204 222 3991 213
is_linear=0
shrinkage=0.1


Tree=15
num_leaves=63
num_cat=0
split_feature=76 134 102 89 5 136 119 135 32 133 105 30 105 5 110 11 72 100 97 106 75 0 89 77 75 94 91 129 113 113 54 104 105 30 79 97 31 103 31 58 76 118 31 101 5 76 7 57 123 74 122 76 32 90 81 114 118 41 99 0 61 55
split_gain=389.995 569.621 687.071 389.888 369.673 329.627 341.723 303.72 699.675 1149.31 505.03 467.045 409.767 268.773 253.069 244.667 250.802 216.899 211.022 194.588 137.88 238.166 155.714 125.086 124.727 306.693 231.929 106.819 175.273 108.883 105.585 104.546 103.794 99.6628 169.262 141.937 98.7101 98.1636 86.4726 83.1437 81.5471 97.7381 75.9655 66.4537 103.833 65.3338 64.9998 62.3869 59.9662 105.661 70.2711 58.1379 76.1511 55.6174 48.6523 36.7287 31.5947 26.3709 101.015 26.0915 13.7379 12.1509
threshold=-1.1738675236701963 1.0000000180025095e-35 -0.85803127288818348 -1.1823165416717527 0.72879713773727428 1.0000000180025095e-35 -1.6426660418510435 1.0000000180025095e-35 0.93024769425392162 1.0000000180025095e-35 -0.92345270514488209 1.0704620480537417 -0.9492744207382201 0.65597450733184826 -1.2008758187294004 0.16453638672828677 -0.28890909254550928 -0.8618921935558318 -0.95009863376617421 -0.87517696619033802 -1.0642097592353819 0.4035604596138001 -1.1833716034889219 -0.41161186993122095 -1.131605803966522 -1.0850561261177061 -1.1694401502609251 1.0000000180025095e-35 -0.94047820568084706 -0.94490632414817799 1.0448970198631289 -0.9587605595588683 -0.93601220846176136 1.0682486295700075 -1.3175712227821348 -0.97344323992729176 1.0009109377861025 -0.66914519667625416 1.0059489011764529 0.87573692202568065 -1.1900383234024046 -0.92324286699295033 1.001656234264374 -0.86508256196975697 0.67091408371925365 -1.1862296462059019 0.63375505805015575 0.95598646998405468 -1.2343100309371946 -0.98291391134262074 -1.1080147027969358 -1.1156376004219053 0.90046033263206493 -1.2283540964126585 -1.3857324719429014 -0.94284358620643605 -1.0169084668159483 0.96164411306381237 -0.9146023392677306 0.46319009363651281 0.61202365159988414 1.0203405022621157
decision_type=2 2 2 2 2 2 2 2 2 2 2 2 2 2 2 2 2 2 2 2 2 2 2 2 2 2 2 2 2 2 2 2 2 2 2 2 2 2 2 2 2 2 2 2 2 2 2 2 2 2 2 2 2 2 2 2 2 2 2 2 2 2
left_child=1 3 33 4 24 6 14 8 12 -10 32 -12 -8 17 23 16 -16 36 48 31 22 -22 -21 37 26 -26 -1 28 54 30 -29 56 -9 57 53 -36 -4 -2 -33 -17 42 -42 -6 44 -15 -30 -19 -25 51 55 -51 59 -53 -35 -5 -50 -20 58 -3 -7 -45 -31
right_child=5 2 13 27 40 18 7 10 9 -11 11 -13 -14 43 15 39 -18 46 19 20 21 -23 -24 47 25 -27 -28 29 45 61 -32 38 -34 34 35 -37 -38 -39 -40 -41 41 -43 -44 60 -46 -47 -48 -49 49 50 -52 52 -54 -55 -56 -57 -58 -59 -60 -61 -62 -63
leaf_value=0.010623434252303538 0.055505175126101369 0.13006946168070604 0.10865686046880399 0.28664540723179022 -0.1070699995313817 0.069610037226195645 0.051024418032656928 -0.078278995612077018 0.023815094649698249 0.070083030961563528 0.071726340719266465 0.031645291982260911 0.0053279246436422241 0.091693944724554013 -0.059680413442840835 -0.17141899984909753 0.070173494441283554 0.086978930186716152 0.13253471333037431 0.053609692086200846 0.043000741410924408 0.092618647373201288 -0.020900636920021694 -0.10882209379062464 0.089283545479288073 0.018381839052893555 -0.059934380388241483 -0.022893409537623789 -0.10919181067927948 -0.17423534006318514 0.13864923548685271 -0.016995418898361526 -0.0068603433288712216 0.18655133877224153 0.11329656244064112 0.029953023336325185 -0.0030751397345586805 -0.053305990727324074 0.050113458481190171 0.10321348156146555 -0.07990136739797922 0.045160437801178725 -0.014689848259332667 -0.13159129077021012 -0.11638068945263064 0.0092113990301482263 -0.10361241348401225 -0.006803669942904331 0.085638418676090775 0.06429985986724461 -0.0047363419780991223 0.16663262059388034 -0.14719308846517185 -0.11730422037297102 -0.094168780323965862 0.13569921541936572 0.023131807566432079 0.15461231731275529 -0.025840521918033699 0.15811757436339594 0.01652332354356683 -0.061041552424072623
leaf_weight=4471.2064130790532 619.291876912117 375.1830482929945 233.38176842033863 3.3737331330776206 332.46735325455666 40.608292892575264 2180.103340536356 319.82667134702206 27670.320763513446 6661.285036817193 4442.7801580131054 8411.4872874766588 19644.181230615824 42.686722382903099 215.98461362719536 11.103503048419951 477.71814298629761 20.992996379733086 78.273433670401573 570.7551107108593 3770.6895504295826 1301.23142182827 551.47454829514027 85.5257897824049 641.33559806644917 12520.792983785272 520.05651151388884 80.745544895529747 53.84405329823494 23.085564404726028 81.096511572599411 926.39200848340988 559.44708473980427 6.7757345438003531 675.19737046957016 293.01576933264732 119.58357189595699 95.724782839417458 242.20898315310478 1532.9363968521357 114.12365178763866 138.12188126146793 121.5605183839798 185.68513190746307 54.733427137136459 346.51915627717972 121.21275040507317 200.39223125576973 483.67288121581078 605.57565392553806 194.89452908933163 14.260400325059893 16.890119686722755 54.287049278616905 600.3775128275156 210.27303704619408 39.829253688454628 234.78044126927853 46.732798546552658 185.25202633440495 6.4807238578796378 16.095166921615601
leaf_count=16153 1188 465 415 5 4776 72 4742 1023 72768 12304 8317 19204 53212 86 729 41 937 46 107 1177 7992 2141 1503 435 1194 35304 2048 230 237 95 116 2425 1450 6 863 598 338 346 493 2109 398 363 420 1026 230 995 547 654 815 1109 468 15 60 199 2639 279 87 249 128 195 28 50
internal_value=0 0.0160259 0.0613328 0.0104469 0.0139707 0.0308721 0.0286243 0.0271527 0.0238927 0.0327924 0.040483 0.0454984 0.00989271 -0.0159612 0.0603796 0.079075 0.0297434 0.0287933 0.048677 0.0413618 0.0487125 0.0557305 0.0169946 0.0185833 0.0167322 0.0218366 0.00327178 -0.0446974 -0.0580184 0.0218415 0.0580531 0.00597556 -0.0328381 0.0973102 0.0778899 0.0880738 0.0708024 0.0409378 -0.00308616 0.101239 -0.0570091 -0.0114214 -0.0823363 -0.0924881 -0.0252083 -0.00671241 -0.0754765 -0.0373201 0.0799227 0.0722491 0.0474913 0.124541 -0.00352678 -0.0835874 -0.0920408 0.100807 0.0956394 0.127749 0.1128 0.142204 -0.126596 -0.127736
internal_weight=0 22535.5 2470.73 20064.8 18859.7 82360.4 73128.1 69889.4 56155.9 34331.6 13733.5 12854.3 21824.3 784.757 3238.68 2237.74 693.703 495.171 9232.28 7480.85 6194.15 5071.92 1122.23 1000.93 18153.4 13162.1 4991.26 1205.14 1004.11 201.023 161.842 1286.7 879.274 1685.97 1029.28 968.213 352.965 715.017 1168.6 1544.04 706.273 252.246 454.028 289.586 97.4201 400.363 142.206 285.918 1751.43 1494.42 800.47 257.011 31.1505 61.0628 603.751 693.946 118.103 656.696 421.916 225.86 192.166 39.1807
internal_count=268644 70247 5224 65023 60656 198397 179459 173020 143026 85072 29994 27521 57954 2716 6439 3816 1666 1346 18938 15925 12813 10133 2680 2623 54699 36498 18201 4367 3876 491 346 3112 2473 2508 1666 1461 753 1534 2918 2150 5957 761 5196 1370 316 1232 593 1089 3013 2671 1577 342 75 205 2644 1094 194 842 593 267 1054 145
is_linear=0
shrinkage=0.1


Tree=16
num_leaves=52
num_cat=0
split_feature=53 77 113 74 78 53 35 133 135 30 30 100 6 134 31 135 78 70 101 102 88 104 54 123 111 115 76 73 30 107 93 103 30 132 98 26 92 108 124 115 112 76 100 30 26 31 79 107 63 105 73
split_gain=338.489 321.073 413.306 564.617 439.115 477.792 350.742 721.524 579.449 334.36 324.215 290.853 923.587 501.479 354.317 308.75 287.815 276.419 411.629 305.033 245.688 218.286 198.216 187.105 172.806 160.59 282.239 127.021 120.51 113.026 67.835 44.4626 39.1217 35.8924 33.3394 48.9014 33.1956 28.2624 20.302 17.351 40.3436 12.7231 11.7331 10.5717 9.366 6.10945 4.7917 3.11562 0.0764083 0.0506985 0.0457743
threshold=0.73179680109024059 -1.2095229625701902 -0.9766903519630431 -1.0027916431427 -1.2177287340164182 1.0363532304763796 0.86730059981346141 1.0000000180025095e-35 1.0000000180025095e-35 1.0641424059867861 1.0993838906288149 -0.8618921935558318 0.62663060426712047 1.0000000180025095e-35 1.0060990452766421 1.0000000180025095e-35 -1.2572604417800901 -0.25688770413398737 -0.82441228628158558 -0.79170674085617054 -1.1857766509056089 -0.85431396961212147 1.0687995553016665 -1.2816948294639585 -0.95066052675247181 -0.99359792470931996 -1.1697737574577329 -0.80144172906875599 1.0741507411003115 -0.88393846154212941 -0.96523326635360707 -0.86053881049156178 1.0271767973899844 1.0000000180025095e-35 -0.93567383289337147 1.5363337397575381 -1.0299673080444334 -0.90047591924667347 -1.0316634774208067 -0.93242782354354847 -0.92172685265541066 -1.1497656702995298 -0.96086972951889027 1.0619457364082339 1.4094870090484621 0.92276823520660411 -1.0487453937530515 -0.89353865385055531 0.048492150381207473 -0.9492744207382201 -0.93301197886466969
decision_type=2 2 2 2 2 2 2 2 2 2 2 2 2 2 2 2 2 2 2 2 2 2 2 2 2 2 2 2 2 2 2 2 2 2 2 2 2 2 2 2 2 2 2 2 2 2 2 2 2 2 2
left_child=28 11 4 9 5 24 8 -8 -6 29 -11 13 17 15 21 20 -17 18 -13 -19 -2 -15 23 -5 -3 41 -27 -7 33 -4 36 -16 -24 39 47 44 37 -30 -39 46 -41 -14 -37 -42 -36 -38 48 50 -1 -32 -35
right_child=1 2 3 22 6 27 7 -9 -10 10 -12 12 25 14 31 16 -18 19 -20 -21 -22 -23 32 -25 -26 26 -28 -29 30 -31 49 -33 -34 34 35 42 45 38 -40 40 43 -43 -44 -45 -46 -47 -48 -49 -50 -51 -52
leaf_value=-0.19584637064752802 0.024617888054424993 -0.089964630413044228 0.12274665779694126 0.083101679501501005 0.0087036499446453541 0.046258768759575838 0.027737132412226508 0.065893147863408247 0.048775291748214322 -0.0068611082601699527 0.06170386674596428 0.01441584250777482 -0.14059317848251704 0.094202864460975921 0.031282715840690957 -0.091715912117818224 0.0033060825660353368 0.046605208479964272 -0.054885343649860585 0.0089449826202588831 -0.067152010127746437 0.038172590048233812 -0.010627892677989121 0.051351200810004022 0.0048276025798898786 -0.080738981125988873 0.029341819507949847 0.0051581371836163254 -0.13399669199343431 0.017678846945734138 -0.18666200541429492 -0.12332029228550082 -0.1194929901061292 -0.17624521571709384 -0.023467327045285962 -0.0010731923610138886 0.099545300530580291 0.083463437426749471 -0.053210351387204563 0.092985663224488757 -0.10652139179502851 -0.07103695941660669 0.14235409911919431 -0.1925257601651322 -0.18054573315235017 0.1903606010774741 -0.090847736862895059 -0.086645616949495574 -0.20928922013573015 -0.17448940997258547 -0.18938125260070029
leaf_weight=22.110985741019253 14859.428506392986 704.89235205948353 371.17572829127312 3072.9741098210216 15240.307315789163 912.04505839943886 25686.257013902068 6140.7200911194086 4728.1553628444672 3172.5852132588625 881.20237898826599 2855.9194464981556 267.84169801324606 1638.4645014852285 22.400358438491821 446.7074007242918 1112.9143532961607 3769.7310629636049 1224.5974842756987 5007.7024141475558 297.57423480600119 1207.9131944179535 74.536055870354176 4686.793238081038 264.46930238604546 880.32226879522204 316.70663797855377 4283.1392040997744 10.516090750694273 141.38597141206264 5.9507218152284613 109.70174218714237 59.249210067093372 5.1518208831548682 6.1590812802314785 8.1191356927156466 15.192615091800691 38.834714725613587 15.092282772064214 9.9718652069568616 191.18020997196436 29.161167748272419 19.170778125524521 15.447204768657683 9.8935018330812436 14.456495612859724 4.8802991658449164 4.9047164469957343 5.2279465049505225 8.0505861788988096 5.4685427546501151
leaf_count=89 42027 2422 521 5946 38104 2160 62137 11566 9559 8478 1993 8384 1235 2368 44 1615 2967 9423 4838 15305 1006 3035 234 9380 713 4043 870 11796 39 354 24 442 235 21 18 22 27 72 46 17 4699 114 28 62 41 17 16 16 21 33 22
internal_value=0 0.0252753 0.0291301 0.0456533 0.025578 0.000347872 0.0285809 0.035099 0.0181919 0.0176654 0.00804338 0.0173023 0.006475 0.0251922 0.0629951 0.0184567 -0.0239101 0.0151222 -0.00638203 0.0251193 0.0228162 0.0704254 0.0618441 0.0639248 -0.0641026 -0.0679449 -0.0516141 0.0123736 -0.065132 0.0937646 0.0256988 -0.0971045 -0.0588408 -0.0970419 -0.0268235 0.0182167 0.0562575 0.015969 0.0452132 -0.113655 -0.10347 -0.133764 0.0996824 -0.112951 -0.120278 0.143826 -0.182123 -0.152566 -0.198417 -0.179663 -0.183009
internal_weight=0 104467 70419.9 12459.9 57960 6164.55 51795.4 31827 19968.5 4566.35 4053.79 34047.1 14352 19695.1 2978.48 16716.6 1559.62 12858 4080.52 8777.43 15157 2846.38 7893.55 7759.77 969.362 1494.03 1197.03 5195.18 415.78 512.562 108.094 132.102 133.785 307.686 58.8676 43.3425 94.0922 64.4431 53.927 248.819 216.599 297.003 27.2899 206.627 16.0526 29.6491 32.2192 15.5251 27.3389 14.0013 10.6204
internal_count=268644 263314 165598 27141 138457 17091 121366 73703 47663 11346 10471 97716 44212 53504 5889 47615 4582 37950 13222 24728 43033 5403 15795 15326 3135 6262 4913 13956 5330 875 258 486 469 5072 168 109 201 157 118 4904 4778 1349 50 4761 59 44 126 59 110 57 43
is_linear=0
shrinkage=0.1


Tree=17
num_leaves=54
num_cat=0
split_feature=119 51 128 63 71 48 106 110 9 121 34 105 58 91 106 87 77 31 77 117 25 30 70 60 13 116 55 120 126 120 85 126 116 25 30 114 39 99 97 43 112 59 118 107 118 105 76 121 71 118 110 96 65
split_gain=315.252 276.895 250.353 259.057 322.603 272.269 249.329 225.981 213.391 193.679 160.191 157.971 140.493 138.394 126.986 126.806 141.819 135.245 120.268 110.887 81.7932 78.792 78.2561 171.681 147.095 73.5646 72.4005 71.7193 77.6742 66.7991 268.449 64.918 52.2517 48.5834 46.0165 38.6316 38.3027 38.1148 45.0456 32.2937 31.4444 30.022 25.4022 20.3785 20.0199 18.5647 18.3624 87.4835 16.7593 19.4983 12.7598 8.25319 2.15894
threshold=-1.6426660418510435 0.74863794445991527 1.0000000180025095e-35 0.65861263871192943 -0.26467129588127131 1.190528452396393 -0.97384610772132862 -1.1973994970321653 0.069520942866802229 -1.8758649230003355 0.805037021636963 -0.81148874759674061 0.90430092811584484 -0.34289897978305811 -0.89975371956825245 -1.3188816308975218 -1.298594534397125 0.98093965649604808 -1.3293141722679136 -1.5653138756752012 1.0243209004402163 1.0741507411003115 -0.069869849830865846 0.83687987923622142 0.25108079612255102 -0.87810447812080372 1.0147974491119387 -1.7582522630691526 -2.9526925086975093 -1.7367764711380003 -0.27436769008636469 -2.8676304817199703 -0.91976919770240773 0.9691482186317445 0.87777075171470653 -1.4076852202415464 0.96033576130867015 -0.94052517414093006 -0.97955495119094838 1.1470906734466555 -0.87254175543785084 0.86277341842651378 -0.96345737576484669 -0.98160082101821888 -1.6228370070457456 -0.79100596904754628 -0.44362439215183253 -1.866299510002136 -0.73003035783767689 -0.90231385827064503 -0.86700499057769764 -0.97372034192085255 0.47587274014949804
decision_type=2 2 2 2 2 2 2 2 2 2 2 2 2 2 2 2 2 2 2 2 2 2 2 2 2 2 2 2 2 2 2 2 2 2 2 2 2 2 2 2 2 2 2 2 2 2 2 2 2 2 2 2 2
left_child=7 21 3 4 6 -6 -3 11 9 22 36 12 13 26 -12 18 40 -18 25 -11 33 42 23 -9 -24 -4 -1 28 41 46 31 -31 -20 -14 -22 -32 -5 38 -23 -15 -17 -13 -2 -29 -45 -21 52 -48 49 -44 -50 -40 -10
right_child=1 2 15 10 5 -7 -8 8 29 19 14 27 20 39 -16 16 17 -19 32 45 34 37 24 -25 -26 -27 -28 43 -30 30 35 -33 -34 -35 -36 -37 -38 -39 51 -41 -42 -43 48 44 -46 -47 47 -49 50 -51 -52 -53 -54
leaf_value=-0.12732794861745023 0.099942688710420197 0.051676635896998308 -0.040834003732559507 -0.043338979616632869 0.12363720004149133 0.039316219708667263 0.02204766524775064 0.1079383892732049 0.098568407658362278 0.1073391178720103 0.026361226424483415 0.14738908192525604 0.17201172511146195 -0.044564904562819488 -0.041400056989153278 -0.10122463299460115 -0.040654832061177315 0.0059325383346568519 0.032362470054334486 0.065061110882452464 0.12561328785332199 -0.1302579525933911 0.028334258055806322 -0.11576104314063092 0.14973243329361111 0.03264001430005814 0.11933810701169106 0.014460108363221466 0.15640373841636779 0.048883796132889297 -0.18934317496252787 0.12739455948041639 0.080815151162237989 -0.019812680404897698 0.055414120687238888 -0.033596998551054573 0.12320159370530621 -0.16779553086729065 0.066368729560314546 -0.15079664261850215 0.101103327599459 -0.1286860305240706 0.049794814524578852 -0.02947428986751309 -0.15966959512895421 -0.14261853883276862 0.11544153321319306 -0.071418509112778958 -0.18105750557770614 -0.083983664571910199 -0.10432106335981993 0.15370874240116383 0.13415752249379206
leaf_weight=15.129687562584875 6.5551673769950858 2935.1617323309183 293.68095647543669 16.145237609744072 562.07904705405235 1201.5043447315693 87730.339967304841 64.428988590836525 17.849274888634682 23.943286925554276 364.61457258462906 4.6474673002958324 14.226535215973852 46.838111981749535 1145.1936080306768 164.79755361378193 711.58233384042978 5013.5143291652203 536.0938411206007 4.514312431216239 112.18446710705757 9.9653308093547803 255.94677828252316 73.383581325411797 163.61323308944702 254.23978599905968 55.731800436973572 9.4795134961605054 23.13606721162796 167.36651393771172 35.706029400229454 284.08621463179588 380.56871106475592 183.55578957498074 557.0549314469099 28.749011605978012 95.472836554050446 8.3680168986320478 24.270876705646511 73.554765030741692 8.0567589364945871 25.839074149727821 13.833958789706228 13.958954796195028 76.73917318880558 92.506918266415596 331.72988818585873 27.101897776126862 24.896315380930901 51.282575875520706 167.16704066470265 19.521125867962841 378.44527944922447
leaf_count=63 11 5938 1194 57 781 2559 217106 103 25 34 912 10 16 166 3928 801 2904 16955 1450 14 156 37 581 264 190 1139 78 38 31 302 142 323 926 556 1019 80 178 35 48 367 32 129 29 54 368 421 418 75 101 239 4820 25 416
internal_value=0 0.0214498 0.0217455 0.0231357 0.0238308 0.0661905 0.0230069 0.0535148 0.0745967 0.0293073 -0.0164896 0.0196089 0.0333716 -0.0442063 -0.0250359 0.00398747 -0.00255231 0.000142112 0.0303235 -0.0853923 0.0504843 -0.0705836 0.0542001 -0.0111789 0.0756752 -0.00674145 0.0666723 -0.0750899 0.0182465 0.0987672 0.071032 0.0982884 0.0524785 -0.0060147 0.0671816 -0.119875 0.099112 0.0307317 0.061635 -0.109468 -0.0917941 -0.0866002 -0.0944494 -0.125051 -0.139632 -0.132955 0.117716 0.101328 -0.0994041 -0.0555625 -0.114268 0.105302 0.132555
internal_weight=0 101739 101413 94050.5 92429.1 1763.58 90665.5 3161.45 1949.37 678.337 1621.43 1212.08 1058.28 191.254 1509.81 7362.53 5897.95 5725.1 1464.58 120.965 867.022 325.86 557.373 137.813 419.56 547.921 70.8615 153.8 53.6226 1271.03 515.908 451.453 916.663 197.782 669.239 64.455 111.618 62.1254 53.7573 120.393 172.854 30.4865 263.735 100.178 90.6981 97.0212 755.126 358.832 257.18 65.1165 192.063 43.792 396.295
internal_count=268644 262205 256860 231459 226384 3340 223044 6439 3388 1607 5075 3051 2421 674 4840 25401 20692 19859 4709 469 1747 5345 1138 367 771 2333 141 630 170 1781 847 625 2376 572 1175 222 235 145 110 533 833 139 5200 460 422 435 934 493 5189 268 4921 73 441
is_linear=0
shrinkage=0.1


Tree=18
num_leaves=54
num_cat=0
split_feature=119 110 73 103 5 70 127 101 134 131 106 5 127 133 38 120 5 30 88 121 109 5 129 101 28 112 106 61 91 135 89 105 101 107 102 19 10 59 116 108 24 54 38 61 81 49 37 105 74 55 37 106 125
split_gain=275.63 267.979 261.505 266.374 958.024 478.73 602.537 455.466 395.297 335.131 358.477 315.752 192.331 186.329 335.744 183.844 178.531 178.262 155.835 176.614 153.058 134.662 124.659 122.316 120.166 97.5003 95.913 102.494 98.3724 91.2008 85.6863 80.2257 79.5244 77.1139 44.822 55.6321 44.2378 43.7936 40.5695 36.1954 85.1944 24.8228 22.3902 19.7263 19.2029 18.3982 16.0317 15.6655 11.3742 9.00528 3.9373 1.26504 1.1137
threshold=-1.6475479006767271 -1.2049928307533262 -0.93617966771125782 -0.83281126618385304 0.60755261778831493 -0.31617860496044153 -2.219688773155212 -0.83168065547943104 1.0000000180025095e-35 1.0000000180025095e-35 -0.94607251882553089 0.64207527041435253 -3.1612691879272456 1.0000000180025095e-35 0.9508650302886964 -1.7367764711380003 0.79446163773536693 1.0770046114921572 -0.20559909194707868 -1.8910560011863706 -1.1083682179450987 0.61555224657058727 1.0000000180025095e-35 -0.95829474925994862 1.2529228329658511 -1.3150321841239927 -0.91029831767082203 0.77145469188690197 -0.31149683892726893 1.0000000180025095e-35 -0.27930228412151331 -0.82549333572387684 -0.83236253261566151 -0.9925783872604369 -0.91425979137420643 1.3739992380142214 0.89494231343269359 0.8395032286643983 -0.90999060869216908 -1.0795977115631101 1.0295297503471377 1.115346431732178 1.0051174163818362 0.76486083865165722 -1.1944499015808103 1.1969624757766726 0.94607794284820568 -0.95218494534492482 -0.46106860041618342 1.0380916595458987 0.96280735731124889 -0.91110402345657338 -1.125108480453491
decision_type=2 2 2 2 2 2 2 2 2 2 2 2 2 2 2 2 2 2 2 2 2 2 2 2 2 2 2 2 2 2 2 2 2 2 2 2 2 2 2 2 2 2 2 2 2 2 2 2 2 2 2 2 2
left_child=1 26 16 5 9 6 24 11 -8 10 -5 -6 15 20 -15 18 17 34 31 -20 -7 -9 36 29 -4 33 27 28 37 -19 -27 -3 -11 -17 35 -2 -18 -1 -25 42 -41 45 -29 -30 -24 46 -28 -38 -47 -14 51 -51 -36
right_child=2 12 3 4 7 13 8 21 -10 32 -12 -13 49 14 -16 25 22 23 19 -21 -22 -23 44 38 -26 30 41 39 43 -31 -32 -33 -34 -35 52 -37 47 -39 -40 40 -42 -43 -44 -45 -46 48 -48 -49 -50 50 -52 -53 -54
leaf_value=-0.12114506541699351 0.095268088734647816 -0.10397144722011878 -0.042918520688990429 -0.024649954744686443 0.0037384256787563533 -0.062676658522932624 0.019343468852994174 -0.047111371059959634 0.051012132454763819 0.0036195892138542727 0.021817794077613403 -0.087450818345433945 0.05870051958990339 0.033850903355978894 0.099175233090576076 0.11395112812080505 0.24283094482535131 0.042090634765290992 0.067110941385176912 -0.052490134701545288 0.037577047345562692 -0.12131602723246321 0.027444263223562432 -0.12279876452780276 0.065065340387310641 0.077253767183341551 -0.07325131440064267 0.10395738795507392 -0.12807995499905958 -0.10469610301303019 -0.088670671409324942 0.10691036815379498 -0.053931747150094411 -0.16527776325002994 -0.12399935309861164 0.022138519613259234 -0.16399881403284972 0.047538452460588576 -0.047954329754865639 -0.15142084474596021 0.053481489799174366 0.13984687339734167 -0.004966019200117253 -0.039251762832561807 0.21154016038103102 -0.16685075705321387 0.16999009196806467 -0.099346041496472554 -0.088724283398944462 0.14283025607456745 0.082933387517035995 0.12881296797554923 -0.056029696982775448
leaf_weight=17.686859145760536 144.19257892668247 18.558870553970337 1691.848937690258 1729.1986779272556 2106.8005354218185 155.85382887721062 36711.935449933633 407.11640573292971 4415.5988342836499 351.43108405917883 41602.012709893286 463.20032116770744 18.722092673182487 1667.4372581243515 1489.7245337069035 11.664070695638655 3.6239843964576712 183.76790112257004 397.28559276461601 179.14219711720943 6649.5099235791713 612.47687984071672 9.6818475574255007 156.93899132311344 109.73829774558544 87.479295745491982 6.5592342317104322 132.30055662989616 78.683559849858284 54.994809731841087 48.312423348426819 645.17626827955246 757.89360158890486 65.039571300148964 16.169418245553974 373.43152751028538 43.756210241466761 118.56547668576241 134.48602122068405 24.437855765223503 119.5993285626173 4.7129274010658255 22.011702567338943 36.642844885587692 13.660348698496817 24.758335128426552 4.6167432516813278 261.17230808734894 75.342157825827599 78.483783662319183 17.48180764913559 358.36639450490475 2.8330492265522471
leaf_count=80 348 62 4731 4957 6839 504 89266 1456 8902 1443 105928 2835 33 3443 2215 15 5 467 723 578 15624 3090 35 620 219 137 32 209 414 221 186 896 4458 265 138 981 191 229 510 101 223 9 52 119 14 109 12 3805 367 80 27 419 22
internal_value=0 0.0523786 0.0193562 0.0199513 0.0145601 0.0248471 0.020264 -0.0351333 0.0227435 0.018574 0.0199634 -0.0126969 0.071288 0.044596 0.0646746 0.0532535 -0.0235864 -0.00365902 0.0679793 0.0299413 0.0352811 -0.0916866 -0.0876391 -0.044784 -0.036341 -0.032689 -0.00230402 0.0151255 -0.031888 0.00828088 0.0182206 0.101014 -0.0356996 -0.122816 0.0369725 0.0425099 -0.104496 0.0256417 -0.0882598 0.0547689 0.018717 -0.0849406 0.0884201 -0.0998564 0.135181 -0.0944611 0.0272306 -0.108623 -0.108048 0.126668 0.129469 0.131331 -0.113866
internal_weight=0 2591.63 102320 100922 48030.1 52891.6 42929.1 3589.59 41127.5 44440.5 43331.2 2570 1925.71 9962.53 3157.16 1452.66 1398.71 1066.81 1240.16 576.428 6805.36 1019.59 331.895 530.188 1801.59 212.495 665.918 549.928 251.579 238.763 135.792 663.735 1109.32 76.7036 536.627 517.624 308.553 136.252 291.425 298.349 144.037 115.989 154.312 115.326 23.3422 111.276 11.176 304.929 100.1 473.054 454.332 436.85 19.0025
internal_count=268644 5377 263267 255910 131006 124904 103118 14220 98168 116786 110885 9674 3421 21786 5658 2862 7357 3307 2259 1301 16128 4546 4050 1818 4950 603 1956 1427 842 688 323 958 5901 280 1489 1329 4001 309 1130 585 324 529 261 533 49 520 44 3996 476 559 526 499 160
is_linear=0
shrinkage=0.1


Tree=19
num_leaves=59
num_cat=0
split_feature=77 135 136 32 134 5 32 32 105 5 98 29 30 133 129 106 104 6 134 110 112 29 0 32 33 131 28 77 88 112 30 0 33 129 0 91 31 122 95 41 118 20 78 109 5 0 106 0 30 121 33 110 34 118 121 78 79 105
split_gain=262.554 382.41 251.487 250.581 492.092 621.545 442.647 440.55 510.235 384.139 550.695 372.993 361.083 302.72 284.308 263.549 249.109 466.167 452.094 233.592 194.157 193.426 246.849 187.109 114.793 108.467 107.916 104.878 172.22 160.928 144.516 105.889 99.5645 88.3514 86.7035 68.8714 67.7335 64.3259 60.6212 186.681 56.8446 54.4361 49.8512 65.5619 41.3669 102.182 38.8424 41.3326 23.2348 44.3379 21.7286 21.5268 14.2519 11.8942 25.9858 3.55567 2.20791 0.072717
threshold=-1.2362691760063169 1.0000000180025095e-35 1.0000000180025095e-35 0.95529526472091686 1.0000000180025095e-35 0.5844266712665559 0.93976318836212169 0.89651873707771312 -0.94411563873291005 0.64446720480918895 -0.91273993253707875 1.2032101750373843 1.0587448477745058 1.0000000180025095e-35 1.0000000180025095e-35 -0.87368950247764576 -0.85357412695884693 0.68895632028579723 1.0000000180025095e-35 -0.90854191780090321 -0.93225297331809986 1.1465836167335512 0.53116765618324291 0.9646093249320985 0.92297369241714489 1.0000000180025095e-35 1.14400190114975 -1.2189803719520567 -1.2028219699859617 -0.94653907418251026 1.0549340248107912 0.3341581672430039 0.87951609492301952 1.0000000180025095e-35 0.51405692100524913 -1.1480047106742857 0.97664183378219616 -1.1640757322311399 -1.0451644659042356 0.94321870803833019 -1.0314036607742307 1.3609224557876589 -1.27216100692749 -0.88755741715431202 0.68622028827667247 0.52231585979461681 -0.87907627224922169 0.51612949371337902 1.0676512122154238 -1.0413365960121153 0.86220574378967296 -0.90554165840148915 0.84340992569923412 -0.91855192184448231 -0.98054099082946766 -1.2670213580131529 -1.2832730412483213 -0.85138642787933339
decision_type=2 2 2 2 2 2 2 2 2 2 2 2 2 2 2 2 2 2 2 2 2 2 2 2 2 2 2 2 2 2 2 2 2 2 2 2 2 2 2 2 2 2 2 2 2 2 2 2 2 2 2 2 2 2 2 2 2 2
left_child=1 16 3 6 13 12 7 11 -9 14 -11 -2 -6 23 -8 -15 18 19 21 33 27 26 -23 -5 -7 -21 -1 28 30 31 -4 -29 34 -18 41 -36 46 -31 50 -40 -30 -22 43 -34 45 -19 -3 -48 49 57 -20 -44 -46 56 -55 -49 -50 -38
right_child=2 36 20 4 5 24 9 8 -10 10 -12 -13 -14 15 -16 -17 17 44 38 25 32 22 -24 -25 -26 -27 -28 29 40 37 -32 -33 42 -35 35 -37 48 -39 39 -41 -42 -43 51 -45 52 -47 47 55 53 -51 -52 -53 -54 54 -56 -57 -58 -59
