tree
version=v4
num_class=1
num_tree_per_iteration=1
label_index=0
max_feature_idx=136
objective=binary sigmoid:1
feature_names=Column_0 Column_1 Column_2 Column_3 Column_4 Column_5 Column_6 Column_7 Column_8 Column_9 Column_10 Column_11 Column_12 Column_13 Column_14 Column_15 Column_16 Column_17 Column_18 Column_19 Column_20 Column_21 Column_22 Column_23 Column_24 Column_25 Column_26 Column_27 Column_28 Column_29 Column_30 Column_31 Column_32 Column_33 Column_34 Column_35 Column_36 Column_37 Column_38 Column_39 Column_40 Column_41 Column_42 Column_43 Column_44 Column_45 Column_46 Column_47 Column_48 Column_49 Column_50 Column_51 Column_52 Column_53 Column_54 Column_55 Column_56 Column_57 Column_58 Column_59 Column_60 Column_61 Column_62 Column_63 Column_64 Column_65 Column_66 Column_67 Column_68 Column_69 Column_70 Column_71 Column_72 Column_73 Column_74 Column_75 Column_76 Column_77 Column_78 Column_79 Column_80 Column_81 Column_82 Column_83 Column_84 Column_85 Column_86 Column_87 Column_88 Column_89 Column_90 Column_91 Column_92 Column_93 Column_94 Column_95 Column_96 Column_97 Column_98 Column_99 Column_100 Column_101 Column_102 Column_103 Column_104 Column_105 Column_106 Column_107 Column_108 Column_109 Column_110 Column_111 Column_112 Column_113 Column_114 Column_115 Column_116 Column_117 Column_118 Column_119 Column_120 Column_121 Column_122 Column_123 Column_124 Column_125 Column_126 Column_127 Column_128 Column_129 Column_130 Column_131 Column_132 Column_133 Column_134 Column_135 Column_136
feature_infos=[-1.8014661073684692:2.1873281002044678] [-1.7160434722900391:2.0962586402893066] [-1.6382262706756592:2.0136351585388184] [-1.5680137872695923:1.9394575357437134] [-1.5054070949554443:1.8737261295318604] [-1.4504051208496094:1.8164401054382324] [-1.4123568534851074:1.7788288593292236] [-1.3844102621078491:1.7939627170562744] [-1.3517893552780151:1.9168174266815186] [-1.3099035024642944:1.9795591831207275] [-1.2559221982955933:2.0165181159973145] [-1.1870334148406982:2.064321756362915] [-1.1039742231369019:2.1106562614440918] [-1.0067610740661621:2.1771299839019775] [-0.90047705173492432:2.2759943008422852] [-0.78966546058654785:2.3805651664733887] [-0.67814630270004272:2.4481546878814697] [-0.65620064735412598:2.4998569488525391] [-0.66012513637542725:2.5653238296508789] [-0.66667592525482178:2.5221147537231445] [-0.8555336594581604:2.4413206577301025] [-0.86833834648132324:2.3840618133544922] [-0.86565589904785156:2.2409591674804688] [-0.7797551155090332:2.1797337532043457] [-1.0841877460479736:2.1696581840515137] [-1.4308524131774902:2.0883691310882568] [-1.6366665363311768:1.9448176622390747] [-1.8254417181015015:1.7312250137329102] [-1.9202775955200195:1.5516149997711182] [-2.2033448219299316:1.3473584651947021] [-2.6534385681152344:1.1459542512893677] [-2.9375624656677246:1.0691677331924438] [-2.8964071273803711:1.0156075954437256] [-2.6209216117858887:0.99408984184265137] [-1.9672813415527344:0.99887841939926147] [-1.2877312898635864:1.0148539543151855] [-0.66409575939178467:1.1471014022827148] [-0.67050886154174805:1.328394889831543] [-0.67336314916610718:1.4686216115951538] [-0.67729061841964722:1.427788257598877] [-0.67375040054321289:1.3506048917770386] [-0.77278417348861694:1.3033223152160645] [-0.78214722871780396:1.4334096908569336] [-0.67822211980819702:1.6771683692932129] [-0.67542338371276855:1.8418123722076416] [-0.67939788103103638:1.9795904159545898] [-0.67687302827835083:1.8671952486038208] [-0.68056988716125488:1.8940913677215576] [-0.67851173877716064:2.0411467552185059] [-0.68057990074157715:2.1347439289093018] [-0.67868822813034058:2.1180493831634521] [-0.68411111831665039:2.1010029315948486] [-0.6882440447807312:2.3278176784515381] [-0.69760811328887939:2.41339111328125] [-0.68820065259933472:2.0181429386138916] [-0.66555494070053101:1.663224458694458] [-0.63047897815704346:1.3939603567123413] [-0.79989981651306152:1.3641012907028198] [-0.9627259373664856:1.3483799695968628] [-0.83332031965255737:1.3266682624816895] [-0.62303602695465088:1.2987289428710938] [-0.62908732891082764:1.4118657112121582] [-0.65896600484848022:1.6471337080001831] [-0.67422842979431152:1.5962808132171631] [-0.93073725700378418:1.2496439218521118] [-1.1305865049362183:1.0751444101333618] [-1.2290370464324951:0.99085426330566406] [-1.5406250953674316:0.88485002517700195] [-1.6781172752380371:0.75389385223388672] [-1.8947262763977051:0.60495084524154663] [-1.7363165616989136:0.45876148343086243] [-1.6730015277862549:0.33052113652229309] [-1.5550380945205688:0.23037496209144592] [-1.4075071811676025:0.15855956077575684] [-1.3374539613723755:0.23297213017940521] [-1.5821062326431274:0.84510332345962524] [-1.8401819467544556:1.4404212236404419] [-2.0371255874633789:1.2026444673538208] [-2.1728529930114746:1.1285310983657837] [-2.2573421001434326:0.92254304885864258] [-2.3058340549468994:0.73609095811843872] [-2.3315773010253906:0.28676301240921021] [-2.3403120040893555:0.33890664577484131] [-2.3343968391418457:0.39074629545211792] [-2.3124566078186035:0.5232703685760498] [-2.2730567455291748:0.47703936696052551] [-2.2140905857086182:0.50853937864303589] [-2.1362462043762207:0.53271615505218506] [-2.0426793098449707:0.55223846435546875] [-1.9374580383300781:0.56802195310592651] [-1.8240519762039185:0.65060514211654663] [-1.8478662967681885:1.0689502954483032] [-1.6500253677368164:1.4168777465820312] [-1.5946441888809204:1.6287872791290283] [-1.530011773109436:1.664950966835022] [-1.4843816757202148:1.6182941198348999] [-1.4547033309936523:1.5608183145523071] [-1.4384253025054932:1.5595740079879761] [-1.4264529943466187:1.5630311965942383] [-1.5388252735137939:1.5628886222839355] [-1.8758529424667358:1.5685317516326904] [-2.4619696140289307:1.5680602788925171] [-2.648137092590332:1.5700795650482178] [-2.4631106853485107:1.5662518739700317] [-2.0338072776794434:1.5674868822097778] [-1.4165751934051514:1.5623446702957153] [-1.2213733196258545:1.563502311706543] [-1.1215335130691528:1.561995267868042] [-1.168958306312561:1.5723429918289185] [-1.225764274597168:1.5757462978363037] [-1.3042765855789185:1.5835809707641602] [-1.5506553649902344:1.5861003398895264] [-2.1400496959686279:1.5904537439346313] [-2.4733853340148926:1.5879421234130859] [-2.4821960926055908:1.5883719921112061] [-1.9469403028488159:1.5865405797958374] [-1.5763039588928223:1.5868538618087769] [-1.6282110214233398:1.7016431093215942] [-1.6824811697006226:2.5795986652374268] [-1.7420622110366821:2.8008601665496826] [-1.8175874948501587:2.5472877025604248] [-1.9280952215194702:1.7180403470993042] [-2.1567583084106445:1.6308574676513672] [-2.3918964862823486:1.6220458745956421] [-2.6616356372833252:1.6080794334411621] [-2.9761693477630615:1.9929251670837402] [-3.3559722900390625:2.7791450023651123] [-3.8750591278076172:3.7871904373168945] [0:1] [0:1] [0:1] [0:1] [0:1] [0:1] [0:1] [0:1] [0:1]
tree_sizes=6580 6729 6631 6588 6169 6022 6874 5871 6530 6230 5974 6547 6964 6999 6949 6354 7014 5897 6973 5988 4548 7033 5937 4788 6574 6975 5775 6993 6749 6478 6955 6497 6534 6690 6400 6189 6809 4117 6083 6424 6960 6024 4688 6267 6955 6717 6873 5866 6984 6996 6952 5660 5772 6062 6423 6996 6415 6974 6962 5960 4452 5778 5862 6582 6945 6284 6280 6967 6178 5465 6965 6482 6369 6982 6983 6734 6312 6120 5830 4557 6996 4572 5650 6936 3823 4686 6956 6098 6953 6304 6740 6842 6417 6496 5766 5767 6843 6495 6425 5875 6956 6819 6778 6841 5749 5700 6613 6412 5681 5194 4693 6620 6806 6608 6732 4687 6991 6262 6644 6301 6626 6955 6372 6368 6983 6963 4606 6546 6662 6820 5588 6122 6610 5858 6736 5741 5530 6860 5518 6193 6715 4957 6739 6745 6846 6785 5604 6857 6378 6814 5909 5691 6978 6384 6324 6610 5703 4337 6768 5440 6742 6831 6321 6150 6974 6971 6840 6752 6074 4457 5563 6034 6697 6973 5310 6736 6996 6863 6966 5588 6620 6411 5531 6973 6706 6433 6613 5449 6848 6355 5955 6642 6065 5133 4564 6442 5770 5124 5763 6602

Tree=0
num_leaves=60
num_cat=0
split_feature=52 53 126 31 91 37 106 136 30 99 71 101 31 113 103 102 102 47 106 4 112 96 31 30 100 77 24 69 134 102 134 100 135 31 100 124 28 20 27 108 39 0 57 47 39 102 114 30 121 109 45 29 3 108 102 31 30 76 0
split_gain=7864.58 3510.37 2760.54 2955.58 2069.42 1382.2 1206.37 1019.24 974.922 1244.47 878.356 1043.53 853.096 788.35 687.19 662.121 651.068 615.734 441.271 438.814 412.484 399.977 314.388 285.734 266.977 261.394 251.846 219.581 167.174 158.651 155.977 114.963 223.004 112.727 99.5553 82.6535 110.529 76.4408 76.0378 70.3724 69.0871 60.981 58.8787 43.8218 36.9028 33.4561 28.7575 23.8027 22.874 21.2057 19.095 18.673 18.104 36.0898 14.3127 9.22445 6.03778 0.649765 4.54747e-13
threshold=1.0673460364341738 0.78677582740783703 -2.9872287511825557 1.0008376240730288 -1.017690062522888 0.94815364480018627 -0.89969587326049794 1.0000000180025095e-35 1.099486291408539 -0.96621340513229359 -0.43375237286090845 -0.82581612467765797 0.99673935770988475 -1.0050767660140989 -0.80582144856452931 -0.79739588499069203 -0.86137539148330677 1.2403873205184939 -0.90715983510017384 0.72560569643974315 -1.3151137828826902 -1.0040451288223264 1.0041303038597109 1.06686407327652 -0.86264002323150624 -1.3630378842353819 1.48312383890152 -0.0801534168422222 1.0000000180025095e-35 -0.95603874325752247 1.0000000180025095e-35 -0.96283185482025135 1.0000000180025095e-35 0.99561432003974926 -0.95861095190048207 -2.4749689102172847 0.91045981645584118 1.3882395029067995 1.5137334465980532 -1.0147829651832578 1.0241773724555971 0.51390039920806896 0.85400375723838817 1.2488191127777102 1.0227746963500979 -0.51010489463806141 -1.0346937179565427 1.0820149779319765 -1.8507914543151853 -1.1273021697998045 0.74068391323089611 1.2501078844070437 -0.18849889934062955 -1.0551123619079588 -0.95081275701522816 0.84653392434120189 1.0923410058021548 -1.0799847245216367 1.0198521018028261
decision_type=2 2 2 2 2 2 2 2 2 2 2 2 2 2 2 2 2 2 2 2 2 2 2 2 2 2 2 2 2 2 2 2 2 2 2 2 2 2 2 2 2 2 2 2 2 2 2 2 2 2 2 2 2 2 2 2 2 2 2
left_child=1 21 17 4 12 6 -6 8 9 19 11 22 25 37 28 -14 -11 20 -7 -3 52 50 -5 24 -15 -4 34 -16 -12 -28 -13 32 46 -25 -10 44 -37 42 47 45 43 -39 -9 -41 -22 49 -23 -33 -42 -19 57 -34 -2 -54 -52 -40 -56 58 -1
right_child=2 7 3 10 5 18 -8 13 26 16 14 30 15 23 27 -17 -18 39 -20 -21 35 31 -24 33 -26 -27 29 -29 -30 -31 -32 38 51 -35 -36 36 -38 41 55 40 48 -43 -44 -45 -46 -47 -48 -49 -50 -51 54 -53 53 -55 56 -57 -58 -59 -60
leaf_value=-0.70553804199041625 -0.31264807928253391 -0.41100351652590716 -0.51865062307324217 -0.46791069903214777 -0.46736214295879952 -0.40615884308053157 -0.54597412916797794 -0.30017621845436837 -0.44280187019501699 -0.49967201064932748 -0.4430324606123307 -0.62478244023176921 -0.41836467322478854 -0.53696357729724897 -0.55673274430321307 -0.4885416383897313 -0.53106894359004808 -0.39065579362626834 -0.45509573401428566 -0.50328346759615805 -0.6960614306783468 -0.49742349283267295 -0.5261078265554423 -0.57143646259521019 -0.62832924796450385 -0.3959282409544112 -0.53362224041485273 -0.4875229551742532 -0.35254430695993949 -0.64152202555681292 -0.55180133656162433 -0.59697850923817108 -0.30078804438885731 -0.62775053160566441 -0.56220000754630217 -0.48001921533514724 -0.65639507340822612 -0.53233388816906457 -0.5603128123681228 -0.55463160625494612 -0.27750188051845581 -0.37728456302852442 -0.45690215976996251 -0.37918168793188567 -0.61397653379147121 -0.37492577668679228 -0.64473479834032454 -0.66576598939401688 -0.40841710229897299 -0.589851431633033 -0.49783798059718198 -0.47486742181571462 -0.39689823558008464 -0.58199077261501353 -0.63611105193907269 -0.68708906563573691 -0.70553804199041625 -0.66778187809594858 -0.70553804199041625
leaf_weight=464.99621786177158 13.204382881522177 1703.8406911343336 176.73439975082874 1439.4535773396492 5693.7292659133673 2996.7197735756636 2970.5861102342606 102.38496467471123 111.89143449068069 15026.891816228628 2084.9851235747337 1042.855393499136 3278.2475232034922 1883.4264955222607 764.67217737436295 2279.1939586400986 11784.050590440631 6.0410481244325629 4784.4349252134562 738.72564804553986 583.93525725603104 16.618634685873985 2613.7370535582304 546.76379826664925 385.23830732703209 9661.0398427248001 164.96653009951115 1144.5837372690439 226.33033490180969 783.38840715587139 407.1915796995163 457.17420606315136 34.607159301638603 1015.9541674554348 185.79202321171761 46.775110244750977 147.79362148046494 48.922153383493423 5.9538202732801428 33.232118234038353 36.764504715800285 52.681538611650467 31.297993585467339 24.904256075620651 60.437268599867821 10.984192147850989 65.413724273443222 56.524032220244408 20.952556908130646 46.338970988988876 5.8281296342611304 7.4967927485704413 42.582332074642181 13.996989503502844 32.380444273352623 159.34719948470592 20.429189801216125 4.5801523625850669 480.31811021268368
leaf_count=2003 35 5223 622 4758 18807 9125 10797 266 358 51683 6673 4137 10151 6774 2814 7732 42090 18 15556 2552 2492 57 9281 2046 1534 29001 591 3878 638 3163 1490 1760 90 4043 688 157 606 175 22 122 92 154 102 73 237 32 265 234 64 177 20 25 128 53 130 674 88 19 2069
internal_value=-0.547711 -0.524318 -0.461027 -0.456911 -0.442175 -0.466841 -0.494314 -0.517206 -0.510936 -0.507246 -0.505165 -0.531485 -0.415826 -0.564232 -0.470845 -0.447145 -0.513472 -0.618274 -0.436249 -0.438913 -0.651684 -0.660007 -0.50544 -0.575143 -0.552478 -0.398133 -0.597565 -0.515242 -0.434172 -0.622753 -0.604288 -0.607353 -0.518868 -0.608047 -0.517321 -0.671115 -0.613994 -0.38656 -0.62353 -0.448872 -0.402529 -0.451941 -0.336869 -0.479473 -0.688362 -0.533603 -0.614892 -0.604547 -0.325027 -0.566878 -0.701937 -0.331784 -0.418082 -0.442688 -0.646556 -0.682523 -0.662969 -0.705356 -0.705538
internal_weight=0 36377.9 42652.4 41564.5 31840.7 16445.5 8664.32 34566.2 30499.5 29253.5 9723.81 5503.24 15395.2 4066.67 4220.57 5557.44 26810.9 1087.94 7781.15 2442.57 908.725 1811.67 4053.19 3831.38 2268.66 9837.77 1246.04 1909.26 2311.32 948.355 1450.05 803.136 124.136 1562.72 297.683 838.941 194.569 235.287 678.999 179.218 115.853 101.604 133.683 58.1364 644.373 63.3642 82.0324 513.698 57.7171 52.38 1008.53 42.104 69.7837 56.5793 58.6378 165.301 52.8096 949.894 945.314
internal_count=268644 128898 139746 135460 101791 54285 29604 121442 106348 101548 33669 19666 47506 15094 14003 17883 93773 4286 24681 7775 3708 7456 14039 14397 8308 29623 4800 6692 7311 3754 5627 3127 437 6089 1046 3492 763 697 2690 578 351 329 368 195 2729 227 322 1994 156 195 4329 115 216 181 238 696 218 4091 4072
is_linear=0
shrinkage=1


Tree=1
num_leaves=61
num_cat=0
split_feature=52 31 53 126 82 37 104 31 100 70 102 4 135 52 103 38 103 103 103 134 47 106 72 96 30 30 134 29 112 53 69 70 105 134 132 136 71 25 30 100 135 102 103 113 124 39 34 29 47 52 75 40 113 20 98 113 43 123 29 107
split_gain=6264.42 2921.41 2543.8 2442.67 1457.56 1038.81 1317.41 900.003 895.317 725.764 1029.74 710.21 677.545 706.959 1207.88 689.499 659.187 593.281 553.448 703.674 512.981 448.349 377.369 359.644 351.146 314.061 300.841 279.219 275.553 255.24 236.631 216.97 216.891 172.187 168.724 115.197 106.581 119.435 102.709 96.2661 167.688 92.3107 89.5973 78.3731 72.3504 71.8513 100.272 70.5379 67.0948 53.6224 50.0109 27.7328 24.6261 24.4745 23.9755 13.113 8.30244 11.7466 5.28208 0.795159
threshold=1.0486902594566347 1.0016776919364931 0.78677582740783703 -2.9872287511825557 -1.2174873352050779 0.94394761323928844 -0.84317046403884877 0.99673935770988475 -0.95356413722038258 -0.27164706587791437 -0.81966814398765553 0.71813297271728527 1.0000000180025095e-35 1.0211853384971621 -0.87378352880477894 0.85666656494140636 -0.80582144856452931 -0.79845568537712086 -0.85541507601737965 1.0000000180025095e-35 1.2356429100036623 -0.90294933319091786 -0.64767149090766896 -1.0060722827911375 1.099486291408539 1.0969256162643435 1.0000000180025095e-35 1.1720197796821596 -1.3151137828826902 1.0592054724693301 -0.0801534168422222 -0.24561298638582227 -0.89623790979385365 1.0000000180025095e-35 1.0000000180025095e-35 1.0000000180025095e-35 -0.45091253519058222 1.2632531523704531 1.1109046339988711 -0.96283185482025135 1.0000000180025095e-35 -0.95603874325752247 -0.79912990331649769 -0.99536713957786549 -2.4749689102172847 1.0227746963500979 0.83825796842575084 1.2418605685234072 1.2488191127777102 0.97865658998489391 -1.1556625366210935 1.0672049522399905 -0.98708426952362049 1.7760507464408877 -0.98041209578514088 -0.9273301064968108 0.72547960281372081 -1.0201821923255918 1.2501078844070437 -0.90366774797439564
decision_type=2 2 2 2 2 2 2 2 2 2 2 2 2 2 2 2 2 2 2 2 2 2 2 2 2 2 2 2 2 2 2 2 2 2 2 2 2 2 2 2 2 2 2 2 2 2 2 2 2 2 2 2 2 2 2 2 2 2 2 2
left_child=2 3 23 20 7 6 -6 29 11 10 18 35 13 22 -15 25 26 -9 27 -20 28 -7 -10 55 34 -14 31 -3 51 -5 33 -11 -17 -18 -13 38 50 -38 -4 40 52 -26 -32 -28 -30 48 -47 53 -22 -37 -12 -2 -25 -41 -42 -1 59 -58 -49 -57
right_child=1 9 8 4 5 21 -8 17 12 16 36 24 15 14 -16 32 30 -19 19 -21 45 -23 -24 39 41 -27 43 -29 44 -31 42 -33 -34 -35 -36 49 37 -39 -40 47 54 -43 -44 -45 -46 46 -48 58 -50 -51 -52 -53 -54 -55 -56 56 57 -59 -60 -61
leaf_value=-0.013974697918843156 0.13975791729382447 0.08324287627505661 0.13292230813688252 0.096289693915072083 0.082003223610515416 0.11861817489708121 0.010161027360473113 0.10298594117452896 -0.032319289823453674 0.058894373955246784 0.19706832389518492 0.065793806569642663 0.029414925305614067 0.081251547242215269 -0.0027622103292779857 0.1309248007904126 -0.043686623929724208 0.048045782013868617 -0.0044791407925854629 0.098311426247508216 -0.050983909355392376 0.073064494240700675 0.022412047013988308 -0.008178379052252804 -0.0010691084340577089 -0.057536424941999592 0.13027137239166545 -0.11219020880201283 -0.13893970110971773 0.13247233449486417 0.10059874762511962 0.12013172599926764 0.057925248461932699 0.11105204008063047 -0.058128763040864111 -0.034719077049920888 -0.10684221442871873 -0.0013541076402851229 -0.027735311379535728 -0.043426548530666471 -0.014583560050518061 -0.10056620393557258 0.027764188313898864 0.22680564989334517 -0.064657988884123857 0.16998421105138545 0.01124937446816705 -0.10378579333124655 0.14022686727653974 0.084226788009304554 -0.097590017208048205 -0.038446345991090002 -0.11822781592430298 -0.10993181165663442 0.20257256898479117 -0.12476914875497087 -0.15245438824005456 0.050178854438398625 -0.13913488386102724 -0.14925139209937557
leaf_weight=7.375597655773162 46.344513565301895 1714.5923753678799 1331.5771241933107 2465.5475246906281 5211.4677907079458 3969.3747209012508 5002.6817577779293 5129.7220674455166 5868.6632772982121 1870.8840431123972 5.8047014623880377 919.20773699879646 4427.6208047866821 2421.7418473064899 5833.2425380796194 858.66748115420341 724.02164596319199 3186.4878960847855 4531.2658043801785 780.73533844947815 83.261078357696533 4741.3315222710371 1604.121794000268 40.971784889698029 156.1700986623764 458.40256422758102 169.75983971357346 76.361107245087624 568.8071253746748 9316.7903941124678 229.0723594725132 837.6255220323801 773.77049799263477 79.842315524816513 124.78380949795246 61.570167481899261 158.60187929868698 332.01810163259506 41.018649041652679 440.91119648516178 5.8116641491651526 231.42650206387043 642.9371512234211 166.67466820776463 170.40447327494621 86.606606498360634 73.627643048763275 69.878667831420898 23.539386883378029 98.589201778173447 749.06016363203526 10.760545134544371 40.368042945861816 63.276614040136337 40.617855459451675 13.462605297565458 6.5432660728693008 5.0833027213811857 106.99738393723965 910.013238504529
leaf_count=28 134 5555 3917 7705 16751 11831 17710 15915 21976 6205 16 3020 15280 7852 21175 2605 2788 10693 16460 2490 329 15309 5614 153 564 1797 495 311 2530 27037 719 2518 2591 254 477 233 662 1223 154 1721 21 968 2216 430 686 239 262 299 67 321 3065 39 173 267 103 59 29 18 475 4110
internal_value=0 0.0709085 0.0117313 0.0842943 0.0883691 0.0684524 0.0468164 0.107123 0.0198271 0.0298507 0.0121302 0.0714522 0.012948 0.00171278 0.0218847 0.0400562 0.0611884 0.0819347 0.0268367 0.0106286 -0.0652453 0.0938228 -0.0205706 -0.104809 0.0208049 0.0212572 0.0889105 0.0749102 -0.105466 0.124901 0.0108192 0.0778325 0.0963232 -0.0283175 0.0509819 0.118757 -0.0717406 -0.0354551 0.128121 -0.0558919 0.0237584 -0.0604769 0.0468974 0.178096 -0.121816 0.0546966 0.0970455 -0.0708345 -0.00884004 0.0385004 -0.0953242 0.106178 -0.0627947 -0.0517731 0.175391 -0.14679 -0.147837 -0.0638602 -0.125169 -0.148894
internal_weight=0 53156 26961.9 40086.8 39023.4 18924.9 10214.1 20098.5 25210.6 13069.3 8348.44 2964.34 22246.2 15727.8 8254.98 6518.46 4720.82 8316.21 7102.95 5312 1063.35 8710.71 7472.79 1751.31 1431.59 4886.02 3044.94 1790.95 796.317 11782.3 1675.87 2708.51 1632.44 803.864 1043.99 1532.76 1245.48 490.62 1372.6 808.833 127.769 387.597 872.01 336.435 739.212 267.035 160.234 681.064 106.8 160.159 754.865 57.1051 81.3398 504.188 46.4295 942.478 935.102 11.6266 176.876 923.476
internal_count=268644 172644 96000 127237 122951 61601 34461 61350 88544 45407 29782 9654 78890 56617 29027 22273 15625 26608 24816 18950 4286 27140 27590 7456 5029 17077 9648 5866 3389 34742 5977 8723 5196 3042 3497 4625 4966 1885 4071 3212 450 1532 2935 925 3216 897 501 2762 396 554 3081 173 326 1988 124 4244 4216 47 774 4169
is_linear=0
shrinkage=0.1


Tree=2
num_leaves=60
num_cat=0
split_feature=52 53 31 127 83 106 70 136 103 52 102 31 114 111 70 102 103 36 100 103 48 78 101 71 134 54 101 69 44 109 95 100 69 31 71 63 37 121 0 69 29 108 112 100 135 70 23 129 101 135 74 127 20 114 116 15 120 95 58
split_gain=5026.09 2258.47 1960.47 2004.31 1158.75 803.968 811.098 764.849 728.998 795.667 893.372 663.955 643.455 595.663 592.136 829.161 564.705 556.487 526.206 496.447 476.363 328.477 324.996 412.957 321.712 256.559 247.881 238.644 236.136 190.445 190.216 190.043 154.24 134.731 117.884 166.4 115.804 104.374 113.497 97.2219 87.6675 81.4662 78.9011 72.5403 65.8855 62.407 49.0337 30.2277 28.2295 45.6863 20.6113 23.5754 20.236 6.04791 4.86007 2.9841 0.521402 0.0221338 0.00133562
threshold=1.0583583116531374 0.78677582740783703 1.0012574791908266 -3.2624993324279781 -1.1886742711067197 -0.90499553084373463 -0.26106208562850947 1.0000000180025095e-35 -0.82837599515914906 1.0277708768844607 -0.87713336944580067 0.99485629796981823 -0.99823194742202748 -1.2596531510353086 -0.27164706587791437 -0.81966814398765553 -0.8006029725074767 0.84241271018981945 -0.95507934689521778 -0.79251489043235768 1.2390733957290652 -1.1808429360389707 -0.85556373000144947 -0.46726946532726282 1.0000000180025095e-35 1.0509339570999148 -0.82982218265533436 -0.055782986804842942 1.0618676543235781 -0.87245032191276539 -0.9633171260356902 -0.83408451080322255 -0.0035568457096815105 1.0000892877578738 -0.45649208128452295 0.50336343050003063 0.9385364055633546 -1.2336714267730711 0.46469925343990331 -0.087498042732477174 1.2418605685234072 -1.0147829651832578 -0.98102542757987965 -0.96283185482025135 1.0000000180025095e-35 -0.28346464037895197 1.2583016157150271 1.0000000180025095e-35 -0.95827344059944142 1.0000000180025095e-35 -0.4435399323701858 -3.3032435178756709 1.7760507464408877 -0.93127238750457753 -1.5135446190834043 1.1228646636009219 -0.92978155612945546 -1.0333683490753172 0.63865786790847789
decision_type=2 2 2 2 2 2 2 2 2 2 2 2 2 2 2 2 2 2 2 2 2 2 2 2 2 2 2 2 2 2 2 2 2 2 2 2 2 2 2 2 2 2 2 2 2 2 2 2 2 2 2 2 2 2 2 2 2 2 2
left_child=1 21 3 13 11 17 -7 8 9 18 -11 32 37 50 15 22 24 -6 -3 -13 36 56 25 -24 26 -4 -16 39 30 33 -10 -30 -5 -14 46 -36 -15 55 -39 -18 43 -22 -26 44 -23 -31 -17 -29 49 -42 54 -52 -45 -50 -2 -9 -1 58 -58
right_child=2 7 14 4 5 6 -8 12 28 10 -12 19 29 20 16 34 27 -19 -20 -21 41 40 23 -25 42 -27 -28 47 31 45 -32 -33 -34 -35 35 -37 -38 38 -40 -41 48 -43 -44 52 -46 -47 -48 -49 53 -51 51 -53 -54 -55 -56 -57 57 -59 -60
leaf_value=-0.10610843735954836 0.060446379877140743 0.061751343392221818 0.064133479344465269 0.11166705119401027 -0.039219980871675754 -0.010716293619153631 0.060818237196419211 0.22588133772779706 -0.014186356603670337 0.10529148296204623 0.034735846000923047 0.096928955319975682 -0.030785825650255519 -0.12367595824490099 0.098308232541866131 0.083337344733884627 -0.064655741019576052 0.085087590551076467 0.010481571731954159 0.051007824597947338 -0.016041930483374239 -0.024149460704524207 -0.034374031528966613 0.037918897154774131 0.11424636105165974 -0.10189255216333742 0.042645611245767157 0.1030336771504594 0.058840080276605658 0.0085583362322010914 -0.096490903752609269 -0.02624831767025811 0.15054828789966657 -0.077953847881299568 0.02247515705948936 -0.077950438985665227 -0.049649286086655246 -0.0177133866689538 0.12363831310238785 -0.00059720280849051566 -0.11448433490557926 0.1165751725229409 0.2012977406942803 -0.040538281874275606 0.14987642736680337 0.13793346645124263 -0.10550724170678497 0.033608413906044882 -0.10002775512953262 0.078912587812850724 0.094731079516814809 0.16902202262848076 -0.10224035138884016 -0.13562566730033343 -0.071635260693314148 0.16348531641584599 -0.14253943840173536 -0.14795586651417864 -0.14367152994764062
leaf_weight=3.9331921339035025 5.446321502327919 2348.1121493279934 2067.1206542551517 8373.2433859407902 374.66574114561081 2444.4280128926039 4508.5148375034332 59.015708714723587 503.45085665583611 2560.9643959701061 5997.080831989646 6211.8062944710255 1415.6774469614029 642.39855952560902 1328.5365883708 14.128686681389807 361.23112539947033 9282.636142373085 13575.491654232144 3790.9754728674889 71.780606955289841 51.047374546527863 1396.1635810881853 1820.4233271926641 207.17382507026196 97.463832631707191 2011.1858084201813 192.73532411456108 409.3724165558815 393.25953161716461 634.94357673823833 731.57273088395596 1161.8469983488321 1058.277921795845 276.14579489827156 409.90143306553364 314.91972179710865 83.396132975816727 178.15018531680107 688.4960522800684 30.749663501977921 130.59732840955257 209.31504127383232 443.96118475496769 37.912608325481415 41.190007135272026 512.25518918037415 92.965094849467278 80.621053099632263 20.264613762497902 82.468398481607437 88.615471705794334 60.381714522838593 116.97053986787796 5.702984690666197 8.8088267445564252 820.95158103108406 7.6545145809650412 10.555212780833243
leaf_count=17 18 7579 6792 24096 1367 8791 14535 141 1835 7748 20497 18631 5356 2930 4061 46 1437 28484 47975 12240 260 199 5196 6232 597 388 6639 595 1357 1410 2545 2701 3145 4274 1000 1691 1248 303 534 2452 136 382 521 1760 102 124 2184 314 362 65 249 242 264 545 22 24 3921 35 50
internal_value=0 0.0143405 0.0654131 0.0765603 0.0810153 0.0615974 0.035669 0.0206681 0.0262221 0.0312582 0.0558494 0.0975236 -0.0252374 -0.0434456 0.0296491 0.00986755 0.0552658 0.0802649 0.0180419 0.0795252 -0.0698561 -0.0983117 0.0267 0.00654006 0.075123 0.0566579 0.0647881 -0.000587227 -0.0278692 -0.0402394 -0.060092 0.0042815 0.116405 -0.0509628 -0.0648406 -0.0375274 -0.0993241 0.107234 0.0785672 -0.022641 -0.0541284 0.0695378 0.157996 -0.0332401 0.0500162 0.0208243 -0.100438 0.0804431 -0.103979 -0.0376605 0.124626 0.133211 -0.0479255 -0.121101 -0.00711474 0.217778 -0.142433 -0.142603 -0.142554
internal_weight=0 31683.8 49175.3 37490 36148.1 16610.2 6952.94 29998.8 26761 24481.6 8558.05 19537.9 3237.78 1341.93 11685.2 6593.6 5091.64 9657.3 15923.6 10002.8 1159.7 1685 5381.17 3216.59 3756.21 2164.58 3339.72 1335.43 2279.34 2908.4 1138.39 1140.95 9535.09 2473.96 1212.43 686.047 957.318 329.371 261.546 1049.73 841.909 202.378 416.489 593.303 88.96 434.45 526.384 285.7 248.606 51.0143 182.233 171.084 504.343 197.592 11.1493 67.8245 843.095 839.161 831.507
internal_count=268644 111859 156785 116640 111289 53177 23326 104403 92237 83799 28245 58112 12166 5351 40145 23529 16616 29851 55554 30871 4820 7456 18608 11428 11818 7180 10700 4798 8438 11164 4380 4058 27241 9630 4921 2691 4178 1002 837 3889 3433 642 1118 2325 301 1534 2230 909 1108 201 531 491 2024 907 40 165 4023 4006 3971
is_linear=0
shrinkage=0.1


Tree=3
num_leaves=60
num_cat=0
split_feature=52 45 125 31 91 37 106 136 30 102 71 52 112 71 101 102 77 47 69 101 70 31 70 112 30 102 27 100 134 101 135 100 29 102 103 31 39 108 116 47 124 69 108 102 20 114 56 0 105 34 20 57 120 41 47 57 30 5 107
split_gain=4024.26 2016.16 1412.89 1469.06 1149.4 786.705 690.647 673.733 641.005 830.215 1082.17 881.516 506.954 493.857 757.352 506.741 379.634 368.416 284.635 948.32 264.475 252.163 251.952 248.452 191.444 184.906 182.895 174.588 150.589 135.325 189.34 130.872 105.064 90.6082 81.6842 77.7585 57.7787 65.2707 59.438 67.9927 57.7563 89.8509 49.1676 48.7492 43.4491 39.8322 38.526 35.0769 29.8882 25.7725 25.3662 24.8897 22.4183 21.0906 13.034 7.34326 6.04209 2.22681 1.24529
threshold=1.0667799115180971 0.79712840914726268 -2.7018786668777461 1.0000892877578738 -1.017690062522888 0.9512198567390443 -0.89906653761863697 1.0000000180025095e-35 1.1012055277824404 -0.8638438582420348 -0.48610815405845637 1.0288072228431704 -0.99163448810577381 -0.4346275776624679 -0.8304975926876067 -0.80028516054153431 -1.1617798209190366 1.2356429100036623 -0.032879110425710671 -0.78183910250663746 -0.24994917958974835 1.006603538990021 -0.21523390710353849 -1.3106504678726194 1.0783069133758547 -0.80511105060577381 1.3862851262092593 -0.86264002323150624 1.0000000180025095e-35 -0.95827344059944142 1.0000000180025095e-35 -0.77860650420188893 1.2418605685234072 -0.95603874325752247 -0.91630157828330983 0.9454455077648164 1.0227746963500979 -1.0164445042610166 -1.4811040759086607 1.2488191127777102 -2.4749689102172847 0.086592096835374846 -1.0358576178550718 -0.94331994652748097 1.3882395029067995 -1.0407586097717283 0.91229751706123363 0.48533663153648382 -0.80987390875816334 0.8424973487854005 1.7760507464408877 0.98323193192482006 -1.7424978613853452 1.1002935171127322 0.82460448145866405 0.99649035930633556 1.095873296260834 0.77269998192787182 -0.89644464850425709
decision_type=2 2 2 2 2 2 2 2 2 2 2 2 2 2 2 2 2 2 2 2 2 2 2 2 2 2 2 2 2 2 2 2 2 2 2 2 2 2 2 2 2 2 2 2 2 2 2 2 2 2 2 2 2 2 2 2 2 2 2
left_child=1 16 17 4 18 6 -6 8 9 11 -11 -3 44 14 21 28 54 23 19 -4 -7 -5 -17 48 27 -16 34 -14 -15 30 45 -20 50 -28 -10 -32 38 42 52 -40 55 -42 -38 -26 46 -18 -9 -46 53 -39 -31 -50 -19 -2 57 -25 -34 -1 -59
right_child=2 7 3 13 5 20 -8 12 26 10 -12 -13 24 15 25 22 29 36 31 -21 -22 -23 -24 40 43 -27 33 -29 -30 32 35 -33 56 -35 -36 -37 37 49 39 -41 41 -43 -44 -45 47 -47 -48 -49 51 -51 -52 -53 -54 -55 -56 -57 -58 58 -60
leaf_value=-0.087943777263481127 0.1865889331065454 0.029594602387174807 0.096594408551485406 0.057571979226761341 0.057238143147860167 0.023941172283192556 0.001708168757642584 0.18782283427840751 0.033953379224429855 -0.024054209884751144 0.03551290055114685 0.080636164153821299 -0.0093197689701028427 0.071565569548062702 -0.020260238840391305 -0.0088909400773545793 0.046697085122484522 0.14796103118014478 0.14522444784990379 0.0044044066243094718 0.088136967240263195 0.0061991986929029481 0.071050836000391457 -0.13301072346442316 0.073442654016419459 -0.092589572008282189 -0.013023398107665368 -0.080627536918431691 0.1428262905344341 -0.03499926110714522 0.16888793568749794 0.10278143657115879 -0.10766204910339523 -0.10898071331349438 -0.072363785742278072 -0.10332740162128272 0.10456196772405538 0.17038457021499545 -0.12036319575349119 0.10392701582007567 -0.08206630980301341 0.18390135609868219 -0.0610485944632859 -0.094328600979221591 -0.0072449828727404594 -0.07762761830339332 0.044367875143576825 0.12231034752299524 -0.023480806744606019 -0.027201537815480382 -0.10935678406195799 0.13963495623302197 -0.044064388240631837 0.0055269838676258115 -0.0063800822789159524 -0.10001837269253007 -0.14059042844169006 -0.098189524835842854 -0.13740771536323027
leaf_weight=9.3556863367557508 26.712666317820549 12715.643986672163 11213.380125120282 2538.0210676938295 6502.4830628633499 713.3288998901844 3416.5910665392876 113.35054869949818 245.47398284077644 5452.7727965563536 6920.9993146806955 4610.464923992753 2933.1220363080502 2993.5245446562767 1615.643052905798 1369.3602593541145 33.34520760178566 25.041226342320442 1331.1032085865736 1239.1006186753511 6396.3298583477736 1532.3242599070072 553.64748856425285 425.93455940485001 18.05185703933239 452.41833421587944 124.7214288264513 388.87503282725811 329.15373024344444 541.37244762480259 80.345468178391457 1599.4595390558243 158.54765738546848 466.34144300222397 102.41599421203136 12.069957077503203 34.924376219511032 70.365001410245895 51.435351386666298 18.333266824483871 158.29002512991428 13.809940636157988 36.833687335252762 426.82813645899296 33.143531903624535 113.44284331798553 22.424263000488281 56.564158290624619 34.191249668598175 7.2849801480770102 50.125972494482994 12.878059327602385 8.0291501730680448 8.4741848856210691 7.7770960032939902 80.158526137471199 85.924275472760201 8.1790283024311048 801.8453614115715
leaf_count=37 67 43191 32304 8189 20425 2334 12101 276 846 19944 23500 14116 10833 9230 6097 4898 114 75 3565 4077 18875 5404 1734 2099 61 1894 448 1567 865 2127 212 4494 744 1991 413 49 104 179 227 51 685 41 143 1809 118 474 72 159 128 26 230 35 33 28 28 385 401 33 4059
internal_value=0 0.0159349 0.0606521 0.0633523 0.0742066 0.0563082 0.038111 0.0214408 0.0264757 0.0290475 0.00926335 0.0431767 -0.0171987 0.032449 0.0131949 0.0549799 -0.0842972 -0.0561229 0.0940198 0.0874209 0.0816961 0.0382322 0.0141249 -0.0908611 -0.0259171 -0.0360833 -0.0548729 -0.0176671 0.0786249 -0.0451145 0.0212081 0.12206 -0.0640919 -0.0887326 0.00265447 0.133335 0.0486023 0.0883089 -0.00908484 -0.0614259 -0.110768 -0.0607241 0.0195534 -0.087521 0.128449 -0.0493853 0.16413 0.0744446 0.0732652 0.151847 -0.0413006 0.0211473 0.101339 0.142983 -0.135229 -0.127785 -0.119235 -0.136451 -0.137012
internal_weight=0 36533.5 44808.6 43795.9 32411.8 17028.7 9919.07 34631.2 30638.8 29699.9 12373.8 17326.1 3992.36 11384.1 6138.41 5245.69 1902.33 1012.7 15383 12452.5 7109.66 4070.35 1923.01 760.449 3766.88 2068.06 938.953 3322 3322.68 1075.17 239.203 2930.56 835.97 591.063 347.89 92.4154 252.247 149.408 102.839 69.7686 678.193 172.1 71.7581 444.88 225.483 146.788 135.775 89.7077 82.2562 77.65 591.498 47.0693 33.0704 35.1869 827.157 506.093 244.472 819.38 810.024
internal_count=268644 127852 140792 136486 98175 53735 32526 119344 104449 100751 43444 57307 14895 38311 21584 16727 8508 4306 44440 36381 21209 13593 6632 3468 14270 7991 3698 12400 10095 4351 849 8059 3502 2439 1259 261 838 452 386 278 3210 726 247 1870 625 588 348 277 258 205 2357 163 108 95 4157 2484 1145 4129 4092
is_linear=0
shrinkage=0.1


Tree=4
num_leaves=56
num_cat=0
split_feature=53 31 6 127 101 71 69 103 29 100 71 71 102 72 101 134 90 71 47 68 5 102 102 54 110 71 30 29 31 43 19 121 44 134 134 3 70 127 119 135 32 38 109 29 70 38 28 130 49 40 77 53 52 114 96
split_gain=3323.58 1761.19 1457.85 1226.54 712.795 2414.1 646.347 634.81 577.436 687.805 558.7 511.597 583.129 411.05 553.726 554.004 502.692 361.811 320.323 302.522 286.136 241.439 212.158 168.042 165.716 164.565 161.625 157.337 119.964 98.1915 117.428 84.6322 126.239 81.0037 76.7624 76.1214 73.1967 61.118 51.2845 43.7392 43.5922 65.6686 42.0235 41.6495 40.7866 35.5037 33.1657 22.315 22.1305 19.7073 0.80972 0.198289 0.0897301 0.060899 0.00372088
threshold=1.01958304643631 1.0033181309700014 0.94624811410903942 -3.3032435178756709 -0.81870460510253895 -0.44328582286834711 -0.055782986804842942 -0.83499819040298451 1.2303810119628908 -0.95208200812339772 -0.48127347230911249 -0.45899072289466852 -0.85895141959190358 -0.61151039600372303 -0.86584708094596852 1.0000000180025095e-35 -1.0928072929382322 -0.4749454110860824 1.2356429100036623 0.0077743297442793855 0.73449823260307323 -0.81458133459091175 -0.94331994652748097 1.0509339570999148 -1.2010609507560728 -0.41823221743106836 1.1062560081481936 1.1745262742042544 1.0010488629341128 1.049518406391144 1.2314143776893618 -1.1369944810867307 1.0474768280982973 1.0000000180025095e-35 1.0000000180025095e-35 0.49140185117721563 -0.25207085907459253 -3.3564450740814205 -1.0132442116737364 1.0000000180025095e-35 0.81416234374046337 0.97463491559028637 -0.93819934129714955 1.2418605685234072 -0.28170144557952875 0.98864331841468822 1.2713495492935183 1.0000000180025095e-35 0.70886248350143444 1.0699161291122439 -1.1914254426956175 0.78677582740783703 0.80958265066146862 -1.0346937179565427 -1.0040451288223264
decision_type=2 2 2 2 2 2 2 2 2 2 2 2 2 2 2 2 2 2 2 2 2 2 2 2 2 2 2 2 2 2 2 2 2 2 2 2 2 2 2 2 2 2 2 2 2 2 2 2 2 2 2 2 2 2 2
left_child=2 3 7 18 11 17 -7 8 9 20 -11 12 -5 14 23 19 -17 -6 24 -16 -1 33 26 27 49 34 -10 -3 -13 31 39 42 -33 36 -23 -27 -15 -26 -25 -31 41 -20 -9 -24 -35 -42 50 -32 -48 -2 52 53 54 -52 -4
right_child=1 13 46 4 5 6 -8 29 22 10 -12 28 -14 21 15 16 -18 -19 40 -21 -22 25 43 38 37 35 -28 -29 -30 30 47 32 -34 44 -36 -37 -38 -39 -40 -41 45 -43 -44 -45 -46 -47 48 -49 -50 -51 51 -53 -54 -55 -56
leaf_value=0.10087002163736641 0.11454526530534248 0.047692544891534371 -0.13215342880734349 0.09165245771583902 -0.07398471191207863 0.046376471376314794 0.078313988154315353 -0.052363929881974483 0.047491963338223586 0.0054593681101046919 0.067254400733737549 0.11121123810939051 0.044171280732540494 0.046655005212054595 -0.05048008048467565 0.12064561647877442 -0.047565206113758245 -0.0045502994212844455 -0.011214225827694976 0.0042986794993868987 0.036642354651368093 -0.046208420327338323 -0.071583929438793381 0.065092695204431159 -0.1211065286186889 0.063839107407841642 -0.09369808198349161 -0.10188390444691486 0.078038528298717894 -0.057928568380175349 0.11574579136617957 -0.052128625033530968 0.062661547656601119 -0.043500013843871234 0.041361692333760164 0.0055331430774222187 0.092265749368788119 -0.050968825258953548 -0.15397292948896338 0.13605516447081861 -0.071441021853407519 0.11443488332209616 -0.10036090166780803 -0.12299505673217184 0.15466049277482061 0.047794604111738359 -0.11209454084330653 -0.0785360659153998 0.16077743678476347 -0.051793933731722121 -0.15330023056038536 -0.16420601694744472 -0.14723286617060882 -0.14167571025698514 -0.13526881364674231
leaf_weight=1201.461265951395 41.490779995918274 2432.9238447099924 714.87904991209507 4535.3645444363356 1042.6692266315222 12748.00457637012 12599.665771901608 300.45210961997509 246.48583672940731 16614.688027113676 1604.3721858859062 4005.0739717930555 6019.5538688153028 983.65634483098984 2872.9773770272732 496.70794954895973 276.59365075826645 2677.9070857167244 66.377374351024628 1553.2130354344845 1641.037708863616 453.90920096635818 356.15374690294266 13.132681325078009 476.83412770926952 566.62308332324028 120.81852445006371 72.417446777224541 1497.8719930648804 143.73429642617702 82.337990701198578 588.13341349363327 114.44701939821243 11.224411606788633 128.42145144939423 370.21064218878746 547.7933242470026 168.01973479986191 57.373747929930687 12.646274507045744 52.721586957573891 111.40682056546211 464.33150957524776 282.6222218722105 139.1935012191534 47.446089744567871 5.5168190151453 6.3692893832921973 6.4436679482460022 8.5987133234739286 6.0583886355161729 6.6429773569107047 3.9767382889986029 17.596134573221207 3.8544051498174658
leaf_count=3493 115 7892 3883 13216 3981 40153 37065 1164 854 58551 5179 11200 19247 3182 11052 1474 1080 9287 250 5568 5420 1714 1453 44 2462 1781 502 291 4637 551 254 2357 383 41 417 1260 1589 737 248 37 212 318 1888 1361 367 155 26 25 18 31 27 28 19 85 20
internal_value=0 0.0495854 0.00558106 0.058157 0.0605521 0.0512109 0.0622518 0.00995214 0.0145036 0.018039 0.010901 0.0774617 0.0645736 0.0135861 0.00116947 -0.0176136 0.0604802 -0.0240089 -0.0529334 -0.0312574 0.06379 0.0437462 -0.0595086 0.0390842 -0.0892221 0.0148492 0.0010499 0.043369 0.102182 -0.0487 0.00989166 -0.0584863 -0.0334299 0.0698477 -0.0268966 0.0407982 0.0629698 -0.102832 -0.113169 -0.0422414 0.0377966 0.0675226 -0.0815049 -0.0943304 0.139873 -0.0149631 -0.1303 0.101796 0.0349142 0.0859903 -0.132924 -0.14894 -0.132253 -0.144653 -0.13217
internal_weight=0 57075.4 24545.1 46099 45126.1 29068.2 25347.7 23780.1 22067.6 21061.6 18219.1 16057.9 10554.9 10976.4 7775.34 5199.49 773.302 3720.58 972.895 4426.19 2842.5 3201.03 1006.08 2575.85 694.943 1519.16 367.304 2505.34 5502.95 1712.45 245.088 1467.36 702.58 1681.87 582.331 936.834 1531.45 644.854 70.5064 156.381 277.952 177.784 764.784 638.776 150.418 100.168 764.968 88.7073 11.9605 50.0895 753.008 30.2975 722.71 23.6545 718.733
internal_count=268644 181066 87578 143066 138786 90486 77218 83472 76813 72643 63730 48300 32463 38000 27649 19174 2554 13268 4280 16620 8913 10351 4170 8475 3345 5172 1356 8183 15837 6659 867 5792 2740 5179 2131 3041 4771 3199 292 588 935 568 3052 2814 408 367 4106 279 44 146 4062 140 3922 112 3903
is_linear=0
shrinkage=0.1


Tree=5
num_leaves=54
num_cat=0
split_feature=52 6 31 103 110 91 37 104 103 52 103 29 101 30 47 103 69 71 102 103 31 136 103 31 69 117 134 69 38 102 69 134 29 100 43 77 102 95 71 38 127 110 135 69 70 24 38 135 28 49 1 53 77
split_gain=2727.68 1323.65 1164.33 1101.27 907.682 631.854 598.76 783.82 577.95 628.058 586.373 410.972 510.775 404.442 378.81 351.206 344.113 343.629 648.863 397.621 330.355 329.682 296.286 293.398 279.587 257.076 223.462 203.04 194.049 187.651 185.986 141.65 136.745 120.814 115.15 111.766 108.257 106.366 90.0097 146.563 119.305 76.557 72.9638 86.6157 68.2774 94.6278 67.9935 33.4046 29.7793 18.0533 1.67898 0.538233 0.243989
threshold=1.0546416044235232 0.94624811410903942 1.0011556744575503 -0.68532791733741749 -1.1937563419342039 -1.0453261137008665 0.94025161862373363 -0.84055685997009266 -0.85541507601737965 1.0199542641639712 -0.88443124294280995 1.2303810119628908 -0.93952056765556324 1.0683537721633913 1.2403873205184939 -0.8253016173839568 -0.22522372007369992 -0.44413800537586207 -0.81966814398765553 -0.80875718593597401 0.99422201514244091 1.0000000180025095e-35 -0.80262053012847889 1.006603538990021 -0.15953325480222699 -1.5652428865432737 1.0000000180025095e-35 -0.09427295625209807 0.97848224639892589 -0.94668442010879505 -0.087498042732477174 1.0000000180025095e-35 1.2073782682418825 -0.86878013610839833 1.0481664538383486 -1.3630378842353819 -0.79201132059097279 -0.91741967201232899 -0.2376051917672157 0.97559076547622692 -3.2026504278182979 -1.1801224946975706 1.0000000180025095e-35 -0.19433432817459104 -0.29208333790302271 1.282324552536011 0.90484473109245311 1.0000000180025095e-35 1.2713495492935183 0.70886248350143444 0.26161068677902227 0.78677582740783703 -1.1377414464950559
decision_type=2 2 2 2 2 2 2 2 2 2 2 2 2 2 2 2 2 2 2 2 2 2 2 2 2 2 2 2 2 2 2 2 2 2 2 2 2 2 2 2 2 2 2 2 2 2 2 2 2 2 2 2 2
left_child=1 8 3 5 38 20 7 -7 9 11 32 12 -1 15 28 24 -12 18 21 26 35 23 -22 -4 -10 -8 27 -19 -6 -13 31 -21 -11 -23 -17 -2 -32 -28 39 -5 -40 -16 43 -15 47 -46 -44 -20 50 -50 -3 52 -52
right_child=2 48 17 4 14 6 25 -9 13 10 16 29 -14 42 41 34 -18 19 44 30 22 33 -24 -25 -26 -27 37 -29 -30 -31 36 -33 -34 -35 -36 -37 -38 -39 40 -41 -42 -43 46 -45 45 -47 -48 -49 49 -51 51 -53 -54
leaf_value=0.050894329834252711 0.0050770624350356466 -0.013457762588729839 0.04896336645439877 -0.036475043220599856 -0.10385232321968221 0.054917824070584209 -0.060504415997719288 -0.0060219271686171817 -0.0043297647412330782 0.085483663897490167 -0.013514311993667226 0.010877793393832732 0.0032398717682538499 -0.097906614438006356 -0.027926556952959404 -0.056856727219857031 0.044120548673870101 0.031014967796962473 -0.10025871032304348 -0.045716656873677125 0.079184474580295219 -0.0028791774060545686 0.043045504423801714 0.0010753495523219136 0.051196090951183916 0.064390369887287607 0.15481936918600034 0.085477700032884921 -0.031714858392063124 -0.083833600557814303 0.051533744400028281 0.055945784086336783 -0.14552861550074581 -0.079099327994744117 -0.0008982081514418809 0.091610321506438858 -0.0028551838118627782 0.043579070888898813 0.086478920632893932 0.16663428250379214 -0.044961374406942867 0.07763726433052448 -0.050734996192241859 -0.040640890682029113 -0.078150147541466208 -8.1135342640192872e-05 0.11005684414673177 0.13717111920503874 -0.10605191500384964 0.14298048077121295 -0.12819468719713886 -0.1558223470442695 -0.13904078557176244
leaf_weight=2806.371689081192 152.41526135802269 1.2640063762664784 2896.585022315383 42.256755292415619 736.70389591157436 4700.9684303700924 167.252590700984 3830.4395421296358 2810.8547412157059 2500.8665003180504 1645.0248805582523 303.60353860259056 11328.035175696015 630.49621054530144 94.522299572825432 1214.7489868402481 2797.8116058111191 1917.3015128225088 424.09279043972492 765.91933611035347 4586.8789093643427 427.20764094591141 4488.6056244820356 2291.5477743893862 1338.7308120429516 11267.575771465898 333.24092350900173 1064.5966622233391 755.11095884442329 672.71927754580975 893.04991257190704 166.92450052499771 25.888950437307358 405.20827366411686 527.38573759794235 7209.8942615836859 620.04729382693768 115.83560994267464 347.25189481675625 223.10068239271641 86.197534576058388 251.47098976373672 68.294621884822845 454.53422053158283 369.88179172575474 267.57909592986107 42.768298387527466 6.0096241682767859 5.2614077478647214 6.5163970738649368 672.31255438923836 7.3015102446079245 21.400939866900444
leaf_count=8970 492 5 9405 154 3579 14514 575 13240 10091 7381 5727 1099 40031 2545 327 4862 9155 6254 1907 2945 13263 1514 13792 8118 4451 33545 858 3060 2818 3043 2836 527 111 1608 1870 20016 2127 355 1005 578 296 758 257 1743 1571 1014 130 20 26 18 3919 32 107
internal_value=0 0.00855306 0.0464783 0.0551203 -0.00858762 0.0595594 0.0476056 0.027557 0.0118461 0.0198213 0.0446547 0.00836729 0.0127016 -0.0129988 -0.0454742 -0.00223583 0.0227804 0.0205218 0.00569776 0.0384011 0.0740792 0.0184384 0.0613107 0.0278117 0.0135839 0.0625636 0.0603632 0.0504592 -0.0673385 -0.0543815 0.00759434 -0.027525 0.0831167 -0.0399821 -0.0399167 0.0898189 0.0292459 0.126126 0.0884212 0.13429 0.0603402 0.0487982 -0.0660153 -0.0739172 -0.0661532 -0.0453801 0.011183 -0.0969412 -0.125961 0.0317322 -0.128606 -0.128814 -0.128529
internal_weight=0 29882.2 51905.7 38940.6 2536.62 36404 19966.2 8531.41 29168.1 22080.3 6969.59 15110.7 14134.4 7087.81 1837.81 5891.72 4442.84 12965 7088.11 5876.92 16437.8 6020.55 9075.48 5188.13 4149.59 11434.8 3430.97 2981.9 1491.81 976.323 2445.94 932.844 2526.76 832.416 1742.13 7362.31 1513.1 449.077 698.807 265.357 433.449 345.993 1196.09 1085.03 1067.56 637.461 111.063 430.102 714.057 11.7778 702.279 701.015 693.713
internal_count=268644 105573 163071 118952 9515 109437 61874 27754 101466 75517 22374 53143 49001 25949 7482 21274 14882 44119 25157 18962 47563 20645 27055 17523 14542 34120 10527 9314 6397 4142 8435 3472 7492 3122 6732 20508 4963 1213 2033 732 1301 1085 4675 4288 4512 2585 387 1927 4107 44 4063 4058 4026
is_linear=0
shrinkage=0.1


Tree=6
num_leaves=62
num_cat=0
split_feature=71 102 52 34 136 52 31 31 100 102 68 71 135 103 134 102 110 114 134 104 53 69 68 114 103 102 32 31 5 101 135 33 70 30 109 54 105 58 125 104 58 68 134 41 32 91 102 104 72 104 2 29 53 134 113 92 51 112 75 71 122
split_gain=2273.16 1333.34 1146.33 1011.53 844.089 761.757 783.581 681.47 789.335 673.061 650.724 576.007 480.674 447.098 416.908 411.747 385.222 379.274 351.17 343.705 335.113 334.894 313.702 239.578 236.461 234.512 230.494 230.014 213.395 368.128 165.641 172.156 165.395 153.86 130.842 119.067 111.927 110.035 109.488 100.435 89.7401 89.4935 84.8549 84.1429 99.8312 82.7093 86.0713 72.6529 58.7173 57.9591 37.9286 33.191 24.8957 22.5824 21.5038 21.369 21.3534 14.3942 9.60511 5.44 3.22998
threshold=-0.45982572436332697 -0.82903155684471119 0.82747909426689159 0.85534176230430614 1.0000000180025095e-35 1.0397816896438601 1.0033181309700014 0.99811127781867992 -0.79375723004341114 -0.81458133459091175 0.10841173306107522 -0.42932234704494471 1.0000000180025095e-35 -0.7111927568912505 1.0000000180025095e-35 -0.88006886839866627 -1.2010609507560728 -0.99823194742202748 1.0000000180025095e-35 -0.79163381457328785 1.1419891119003298 -0.10890184715390204 -0.010298091918230055 -0.92683389782905568 -0.80931690335273732 -0.8009960651397704 0.95623084902763378 0.99922552704811107 0.59312960505485546 -0.81940740346908558 1.0000000180025095e-35 0.88585627079010021 -0.20837211608886716 1.0567995905876162 -0.92382586002349842 1.0255388021469118 -0.80715715885162342 0.79842805862426769 -2.0971406698226924 -0.84729930758476246 0.86657613515853893 0.0077743297442793855 1.0000000180025095e-35 1.0497506260871889 0.95351296663284313 -1.0551607608795164 -0.94668442010879505 -0.82512840628623951 -0.61636352539062489 -0.84548351168632496 0.70289191603660595 1.2303810119628908 1.0502675175666811 1.0000000180025095e-35 -1.358255863189697 -1.0852563381195066 1.1447361111640932 -1.3359808921813963 -0.57342588901519764 -0.72915044426918019 -1.9523535370826719
decision_type=2 2 2 2 2 2 2 2 2 2 2 2 2 2 2 2 2 2 2 2 2 2 2 2 2 2 2 2 2 2 2 2 2 2 2 2 2 2 2 2 2 2 2 2 2 2 2 2 2 2 2 2 2 2 2 2 2 2 2 2 2
left_child=1 2 23 16 5 15 -7 8 28 14 12 25 -10 -12 21 -4 52 37 -13 35 36 -9 30 45 26 -11 40 -19 32 -30 33 56 -5 38 -16 49 -21 -6 -3 -33 -24 -28 -22 44 -26 46 -1 -37 -35 -18 55 -47 60 -45 57 -25 -32 -54 -56 -52 -2
right_child=3 22 4 7 17 6 -8 9 10 11 13 18 -14 -15 34 -17 19 27 -20 20 42 -23 24 50 43 -27 41 -29 29 -31 31 39 -34 48 -36 47 -38 -39 -40 -41 -42 -43 -44 53 -46 51 -48 -49 -50 -51 59 -53 54 -55 58 -57 -58 -59 -60 -61 -62
leaf_value=0.074123260152787446 0.24239668224410937 -0.098961326948443215 0.025059944567627009 0.084047804956895872 0.092874662126927854 0.065764391420556623 0.014365672261629568 0.024386113461249671 0.021199697558935488 -0.011274509579057297 0.085226147567116828 0.020308607175727536 0.11700357527260763 0.029877772493157814 0.073260826869531628 -0.0078476345053928708 0.013083425501202815 -0.01037794680545602 0.10013589648868215 -0.034240794042056134 0.0072907243058193977 0.075573777692133109 0.074990145075004733 0.029584540461108762 0.0013270255152515037 -0.086096313691187892 -0.060764627758410475 -0.063238011999652052 0.087248701024007266 -0.052568821117831427 -0.029601266296038365 0.16041017983587469 0.12479286759888374 -0.094313076860460324 0.14495449418239637 0.096361665283685116 -0.10038847371016907 -0.027660144673314065 -0.030169794291267239 -0.027588215374734045 -0.011527942215696873 0.031934688972881015 0.24113306414471483 -0.019692202432455147 -0.07815151908215652 -0.029494909379792496 -0.032197609156192346 0.018877358153895827 -0.0030965479278230444 -0.062752012327739734 -0.094195346684146877 -0.10687350590413931 0.045707946616974304 -0.1625598787994158 0.054586266071685818 -0.087634710879018113 -0.1128767469395968 0.10663975288244737 -0.12098764764553438 -0.12457128523037325 0.16682383161658523
leaf_weight=119.23975332081318 9.2975966483354586 278.65945325791836 12785.342651218176 6605.4777311384678 340.58169828355312 8166.0383655577898 4657.8887976109982 3114.3077964186668 7554.793885782361 1459.9283610731363 5062.7510628402233 4699.5734267085791 562.70951813459396 2050.5999910235405 441.59101220965385 5411.5823423564434 358.72455272078514 1936.1714133322239 624.28475202620029 379.78834012150764 576.91217313706875 2167.8232034891844 605.2856163084507 25.783753588795662 336.34610855579376 587.45767559111118 323.66186581552029 1432.0378869026899 517.4310659468174 296.05608080327511 171.57624647021294 90.457446217536926 1173.2042603641748 1147.3436399698257 601.01825778186321 266.97429487109184 783.56617860496044 97.395110115408897 1363.2182183563709 41.432925835251808 149.49767872691154 153.55429622530937 15.946754425764082 13.020887628197668 298.11681625247002 99.844520151615143 210.65998004376888 221.33586527407169 75.194840401411057 140.15629968047142 65.875518620014191 124.62940113246441 47.186171904206276 73.607525885105133 5.8825968503952026 39.190478503704071 37.526107206940651 217.3775908946991 6.6250444501638395 561.41746783256531 14.437218040227888
leaf_count=382 23 1118 42961 18871 988 24303 15883 10458 24014 5239 14131 15228 1556 6397 1338 19337 1210 6938 1753 1365 2135 6303 1817 93 1128 2346 1298 5707 1478 1061 639 247 3076 4699 1626 767 4167 341 5133 151 508 509 39 48 1176 399 879 730 265 535 351 609 142 314 18 181 155 608 26 3410 37
internal_value=0 0.0128026 0.0196027 0.0461448 0.0229754 0.0284286 0.0470954 0.050643 0.0608617 0.0328684 0.04719 0.012334 0.0278409 0.0692706 0.0568004 0.0152736 -0.0092936 -0.0214691 0.0296693 -0.0210728 -0.0476103 0.0453939 -0.0347513 -0.0746182 -0.00315931 -0.0327432 0.0234607 -0.0328521 0.0850967 0.0363643 -0.0540007 0.0118845 0.0901931 -0.061844 0.114589 0.0261374 -0.0787939 0.0660707 -0.0418451 0.101351 0.0578538 -0.0309367 0.0135806 -0.0486401 -0.0360178 -0.0256304 0.00623126 0.0612404 -0.0887026 -0.00822189 -0.113848 -0.072456 0.098135 -0.141086 0.0897149 -0.0411185 -0.0445461 0.0957723 -0.0384117 -0.121381 0.196428
internal_weight=0 41232.2 36073.7 40563.2 34827 31020.9 12823.9 37519 23823 13696 15230.9 7371.24 8117.5 7113.35 6324.74 18196.9 3044.21 3806.19 5323.86 2743.4 1756.21 5282.13 5158.5 1246.64 1953.09 2047.39 1232 3368.21 8592.17 813.487 3205.41 340.993 7778.68 2864.42 1042.61 987.191 1163.35 437.977 1641.88 131.89 754.783 477.216 592.859 721.091 634.463 554.374 329.9 488.31 1222.54 498.881 692.267 224.474 300.806 86.6284 277.071 64.9742 209.102 264.564 12.5076 627.293 23.7348
internal_count=268644 141967 122762 126677 116458 102484 40186 114875 70584 44291 46098 24566 25570 20528 19725 62298 11802 13974 16981 10948 7706 16761 19205 6304 6798 7585 4132 12645 24486 2539 12407 1192 21947 11215 2964 3242 5532 1329 6251 398 2325 1807 2174 2666 2304 2269 1261 1497 4964 1745 4035 1008 854 362 794 274 794 750 44 3761 60
is_linear=0
shrinkage=0.1


Tree=7
num_leaves=53
num_cat=0
split_feature=52 6 125 31 99 72 103 71 102 52 52 102 70 70 101 30 70 102 102 134 48 101 112 70 134 101 71 31 101 101 101 40 101 110 39 123 69 115 48 42 39 28 70 84 109 56 39 46 87 99 53 77
split_gain=1912.57 1059.72 664.364 673.837 790.334 696.381 519.683 632.777 704.439 579.92 343.902 324.621 492.173 450.879 357.285 293.925 284.548 449.329 233.63 270.078 221.244 186.896 174.529 142.43 198.642 275.862 137.975 123.306 110.413 74.581 74.0402 72.9783 59.6652 55.1822 52.1924 46.4268 70.4018 36.6181 96.1914 50.727 48.8714 26.0426 19.5473 20.0702 16.7498 13.3828 8.27094 8.09174 7.87188 2.11287 0.509988 0.213579
threshold=1.0694836378097536 0.94624811410903942 -2.7018786668777461 0.99899774789810192 -0.79671755433082569 -0.5926818549633025 -0.82103505730628956 -0.47674117982387537 -0.85494384169578541 0.95181569457054149 1.112839460372925 -0.79437068104743946 -0.24561298638582227 -0.21523390710353849 -0.83116197586059559 1.0635017156600954 -0.20837211608886716 -0.77824747562408436 -0.84976127743720997 1.0000000180025095e-35 1.2340993881225588 -0.79010942578315724 -1.3106504678726194 -0.28258831799030298 1.0000000180025095e-35 -0.81329175829887379 -0.41916434466838831 0.99833914637565624 -0.84136745333671559 -0.78183910250663746 -0.77950930595397938 0.98610976338386547 -0.82517513632774342 -0.94800829887390126 0.97868388891220104 -2.2459787130355831 0.086592096835374846 -1.4224113225936887 1.2489083409309389 1.1532480716705324 1.0098966360092165 1.2713495492935183 -0.10782161727547644 -0.13625652343034741 -1.0811454653739927 1.0518434047698977 1.0241773724555971 0.6851480007171632 -0.22938348352909085 -0.88716548681259144 0.78677582740783703 -1.1691812276840208
decision_type=2 2 2 2 2 2 2 2 2 2 2 2 2 2 2 2 2 2 2 2 2 2 2 2 2 2 2 2 2 2 2 2 2 2 2 2 2 2 2 2 2 2 2 2 2 2 2 2 2 2 2 2
left_child=1 6 20 4 16 21 7 8 9 -1 -7 12 14 26 -5 -10 17 -4 33 -20 22 -6 42 27 28 -26 -13 31 -25 -18 -15 -8 -14 -9 -29 46 -37 39 44 40 -22 49 -2 -44 -39 -41 -24 -43 -40 50 51 -3
right_child=2 41 3 11 5 10 23 18 15 -11 -12 13 32 30 -16 -17 29 -19 19 -21 37 -23 35 24 25 -27 -28 34 -30 -31 -32 -33 -34 -35 -36 36 -38 38 48 45 -42 47 43 -45 -46 -47 -48 -49 -50 -51 -52 -53
leaf_value=-0.0095717458230317361 -0.081205390696474769 -0.12209271265254827 0.065870193473601651 0.038398801763718078 0.035147754940692576 0.016227825107064289 -0.033068350032810528 0.097830588782886405 0.00018720002424046071 0.026292089820918303 0.050420599419139782 -0.097000910686828201 0.10268466155882622 0.070937799862286252 -0.0034026782082873055 -0.048821396098182673 0.11768828483354168 -0.015128576096389935 0.01919717061787202 0.074260102707737793 -0.11958062225076282 -0.066099160538238971 -0.11565051542071728 0.068406998842454214 0.12243209534133846 -0.0291079329052676 -0.026865863091658938 -0.078560344657999603 -0.037138901208976928 0.082392272760531349 0.0054294532326741932 0.033870047237754726 0.063510118793458581 0.056808262885170574 0.0040069631333800836 -0.068108442409723496 0.17623869324771516 -0.14684891004986081 0.056900203961041874 0.032294989302614235 0.10599473882077291 -0.064242180753711145 0.10423951624409676 -0.0097949257134323474 -0.037247389374610203 -0.14408363360945972 -0.05814121807271172 0.10624494386152408 0.16580368872221551 -0.041192435885122537 -0.14995168418845023 -0.13293892622736381
leaf_weight=6081.1087694317102 9.1391415894031507 580.46351125836372 11563.839102521539 4429.2354540675879 234.41429737210274 4129.4132253229618 789.86927546560764 849.74068665504456 2412.3242837935686 17437.380843892694 10224.968311101198 401.46501460671425 508.35288500785828 500.70991890132427 3798.0365250855684 2483.7012016177177 1110.2134706676006 727.98427636921406 3131.6821978986263 1244.8761321753263 10.407829418778418 820.43079850077629 389.85057260096073 110.40580889582634 254.3601046949625 227.62603321671486 930.91723565757275 796.81176695227623 969.16571405529976 1299.2377526164055 263.24080684781075 205.17832660675049 1653.0160465836525 533.97122836112976 84.695730373263359 139.6741080135107 12.878746122121809 28.011462956666946 9.9163082838058489 6.4785118252038982 124.42167520523071 4.9851613789796811 56.990788042545319 21.166254118084908 27.764318853616714 12.80394624173641 26.722149193286896 6.3048222064971924 20.072875559329987 3.1938968002796164 6.8105166107416144 18.741445437073708
leaf_count=21997 35 3918 33531 14182 748 13054 3148 2455 8463 57901 30628 1673 1375 1482 13452 9468 2922 2366 10530 3841 47 3142 2373 336 695 800 3256 3182 3491 3620 851 667 4912 1744 317 683 37 129 29 21 372 26 165 75 108 51 132 18 49 14 31 102
internal_value=0 0.0100949 0.0407541 0.042547 0.050646 0.0348213 0.0122332 0.0159615 0.00983484 0.0170189 0.0405842 0.0230143 0.0302578 -0.0128815 0.0191016 -0.0246743 0.0672326 0.061073 0.0461834 0.0348594 -0.0444489 -0.0435994 -0.0744828 -0.0248258 -0.00251358 0.0508648 -0.0479985 -0.0433927 -0.0263449 0.0986558 0.048365 -0.0192657 0.072724 0.0820002 -0.0706272 -0.0946774 -0.0474803 0.0377387 -0.0146354 0.0668855 0.088582 -0.119525 0.0571757 0.0733571 -0.092291 -0.084824 -0.111961 0.0309653 0.129793 -0.122314 -0.122741 -0.122432
internal_weight=0 38233.4 43491.8 42595.5 30110.5 15409.2 37612.9 34174.8 28414.5 23518.5 14354.4 12485 10388.6 2096.33 8227.27 4896.03 14701.3 12291.8 5760.27 4376.56 896.299 1054.85 656.422 3438.11 1561.56 481.986 1332.38 1876.56 1079.57 2409.45 763.951 995.048 2161.37 1383.71 881.507 569.126 152.553 239.877 85.765 154.112 134.83 620.499 87.2962 78.157 55.7758 19.2825 416.573 11.29 29.9892 609.209 606.015 599.205
internal_count=268644 133144 135500 131194 90011 47572 129035 116399 97829 79898 43682 41183 33921 7262 27634 17931 42439 35897 18570 14371 4306 3890 3500 12636 5322 1495 4929 7314 3827 6542 2333 3815 6287 4199 3499 3225 720 806 315 491 419 4109 275 240 237 72 2505 44 78 4065 4051 4020
is_linear=0
shrinkage=0.1


Tree=8
num_leaves=59
num_cat=0
split_feature=37 78 102 71 101 136 32 70 101 32 70 134 91 106 70 71 103 134 70 102 112 135 102 37 100 70 101 30 133 110 68 53 56 26 101 101 134 109 40 123 30 27 31 59 57 135 38 74 38 33 55 11 97 49 9 81 6 54
split_gain=1633.81 958.969 713.89 972.71 748.203 682.442 634.42 651.961 556.624 428.39 391.757 361.76 326.102 440.743 338.886 325.602 392.514 317.07 372.833 419.251 277.217 263.216 261.33 235.429 232.995 305.745 214.034 188.367 177.769 176.999 171.648 156.94 156.532 137.481 123.349 115.786 103.937 98.4226 81.023 82.8931 78.4893 71.5187 53.451 51.8201 45.3667 44.2599 35.1341 34.956 28.5503 25.6799 20.8098 34.0887 6.1098 3.62039 13.3421 0.420075 0.170144 0.00949984
threshold=0.93984836339950573 -1.4339238405227659 -0.80963993072509755 -0.46812602877616877 -0.84887406229972828 1.0000000180025095e-35 0.96306315064430248 -0.19675745815038678 -0.78291806578636158 0.95763701200485241 -0.22978075593709943 1.0000000180025095e-35 -0.98391300439834584 -0.90162926912307728 -0.26106208562850947 -0.44160211086273188 -0.70493003726005543 1.0000000180025095e-35 -0.23495302349328992 -0.79514920711517323 -1.3359808921813963 1.0000000180025095e-35 -0.79201132059097279 0.95677545666694652 -0.77860650420188893 -0.16888290643692014 -0.75015151500701893 1.0507671833038332 1.0000000180025095e-35 -1.2010609507560728 0.0087203322909772413 1.0934821963310244 0.99843430519104015 1.3188032507896426 -0.79978486895561207 -0.79192939400672901 1.0000000180025095e-35 -0.94197461009025563 1.0470001697540285 -1.386580169200897 1.0432401895523074 1.1717114448547366 0.99646437168121349 0.87134304642677318 0.97818809747695934 1.0000000180025095e-35 0.98336473107337963 -0.85325428843498219 0.93570309877395641 0.92297759652137767 0.98616698384284984 0.74985447525978099 -0.95839017629623402 1.0907030105590823 0.81853327155113231 -1.4974145293235777 0.94624811410903942 1.0189715027809145
decision_type=2 2 2 2 2 2 2 2 2 2 2 2 2 2 2 2 2 2 2 2 2 2 2 2 2 2 2 2 2 2 2 2 2 2 2 2 2 2 2 2 2 2 2 2 2 2 2 2 2 2 2 2 2 2 2 2 2 2
left_child=1 48 3 4 5 -3 12 8 10 30 22 -11 17 20 36 27 31 18 19 -2 32 -6 -8 -16 43 26 -26 33 -22 -18 -5 -17 -14 -4 -12 -20 -15 40 41 -40 -19 -10 -39 46 -27 -29 -9 -45 53 50 -50 -52 -51 54 -1 -54 -56 -55
right_child=6 2 15 9 21 -7 7 24 38 11 34 -13 13 14 23 16 29 37 35 -21 28 -23 -24 -25 25 44 -28 45 -30 -31 -32 -33 -34 -35 -36 -37 -38 42 39 -41 -42 -43 -44 47 -46 -47 -48 -49 49 52 51 -53 55 57 56 -57 -58 -59
leaf_value=0.10903314733667001 0.053340544838506726 0.02375438149268129 -0.016701177501546718 0.050855603672827467 -0.027956045184104342 -0.024038905082572011 0.007495869161819455 -0.020267318796143768 -0.11417064432557177 -0.0062094549473017376 0.081034018090243243 0.088192646202322186 -0.12897295789845606 0.0088272468054266008 0.0034291057399152415 0.0051004115423589139 0.073704602361634008 0.13509015687444273 0.10059101877845958 -0.024352355862477117 0.072918250536693541 0.049214983050762322 -0.078494636077971636 0.054357630252631295 0.020865563280944632 0.081815494033669431 -0.10421071551510408 -0.092348999825131547 0.014966938256797133 -0.064276237797383728 0.085230350584459033 0.052653359026768501 0.035458143820787484 -0.10770244326989038 0.029959167808445326 0.066351964609082728 -0.077472686080632389 0.15464943095739273 -0.058087487189227231 0.030566714544798652 0.028929205408154593 -0.0046776199658460881 0.10798283818318949 -0.079273718185337363 -0.015707414117627168 0.011157083268735784 0.10371195502935274 0.080580204718907048 0.15928977123009949 -0.067997492718057245 0.059966234146190345 -0.17245556825720931 -0.19357832466632108 -0.17508043869560738 -0.13133771403026914 -0.15699405720704074 -0.11956856266062453 -0.18109341122916295
leaf_weight=2.5591948330402365 3767.2145574390888 26655.584247782826 1671.0470353960991 4440.2072351723909 5146.5697051882744 3364.8052885383368 3315.7761707603931 23.349864646792412 353.54248042404652 1962.8755532354116 900.0246292501688 511.77359090745449 115.69073681533337 203.3984100073576 1872.767819955945 2923.1987212449312 102.53533793985844 99.770766451954842 1685.2807602137327 851.56657353043556 4077.1332437247038 483.50406093895435 395.58166907727718 1761.4114524424076 550.90731026232243 866.23708359897137 182.01833507418633 675.4933719933033 608.3116142898798 996.37940883636475 2158.9659803062677 910.1085834056139 115.88597789406776 184.32797114551067 996.25261206924915 2386.0192572921515 444.62660267949104 362.90924541652203 494.50124891102314 134.06031520664692 230.63515509665012 71.764061897993088 758.25268948078156 27.101873248815536 50.48043267428875 44.003441140055656 1084.2842254340649 27.621709078550339 7.3159203231334677 9.4535126090049761 16.078080967068676 10.387233778834341 5.9816865175962448 5.6232742518186551 12.584430098533629 6.6035105139017087 513.89132617413998 4.9318916350603104
leaf_count=8 11292 88431 6148 13771 18614 12493 11271 76 1327 6826 2573 1495 428 686 6271 9631 296 262 4548 2854 11562 1544 1541 5174 1681 2396 649 2789 1895 4792 6127 2795 346 783 3109 6776 1696 919 1740 414 739 276 2116 94 161 155 2933 77 20 33 47 41 24 23 72 26 3758 20
internal_value=0 0.0133357 0.0147742 0.019564 0.0121238 0.0183975 0.0429379 0.0217364 0.00469214 0.0487959 0.0172235 0.0133135 0.0533227 0.0396889 0.016234 -0.0137613 0.00128615 0.0656896 0.0584631 0.0390163 0.0601157 -0.0213287 -0.00166958 0.0281131 0.0621133 0.0379509 -0.0101965 -0.0425851 0.0653944 -0.0514018 0.0621015 0.0163905 -0.0466881 -0.025742 0.0542007 0.0805249 -0.0503854 0.108953 -0.0619873 -0.0391792 0.060986 -0.0956953 0.123088 0.0964052 0.0764452 -0.0860187 0.101098 0.00141249 -0.112857 -0.0447742 0.0100102 -0.0312558 -0.128749 -0.1199 -0.118743 -0.174382 -0.11985 -0.17789
internal_weight=0 52826.8 52231.4 44724.3 35650.5 30020.4 28814.4 9473.5 6661.5 9073.82 5607.64 2474.65 19340.9 9199.23 4282.2 7507.09 4932.22 10141.6 8690.08 4618.78 4917.02 5630.07 3711.36 3634.18 2812 1649.64 732.926 2574.87 4685.44 1098.91 6599.17 3833.31 231.577 1855.38 1896.28 4071.3 648.025 1451.57 1053.87 628.562 330.406 425.307 1121.16 1162.36 916.718 719.497 1107.63 54.7236 595.41 55.8199 33.7812 26.4653 22.0387 539.59 529.035 12.5852 526.476 10.5552
internal_count=268644 180762 176690 149301 121082 100924 87882 30318 22251 28219 18494 8321 57564 28058 13827 27389 17514 29506 25470 14146 14231 20158 12812 11445 8067 4887 2330 9875 13457 5088 19898 12426 774 6931 5682 11324 2382 4036 3757 2154 1001 1603 3035 3180 2557 2944 3009 171 4072 191 108 88 83 3881 3838 50 3830 43
is_linear=0
shrinkage=0.1


Tree=9
num_leaves=56
num_cat=0
split_feature=52 31 6 101 38 70 32 135 30 105 99 105 70 129 102 5 70 103 69 134 102 72 54 103 110 70 103 108 68 52 29 114 134 53 99 70 102 30 0 101 0 134 82 60 84 102 102 28 51 66 96 53 114 51 78
split_gain=1439.82 854.68 727.724 624.475 1021.86 513.965 572.308 507.116 482.268 599.612 479.122 423.902 413.733 392.039 377.278 443.635 370.683 351.804 533.14 346.12 357.854 342.579 300.309 282.791 281.865 233.762 213.101 212.712 187.685 177.622 172.6 130.332 105.562 98.7859 93.7351 79.2427 181.872 75.3107 73.4688 148.782 66.9354 62.8714 55.7587 53.3631 34.8903 27.5716 24.6846 22.7555 6.92297 2.5366 0.540399 0.109333 0.0344908 0.0159052 0.0087582
threshold=1.0397816896438601 1.0024341940879824 0.94624811410903942 -0.79644152522087086 0.97799566388130199 -0.20837211608886716 0.96306315064430248 1.0000000180025095e-35 1.099486291408539 -0.91468968987464894 -0.96913632750511158 -0.85271647572517384 -0.24791797250509259 1.0000000180025095e-35 -0.81211036443710316 0.59312960505485546 -0.3431254774332046 -0.86557671427726735 -0.16055899113416669 1.0000000180025095e-35 -0.83825182914733876 -0.65471452474594105 0.89190110564231884 -0.75664886832237233 -0.94121634960174549 -0.33339829742908472 -0.84358397126197804 -0.91570228338241566 -0.061482664197683327 0.99547418951988231 1.1745262742042544 -0.9304814040660857 1.0000000180025095e-35 1.078114449977875 -0.95858842134475697 -0.22851043939590451 -0.79043090343475331 1.0888652205467226 0.62588724493980419 -0.94970914721488942 0.49881997704505926 1.0000000180025095e-35 -1.2326934337615965 0.78512805700302135 -1.2251449823379514 -0.95603874325752247 -0.88105776906013478 1.2713495492935183 0.73071119189262401 0.12244275212287904 -1.0261490941047666 0.78677582740783703 -1.0289917588233946 0.82108569145202648 -1.4339238405227659
decision_type=2 2 2 2 2 2 2 2 2 2 2 2 2 2 2 2 2 2 2 2 2 2 2 2 2 2 2 2 2 2 2 2 2 2 2 2 2 2 2 2 2 2 2 2 2 2 2 2 2 2 2 2 2 2 2
left_child=2 3 7 12 11 6 -6 10 9 31 29 16 14 21 25 -16 -5 30 26 20 -20 -12 -11 -7 -21 -2 28 -13 -19 32 33 -9 -1 34 -3 36 -14 -15 39 -10 -31 -28 49 -37 -35 -40 -44 50 -49 -32 53 52 -52 54 -4
right_child=1 17 47 4 5 23 -8 8 38 22 13 27 35 37 15 -17 -18 18 19 24 -22 -23 -24 -25 -26 -27 41 -29 -30 40 42 -33 -34 44 -36 43 -38 -39 45 -41 -42 -43 46 -45 -46 -47 -48 48 -50 -51 51 -53 -54 -55 -56
leaf_value=0.019583864625832968 0.032556792723308844 0.1322643338132857 -0.11732803153502241 -0.08542888055318322 0.032686360663884514 0.071972388202653961 -0.051216454797715333 0.10713102576915479 0.10800499219528058 -0.0047544827389150793 -0.029064563590343481 -0.048486948485179752 0.072998378857852028 0.081394986542189005 0.028925626356632636 -0.063354486898933762 0.025099245624795798 -0.070515761204656788 0.041838286782160783 0.0077017215960943301 -0.0076603754201139823 0.0073170069278139377 0.038489131047313899 0.03827030233891509 0.10058107214405161 0.057981068125123041 -0.087223917716405863 0.0052514362991435484 0.0047914022558226922 -0.11599468426916604 -0.15268256386040463 -0.042230090529523853 -0.14658844176850139 -0.15709821326174225 0.053613893438613947 0.10179778726498799 -0.030734160862580396 0.0014382551948022575 -0.049079720356386046 -0.062934067972564692 0.083940467590552112 -0.02202498369497331 0.086514200580174588 0.061691076889984889 0.00028384462469252937 -0.1211588608508571 -0.16764560532631029 -0.056799882625472468 0.10132726046262384 -0.074589196465750962 -0.13437162377997111 -0.14317087816799701 -0.12578206089009034 -0.12529205588056871 -0.11954175121022347
leaf_weight=691.45132495462894 5773.7844012081623 170.27155002951622 471.0364363193512 330.13829466700554 3005.1969901174307 4146.4775794148445 1114.4613959938288 1025.8864811360836 62.297646343708038 3003.1237656325102 8695.3565767109394 2342.1501919329166 1984.4896754175425 485.19863152503967 2855.5302358269691 637.22199630737305 3750.5641237050295 459.1422084569931 1954.5915277302265 579.18799366056919 5778.5627901256084 3685.0729856044054 3451.7349223196507 6231.2321335524321 749.63470999896526 9678.5954637229443 798.40555436909199 1074.5051564574242 1185.3044278025627 17.131148129701614 52.177022188901901 61.950022950768471 40.466207966208458 26.085670098662376 1376.7299613505602 1409.9158423691988 184.75510996580124 155.57110014557838 72.792103469371796 278.73426552116871 742.30338017642498 181.52872376143932 19.109832003712658 433.82338762283325 30.62216429412365 195.8649982213974 4.7764375209808341 5.2605658918619138 5.8451026678085327 4.5196160674095145 6.580360993742949 6.2858018577098838 16.142978340387344 2.5749120488762847 18.576676532626152
leaf_count=2286 17840 446 3743 1373 9116 11726 3939 2997 188 10631 32290 9639 5634 1488 9055 2352 11870 1732 6421 2024 20380 12795 11147 18924 2151 28746 3262 3521 4082 68 227 241 157 114 4171 3822 624 542 271 1120 2096 670 58 1239 101 924 20 27 17 19 35 30 100 17 136
internal_value=0 0.0298121 0.000357889 0.0364141 0.0243724 0.039873 0.00998874 0.00307225 0.0230297 0.0299447 -0.00813882 -0.00560038 0.0479505 -0.014288 0.0417721 0.0120899 0.0161573 0.00761572 0.00145767 0.012952 0.00485065 -0.0182355 0.01837 0.0517362 0.0600982 0.0484813 -0.0382321 -0.0315867 -0.0162349 0.0455503 0.050343 0.0986252 0.0103965 0.0575188 0.0622706 0.0771186 0.0641635 0.0619825 -0.0625185 -0.031708 0.0794304 -0.0751461 -0.0924652 0.0923609 -0.0721121 -0.101629 0.0356909 -0.115217 0.0264251 -0.146457 -0.118235 -0.131498 -0.128269 -0.117453 -0.117412
internal_weight=0 58323.5 23197.2 44952.8 21994.7 14497.4 4119.66 22664.9 8152.38 7542.7 14512.6 7497.36 22958.1 13021.2 18945.1 3492.75 4080.7 13370.7 11686.4 9061.98 7733.15 12380.4 6454.86 10377.7 1328.82 15452.4 2624.38 3416.66 1644.45 1491.35 1684.29 1087.84 731.918 1603.71 1547 4012.98 2169.24 640.77 609.689 341.032 759.435 979.934 80.5829 1843.74 56.7078 268.657 23.8863 532.303 11.1057 56.6966 521.197 29.0091 22.7233 492.188 489.613
internal_count=268644 185298 83346 139420 70108 43705 13055 79241 27519 25016 51722 26403 69312 47115 57993 11407 13243 45878 40722 30976 26801 45085 21778 30650 4175 46586 9746 13160 5814 4607 5156 3238 2443 4832 4617 11319 6258 2030 2503 1308 2164 3932 324 5061 215 1195 78 4105 44 246 4061 165 135 3896 3879
is_linear=0
shrinkage=0.1


Tree=10
num_leaves=54
num_cat=0
split_feature=53 6 103 109 69 103 31 30 102 71 101 71 134 100 54 70 31 32 71 118 105 100 27 107 30 47 51 110 41 117 48 36 56 102 102 1 103 106 45 134 53 29 67 111 40 1 28 108 41 51 99 53 77
split_gain=1202.19 732.358 483.332 613.286 502.197 719.617 526.291 454.655 500.767 660.949 731.209 400.385 420.233 331.318 303.872 275.657 233.719 226.694 210.723 196.17 135.956 180.636 121.608 115.778 115.208 104.657 100.739 99.0734 97.8133 96.6324 87.7042 87.4632 77.7501 70.3545 68.81 67.2615 65.5891 59.8344 59.3383 50.3353 48.0725 46.5982 38.6534 29.3506 26.6195 25.0222 20.9386 19.2981 19.0705 5.67039 2.80495 0.5699 0.177504
threshold=1.0582343935966494 0.94624811410903942 -0.69875022768974293 -1.1246092319488523 -0.028374648652970787 -0.77090242505073536 0.99811127781867992 1.1012055277824404 -0.82314324378967274 -0.48127347230911249 -0.86915564537048329 -0.45649208128452295 1.0000000180025095e-35 -0.80379363894462574 1.1063178181648257 -0.24110215902328488 1.0034314990043642 0.96503981947898876 -0.42932234704494471 -1.6014998555183408 -0.8587263524532317 -0.77255409955978382 1.3910445570945742 -0.969651699066162 1.0557062029838564 1.1957193017005923 1.1707261800765993 -1.218294560909271 1.1149916052818301 -1.5652428865432737 1.2390733957290652 0.89977821707725536 0.99843430519104015 -0.9627469778060912 -0.76486939191818226 0.67994105815887462 -0.91870158910751332 -0.89543062448501576 1.1889672279357912 1.0000000180025095e-35 0.94175967574119579 1.1874606609344485 0.27101360261440283 -1.2554419040679929 1.0627212524414065 -0.15652444213628766 1.2713495492935183 -1.0287964940071104 1.0950792431831362 0.73071119189262401 -0.863498955965042 0.78677582740783703 -1.1691812276840208
decision_type=2 2 2 2 2 2 2 2 2 2 2 2 2 2 2 2 2 2 2 2 2 2 2 2 2 2 2 2 2 2 2 2 2 2 2 2 2 2 2 2 2 2 2 2 2 2 2 2 2 2 2 2 2
left_child=1 7 4 27 5 6 13 8 9 10 -1 24 -13 -2 23 -8 -11 18 -7 42 26 -22 36 25 -10 -5 -21 32 31 43 -31 -29 38 35 -19 -24 40 -30 -4 -25 -9 -38 48 -16 -44 -34 50 -35 -6 -48 51 52 -3
right_child=2 46 3 14 19 17 15 22 11 16 -12 12 -14 -15 29 -17 -18 34 -20 20 21 -23 33 39 -26 -27 -28 28 37 30 -32 -33 45 47 -36 -37 41 -39 -40 -41 -42 -43 44 -45 -46 -47 49 -49 -50 -51 -52 -53 -54
leaf_value=0.018447398968033751 0.064170147298910629 -0.1155223699814763 0.14712557260721912 -0.14684871500775698 -0.074443480109428958 -0.084740634155677841 0.0057215015555135088 -0.025655429759851679 -0.027538349932831874 0.056083009455720215 -0.018885708388786004 -0.013585785356070563 0.046670116064725667 0.033387804491194509 -0.015545066635630626 0.042946674284663991 0.022158625205376606 -0.01874205375260465 0.0083900032815479343 0.12489477274816962 0.088999756275629324 0.046873387897199005 0.092116977915942713 -0.097171277302177964 -0.071806942640544991 0.005211151830647737 0.047695509503986412 -0.0028909590023443827 -0.063414464302030668 -0.013599731537077126 0.051940413338224335 0.092187643737260835 0.0065632160722077088 0.09120168027352292 -0.093435813225654418 -0.073480266259225421 0.12082490854908819 0.083408778530597694 -0.17374559912058207 0.19978833265402082 0.060173929294725315 -0.087255485208499309 0.13890623702554858 -0.16734802303059162 -0.035810802122756703 0.14747245199347597 -0.052400240991353556 -0.10382886852185054 -0.19585790367173389 0.091819103880271355 -0.0095333959329664542 -0.14513341973666008 -0.12600111144067258
leaf_weight=21176.79011695087 7392.6780555993319 455.19793146103621 6.7193116992712012 55.203663200139999 32.095163479447365 266.19604082405567 5815.0688745677471 137.50113198161125 1560.4317912012339 4678.9467204064131 6974.0331518352032 3999.3976586163044 1628.7891007065773 6634.5479838550091 18.652129217982292 3023.6347617655993 3588.222199767828 183.42088404297829 2782.8405013531446 608.96537208557129 1473.458747446537 3292.0616938471794 39.238419383764267 757.24510370194912 943.248520180583 251.34851787984371 233.97854474186897 111.87401486933231 84.633153706789017 496.12393689155579 346.96897315979004 715.77592259645462 73.092970013618469 5.1275488138198844 376.48821960389614 65.425045326352119 11.750006526708601 41.30154125392437 40.508994802832603 5.7512712627649298 124.20128551125526 128.03592039644718 10.097291514277456 40.160451158881187 63.941981911659241 15.227635711431502 5.1386241167783719 481.46776373684406 21.671965718269348 5.8072123527526855 2.4730359613895407 6.7616704404354087 16.760793015360832
leaf_count=70580 21162 3918 17 227 113 1082 19676 503 5951 14064 24989 13686 5049 20485 63 9174 11968 608 8757 1572 4049 9612 121 3888 3955 823 679 390 286 2063 1068 1987 226 19 1371 262 35 115 159 16 390 538 26 162 211 38 27 2231 87 17 11 34 104
internal_value=0 0.00868657 0.0332219 -0.00475414 0.0368303 0.0310182 0.037568 0.00999772 0.0114892 0.0164992 0.00919856 -0.0109474 0.00385219 0.0496108 -0.0380259 0.0184559 0.0413587 -0.0104808 0.000259236 0.0636551 0.0664467 0.0598985 -0.0569346 -0.0740782 -0.0442163 -0.0221717 0.103466 0.0554715 0.0668427 0.00472759 0.0133729 0.0793358 -0.0245247 -0.0857755 -0.0689668 -0.0113977 -0.0144615 -0.0152623 -0.128094 -0.0949329 0.0150783 -0.0697648 -0.0588479 -0.119204 -0.0119833 0.0308578 -0.112648 -0.101774 -0.123382 0.024114 -0.115759 -0.116307 -0.115895
internal_weight=0 46034.7 35271.7 3060.59 32211.1 26474.9 22865.9 45542.6 44549.9 36418 28150.8 8131.87 5628.19 14027.2 1971.45 8838.7 8267.17 3608.95 3049.04 5736.27 5608.46 4765.52 992.747 1069.55 2503.68 306.552 842.944 1089.13 953.585 901.905 843.093 827.65 135.549 591.259 559.909 104.663 401.488 125.935 47.2283 762.996 261.702 139.786 127.806 58.8126 74.0393 88.3206 492.139 486.595 53.7671 10.9458 481.193 478.72 471.959
internal_count=268644 158452 110192 11528 98664 82315 70497 154341 150242 121601 95569 28641 18735 41647 8310 28850 26032 11818 9839 16349 15912 13661 4099 4954 9906 1050 2251 3218 2778 3356 3131 2377 440 2633 1979 383 1466 401 176 3904 893 573 437 225 237 264 4111 2250 200 44 4067 4056 4022
is_linear=0
shrinkage=0.1


Tree=11
num_leaves=59
num_cat=0
split_feature=52 31 135 104 100 72 69 103 5 99 37 132 22 30 105 134 72 100 102 71 0 129 72 54 92 136 95 30 31 104 72 31 0 102 2 69 59 72 30 30 134 69 30 132 0 40 104 74 74 102 31 72 30 113 104 27 75 108
split_gain=1067.36 702.582 606.568 521.639 511.944 775.546 482.11 436.662 418.338 364.591 363.331 376.679 346.945 344.164 436.54 333.758 333.623 462.566 315.597 305.221 296.672 288.005 260.663 228.353 239.361 162.668 155.135 144.71 131.433 122.932 119.673 160.09 100.235 141.286 82.8797 82.2699 107.451 74.2885 73.5998 69.7565 67.2125 59.6198 55.7004 55.0783 54.9688 48.7557 40.3855 37.8029 37.4944 34.919 77.7676 15.9611 13.3043 12.1046 7.46768 3.92405 1.88323 0.45458
threshold=1.0277708768844607 1.0012574791908266 1.0000000180025095e-35 -0.87421563267707814 -0.80379363894462574 -0.5926818549633025 -0.1377003416419029 -0.82837599515914906 0.89990389347076427 -0.98491320013999928 0.94729578495025646 1.0000000180025095e-35 1.331901013851166 1.0969256162643435 -0.91383531689643849 1.0000000180025095e-35 -0.60570695996284474 -0.83204311132431019 -0.8308633267879485 -0.37081350386142725 0.40497981011867529 1.0000000180025095e-35 -0.64850664138793934 0.89190110564231884 -1.0885410904884336 1.0000000180025095e-35 -0.92762166261672963 1.1012055277824404 0.96270784735679638 -0.93560028076171864 -0.62194648385047901 0.9943881928920747 0.6318037509918214 -0.93318143486976612 0.29537171125411993 -0.055782986804842942 0.84023439884185802 -0.81925305724143971 1.0810436606407168 1.1062560081481936 1.0000000180025095e-35 -0.15644589066505429 1.0908302068710329 1.0000000180025095e-35 0.51594048738479625 1.0493729114532473 -0.90017074346542347 -0.98209208250045765 -0.9669889211654662 -0.95603874325752247 0.97423774003982555 -0.79836735129356373 1.0561517477035525 -0.9428100287914275 -0.89040228724479664 1.4384910464286806 -1.1008994579315183 -0.92668941617012013
decision_type=2 2 2 2 2 2 2 2 2 2 2 2 2 2 2 2 2 2 2 2 2 2 2 2 2 2 2 2 2 2 2 2 2 2 2 2 2 2 2 2 2 2 2 2 2 2 2 2 2 2 2 2 2 2 2 2 2 2
left_child=2 4 8 27 16 30 7 12 9 43 11 -7 -5 14 29 18 17 25 -8 -12 -19 22 -11 24 -16 -2 -17 34 -25 51 40 -32 33 39 54 36 -18 -31 -36 -15 -6 -9 -23 44 -1 -37 -35 -45 56 50 -34 -4 55 -51 -3 57 -29 -10
right_child=1 3 13 6 5 10 15 41 52 21 19 -13 -14 32 23 26 35 20 -20 -21 -22 42 -24 28 -26 -27 -28 48 -30 37 31 -33 49 46 38 45 -38 -39 -40 -41 -42 -43 -44 47 -46 -47 -48 -49 -50 53 -52 -53 -54 -55 -56 -57 -58 -59
leaf_value=-0.15753786989329413 0.047108813654499683 -0.18360098781085815 0.13631469551247827 0.0084592709435702459 -0.053541580850117135 0.032365944119090342 0.045593531075473002 -0.10191833970595621 -0.16279747890043064 -0.03117331453412911 0.015359105250110609 -0.013014011621658494 -0.044455126104334469 0.094986971047923571 0.022850267749844062 0.098952808392138436 0.059561127280205975 0.012729498290542872 -0.0024255044735071733 0.048009497423603553 -0.071249046523396142 0.076344504505335337 0.0086471526760732217 -0.061490090677578796 -0.035653146077746271 0.015915091904745129 0.023721058101104003 -0.14900386188403622 0.038962513563426227 0.0023176221271995786 -0.0012737380161025596 -0.070681859090522853 0.1342618444808476 -0.034555735073161509 0.074420707944316225 0.09015427517601135 0.0023763964132169392 0.084974572157300921 0.03482010663306722 -0.048180046227341039 -0.12821872944671939 -0.055759031197842951 0.00095859533949155338 -0.1051329456560908 0.071788166638401457 0.017552792067080322 -0.12764713254089669 0.11497977268846989 0.16226868346419643 -0.044016019237554882 -0.08895749788531071 0.19836730689630969 0.063707511758330032 -0.11205970315835204 -0.072666538090326624 -0.033056087001665388 -0.099017473644458787 -0.1144905433310443
leaf_weight=10.645244255661963 10684.954458519816 11.58856511116028 85.938623294234276 4405.0090439915657 469.88353848457336 3477.0035492181778 1820.113066598773 405.65304647386074 1.9566030055284489 7574.6121394634247 4420.2731103152037 3859.4342728853226 1724.1090771257877 135.80544412136078 1471.121796771884 663.15337866544724 4530.7720250040293 2600.7311969846487 5518.5081029236317 8127.4389065802097 501.84138381481171 358.99312572181225 2099.5144912004471 136.2986219227314 1333.05536852777 1981.8081248253584 467.2076837271452 37.221432536840439 2935.8030377328396 129.34704940021038 1147.7418917268515 467.73663377761841 21.73239178955555 395.10558122396469 1303.7491418868303 1139.0636509954929 354.28203172981739 682.28253030776978 733.29661771655083 45.413563907146454 162.10346865653992 902.02256141602993 134.82004457712173 31.661715492606163 576.49350033700466 100.67362946271896 52.833925068378448 10.354117959737776 4.53608314692974 29.908987864851952 55.379547387361526 80.075328841805458 4.2707933336496344 207.69419944286346 12.738162890076635 5.9653214514255515 9.4506999105215055 443.59985465556383
leaf_count=45 32065 46 227 15036 1913 10972 5709 1823 9 28470 13720 14373 6462 408 4818 1839 13134 8372 19032 23795 1881 1085 7191 494 5068 6384 1534 171 9332 462 3985 1713 65 1529 3779 3143 1105 2000 2254 183 703 3702 470 124 1680 309 221 31 12 136 221 195 15 1001 45 27 41 4085
internal_value=0 0.0237956 -0.00326561 0.00716171 0.0306033 0.0198779 0.000960787 -0.017618 -0.0181194 -0.0141579 0.0261714 0.00849319 -0.00642545 0.0181697 0.025966 0.0172752 0.0414451 0.033752 0.0094841 0.0365075 -0.000854039 -0.0187289 -0.0225313 0.015672 -0.0049612 0.0422283 0.0678576 0.0538489 0.0345058 0.0878392 -0.0358027 -0.0213698 -0.0384424 -0.0153944 0.057974 0.0612524 0.0554139 0.0718018 0.0601653 0.0591093 -0.0726961 -0.0700781 0.0557628 0.0597154 0.0676303 0.0842586 -0.0455358 -0.0508898 -0.112206 -0.0845184 -0.0260478 0.166245 -0.111962 -0.103495 -0.125513 -0.113624 -0.138882 -0.114703
internal_weight=0 62044.1 19050.7 18018.4 44025.7 22131.6 15905.8 7436.79 11252.9 10797.1 19884.1 7336.44 6129.12 7797.8 6853.92 8468.98 21894.1 15769.3 7338.62 12547.7 3102.57 10167.9 9674.13 5876.28 2804.18 12666.8 1130.36 2112.58 3072.1 977.644 2247.47 1615.48 943.874 629.159 2061.37 6124.79 4885.05 811.63 2037.05 181.219 631.987 1307.68 493.813 629.155 587.139 1239.74 447.94 42.0158 51.2082 314.715 77.1119 166.014 455.793 237.603 24.3267 451.522 46.6721 445.556
internal_count=268644 199052 69592 61485 137567 71174 55137 27023 43232 39096 62860 25345 21498 26360 22596 28114 66393 48702 24741 37515 10253 37216 35661 19712 9886 38449 3373 6348 9826 2884 8314 5698 3764 2341 6124 17691 14239 2462 6033 591 2616 5525 1555 1880 1725 3452 1750 155 224 1423 286 422 4136 1137 91 4121 212 4094
is_linear=0
shrinkage=0.1


Tree=12
num_leaves=63
num_cat=0
split_feature=70 103 136 53 102 70 103 68 37 114 29 133 32 103 68 31 67 69 33 61 31 103 68 32 134 73 25 69 45 107 49 101 103 45 60 53 35 134 69 68 69 134 60 122 104 52 75 42 136 57 103 2 27 71 98 109 31 103 112 4 107 54
split_gain=926.176 711.506 728.083 557.844 610.462 652.657 511.547 500.881 476.29 317.118 266.155 292.89 249.242 214.1 237.222 210.104 203.52 190.745 233.79 220.876 182.808 182.6 396.519 213.795 172.055 135.565 133.416 132.717 131.643 119.295 142.611 102.588 96.2792 89.8856 78.7113 75.8465 90.7304 73.1659 70.211 68.8321 67.3506 67.2527 63.6916 60.023 54.6295 53.4711 39.4972 39.4808 45.1407 39.0932 42.5398 35.1559 29.5071 31.7054 25.4273 25.1087 24.3899 22.9826 20.9795 19.245 14.0206 0.601551
threshold=-0.26972746849060053 -0.80875718593597401 1.0000000180025095e-35 0.92505294084548961 -0.90283289551734913 -0.33224003016948694 -0.7963247001171111 0.073039971292018904 0.93466630578041088 -1.0497912764549253 1.1251247525215151 1.0000000180025095e-35 0.96107566356658947 -0.78109779953956593 0.051006801426410682 0.99945339560508739 0.064417760819196715 -0.077620051801204668 0.93122732639312755 0.69782894849777233 0.99633181095123302 -0.76690551638603199 0.10426385700702669 0.96547943353652965 1.0000000180025095e-35 -0.75647953152656544 1.3321988582611086 -0.096516598016023622 1.1209004521369936 -0.99169680476188649 1.2333841919898989 -0.84818696975707997 -0.7848597764968871 1.1017748713493349 0.78179913759231578 1.0611787438392641 0.94403243064880382 1.0000000180025095e-35 -0.078930068761110292 0.025386870838701728 -0.112882561981678 1.0000000180025095e-35 0.68718528747558605 -1.4134135246276853 -0.81242439150810231 1.1107664704322817 -0.99272698163986195 1.0354403853416445 1.0000000180025095e-35 0.85704064369201671 -0.80262053012847889 0.4764524251222611 1.1743852496147158 -0.45726215839385981 -0.87937337160110463 -1.1478239297866819 0.97134000062942516 -1.0473076105117796 -1.0248484611511228 0.39618629217147833 -0.89954382181167591 1.0108839273452761
decision_type=2 2 2 2 2 2 2 2 2 2 2 2 2 2 2 2 2 2 2 2 2 2 2 2 2 2 2 2 2 2 2 2 2 2 2 2 2 2 2 2 2 2 2 2 2 2 2 2 2 2 2 2 2 2 2 2 2 2 2 2 2 2
left_child=1 2 3 10 24 -6 17 12 29 42 57 -12 13 14 -8 16 -11 18 25 27 26 23 -23 -10 -5 41 34 -20 -15 55 -31 -17 38 -27 39 47 44 -36 -14 -3 49 -2 54 59 -37 -21 -38 61 -49 58 -51 -34 -42 -54 -4 -9 -44 -1 -22 -28 -45 -19
right_child=6 20 9 4 5 -7 7 8 21 15 11 -13 32 28 -16 31 -18 35 19 45 40 22 -24 -25 -26 33 43 -29 -30 30 -32 -33 51 -35 37 36 46 -39 -40 -41 52 -43 56 60 -46 -47 -48 48 -50 50 -52 -53 53 -55 -56 -57 -58 -59 -60 -61 -62 -63
leaf_value=0.036541546149567734 0.061635541262407494 -0.013838721805405929 0.075689371068717134 0.05233106439218202 -0.00056018803327593408 0.028644915278109803 -0.010017973660137201 0.13845863585598389 0.064372910689895327 -0.030213054364046116 -0.00066462646721223394 -0.071558650383328024 -0.053279081090698566 -0.085821767508748911 0.058705692256545039 -0.039494258715658148 0.029878712630638838 -0.15683174289112511 0.0054156211164451858 -0.10122605733310962 0.16506386126842296 -0.025396571758352152 0.034140365510187974 0.020201405070232159 -0.064774483464119778 -0.013784129597967078 -0.12196077161097528 0.048141658808834531 -0.0092680949120375247 -0.069860126145667542 0.052209004263505422 -0.087551971070972193 -0.0618100139941615 0.044275251376556364 -0.0097143855978700441 0.095166772466243971 -0.063059135748252004 -0.14658899739665485 0.0061945394181967635 0.042352457703099131 -0.18642395993145569 0.10194395466431797 -0.11376414320677315 0.22619264463951028 0.059519339953133445 -0.023262354244268729 0.039022075914416886 0.05755948198563049 -0.033129956349435719 -0.062612237323410744 -0.1046388031103116 -0.11972067280433674 0.1044074141062231 -0.017728161393610914 0.15677753370126071 0.023946094707133089 0.042849106941598492 -0.11767088550737018 -0.047453026340815024 -0.058608204246730411 0.022692061344059183 -0.20856328870567845
leaf_weight=10.046550534665583 1913.611667022109 1586.3205287382007 63.32726626098156 5555.0583400726318 15349.027895733714 15258.71195666492 944.78713712841272 22.041503921151161 3230.7456223964691 1676.4817768707871 4936.9229125156999 660.74783653020859 435.22221118211746 276.35905725508928 1072.3892080187798 1791.2141108065844 849.04472822695971 4.1205440834164602 1349.9066264629364 143.84479896724224 9.8269666135311144 1313.2490392327309 7548.80445510149 1658.1290653347969 128.36117947101593 304.03062678873539 159.04517436027527 1575.5534856021404 1200.0449098050594 714.05757047981024 110.51919089257717 590.66407649219036 269.35020257532597 2168.918500110507 76.023373022675514 1384.2229609042406 48.129199489951134 80.30913470685482 364.94293086230755 252.73043376207352 8.324889123439787 528.16624386608601 14.961431339383124 6.0546992272138596 623.56630381941795 226.47003139555454 178.39135354757309 165.12317225337029 82.211179971694946 532.85593898594379 439.50745764374733 171.62320029735565 26.885162115097046 101.48263111710548 99.322996526956558 145.84676550328732 29.650448888540268 253.84991485625505 8.809505492448805 68.646179288625717 7.6800001561641675 4.9458705931901932
leaf_count=41 5614 6063 181 16969 52135 49201 3166 58 9260 6969 17648 2698 1671 1385 3111 6870 2624 21 4440 530 31 4317 23224 5153 478 1022 727 4752 3926 3869 350 2352 998 6477 277 3777 165 354 1189 778 35 1442 54 19 1807 744 529 484 269 2132 1922 688 76 364 248 458 91 2021 38 304 28 20
internal_value=0 0.0074789 0.0106416 0.0149648 0.0195881 0.0139993 0.0296106 0.0199606 0.029048 -0.0249882 -0.0136597 -0.00903294 -0.00833676 0.00533858 0.0265175 -0.0301055 -0.0100111 0.0471755 0.0398221 0.0192159 -0.0369533 0.0338767 0.0253177 0.0493915 0.0496862 0.0536405 -0.0204025 0.0284264 -0.0235977 -0.037855 -0.053499 -0.0514117 -0.0468304 0.0371373 -0.0119074 0.0714156 0.077327 -0.0800279 -0.0261541 -0.00611668 -0.0697822 0.0703544 0.096174 -0.0906145 0.0840956 -0.0535465 0.0173327 0.0199024 0.0274153 -0.0788585 -0.0816082 -0.0843484 -0.00398009 0.00785173 0.125206 0.0389801 -0.00967409 -0.1118 0.0646066 -0.102861 0.112402 -0.185052
internal_weight=0 50631.9 47267.4 42152.7 36291.2 30607.7 30179.3 19478.1 14743.4 5114.67 5861.57 5597.67 4734.72 3493.58 2017.18 4907.4 2525.53 10701.2 8210.5 3295.77 3364.5 13750.9 8862.05 4888.87 5683.42 4914.73 2236.81 2925.46 1476.4 992.465 824.577 2381.88 1241.14 2472.95 1995.38 2490.71 2234.31 156.333 800.165 1839.05 1127.69 2441.78 207.262 241.426 2007.79 370.315 226.521 256.401 247.334 991 972.363 440.973 136.693 128.368 162.65 167.888 44.6119 263.896 18.6365 227.691 13.7347 9.06641
internal_count=268644 173728 160580 141191 118783 101336 94916 62823 46689 19389 22408 20346 16134 11588 6277 18815 9593 32093 25021 10466 13148 41954 27541 14413 17447 14555 8550 9192 5311 4735 4219 9222 4546 7499 7472 7072 6278 631 2860 6841 4598 7056 574 1078 5584 1274 694 794 753 4123 4054 1686 475 440 429 516 145 2062 69 1031 47 41
is_linear=0
shrinkage=0.1


Tree=13
num_leaves=63
num_cat=0
split_feature=69 103 52 103 68 103 53 135 136 103 109 69 103 69 33 30 105 29 103 54 101 134 31 20 103 31 113 136 59 26 30 135 134 69 60 44 33 40 86 134 110 100 136 58 102 68 29 42 57 53 87 63 128 74 48 105 0 90 97 6 122 0
split_gain=776.384 815.479 660.573 549.608 620.105 462.907 466.818 399.536 385.841 337.773 460.115 395.533 381.747 302.108 344.384 279.845 363.742 270.999 253.029 244.84 242.569 242.36 232.329 185.199 181.282 175.132 164.947 154.816 151.195 145.028 143.172 130.18 129.726 105.402 146.049 104.592 103.115 101.581 101.526 91.5705 85.6918 84.356 81.785 81.7822 78.7144 153.049 77.6768 66.3008 82.3414 66.0315 57.2749 51.061 47.1567 43.7766 40.8769 37.4096 34.5459 25.6015 20.975 36.674 17.3049 12.6968
threshold=-0.12928338348865506 -0.83388808369636525 1.0199542641639712 -0.88174137473106373 -0.040760299190878861 -0.81102427840232838 1.0611787438392641 1.0000000180025095e-35 1.0000000180025095e-35 -0.69875022768974293 -1.1246092319488523 -0.015614996198564766 -0.75293987989425648 -0.15644589066505429 0.92329198122024547 1.1012055277824404 -0.91726699471473683 1.0969561338424685 -0.86236196756362904 1.108917832374573 -0.94253420829772938 1.0000000180025095e-35 0.99878290295600902 1.2410229444503786 -0.82103505730628956 1.0040091872215273 -1.3794803619384763 1.0000000180025095e-35 0.80235111713409435 1.3219314217567446 1.1012055277824404 1.0000000180025095e-35 1.0000000180025095e-35 -0.087498042732477174 0.75268086791038524 1.0654290914535525 0.92359203100204479 1.0041615366935732 -1.3229699730873106 1.0000000180025095e-35 -1.218294560909271 -0.80830571055412281 1.0000000180025095e-35 0.85249042510986339 -0.83632558584213246 0.032624401152133949 1.1305233836174013 1.0060512423515322 0.8708275854587556 1.0958375334739687 -1.0427260398864744 0.52174517512321483 1.0000000180025095e-35 -0.98867395520210255 1.1032257676124575 -0.96487131714820851 0.62588724493980419 -0.63078495860099781 -0.90625858306884755 0.6380104422569276 -1.1118615865707395 0.19609497487545016
decision_type=2 2 2 2 2 2 2 2 2 2 2 2 2 2 2 2 2 2 2 2 2 2 2 2 2 2 2 2 2 2 2 2 2 2 2 2 2 2 2 2 2 2 2 2 2 2 2 2 2 2 2 2 2 2 2 2 2 2 2 2 2 2
left_child=1 2 7 30 18 25 21 17 -6 11 40 12 -8 22 24 16 -9 55 -5 -12 -19 31 29 41 27 33 -13 -15 32 43 46 38 -16 34 42 -26 -36 -25 -7 44 -11 -23 -2 -3 51 -46 -4 60 -49 54 -31 -27 -30 -32 -35 -1 -17 -51 -41 -60 -24 -33
right_child=5 13 3 4 8 6 9 15 -10 10 19 26 -14 14 28 56 -18 20 -20 -21 -22 23 47 37 35 39 -28 -29 52 50 53 61 -34 49 36 -37 -38 -39 -40 58 -42 -43 -44 -45 45 -47 -48 48 -50 57 -52 -53 -54 -55 -56 -57 -58 -59 59 -61 -62 -63
leaf_value=0.056493506782924585 0.064974586569655601 -0.0056613462993128569 0.034999589928289956 0.016139514367441047 0.049586155825801691 -0.01070464433546007 0.027226432472816853 0.082555574137028576 -0.010514092555167521 -0.029784946054479969 -0.066910085127477634 -0.049757917630814608 -0.023379764830881514 0.041698208622269028 -0.052923008956959339 -0.03894743155049403 0.010694875991348543 0.022801913998142853 -0.017809900573409507 0.0059570067315185158 -0.021918552734193741 0.12218641184045892 -0.14125465389637901 -0.053901407213018872 -0.060636825665717355 0.059837804735246497 0.061918983361053795 -0.051381921480523389 -0.12748245228252372 0.023815210841760928 -0.13876907517313761 0.17274612166569348 0.013084115194060482 -0.10514479857630638 0.043598352104994173 -0.00080064310280942024 -0.026658479225172577 0.069864749512449989 -0.049365698213915711 0.15066761608685852 0.05563737005154732 0.030986893142707701 0.032396822358977 -0.055900946974870608 -0.019713048871040501 0.038397226622410012 0.063209995261440971 -0.024638771103225626 -0.087097177756986124 0.054224381620725806 -0.10687546371674456 -0.02547118475925348 0.043442500849273147 0.11234414016587989 0.098622282124218197 -0.11291198524113691 -0.096420320277657734 -0.034511728690314596 0.078373054828832361 -0.15378031510944787 -0.061416977129435925 0.030450930461399513
leaf_weight=13.590463198721407 2895.2327729836106 1615.8443674743176 1356.2987118065357 4023.5630105435848 5449.2952733933926 1271.1007093265653 14167.816883474588 793.19974566996098 1328.6627980917692 134.17181567847729 1117.7126097008586 137.22760720551014 1665.8986219614744 1685.6435851305723 942.39981634914875 229.76542364060879 6290.9423349499702 1475.1318047866225 4831.6082258373499 784.98070141673088 6822.7204337716103 223.1317118704319 184.21378344297409 240.56609906256199 353.90164845436811 548.86628802120686 3650.9075423777103 199.87878975272179 237.78353330492973 38.448862969875336 49.390707209706306 34.068071559071541 435.2638236284256 9.9603168144822103 441.23631086945534 1673.5237097889185 396.73586417734623 91.551778554916382 1458.8018998801708 38.651582598686218 941.41306653618813 185.93689027428627 1050.1023005917668 405.28552357852459 953.90858316421509 863.53407219052315 3481.4662550091743 300.96888588368893 706.68819247186184 327.11488820612431 262.28772041201591 80.44496476650238 17.316546112298965 8.0776801258325559 849.40269666910172 319.24041464924812 191.96430930495262 36.101954132318497 194.14905993640423 7.0518427789211264 31.841796591877937 7.6852551996707907
leaf_count=44 8416 6157 4056 13004 16555 4949 43895 2323 4707 440 5351 462 5491 5195 3747 945 21211 4997 17064 2863 25240 587 821 859 1517 1668 10487 728 1025 136 234 83 1517 43 1309 5729 1302 283 5331 97 2775 573 3218 1572 3387 2598 10165 1198 2959 955 1217 265 58 23 2314 2678 970 118 560 27 122 24
internal_value=0 0.0056484 0.0122961 0.0241965 0.0150404 0.0254661 0.0188124 -0.00284328 0.0378049 0.0240837 -0.00729571 0.0288466 0.021902 -0.0211614 -0.00658558 0.0140298 0.018741 -0.0175173 -0.00238416 -0.0368478 -0.0139685 -0.0151011 -0.0439598 0.0356923 0.0095117 0.0454546 0.0578734 0.0318311 -0.045163 -0.0253762 0.0534371 -0.028684 -0.0320685 0.054948 0.0482506 -0.0112455 0.0103354 -0.019784 -0.0313643 0.024232 0.0449815 0.0807328 0.0563036 -0.0157356 0.0184517 0.00789729 0.055301 -0.0792202 -0.068442 0.0811517 -0.0901668 0.0489327 -0.11588 -0.103473 0.0962606 -0.105995 -0.0651081 0.0454045 0.0831976 0.0702364 -0.129488 0.146555
internal_weight=0 45756.2 36664.9 20528.4 15633.1 34805.5 26113 16136.6 6777.96 22600.1 2978.28 19621.9 15833.7 9091.29 5545.71 7505.87 7084.14 8630.68 8855.17 1902.69 8297.85 3512.84 3545.58 741.186 3912.95 8692.49 3788.14 1885.52 1632.76 2321.87 4895.23 2771.66 1377.66 6005.89 4783.31 2027.43 837.972 332.118 2729.9 2686.61 1075.58 409.069 3945.34 2021.13 2446.75 1817.44 4837.76 1223.71 1007.66 1222.58 300.737 629.311 255.1 57.4684 859.363 332.831 421.73 363.217 239.852 201.201 216.056 41.7533
internal_count=268644 157914 124216 65808 51330 110730 84453 58408 21262 71764 11429 60335 49386 33698 19516 25449 23534 32959 30068 8214 30237 12689 14182 2302 13169 26277 10949 5923 6347 9082 14478 10387 5264 17675 14245 7246 2611 1142 10280 8602 3215 1160 11634 7729 7918 5985 14221 5100 4157 3430 1353 1933 1083 257 2357 2722 1915 1073 684 587 943 107
is_linear=0
shrinkage=0.1


Tree=14
num_leaves=63
num_cat=0
split_feature=70 103 136 53 102 103 70 68 103 109 70 103 114 29 108 48 32 32 31 31 72 52 136 26 136 135 46 55 25 60 40 69 134 68 29 103 69 63 63 32 84 40 30 70 70 103 94 1 52 50 38 77 34 18 112 3 63 15 4 71 107 57
split_gain=653.449 531.753 540.76 466.087 456.295 445.575 440.548 423.83 351.32 395.028 303.941 346.408 247.562 228.889 253.666 225.144 197.424 170.277 167.879 152.852 202.231 138.769 134.023 130.139 167.218 143.66 124.145 123.88 123.43 132.922 113.226 106.949 95.263 94.8706 94.2512 88.6973 87.8741 217.42 74.2033 68.0579 50.5179 46.0912 45.3304 43.4305 41.1605 58.4548 40.1256 40.5273 37.1093 43.86 36.2136 33.8613 33.6346 29.8898 26.9045 26.5837 23.0451 21.9519 20.4857 13.6536 12.6509 8.99647
threshold=-0.25909641385078425 -0.80875718593597401 1.0000000180025095e-35 0.92855137586593639 -0.91627880930900563 -0.79090327024459828 -0.31716197729110712 0.074450686573982253 -0.7111927568912505 -1.1246092319488523 -0.15793743729591367 -0.75293987989425648 -1.059361398220062 1.1251247525215151 -0.89279460906982411 1.2340993881225588 0.96177250146865856 0.96732279658317577 0.99646437168121349 0.99945339560508739 -0.6924581229686736 1.0577343702316286 1.0000000180025095e-35 1.1980425715446474 1.0000000180025095e-35 1.0000000180025095e-35 1.0427907109260561 1.0070180892944338 1.3335634469985964 0.78179913759231578 1.0792291760444643 -0.112882561981678 1.0000000180025095e-35 0.01156343473121524 1.2262269258499148 -0.79558518528938282 -0.089744571596384035 0.52467533946037304 0.53672590851783764 0.96177250146865856 -1.0156866312026975 1.0627212524414065 1.0479793548583987 -0.23110925406217572 -0.21342808008193967 -0.80324667692184437 -0.86875784397125233 0.46607853472232824 1.0397816896438601 1.1012918353080752 0.96502810716629039 -1.1256205439567564 0.94673734903335582 1.1780766844749453 -1.2520037293434141 0.5018967092037202 0.53891021013259899 0.9262903928756715 0.40159916877746588 -0.40395294129848475 -0.9042924940586089 0.85606613755226146
decision_type=2 2 2 2 2 2 2 2 2 2 2 2 2 2 2 2 2 2 2 2 2 2 2 2 2 2 2 2 2 2 2 2 2 2 2 2 2 2 2 2 2 2 2 2 2 2 2 2 2 2 2 2 2 2 2 2 2 2 2 2 2 2
left_child=1 2 3 13 34 17 -6 16 10 30 11 -9 46 54 -15 -11 23 21 28 20 -14 50 44 25 -25 -7 -21 -12 29 33 -10 48 -31 -3 -5 39 37 -23 -38 -33 60 55 43 -18 45 -19 47 -4 51 -50 53 -20 -46 -2 -1 -24 -37 -52 -42 -44 -30 -48
right_child=5 18 12 4 6 7 -8 8 9 15 27 -13 19 14 -16 -17 42 22 31 26 -22 36 41 24 -26 -27 -28 -29 40 32 -32 35 -34 -35 -36 56 38 -39 -40 -41 58 -43 59 -45 52 -47 61 -49 49 -51 57 -53 -54 -55 -56 -57 -58 -59 -60 -61 -62 -63
leaf_value=0.17119233201180134 -0.071898707045894239 -0.017097211630313646 -0.0064418403146715326 0.05576913161000227 0.0052565851733962768 -0.041465168710372508 0.028552532325724186 0.035181373949911297 0.047709730299618225 -0.049080589490688616 -0.070761927996093751 -0.014912185627181045 -0.038733662931785824 -0.017650354119467537 0.037785177343788647 0.025698101780663497 -0.085232816659025532 0.0048236942684909212 -0.0533602081162328 -0.098247460611943449 0.017550133438869988 0.066698694637145645 0.086364322731622409 0.023690487747610164 -0.13293309151706836 0.11074257121642053 -0.032113424741810809 0.070570435660224543 0.16935982187158424 -0.016715566067453214 -0.0428204513705411 0.023862776415468474 -0.14258800215635389 0.021577310308783917 -0.095479641951156491 -0.087303370403082017 0.082810246846294733 0.013602052029076382 0.052747463366596685 -0.048638233232696636 -0.11752737836621469 -0.11114554062803568 -0.00089162812186970378 -0.030854094204644723 0.06386799298862432 -0.050599963444886535 0.15254090301741674 0.11140597505790564 -0.10645183247882579 -0.060237563653528774 -0.057394588521413464 0.18659662132706856 -0.033059272222663513 0.056267656699022797 -0.11102399938196761 -0.0043754648739435112 0.0031460568937291019 0.10252077019623439 -0.045849675528365316 0.11959326494266512 0.0015167076954766101 0.033480700044786454
leaf_weight=3.4260752797126761 138.1544104218483 1303.3398251533508 58.961842760443687 3145.955667257309 21065.427833452821 917.19049403071404 13207.150105714798 6306.9732540845871 1256.0719862878323 1608.7234438210726 63.903134763240814 1767.2784580588341 1100.255013525486 4865.9478924199939 994.06915967166424 537.03831581771374 478.64990235865116 436.89925684034824 13.383415311574938 320.0737798511982 1520.7253644093871 1419.8536857664585 256.52778525650501 1378.5302296131849 71.712217718362808 66.50666531920433 2507.5178143233061 2102.341500043869 8.1092082560062426 127.79733735322952 155.2258944362402 376.39465133845806 113.54825474321842 1235.5914579927921 41.747322931885719 198.26325006783009 1060.4459786713123 1688.0802568942308 3636.8026730716228 197.36976534128189 144.46113388240337 13.942233115434645 31.299027234315872 211.88776586949825 119.828857421875 337.141771286726 76.577391058206558 57.775340035557747 293.43856079876423 684.17079114168882 12.570366427302359 10.490392148494719 51.054323464632034 20.956009171903133 240.74057509750128 36.934989973902702 32.833667308092117 27.068544760346413 55.07472337782383 13.446154430508612 10.063763082027434 6.9200890660285941
leaf_count=9 552 5232 188 9374 70952 3527 41960 19012 3734 7397 229 5736 4939 18008 3295 1749 1854 1382 59 1488 5006 4133 721 4279 265 179 9305 5984 26 456 511 1172 500 3920 187 800 2991 5283 10673 771 717 52 124 741 344 1230 194 155 1261 2915 45 30 168 68 2091 118 119 78 255 41 39 21
internal_value=0 0.00654973 0.00964974 0.0134244 0.0175997 0.0257892 0.0142338 0.0161612 0.023736 -0.00333877 0.0331405 0.024217 -0.0194607 -0.0121992 -0.0082465 -0.0303651 -0.0168165 0.0434375 -0.0252053 -0.0234739 -0.00607711 0.0488024 0.00914867 -0.00309836 0.0159457 -0.0311746 -0.0395996 0.0664012 -0.0106953 -0.00501733 0.0377525 -0.0492875 -0.075936 0.00172406 0.0537883 -0.022145 0.0509036 0.0378592 0.0595344 -0.00107691 -0.0832059 0.0665039 -0.0622266 -0.068547 -0.00951027 -0.0193167 0.0897425 0.0518832 -0.0711011 -0.0741092 -0.0337126 0.0520792 0.0349093 -0.0550183 -0.107064 0.0749439 -0.0744525 0.0518081 -0.0977433 0.0353147 0.0764123 0.142673
internal_weight=0 54017.6 49213.3 43564.5 37460.3 26223 34272.6 16966.8 13797.6 3557.06 10240.5 8074.25 5648.81 6104.18 5860.02 2145.76 3169.22 9256.26 4804.33 5448.57 2620.98 8003.93 1252.33 2433.94 1450.24 983.697 2827.59 2166.24 2997.99 2780.28 1411.3 1806.34 241.346 2538.93 3187.7 804.861 7805.18 3107.93 4697.25 573.764 217.709 307.405 735.283 690.538 944.924 774.041 200.235 116.737 1001.48 977.609 198.749 23.8738 170.883 159.11 244.167 293.463 231.097 39.6389 199.536 44.7452 18.173 83.4975
internal_count=268644 185444 167172 145876 122473 83200 112912 55362 44352 13391 30961 24748 21296 23403 21303 9146 11010 27838 18272 20738 9945 23823 4015 8250 4544 3706 10793 6213 11145 10108 4245 7127 956 9152 9561 2862 23080 9416 13664 1943 1037 891 2760 2595 3124 2612 558 343 4265 4176 743 89 512 620 2100 839 919 123 972 165 65 215
is_linear=0
shrinkage=0.1


Tree=15
num_leaves=57
num_cat=0
split_feature=52 31 101 71 89 135 102 70 39 70 103 53 103 69 135 101 136 134 109 103 90 103 30 109 103 71 31 30 69 136 109 27 30 97 70 20 135 0 105 67 47 98 37 106 74 129 81 6 97 103 29 5 136 78 60 70
split_gain=560.428 471.439 459.826 678.372 396.664 306.096 333.067 462.278 302.785 281.656 325.529 270.548 250.105 277.689 242.345 245.012 238.941 236.209 254.613 229.102 235.485 218.344 190.39 182.993 182.663 175.779 187.767 172.3 157.713 178.099 149.549 146.617 111.777 108.029 102.956 92.8094 90.6952 70.4851 63.4013 50.3682 46.1827 42.6435 37.271 30.4117 25.9962 16.0762 1.33853 0.282449 0.0701448 0.0169485 0.0101733 0.00666252 0.0062982 0.00151042 0.00137714 0.00100301
threshold=1.0336681604385378 1.0034314990043642 -0.82649353146553028 -0.44759182631969446 -1.3325943350791929 1.0000000180025095e-35 -0.89303240180015553 -0.40908065438270563 0.87694865465164196 -0.37704250216484064 -0.84045413136482228 0.94743695855140697 -0.87049192190170277 -0.17266539484262464 1.0000000180025095e-35 -0.7871180772781371 1.0000000180025095e-35 1.0000000180025095e-35 -0.92142510414123524 -0.93819859623908985 -1.139872610569 -0.84299537539482106 1.1109046339988711 -1.0294216871261594 -0.85312640666961659 -0.47766980528831476 0.996190905570984 1.0834690332412722 -0.10370345413684844 1.0000000180025095e-35 -0.86265283823013295 1.1867148876190188 1.099486291408539 -1.008539021015167 -0.3738743364810943 1.1950627565383913 1.0000000180025095e-35 0.26568160951137548 -0.89815270900726307 0.05543846637010575 1.1015448570251467 -0.96009284257888783 0.89741039276123058 -0.92288795113563526 -0.8290419578552245 1.0000000180025095e-35 -1.23401802778244 0.94624811410903942 -1.1821613907814024 -0.80875718593597401 1.0969561338424685 0.89990389347076427 1.0000000180025095e-35 -1.4339238405227659 0.38991090655326849 -0.25407877564430231
decision_type=2 2 2 2 2 2 2 2 2 2 2 2 2 2 2 2 2 2 2 2 2 2 2 2 2 2 2 2 2 2 2 2 2 2 2 2 2 2 2 2 2 2 2 2 2 2 2 2 2 2 2 2 2 2 2 2
left_child=4 2 28 25 47 6 7 11 19 27 -11 -6 32 24 15 -5 -9 21 -19 22 -21 -15 -7 -16 34 36 -27 -8 29 31 -31 -2 33 42 -14 45 -4 -35 44 -26 -37 -40 -3 -34 -10 -30 -45 48 -1 50 52 -50 -49 -52 -51 -56
right_child=1 12 3 14 5 8 9 16 38 10 -12 -13 13 17 23 -17 -18 18 -20 20 -22 -23 -24 -25 39 26 -28 -29 35 30 -32 -33 43 37 -36 40 -38 -39 41 -41 -42 -43 -44 46 -46 -47 -48 49 51 54 53 -53 -54 -55 55 -57
leaf_value=-0.13607088099131656 -0.00059178174979409573 0.070230708728587554 -0.067392228455204303 0.030956069531787964 -0.03402969311617593 0.10578752391357726 -0.038711394574348301 0.092598489134189457 0.075674378980334203 0.0062062680117256795 -0.061690914432884547 0.015477898740943833 -0.085189034885124318 0.030868644243830429 0.097957955495340254 0.011223410411930345 -0.0025028086465680595 -0.013141046585952776 0.081996908716764169 0.026547180295414238 -0.013414441475695133 -0.014001357094059814 -0.10684609338422897 -0.027019894779123095 -0.11749992419028316 0.010102686577274976 -0.038752878662987648 -0.1037192401758871 0.036115218920323044 -0.0022496036853553686 0.084109201046330601 0.040588930274348137 0.10103183679698838 -0.14590839831801811 0.0014897446099953666 0.011191544511909566 0.0020964113102690161 0.032275382406931473 -0.11220766962077283 -0.06049320572993188 0.091084937553131795 0.041699574028747209 0.14812675937928224 -0.13777494487042552 0.1480039987618216 -0.014678573082494496 -0.079152111922608126 -0.10902450382280936 -0.12373676175963307 -0.11420242194191198 -0.11136949558085485 -0.1176349558468969 -0.11019260254002615 -0.11336413336420609 -0.11158208314092165 -0.11095493775685633
leaf_weight=4.3509495556354523 941.10281796753407 161.29397702217102 989.2326055765152 9964.033656463027 2077.4056724756956 346.38525553047657 2164.6721803173423 821.10661722719669 568.91986145079136 3133.5293710231781 911.54581393301487 2355.3180938363075 161.79496859014034 1332.6473643183708 637.59648016095161 17076.235214650631 389.51707626879215 477.10155002772808 685.44228538870811 2340.9565599560738 3984.5540185198188 5824.2070534974337 47.937184184789658 143.53026942908764 195.37183740735054 1938.8142022788525 1323.7856570184231 502.32357214391232 263.84997440874577 2007.3758802264929 222.78078429400921 10630.622895479202 6.3157961368560782 22.61727187037468 895.39795279502869 78.805308446288109 231.84751902520657 1204.5124329328537 18.534636437892914 749.86472155153751 883.70869719982147 627.1458702236414 99.202987283468246 43.329028442502022 54.446533739566803 81.5756825953722 4.2795819342136374 116.18654824793339 2.9925275295972806 1.5387214571237553 12.986798748373987 4.4511213302612305 76.585220493376255 5.3645835965871802 40.760926485061646 68.120869360864162
leaf_count=23 2996 460 4129 30730 8044 1000 8400 2432 1637 11082 3690 7827 613 4329 1744 55710 1537 1731 2047 7525 14378 20895 222 490 867 6423 4982 2030 804 6702 637 32262 18 86 3027 249 873 3676 69 3015 2464 1983 250 212 138 266 18 1540 20 15 142 35 913 52 439 766
internal_value=0 0.0165377 0.0209985 0.0142636 -0.0025822 -0.000809313 -0.0106726 0.00723334 0.014445 -0.0257275 -0.00909416 -0.00772394 -0.00129088 -0.00690211 0.020081 0.0184947 0.0619997 0.00114488 0.0429528 0.00598476 0.00137463 -0.00564631 0.079938 0.0749936 -0.0403346 -0.0218334 -0.00972025 -0.0509555 0.035398 0.0322529 0.00637718 0.0372398 0.0362804 0.0414072 -0.0117758 0.0685858 -0.0541984 0.0289913 0.0592436 -0.072276 0.0845437 0.0372816 0.0998952 -0.105153 0.0819918 0.0241198 -0.132505 -0.110785 -0.125984 -0.110228 -0.109703 -0.120088 -0.109489 -0.111953 -0.111232 -0.11119
internal_weight=0 59278.3 47414.9 32305.1 20677.6 20344.3 12355.4 5643.35 7988.88 6712.07 4045.08 4432.72 11863.4 10321.8 27821.4 27040.3 1210.62 8319.4 1162.54 6719.83 6325.51 7156.85 394.322 781.127 2002.43 4483.68 3262.6 2667 15109.8 13801.9 2230.16 11571.7 1541.55 1487.63 1057.19 1307.94 1221.08 1227.13 1269.05 945.237 962.514 645.681 260.497 53.9244 623.366 345.426 47.6086 333.338 11.7946 321.544 211.123 7.44365 192.772 18.3514 110.421 108.882
internal_count=268644 192705 151461 105081 75939 71994 45042 19840 26952 25202 14772 15871 41244 36524 88674 86440 3969 29002 3778 23125 21903 25224 1222 2234 7522 16407 11405 10430 46380 42597 7339 35258 4720 4472 3640 3783 5002 3762 3827 3882 2713 2052 710 248 1775 1070 230 3945 78 3867 2647 55 2453 194 1220 1205
is_linear=0
shrinkage=0.1


Tree=16
num_leaves=63
num_cat=0
split_feature=69 103 70 102 51 103 103 53 135 109 105 37 136 29 68 34 31 134 30 118 31 103 136 32 70 39 96 32 60 34 114 32 69 63 54 26 134 32 126 135 135 86 41 58 102 128 107 133 133 50 69 87 106 62 57 71 68 11 30 100 103 33
split_gain=493.158 635.405 475.514 423.814 408.145 378.928 335.106 343.337 269.937 263.925 265.118 265.252 254.076 253.047 248.608 330.871 203.791 201.038 181.101 171.179 164.673 152.11 161.582 144.599 164.828 144.067 315.812 141.465 141.397 139.89 138.118 126.622 124.768 150.319 133.843 113.84 101.159 100.647 96.4944 94.7078 89.8979 95.4982 74.738 97.7969 72.8279 68.1455 67.9615 116.32 77.8756 67.6904 62.7339 53.6899 52.5905 50.2089 46.5908 58.4393 44.1227 41.6317 37.5598 34.7856 32.4532 29.3799
threshold=-0.12836297601461408 -0.83563926815986622 -0.33339829742908472 -0.85980358719825734 1.0251889228820803 -0.88793575763702381 -0.81161189079284657 1.0611787438392641 1.0000000180025095e-35 -0.88973718881607045 -0.85664877295494068 0.9385364055633546 1.0000000180025095e-35 1.1064429283142092 -0.015594156458973883 0.90444156527519237 0.99934089183807384 1.0000000180025095e-35 1.0671550035476687 -1.3153940439224241 0.99934089183807384 -0.81895437836647023 1.0000000180025095e-35 0.9609055519104005 -0.20062954723834989 0.98797777295112621 -0.88719218969345082 0.96233063936233532 0.74136850237846386 0.85386076569557201 -1.430867552757263 0.9609055519104005 -0.10890184715390204 0.51324382424354564 1.0385697484016421 1.3219314217567446 1.0000000180025095e-35 0.95710623264312755 -2.140255212783813 1.0000000180025095e-35 1.0000000180025095e-35 -1.3229699730873106 0.98917239904403698 0.82238289713859569 -0.8638438582420348 1.0000000180025095e-35 -0.97699987888336171 1.0000000180025095e-35 1.0000000180025095e-35 1.1455953717231753 -0.087498042732477174 -1.0427260398864744 -0.87731295824050892 0.60459390282630932 0.94128480553627025 -0.42106765508651728 0.064729090780019774 0.69608896970748912 1.0497693419456484 -0.86189177632331837 -0.8253016173839568 0.91952067613601696
decision_type=2 2 2 2 2 2 2 2 2 2 2 2 2 2 2 2 2 2 2 2 2 2 2 2 2 2 2 2 2 2 2 2 2 2 2 2 2 2 2 2 2 2 2 2 2 2 2 2 2 2 2 2 2 2 2 2 2 2 2 2 2 2
left_child=1 2 3 4 13 -6 31 17 18 10 30 -12 19 -1 16 21 35 40 -5 38 58 22 -16 53 -25 26 -19 -21 37 -10 -9 46 33 34 -33 39 -23 -17 -4 -3 41 -8 59 -44 -22 -30 47 61 50 -49 -48 -37 -50 -11 56 -56 -34 -27 -14 -18 -35 -2
right_child=6 14 12 8 5 -7 7 9 29 23 11 -13 20 -15 15 28 42 25 -20 27 44 36 -24 24 -26 57 -28 -29 45 -31 -32 32 54 60 -36 51 -38 -39 -40 -41 -42 -43 43 -45 -46 -47 48 49 52 -51 -52 -53 -54 -55 55 -57 -58 -59 -60 -61 -62 -63
leaf_value=-0.10059001551340184 0.068002611603325491 -0.0200079519245717 0.013330326039563101 -0.018036450723911964 0.046983898879934649 0.0081107865291244873 -0.0094245469226881453 -0.090682237008722272 -0.011238658153582361 0.10729491549055928 -0.030620969722700175 0.011319445943137092 -0.023938751241464499 -0.00088223030564929311 0.04111081538144306 0.011693970477187843 -0.063519956253452955 0.067693481232274297 -0.06398211637036065 0.051177025838843017 0.01533462786722347 0.0077404962794477578 -0.043939223739750649 0.00068591229142950791 0.043552396832108375 0.051559037448828671 -0.089800452974111891 -0.0020157442097057357 -0.12753384631049433 0.087913491557887594 0.043061004670066169 0.0058605206798925703 0.036995677089114228 -0.026454049125822117 0.16430885222248456 0.016711823826686099 -0.044638675536125383 -0.043014270930621795 -0.07553944906063291 0.042164574196181505 0.12056077906670748 -0.046963615724710729 -0.015311423127412431 -0.074964403720664777 -0.046910025809791485 0.068720190973375936 0.042983926420205466 2.0139872344262047e-05 0.100768985947139 -0.10594703858940278 0.083080599400116112 -0.095813981267259721 -0.11529658532392645 0.049788197566475678 -0.12626890239667896 0.017635375950156271 0.088709419924001651 0.13758076341841563 0.049426432308351261 -0.12427180843579549 -0.094235456866228751 0.0023380962201585277
leaf_weight=259.68473709374666 316.9973458647728 2091.2107206061482 655.14281177520752 2243.8994607329369 4175.8737393468618 6276.7867887020111 1258.0040779411793 79.415050178766251 283.8674124032259 161.30662320554256 1735.6535576730967 11495.66115821898 82.187242724001408 12828.141276270151 1810.6590330153704 458.967245221138 147.66512511670589 305.7956977635622 1388.8922949284315 5146.9075302258134 255.70120698213577 1077.1842451021075 254.81593535840511 1748.395107164979 1842.0776696205139 105.08389684557915 218.15025639533997 553.76167216897011 214.23864869773388 285.30749863386154 2788.2163920551538 822.30856546759605 1376.0011241585016 119.21492385864258 57.007318750023842 50.750702932476997 560.60444381833076 1257.9334270060062 150.18674971163273 277.5289005190134 40.435038611292839 1469.0750624984503 439.45681555569172 733.6202003583312 709.66064895689487 19.285639688372612 3615.8231533244252 235.99652759730816 375.07268364727497 80.962004125118256 437.40033496171236 257.76221343874931 11.613956168293951 2582.991220921278 35.170214027166367 142.80251814424992 187.46484427154064 121.09334182739258 462.3188339471817 260.5499507188797 173.35374870896339 86.794212028384209
leaf_count=2506 917 8270 2047 7940 12587 20733 4961 284 965 442 7553 36588 321 45374 5500 1536 588 909 5605 15573 934 3644 940 5695 5531 318 811 1836 939 835 8306 2767 4149 409 152 180 2146 4995 522 935 108 5423 1707 3091 2781 58 10946 741 1013 288 1281 1284 43 7688 132 438 524 317 1405 1175 683 275
internal_value=0 0.00367325 0.00988343 0.0036848 0.00890676 0.0236407 0.0195767 0.0140412 -0.02557 0.0185959 0.011792 0.0058178 0.0313366 -0.0028606 -0.0187299 -0.0049852 -0.0369776 -0.015006 -0.0356024 0.0399132 -0.00562023 0.0125712 0.0306183 0.035887 0.0226784 0.030913 0.00211927 0.0460099 -0.0383195 0.0384629 0.0393572 0.0373688 0.0207013 -0.00452589 0.016133 -0.0201655 -0.0101886 -0.0283895 -0.00324309 -0.0127236 -0.0274522 -0.0296468 -0.0654419 -0.0526173 -0.0304229 -0.111326 0.0467779 0.0182957 0.0514016 -0.0270475 0.0473109 -0.0773034 0.0942796 0.0531684 0.0376777 -0.0108024 0.0431963 0.0976143 0.0383528 -0.102296 -0.0666161 0.0538882
internal_weight=0 45670.6 35758.3 27742.5 23540.5 10452.7 34025.3 25951.4 4201.97 22433.7 16098.9 13231.3 8015.87 13087.8 9912.23 5653.69 4258.54 3517.64 3632.79 6506 1509.87 3703.26 2065.47 6334.77 3590.47 750.123 523.946 5700.67 1950.42 569.175 2867.63 8073.98 2913.32 1171.88 879.316 2677.25 1637.79 1716.9 805.33 2368.74 2767.51 2727.08 1581.29 1173.08 965.362 233.524 5160.66 720.75 4439.91 316.959 4053.22 308.513 386.687 2744.3 1741.44 177.973 1563.47 226.177 544.506 408.215 292.569 403.792
internal_count=268644 158952 121964 96545 81200 33320 109692 84934 15345 72087 52731 44141 25419 47880 36988 19758 17230 12847 13545 19978 5441 12230 6440 19356 11226 2355 1720 17409 7528 1800 8590 24758 9254 4011 2919 10669 5790 6531 2569 9205 10492 10384 6561 4798 3715 997 15504 2221 13283 1029 12227 1464 1056 8130 5243 570 4673 635 1726 1763 1092 1192
is_linear=0
shrinkage=0.1


Tree=17
num_leaves=53
num_cat=0
split_feature=53 31 107 106 22 129 128 109 101 71 134 70 97 136 32 69 109 104 76 133 103 29 32 54 108 133 106 104 24 32 105 29 101 22 32 51 132 104 100 4 30 27 118 113 31 2 94 113 77 8 89 5
split_gain=443.381 394.838 508.892 502.346 450.622 398.203 295.089 289.097 272.622 332.411 278.425 255.382 251.339 186.922 208.004 258.912 175.939 175.218 164.418 150.202 129.676 116.019 104.671 99.0682 70.4579 67.5785 65.0423 59.0892 51.3341 48.5079 63.2498 47.5414 45.9925 45.6316 42.0372 40.2881 35.2165 95.0242 32.0194 33.0723 27.9294 27.2913 15.4698 10.4896 6.48985 5.75885 5.62183 19.9412 4.10795 3.24531 1.29125 0.0236995
