tree
version=v4
num_class=1
num_tree_per_iteration=1
label_index=0
max_feature_idx=136
objective=binary sigmoid:1
feature_names=Column_0 Column_1 Column_2 Column_3 Column_4 Column_5 Column_6 Column_7 Column_8 Column_9 Column_10 Column_11 Column_12 Column_13 Column_14 Column_15 Column_16 Column_17 Column_18 Column_19 Column_20 Column_21 Column_22 Column_23 Column_24 Column_25 Column_26 Column_27 Column_28 Column_29 Column_30 Column_31 Column_32 Column_33 Column_34 Column_35 Column_36 Column_37 Column_38 Column_39 Column_40 Column_41 Column_42 Column_43 Column_44 Column_45 Column_46 Column_47 Column_48 Column_49 Column_50 Column_51 Column_52 Column_53 Column_54 Column_55 Column_56 Column_57 Column_58 Column_59 Column_60 Column_61 Column_62 Column_63 Column_64 Column_65 Column_66 Column_67 Column_68 Column_69 Column_70 Column_71 Column_72 Column_73 Column_74 Column_75 Column_76 Column_77 Column_78 Column_79 Column_80 Column_81 Column_82 Column_83 Column_84 Column_85 Column_86 Column_87 Column_88 Column_89 Column_90 Column_91 Column_92 Column_93 Column_94 Column_95 Column_96 Column_97 Column_98 Column_99 Column_100 Column_101 Column_102 Column_103 Column_104 Column_105 Column_106 Column_107 Column_108 Column_109 Column_110 Column_111 Column_112 Column_113 Column_114 Column_115 Column_116 Column_117 Column_118 Column_119 Column_120 Column_121 Column_122 Column_123 Column_124 Column_125 Column_126 Column_127 Column_128 Column_129 Column_130 Column_131 Column_132 Column_133 Column_134 Column_135 Column_136
feature_infos=[-1.8014661073684692:2.1475074291229248] [-1.7160434722900391:2.0597634315490723] [-1.6382262706756592:1.9801409244537354] [-1.5680137872695923:1.9086390733718872] [-1.5054070949554443:1.8452587127685547] [-1.4504051208496094:1.7899996042251587] [-1.4123568534851074:1.7937201261520386] [-1.3844102621078491:1.9274762868881226] [-1.3517893552780151:2.0758624076843262] [-1.3099035024642944:2.0974209308624268] [-1.2559221982955933:2.0165181159973145] [-1.1870334148406982:2.073509693145752] [-1.1039742231369019:2.1457490921020508] [-1.0067610740661621:2.2142360210418701] [-0.90047705173492432:2.2825961112976074] [-0.78966546058654785:2.355140209197998] [-0.67814630270004272:2.4095718860626221] [-0.65591526031494141:2.4415178298950195] [-0.65759903192520142:2.4528653621673584] [-0.66488730907440186:2.4208984375] [-0.8555336594581604:2.3619022369384766] [-0.86833834648132324:2.2948129177093506] [-0.86565589904785156:2.1508355140686035] [-0.70636492967605591:2.0641701221466064] [-0.68053698539733887:2.0739645957946777] [-0.92955285310745239:1.9517765045166016] [-1.274228572845459:1.8635692596435547] [-1.700652003288269:1.7312250137329102] [-1.9454965591430664:1.5516149997711182] [-2.1342308521270752:1.3473584651947021] [-2.4037775993347168:1.1459542512893677] [-2.6881959438323975:1.0691677331924438] [-2.6397361755371094:1.0182701349258423] [-2.3245775699615479:1.0153312683105469] [-1.6179424524307251:1.0222163200378418] [-0.8696785569190979:1.0987448692321777] [-0.66409575939178467:1.3781088590621948] [-0.67049169540405273:1.4357191324234009] [-0.67177027463912964:1.5244829654693604] [-0.6765514612197876:1.427788257598877] [-0.67391806840896606:1.3506048917770386] [-0.77278417348861694:1.3033223152160645] [-0.78214722871780396:1.4334096908569336] [-0.67821109294891357:1.6771683692932129] [-0.67593681812286377:1.8418123722076416] [-0.67998087406158447:1.9795904159545898] [-0.67735743522644043:1.8671952486038208] [-0.68056988716125488:1.7601110935211182] [-0.67851173877716064:1.8138210773468018] [-0.68057990074157715:2.0951991081237793] [-0.67672491073608398:2.3221406936645508] [-0.68208664655685425:2.3866791725158691] [-0.68785721063613892:2.2922041416168213] [-0.6967010498046875:2.1755821704864502] [-0.68777680397033691:1.9014968872070312] [-0.66555494070053101:1.7058380842208862] [-0.62813276052474976:1.5109990835189819] [-0.6819922924041748:1.3641012907028198] [-0.88048118352890015:1.3483799695968628] [-0.69688475131988525:1.3266682624816895] [-0.58463895320892334:1.2987289428710938] [-0.6056399941444397:1.6912268400192261] [-0.63139909505844116:1.8743280172348022] [-0.66095739603042603:1.7138135433197021] [-0.78019368648529053:1.3433690071105957] [-1.0305129289627075:1.0728911161422729] [-1.2195744514465332:0.99044626951217651] [-1.6538451910018921:0.88485002517700195] [-1.8910553455352783:0.75389385223388672] [-2.0949718952178955:0.60495084524154663] [-1.9126988649368286:0.45876148343086243] [-1.7446892261505127:0.33052113652229309] [-1.674402117729187:0.23037496209144592] [-1.5674382448196411:0.15855956077575684] [-1.4517455101013184:0.30397361516952515] [-1.6804615259170532:0.9557119607925415] [-1.8599822521209717:1.4404212236404419] [-2.0371255874633789:1.2026444673538208] [-2.1728529930114746:1.1285310983657837] [-2.2573421001434326:0.92254304885864258] [-2.3058340549468994:0.73609095811843872] [-2.3315773010253906:0.28676301240921021] [-2.3403120040893555:0.33890664577484131] [-2.3343968391418457:0.39074629545211792] [-2.3124566078186035:0.5232703685760498] [-2.2730567455291748:0.47703936696052551] [-2.2140905857086182:0.50853937864303589] [-2.1362462043762207:0.53271615505218506] [-2.0426793098449707:0.67684948444366455] [-1.9374580383300781:0.56802195310592651] [-1.8240519762039185:0.65060514211654663] [-1.8478662967681885:1.0689502954483032] [-1.6500253677368164:1.4168777465820312] [-1.5946441888809204:1.6290324926376343] [-1.530011773109436:1.6649528741836548] [-1.4861346483230591:1.6182941198348999] [-1.4547033309936523:1.5608183145523071] [-1.4384253025054932:1.5597559213638306] [-1.4264529943466187:1.5645072460174561] [-1.5819015502929688:1.5648646354675293] [-1.8387991189956665:1.5687597990036011] [-2.1866300106048584:1.5653641223907471] [-2.4072320461273193:1.569068431854248] [-2.3072562217712402:1.5662518739700317] [-1.8732595443725586:1.5674868822097778] [-1.4165751934051514:1.5623446702957153] [-1.2213733196258545:1.563502311706543] [-1.1215335130691528:1.5619508028030396] [-1.168958306312561:1.5697338581085205] [-1.225764274597168:1.5736351013183594] [-1.369315505027771:1.5827798843383789] [-1.6010570526123047:1.5860384702682495] [-2.1418814659118652:1.5904537439346313] [-2.465855598449707:1.5879421234130859] [-2.5047738552093506:1.5877697467803955] [-2.0072333812713623:1.5816894769668579] [-1.6131480932235718:1.5827864408493042] [-1.6321159601211548:1.6058655977249146] [-1.6864286661148071:2.4495923519134521] [-1.7459897994995117:2.6529664993286133] [-1.820858359336853:2.5047237873077393] [-1.9268163442611694:1.7488086223602295] [-2.1567583084106445:1.5756756067276001] [-2.3918964862823486:1.5727846622467041] [-2.6616356372833252:1.8138364553451538] [-2.9659750461578369:2.1645474433898926] [-3.3559722900390625:3.0688047409057617] [-3.8531808853149414:4.2020993232727051] [0:1] [0:1] [0:1] [0:1] [0:1] [0:1] [0:1] [0:1] [0:1]
tree_sizes=6780 6942 6958 6595 5874 6976 6758 5877 6623 6790 6101 6113 5791 6984 5907 6991 5786 6976 6848 6967 6230 6307 7012 5787 6356 6983 6945 6401 6754 6026 7010 6798 5352 6391 5376 4683 6479 5754 6989 6516 4591 6382 6597 5767 5455 6273 6720 5937 5820 4578 6380 6866 5183 6143 4095 5352 7004 6892 6970 6761 6975 6535 6345 6337 6955 5925 6585 4569 6724 6617 6991 5374 6981 6394 6831 6871 7004 6617 6077 6885 6229 4571 6718 5821 6325 6400 4698 5600 6871 6956 4053 6517 6972 6428 6642 6950 6990 5957 5203 6771 6984 6959 6915 6076 6458 5886 6284 6984 6189 5670 5474 6623 5969 5951 6518 5434 4687 6304 6473 6197 6316 6633 6275 6633 6930 6947 6355 6717 6980 6254 5776 4678 6399 5923 6445 6322 6863 4444 6160 6796 6868 5312 6547 6616 6263 5505 6635 6317 6563 5072 6884 6852 6785 6077 5305 6968 6738 6901 5628 6651 6860 6568 6625 6963 5895 5668 6387 6223 5589 6350 6888 5641 6732 6929 6955 5890 6375 6998 6583 6048 5994 5290 5677 5292 6967 6438 6235 5814 6969 5504 5689 6646 6985 6956 6858 6333 6605 5446 6616 6271

Tree=0
num_leaves=62
num_cat=0
split_feature=52 53 127 31 91 37 106 136 30 99 113 71 101 31 102 103 47 102 96 70 4 112 31 69 77 134 53 31 24 134 102 114 100 100 135 28 124 72 39 107 20 27 57 115 48 116 114 30 30 33 43 40 115 107 33 120 113 37 74 75 106
split_gain=8218.84 3406.13 2704.32 3131.38 2089.16 1346.04 1184.06 1043.32 859.706 1280.39 834.586 824.377 986.73 799.756 717.993 677.142 639.305 630.365 411.751 409.056 395.296 333.82 289.21 286.868 282.724 247.843 229.503 319.15 221.276 190.477 180.355 142.463 96.5329 96.0936 182.469 83.7737 73.5315 111.463 72.0702 113.464 69.0323 78.939 60.124 52.607 52.3128 82.6433 34.0609 29.6508 29.3526 23.4924 20.5863 17.2992 23.0332 19.9629 16.827 15.6014 8.92719 8.01232 3.68507 3.59648 0.589733
threshold=1.0654412508010866 0.78711462020874035 -3.3072551488876338 1.0009059906005862 -1.0178725123405454 0.94782620668411266 -0.89970490336418141 1.0000000180025095e-35 1.0993285179138186 -0.96742540597915638 -1.0038574337959287 -0.43419894576072687 -0.82568979263305653 0.99654415249824535 -0.86534553766250599 -0.80116176605224598 1.2359969615936282 -0.79490095376968373 -1.0050650238990781 -0.25050804018974299 0.72533592581748974 -1.3150163292884824 1.0041038393974306 -0.05563820153474807 -1.3628266453742979 1.0000000180025095e-35 1.0013971924781802 1.0035231709480288 1.4827914237976076 1.0000000180025095e-35 -0.94347199797630299 -0.99736171960830677 -0.96054548025131214 -0.9628358483314513 1.0000000180025095e-35 1.3926447033882143 -2.4763455390930171 -0.31355111300945276 1.0229083299636843 -0.92796701192855824 1.3878410458564761 1.3080122470855715 0.85341623425483715 -1.4227190613746641 1.2490769028663637 -1.4815970659255979 -1.0407546758651731 1.084310829639435 1.0804353356361391 0.82407876849174511 0.72536447644233715 1.0661579370498659 -1.4782103300094602 -0.96567139029502858 0.78572162985801708 -0.93026405572891224 -0.92728576064109791 0.93531844019889843 -1.0100838541984556 -0.88881295919418324 -0.916986584663391
decision_type=2 2 2 2 2 2 2 2 2 2 2 2 2 2 2 2 2 2 2 2 2 2 2 2 2 2 2 2 2 2 2 2 2 2 2 2 2 2 2 2 2 2 2 2 2 2 2 2 2 2 2 2 2 2 2 2 2 2 2 2 2
left_child=1 18 16 4 13 6 -6 8 9 20 40 12 22 24 -11 25 21 -15 50 -7 -3 51 -5 -17 -4 -13 31 -28 32 -14 -30 -12 -10 34 46 48 57 -38 44 43 42 -42 -9 -40 45 -18 -20 -36 -35 -41 56 53 -53 -2 -46 58 -1 -23 -52 -37 -58
right_child=2 7 3 11 5 19 -8 10 28 14 26 15 29 17 -16 23 38 -19 33 -21 -22 36 -24 -25 -26 -27 27 -29 30 -31 -32 -33 -34 35 47 59 37 -39 39 49 41 -43 -44 -45 54 -47 -48 -49 -50 -51 55 52 -54 -55 -56 -57 60 -59 -60 -61 -62
leaf_value=-0.60105325966704015 -0.34795107438914064 -0.407211471736113 -0.51795228459566711 -0.47143799859199098 -0.46756446369920229 -0.49781669219294039 -0.54500736032866237 -0.29794871525807565 -0.43935627316811837 -0.4997502716905462 -0.46695148800317382 -0.45468356974749768 -0.62512873021663551 -0.42026312519671905 -0.53312987940734347 -0.55345050792518058 -0.44351847657196719 -0.48687695765097883 -0.47297222089358681 -0.42851103539147822 -0.49919592786157485 -0.70211506369439947 -0.52522381694777143 -0.44732583770716133 -0.39617541569875059 -0.35837395064367816 -0.53380036120945951 -0.60734590537316935 -0.55029363776370199 -0.54495897530777637 -0.64441847102549288 -0.62407344176649526 -0.55929201436341502 -0.59426136997184831 -0.31355486401568233 -0.68689898140215355 -0.68427758358428981 -0.51732975425537453 -0.47312053572250967 -0.31153079708109299 -0.62117086052314086 -0.40192108008043859 -0.45690215976996251 -0.66576598939401688 -0.34812137339520322 -0.6508389287962999 -0.64430013810817965 -0.5294086393494748 -0.66694350448173301 -0.49966034846138585 -0.70553804199041614 -0.6338849624128311 -0.37139473273407858 -0.5422761933732575 -0.5422761933732575 -0.45551124733228998 -0.67125701824797113 -0.67414636081946688 -0.58907347635152552 -0.60006698984494622 -0.70553804199041625
leaf_weight=8.2753191143274289 31.433986499905583 1519.2976768612862 194.51378385722637 1522.4543717801571 5818.4710207432508 970.7003862708807 2988.2449548393488 99.279788330197334 103.29673764109612 14055.306444346905 60.883710131049156 2594.7502039074898 1025.8404555022717 3874.7257327884436 11899.839466407895 1099.5136967897415 29.039340063929558 2242.8618151992559 14.127831280231474 6942.0784871578217 674.64575573801994 454.68031485378742 2911.6526611447334 331.50968581438065 9594.4138576537371 297.87508146464825 1531.5508067160845 959.8151046037674 290.73166827857494 416.76364114880562 679.04527679085732 1105.9527700692415 191.55730752646923 486.41616234183311 33.528486594557762 157.72215029597282 105.73980765044689 64.317193329334259 76.636590600013733 54.423349320888519 20.497186258435249 82.586632892489433 31.297993585467339 17.392009913921356 14.998736634850504 56.906255275011063 64.949424505233765 7.8546332716941825 62.729233771562576 7.5596380680799475 6.9644965231418619 7.2402603328227997 6.2103526890277845 6.3552747219800976 6.355274721980094 5.5331344306468955 5.0444521307945243 132.21004557609558 4.4544617235660562 4.9187614917755118 964.35061857104301
leaf_count=32 88 4633 684 5055 19224 3331 10849 257 329 48346 201 8432 4071 12029 42607 4031 93 7593 47 21793 2319 1952 10328 1067 28811 847 5488 3737 1062 1513 2750 4384 707 1867 89 667 446 226 255 144 81 250 102 72 42 232 263 28 260 26 30 29 18 23 23 18 21 552 17 19 4154
internal_value=-0.547711 -0.526208 -0.46131 -0.457384 -0.442265 -0.466947 -0.493842 -0.518915 -0.512477 -0.508853 -0.567572 -0.505744 -0.530129 -0.416321 -0.515054 -0.472601 -0.618226 -0.444685 -0.659155 -0.437013 -0.435497 -0.662316 -0.506756 -0.528866 -0.398595 -0.444766 -0.579276 -0.562134 -0.593136 -0.601968 -0.616201 -0.615875 -0.517275 -0.607255 -0.524657 -0.621234 -0.679037 -0.621136 -0.482901 -0.439513 -0.384342 -0.445517 -0.336048 -0.508753 -0.545985 -0.580789 -0.613691 -0.354525 -0.602564 -0.334476 -0.702582 -0.415297 -0.512689 -0.380632 -0.405905 -0.593327 -0.704477 -0.695814 -0.660106 -0.684273 -0.70536
internal_weight=0 35132.5 43897.9 42826.4 32626 16719.5 8806.72 33305.6 29413.7 28149.1 3891.86 10200.4 5876.71 15906.5 25955.1 4323.65 1071.5 6117.59 1826.87 7912.78 2193.94 808.187 4434.11 1431.02 9788.93 2892.63 3658.2 2491.37 1264.63 1442.6 969.777 1166.84 294.854 832.247 120.46 711.786 756.947 170.057 263.311 156.012 233.662 103.084 130.578 94.0286 107.3 85.9456 79.0773 41.3831 549.145 61.983 994.622 51.2399 13.4506 37.7893 21.354 16.9521 977.67 586.89 11.419 162.641 969.395
internal_count=268644 124765 143879 139658 104314 55197 30073 117253 102753 97905 14500 35344 20967 49117 90953 14377 4221 19622 7512 25124 6952 3334 15383 5098 29495 9279 13810 9225 4848 5584 3812 4585 1036 3240 427 2813 3176 672 887 497 690 331 359 327 390 325 310 117 2127 170 4272 158 47 111 65 65 4207 2504 47 686 4175
is_linear=0
shrinkage=1


Tree=1
num_leaves=63
num_cat=0
split_feature=52 53 31 127 91 37 104 100 136 70 102 4 111 103 30 102 48 113 31 103 97 70 31 136 69 134 76 102 134 69 30 30 134 124 52 29 103 124 102 132 136 135 100 135 28 111 102 108 118 110 105 81 30 43 120 40 31 113 81 75 75 106
split_gain=6406.22 2690.67 2467.35 2508.68 1518.11 1171.58 1033.65 882.011 759.458 728.505 957.783 693.018 675.126 656.858 619.447 741.024 585.592 542.245 508.273 427.975 370.507 351.344 307.174 344.568 282.579 343.292 238.001 220.445 217.398 235.624 215.556 173.431 173.38 390.625 173.258 166.851 124.783 101.675 101.149 100.463 93.4943 92.3696 88.2061 144.291 70.1596 66.7211 64.2356 56.917 50.9387 31.3207 30.926 26.3295 23.7399 22.7842 15.2712 14.092 11.9713 11.8975 11.6211 5.84335 3.17133 0.523708
threshold=1.0586217641830447 0.78711462020874035 1.0011254549026491 -3.2671855688095088 -1.0454396605491636 0.94162908196449291 -0.83902132511138905 -0.95502313971519459 1.0000000180025095e-35 -0.27119363844394678 -0.82011353969573964 0.73311924934387218 -1.259516656398773 -0.8098432421684264 1.0967776179313662 -0.86704063415527333 1.2344319224357607 -1.005008280277252 0.99745860695838939 -0.80247959494590748 -0.98795071244239796 -0.25961832702159876 1.0064201354980471 1.0000000180025095e-35 -0.079868569970130907 1.0000000180025095e-35 -1.2794823646545408 -0.84489041566848744 1.0000000180025095e-35 -0.09500591084361075 1.0993285179138186 1.1060367822647097 1.0000000180025095e-35 -1.5166670083999632 1.019014358520508 1.2117397189140322 -0.79902902245521534 -2.4763455390930171 -0.96278110146522511 1.0000000180025095e-35 1.0000000180025095e-35 1.0000000180025095e-35 -0.9628358483314513 1.0000000180025095e-35 1.3926447033882143 -0.96320819854736317 -0.95615792274475087 -1.0148792266845701 -1.1223336458206175 -1.2006762623786924 -0.80012813210487355 -1.1330102682113645 1.0804353356361391 0.72536447644233715 -0.93026405572891224 1.0674149394035342 0.91735807061195385 -0.92728576064109791 -1.1593210101127622 -1.0732058882713316 -0.88881295919418324 -0.916986584663391
decision_type=2 2 2 2 2 2 2 2 2 2 2 2 2 2 2 2 2 2 2 2 2 2 2 2 2 2 2 2 2 2 2 2 2 2 2 2 2 2 2 2 2 2 2 2 2 2 2 2 2 2 2 2 2 2 2 2 2 2 2 2 2 2
left_child=1 20 3 12 18 6 -6 11 14 10 22 31 49 28 15 -9 37 48 26 -20 53 -7 23 -4 25 -15 -5 -24 29 -11 39 40 41 -34 -19 -16 -26 -14 -33 -13 -3 -12 43 51 52 -30 -32 -18 -10 55 -51 -22 -44 57 59 -2 -45 58 -1 -55 -46 -59
right_child=2 7 9 4 5 21 -8 8 17 13 32 30 16 24 35 -17 47 34 19 -21 42 -23 27 -25 36 -27 -28 -29 45 -31 46 38 33 -35 -36 -37 -38 -39 -40 -41 -42 -43 44 56 60 -47 -48 -49 -50 50 -52 -53 -54 54 -56 -57 -58 61 -60 -61 -62 -63
leaf_value=0.052535242452974945 0.18980731218749702 0.12622714139762473 0.068017853096635411 0.035296589596602396 0.079634114770657016 0.046433320482203902 0.0098195073564383804 0.042444438401483431 0.22271465033135929 0.06056490601432029 -0.09161605530767078 0.057417198954627519 -0.13877827792499117 -0.025862252140241633 -0.015770007514234918 0.0060495773392820751 -0.0039407882543075435 -0.07541185742647058 0.11517231212575318 0.056301235412291185 0.02639646424902875 0.10066023307479728 0.033404302866588347 -0.024622519251724762 0.10526857963421091 0.12625886174798739 0.13064932183619352 -0.026949792266356638 0.13231790410373509 0.12438110104193899 -0.018191251632699454 0.14421516279746824 -0.11067241476265535 0.085565498133927609 -0.02274876895488015 -0.09503288724697502 0.037586001843315599 -0.069511962032982919 -0.063033786104249853 -0.04453311252113587 0.049368637881795172 0.17009791707591962 -0.042831473654089736 0.20815517480339013 -0.13007619190873632 0.23264334851322596 -0.11414954954445072 0.090036174997627186 0.10609679327520601 0.21408398761077352 -0.021587180674448241 -0.09928599075821995 -0.11144411472598825 -0.1507131558472867 0.094112922680370317 0.12542210965062606 0.067447695856539952 -0.117072600299579 -0.13292448414583022 -0.011121470244272118 -0.047852757462206644 -0.14924837532093638
leaf_weight=5.7775146365165702 76.546852648258209 1600.4672195017338 2461.3415297269821 268.7890463322401 4323.2232389450073 1353.1791668832302 4162.6276109069586 13172.881894037127 60.003609269857407 1360.0695040524006 906.83655899763107 486.9855717420578 565.83838360011578 1144.6954563260078 604.92565469443798 9724.1002910137177 104.14212715625763 913.04631593823433 2812.6968813985586 2201.2629729807377 25.738923013210297 10209.882415145636 1279.0231027752161 479.74518838524818 415.06934140622616 170.43716169893742 10017.054712548852 1148.7005778551102 130.73300035297871 1006.9123764187098 132.07659865915775 32.419527664780617 196.34317994117737 209.85233688354492 1978.2483998835087 473.41816633939743 792.46036152541637 338.81277154386044 86.067598178982735 120.59099134802818 175.64016902446747 13.689337998628615 478.65897406637669 32.289107874035835 145.27693013846874 134.47534830868244 147.85539124906063 169.07609115540981 99.675468310713768 7.737690374255183 19.858825922012329 47.298933297395706 56.366255685687065 8.0298923403024673 6.0561684966087332 61.150522738695145 7.439712092280387 5.0862582474946967 8.1375432759523374 4.7861599326133737 4.8473560810089102 930.74797803163528
leaf_count=20 207 4763 8118 921 13897 4571 14702 44718 147 4502 3716 1625 2519 4259 2247 34955 377 3709 8497 7271 93 31439 4440 1781 1285 507 29212 4288 378 3021 490 97 805 686 7443 1957 2726 1346 338 454 604 40 1862 81 640 340 621 536 300 20 73 197 242 36 19 184 24 22 35 18 19 4204
internal_value=0 0.0159323 0.0737995 0.0866121 0.0917091 0.0736056 0.0453874 0.0230388 0.0175197 0.0341284 0.0123731 0.0766523 -0.0475284 0.062386 0.0234997 0.0269879 -0.0740872 -0.029472 0.115432 0.0893263 -0.103981 0.0943143 0.0311746 0.0529065 0.0259226 -0.00614782 0.128158 0.00484719 0.097332 0.0877123 0.00373043 0.110812 -0.0637104 -0.00929024 -0.0393793 -0.0505683 0.0608508 -0.112836 -0.00632794 0.0371822 0.118627 -0.0877241 -0.0535221 0.0284324 -0.0670108 0.183188 -0.0688748 0.0542151 0.149919 0.141727 0.0444918 -0.0549948 -0.05006 -0.145547 -0.0367459 0.161214 0.181806 -0.147709 -0.0559218 -0.0985826 -0.127421 -0.149074
internal_weight=0 31574.9 48542.3 36691.9 35348.7 20048.9 8485.85 29808.4 27026.3 11850.4 6695.53 2782.1 1343.16 5154.85 23975.3 22897 1177.87 3050.97 15299.8 5013.96 1766.54 11563.1 5368.81 2941.09 2522.66 1315.13 10285.8 2427.72 2632.19 2366.98 887.509 1894.59 1326.72 406.196 2891.29 1078.34 1207.53 904.651 118.487 607.577 1776.11 920.526 797.916 112.767 685.15 265.208 279.932 273.218 159.679 165.294 27.5965 73.0379 535.025 968.622 18.8722 137.697 39.7288 949.749 13.9151 12.8161 150.124 935.834
internal_count=268644 111980 156664 115772 110510 64609 28599 104468 95476 40892 23874 8992 5262 17018 83877 79673 4778 11599 45901 15768 7512 36010 18627 9899 8777 4766 30133 8728 8241 7523 3190 5802 5247 1491 11152 4204 4011 3865 435 2079 5367 3756 3158 395 2763 718 1111 913 447 484 93 290 2104 4354 73 391 105 4281 55 54 659 4226
is_linear=0
shrinkage=0.1


Tree=2
num_leaves=63
num_cat=0
split_feature=53 31 53 127 91 37 103 100 135 39 4 71 103 102 68 103 31 47 52 103 72 106 97 134 69 102 69 30 30 112 45 53 105 134 55 134 53 132 113 136 102 70 100 135 19 124 39 34 116 76 30 46 114 30 96 76 75 102 37 74 106 96
split_gain=5151.54 2555.46 1991.49 1934.27 1224.02 1021.18 1063.67 779.029 816.913 702.4 614.984 609.201 1006.67 664.668 705.582 565.048 473.67 459.658 414.071 841.622 353.124 352.957 338.199 301.28 292.125 274.841 269.197 265.606 246.191 230.922 228.69 220.108 183.228 182.02 151.807 122.986 105.965 104.985 101.348 100.349 90.0876 81.8322 71.6862 120.785 66.1181 61.7881 56.8664 87.2044 40.7268 32.2906 31.5806 27.9466 25.7022 22.2825 18.7382 15.6561 14.4475 6.94415 6.53744 5.49668 0.666501 0.0300797
threshold=1.0190750360488894 1.0011254549026491 0.78711462020874035 -3.3072551488876338 -1.046818673610687 0.93999940156936657 -0.83158704638481129 -0.9506964087486266 1.0000000180025095e-35 0.87717729806900036 0.72533592581748974 -0.44556166231632227 -0.86056354641914357 -0.82011353969573964 -0.021098483353853222 -0.8098432421684264 0.99556258320808422 1.2359969615936282 1.0202393531799319 -0.88171279430389393 -0.65831747651100148 -0.90632876753807057 -0.98581248521804798 1.0000000180025095e-35 -0.079868569970130907 -0.79490095376968373 -0.096078105270862565 1.0993285179138186 1.09797739982605 -1.3150163292884824 0.93908220529556286 1.0599886775016787 -0.90773886442184437 1.0000000180025095e-35 1.009912431240082 1.0000000180025095e-35 1.0695983171463015 1.0000000180025095e-35 -0.99529433250427235 1.0000000180025095e-35 -0.95615792274475087 -0.29024620354175562 -0.9628358483314513 1.0000000180025095e-35 1.7559859156608584 -2.4763455390930171 1.0229083299636843 0.83826196193695079 -1.4815970659255979 -1.1345980167388914 1.0804353356361391 0.75725543498992931 -1.0407546758651731 1.0818566679954531 -1.0198205709457395 -1.1208247542381284 -0.42375178635120386 -0.94347199797630299 0.5958402454853059 -0.99719417095184315 -0.93207481503486622 -1.0041002631187437
decision_type=2 2 2 2 2 2 2 2 2 2 2 2 2 2 2 2 2 2 2 2 2 2 2 2 2 2 2 2 2 2 2 2 2 2 2 2 2 2 2 2 2 2 2 2 2 2 2 2 2 2 2 2 2 2 2 2 2 2 2 2 2 2
left_child=2 3 22 17 16 6 -6 10 18 30 35 12 27 14 -14 23 31 29 20 -20 -9 -7 51 26 33 -18 -13 34 37 56 -10 -5 -11 -17 -3 39 -26 -12 -25 -4 -30 -15 43 52 50 -31 48 -48 -19 -29 -44 60 -24 55 -37 -53 -2 -55 -46 -45 -1 -62
right_child=1 11 7 4 5 21 -8 8 9 32 28 15 13 41 -16 24 25 46 19 -21 -22 -23 42 38 36 -27 -28 49 40 45 -32 -33 -34 -35 -36 54 -38 -39 -40 -41 -42 -43 44 59 58 -47 47 -49 -50 -51 -52 53 -54 57 -56 -57 -58 -59 -60 -61 61 -63
leaf_value=-0.10083749791946919 -0.026543375243248676 0.088905008240133504 0.10339140100819209 0.089097832232410662 0.079095454358221337 0.10489180582018001 0.011148693900585097 -0.037232268756354096 -0.0038152006005738714 0.14703043419311287 0.048420781024615084 0.044155453055142443 -0.031508447811136049 -0.10048111580425892 0.035426705988838007 -0.029040841391931266 0.092884486136697059 0.085965927642548429 0.082411250169632272 -0.0079838300215692264 0.012887848110618681 0.069664464284517238 0.070850184960882842 0.10425721368387326 0.016730968839134639 0.053046201367593165 0.10583095293553924 -0.15665066197291103 0.0024204350918412641 -0.13284289574567185 0.040513845493953364 0.12364565312894944 0.072168355312881946 0.068252151047681522 -0.070106654103730889 -0.15668669818039418 0.076547836084040866 -0.044711659570348082 0.19461361201677341 0.028752073940832675 -0.094056817266941359 -0.04741391036074441 -0.031984652984674233 0.11320053356240345 -0.12445229372606095 -0.062486993290425376 0.15521906545251424 0.0072420137292746505 -0.046084484418733689 0.10193284783107477 -0.10111844959248002 -0.094020604691496451 -0.079454420906479403 -0.05100396969301401 0.048446722440547957 0.081385532528570281 0.11993313868490835 -0.13246649191077148 -0.036006116476670534 0.19707806729432353 -0.14257779516253424 -0.14660210390494469
leaf_weight=3.8262220323085776 7.8888907283544532 1793.1341710984707 1830.5721078366041 2551.8220144510269 3853.2903560698032 4334.7573150992393 5729.9830866456032 5162.6374847441912 2356.8381521999836 495.64152306318283 813.50492414832115 1945.0579503923655 2646.5919043123722 576.79194378852844 3888.9707242399454 1197.7198939174414 5882.516267105937 34.017766937613487 1326.1901618093252 4611.353893071413 1931.719158962369 8271.4214306473732 14.237163364887236 242.26883488893509 489.22173623740673 2454.2190075218678 1112.4467899799347 53.034962818026543 154.93836548924446 534.02234382927418 2299.0018314421177 6649.7842417806387 960.54032038152218 229.0658318400383 62.118956565856934 22.25440883636475 750.42997850477695 142.19580380618572 254.58137628436089 199.78443241119385 257.87643454968929 585.61162354052067 420.73874323070049 11.067528173327444 138.30201297998428 162.90370550751686 88.92838317155838 72.122923359274864 74.521859213709831 5.3129651248455039 78.385399043560028 8.7200485467910784 56.630360245704651 13.873580932617186 5.5669414699077597 12.21875651180744 45.987823128700256 42.580309376120567 8.8944423943757993 26.56753109395504 845.25168436765671 18.990668326616287
leaf_count=17 27 5672 5459 7818 12164 12851 20004 19453 8409 1452 2680 6540 9842 2415 13388 4527 17852 105 4239 16774 6791 25868 47 726 1688 7902 3282 226 562 2504 7744 18671 3125 724 239 90 2382 541 663 702 1082 2329 1646 31 625 672 243 254 285 17 351 37 239 57 18 41 131 198 35 64 4036 88
internal_value=0 0.0619397 0.00686708 0.0751868 0.0786785 0.0630734 0.0384691 0.0147291 0.00686904 0.0370327 0.0586411 0.0278454 0.0120644 -0.00407113 0.00832115 0.0522281 0.0984221 -0.0607595 -0.00727785 0.0122065 -0.0235851 0.0817777 -0.0974986 0.0783319 0.0174316 0.0811566 0.0665956 0.0769739 0.00668806 -0.100978 0.018074 0.114065 0.0976492 -0.0134208 0.0835809 0.0931855 0.0529414 0.0345639 0.150555 0.096047 -0.0578468 -0.0737462 -0.0475843 0.0276298 -0.0602111 -0.116397 0.0512471 0.0889511 -0.00469812 -0.133105 -0.0428418 -0.137348 -0.0492585 -0.0797686 -0.11564 0.00833695 0.0984853 -0.112447 -0.119108 0.172412 -0.142482 -0.142666
internal_weight=0 56580.5 24270.9 40748.2 39727.8 22189.5 9583.27 22570.6 19143.9 6112.02 3426.69 15832.4 9611.57 7697.97 6535.56 6220.79 17538.3 1020.39 13031.9 5937.54 7094.36 12606.2 1700.28 3554.35 2666.44 8336.74 3057.5 1913.6 1368.52 750.803 4655.84 9201.61 1456.18 1426.79 1855.25 2058.18 1239.65 955.701 496.85 2030.36 412.815 1162.4 754.823 108.503 646.321 696.926 269.591 161.051 108.54 58.3479 499.124 945.461 70.8675 77.3927 27.8214 20.9388 53.8767 56.4539 147.196 37.6351 868.069 864.242
internal_count=268644 182011 86633 127351 123130 70887 32168 79121 67987 20730 11134 54660 34128 27974 23230 20532 52243 4221 47257 21013 26244 38719 7512 11211 9321 25754 9822 6154 4865 3334 16153 26489 4577 5251 5911 6269 4070 3221 1389 6161 1644 4744 3038 381 2657 3176 887 497 390 243 1997 4474 286 333 108 78 158 255 660 95 4141 4124
is_linear=0
shrinkage=0.1


Tree=3
num_leaves=60
num_cat=0
split_feature=52 45 126 31 91 136 37 106 102 71 102 113 70 102 103 77 47 69 69 101 105 31 112 44 135 31 52 134 32 101 135 57 100 29 70 31 21 124 68 114 39 107 115 122 2 42 115 18 74 85 33 57 39 47 37 114 113 91 30
split_gain=4191.1 1970.16 1406.57 1432.43 1184.84 714.707 685.682 723.075 593.23 939.989 983.266 527.666 460.806 684.629 547.311 400.132 380.04 308.855 291.269 994.228 267.451 236.328 224.454 223.926 214.355 202.318 184.882 178.771 161.328 148.972 152.266 145.386 135.201 104.866 98.1736 94.2124 61.0065 59.0549 93.085 55.8259 49.1439 64.2784 44.1499 39.1073 49.0887 37.2869 50.9031 29.2174 15.4648 17.0269 13.9803 13.3575 10.6945 9.80489 8.27355 7.1538 1.50586 7.97474 0.678176
threshold=1.0676209330558779 0.79718458652496349 -2.9905275106430049 0.99982583522796642 -1.0178725123405454 1.0000000180025095e-35 0.95352885127067577 -0.89970490336418141 -0.81251987814903248 -0.46296976506710047 -0.85565054416656483 -1.0038574337959287 -0.27119363844394678 -0.81956142187118519 -0.80116176605224598 -1.1607537865638731 1.2359969615936282 -0.061740955337882035 -0.032518761232495301 -0.78142976760864247 -0.85457828640937794 1.0053644180297854 -1.3150163292884824 1.0723958015441897 1.0000000180025095e-35 1.0035231709480288 1.0279979705810549 1.0000000180025095e-35 0.96252846717834484 -0.95828926563262928 1.0000000180025095e-35 0.89535248279571544 -0.77664265036582936 1.2414865493774416 -0.29286797344684595 0.94536620378494274 1.4001320004463198 -2.4763455390930171 0.23051618039608004 -1.0407546758651731 1.0229083299636843 -0.92796701192855824 -1.4227190613746641 -1.3291264176368711 0.55156031250953685 1.1325414776802065 -1.4395602941513059 1.7219123840332033 -0.41315200924873346 -0.12361126765608786 0.82407876849174511 0.86287730932235729 1.010140657424927 0.82490062713623058 0.93531844019889843 -0.93963664770126332 -0.91518419981002797 -1.1084650158882139 1.0744248628616335
decision_type=2 2 2 2 2 2 2 2 2 2 2 2 2 2 2 2 2 2 2 2 2 2 2 2 2 2 2 2 2 2 2 2 2 2 2 2 2 2 2 2 2 2 2 2 2 2 2 2 2 2 2 2 2 2 2 2 2 2 2
left_child=1 15 16 4 18 8 7 -6 9 10 -3 43 13 21 27 53 22 -16 19 -4 -8 -5 48 36 -25 26 -13 -14 -11 30 39 -15 -20 47 -27 -32 -10 54 -39 -17 45 42 -42 51 -45 52 -47 -31 -2 -50 -43 -7 -18 56 -24 -35 57 -1 -58
right_child=2 5 3 12 6 11 20 -9 23 28 -12 25 14 31 17 29 40 -19 32 -21 -22 -23 37 24 -26 34 -28 -29 -30 33 35 -33 -34 55 -36 -37 -38 38 -40 -41 41 50 -44 44 -46 46 -48 -49 49 -51 -52 -53 -54 -55 -56 -57 58 -59 -60
leaf_value=-0.011186757415341649 -0.0219607179805212 0.034867653815342535 0.098164158603742752 0.055507252171202531 0.060900406037019031 0.19806843201710556 0.11331435563077315 0.0064627824548216363 -0.057332671931159422 0.094547018271110228 -0.010517969235951476 -0.043373692681212252 0.066954681339976993 0.031084385453454773 -0.014275473563517686 0.068664070262954222 0.058923146336839698 0.063589229998557137 0.14583148131284149 0.0022521127285194966 0.068973345482704326 0.0074302380962305865 -0.13394023860713736 -0.010700975837330935 0.15908623696103999 -0.08355270222734551 0.010243044673203316 0.13383681240393711 0.01936128134630774 -0.034536791381840119 0.16918003107656215 -0.064165008207855853 0.10243649400922128 -0.092932754927446903 -0.023361870341963038 -0.12645545678456421 -0.14092491504269639 -0.080459009362995854 0.19407289107769782 -0.073177992286006327 0.060896924615919813 0.1742169429342989 -0.12194326799531996 0.04491717980242959 0.14947759439005018 0.086672248208483016 -0.081728461353695589 -0.12383535569483671 0.15733120687595514 0.032394705904433378 0.026219187702474729 0.056510923051934572 0.21044653358090579 -0.019497424342187861 -0.10359749920172544 -0.12923637929235451 -0.13702043696134991 -0.16115426225855389 -0.15971018591901293
leaf_weight=5.6301694661378852 9.7303934991359693 19901.933246791363 10849.328000470996 2148.8215775191784 6719.5963417291641 65.270596414804459 1969.3890267312527 3831.0920126885176 708.75310097634792 2407.2560159862041 6279.6450274139643 1106.5480634272099 3581.5168058723211 187.04752472043037 1464.255149140954 37.376077011227608 11.446684241294863 781.19583055377007 1430.3022098839283 1200.3640440553427 4398.2403004914522 1950.5491664409637 391.26563200354576 1034.0088030993938 80.118914693593979 757.55697739124298 1535.6205133348703 449.84342877566814 323.77563342452049 563.39953535795212 78.299994796514511 1118.5311753451824 1441.5892276018858 80.078873738646507 421.88664416968822 12.500299796462057 99.571487963199615 148.4409217685461 13.471650153398512 107.71124087274075 72.071364969015121 58.486483797430992 16.16934922337532 90.69589376449585 88.921802952885628 25.256827369332314 62.04216393828392 39.188372120261192 32.970106542110443 16.301795616745949 7.1646366119384757 7.4240989089012137 7.8540910333394995 7.187360778450965 116.65607322752476 168.47957508265972 788.49342738091946 9.5781568437814695 13.396764054894446
leaf_count=20 33 66817 31139 6879 21114 155 5571 13330 2704 7522 22709 4451 11160 671 5296 123 37 2465 3809 3949 13327 6897 1957 3705 227 3121 5351 1210 1120 2219 209 4552 4078 363 1583 54 417 638 40 454 229 144 69 287 242 76 251 179 85 52 24 23 21 26 560 806 3995 41 58
internal_value=0 0.0156153 0.0612206 0.0639008 0.0748897 0.0210279 0.0567732 0.0411334 0.0262288 0.0298054 0.0239819 -0.0183372 0.0339495 0.0125463 0.0523797 -0.0832421 -0.0566835 0.0128138 0.0954304 0.0886096 0.0826872 0.0326314 -0.0937368 -0.0275616 0.00150873 -0.0275846 -0.0122118 0.0744178 0.0856334 -0.043399 0.0269211 -0.0505188 0.124049 -0.0628876 -0.0620225 0.12848 -0.0676298 -0.110207 -0.0576171 -0.0366379 0.0469887 0.0831387 0.027393 0.121727 0.096681 -0.00519892 -0.0330078 -0.0403442 0.0932444 0.115995 0.158066 0.183612 0.120583 -0.135785 -0.126971 -0.11754 -0.136808 -0.105636 -0.1374
internal_weight=0 36820.3 44511 43521.7 31839.9 34909 16918.3 10550.7 30835.1 28912.6 26181.6 4073.92 11681.8 5404.95 6276.81 1911.32 989.328 2245.45 14921.6 12049.7 6367.63 4099.37 728.837 1922.45 1114.13 3821.61 2642.17 4031.36 2731.03 1087.03 235.888 1305.58 2871.89 851.146 1179.44 90.8003 808.325 669.834 161.913 145.087 260.492 153.892 88.2407 252.312 179.618 106.6 87.299 602.588 59.0023 49.2719 65.6511 72.6947 19.3008 824.286 507.922 248.558 817.099 15.2083 801.89
internal_count=268644 128981 139663 135447 96317 120434 53342 34444 105221 98168 89526 15213 39130 18999 20131 8547 4216 7761 42975 35088 18898 13776 3365 7053 3932 14506 9802 12370 8642 4407 840 5223 7887 3567 4704 263 3121 3195 678 577 851 466 298 707 529 385 327 2398 170 137 168 178 58 4140 2517 1169 4114 61 4053
is_linear=0
shrinkage=0.1


Tree=4
num_leaves=53
num_cat=0
split_feature=53 31 6 127 83 31 106 70 100 36 135 45 103 70 134 111 102 4 103 48 129 72 102 68 96 105 29 69 30 30 53 132 99 30 30 105 100 134 134 108 128 29 108 105 110 105 40 28 75 0 53 40
split_gain=3510.37 1742.95 1420.25 1234.62 712.482 634.024 618.385 655.066 611.962 597.592 554.904 621.112 441.361 745.991 507.012 436.967 428.529 421.44 406.324 381.793 368.914 363.977 309.143 298.726 286.146 281.534 246.989 233.909 216.106 167.852 114.311 113.484 111.494 99.4545 98.843 84.1914 71.817 62.8779 56.1218 52.1514 48.7005 43.2682 41.756 27.6819 21.8402 21.452 10.4646 2.35646 0.79621 0.495298 0.136556 0.00947359
threshold=1.0183514356613161 1.002509653568268 0.93964579701423656 -3.2671855688095088 -1.2094303369522093 0.99793416261672985 -0.90351617336273182 -0.27681338787078852 -0.95848530530929554 0.85226187109947216 1.0000000180025095e-35 0.93908220529556286 -0.86377471685409535 -0.29462647438049311 1.0000000180025095e-35 -1.259516656398773 -0.80005162954330433 0.73787295818328869 -0.82887747883796681 1.2344319224357607 1.0000000180025095e-35 -0.6494590938091277 -0.8265886902809142 -0.028888075612485405 -0.9057289958000182 -0.90708732604980458 1.2300843596458437 -0.015282529406249521 1.0993285179138186 1.0907389521598818 1.0789350867271426 1.0000000180025095e-35 -0.95737648010253895 1.0907389521598818 1.1060367822647097 -0.81310424208641041 -0.97282767295837391 1.0000000180025095e-35 1.0000000180025095e-35 -0.90299302339553822 1.0000000180025095e-35 1.16483610868454 -1.0148792266845701 -0.91275158524513234 -1.2006762623786924 -0.80012813210487355 1.0674149394035342 1.2667762041091921 -1.0404904484748838 0.16070615500211718 0.78711462020874035 0.89592954516410839
decision_type=2 2 2 2 2 2 2 2 2 2 2 2 2 2 2 2 2 2 2 2 2 2 2 2 2 2 2 2 2 2 2 2 2 2 2 2 2 2 2 2 2 2 2 2 2 2 2 2 2 2 2 2
left_child=2 3 8 15 5 27 9 -8 17 -6 20 26 28 18 22 44 -7 34 23 35 21 -10 -15 -14 -16 -13 -12 -5 30 31 32 -19 -3 -22 38 -17 -36 -20 -1 -32 -31 47 -21 -30 46 -46 -2 48 49 -4 -50 -45
right_child=1 12 41 4 6 16 7 -9 10 -11 11 25 13 14 24 19 -18 29 37 42 33 -23 -24 -25 -26 -27 -28 -29 43 40 39 -33 -34 -35 36 -37 -38 -39 -40 -41 -42 -43 -44 51 45 -47 -48 -49 50 -51 -52 -53
leaf_value=0.097162073098467749 0.14960953880395134 0.15011091871807117 -0.091475634682874618 0.081516705689529512 -0.013215238659777653 0.066977086836218544 -0.014975093808086671 0.045524262087151268 -0.022852680118992705 0.070247400408424462 0.0044765925825728725 0.097822309520517972 -0.033770882290687636 0.051590695419158943 0.15279596717099969 0.13764090125142314 0.018755645904200979 0.085103687067856745 -0.09265382493768945 -0.010429673350103218 0.083271375664638922 0.014435575753967167 0.0037162342116499 0.023878833704007184 0.033549387929746953 0.036706734328394712 -0.076817516665364904 0.11889753323118774 0.058038702588014572 -0.05095536419002239 0.027912760017668077 -0.029397907093782812 0.067525016041808245 -0.015773574472832598 0.08072685690808315 -0.10132553356192597 -0.086687699468994239 -0.034420089154173876 -0.10765002364063576 -0.15793090818829325 0.16713609248668304 0.070163470263465866 0.06962025426235724 -0.15004442111874777 0.16684263980471001 -0.026661987958846146 0.095238960096365344 -0.055238931944600403 -0.14588466231544223 -0.13233058984732257 -0.16377877666557697 -0.1534934922881124
leaf_weight=1401.4828472435474 79.697904393076897 185.77434059977531 2.9796552658081046 12759.232624188066 934.6252376139164 6097.2585048824549 2521.5799772292376 6166.3002742081881 9330.8794723004103 10445.836753249168 2947.5804853290319 1023.5746944695711 1819.8157189786434 2120.4794394224882 496.48203562200069 15.022717058658598 2641.1859349310398 254.59585934877396 732.47171752154827 105.03823861479759 532.07482652366161 3638.5532344132662 3706.421076208353 1776.0464599132538 338.38309465348721 2859.3327438831329 427.99730990827084 1926.7636314481497 7.1202327758073798 404.79832568764687 30.951704889535904 131.1465776860714 1361.6276923269033 125.24621020257473 49.229981288313866 792.58958522975445 53.436931997537613 248.26110796630383 13.50784821808338 29.483028054237366 10.504667803645132 10.693096876144407 171.64658755064011 9.9629130214452726 8.0362007468938845 19.955744907259941 63.687653869390488 3.9365687370300284 23.578194916248325 721.75348138809204 5.2064349353313437 39.684268057346344
leaf_count=4061 207 506 13 36993 3260 18844 8969 19516 34618 31666 10265 3074 6824 6932 1347 45 8748 797 2990 377 1673 12706 12996 6179 1114 9395 1868 5202 24 1604 104 515 4266 456 151 3820 216 959 52 127 30 37 536 45 20 73 184 18 111 3914 22 175
internal_value=0 0.0497245 0.00419153 0.0590612 0.0618836 0.0737303 0.0480556 0.0279649 0.00862018 0.063393 0.00320909 0.0255429 0.0173442 0.0102262 0.0315808 -0.0386959 0.0524022 0.0573594 -0.0208579 -0.0621483 -0.00868732 -0.0123915 0.0211383 -0.00529688 0.104464 0.0528174 -0.00583088 0.086421 0.0654002 -0.00132243 0.0721705 0.0461749 0.0774399 0.0643993 0.0883326 -0.0968804 -0.00641047 -0.0779126 0.0952069 -0.0627509 -0.045439 -0.129587 0.0392308 -0.126356 0.109687 0.0288912 0.12546 -0.132407 -0.13281 -0.132163 -0.149121 -0.152801
internal_weight=0 57651.4 23972.1 44748.5 43492.8 23424.4 20068.3 8687.88 23203.9 11380.5 20885.2 7258.49 12903 11238.4 6661.77 1255.67 8738.44 2318.7 4576.6 1084.3 13626.8 12969.4 5826.9 3595.86 834.865 3882.91 3375.58 14686 1664.6 801.045 1607.84 385.742 1547.4 657.321 1517.66 807.612 102.667 980.733 1414.99 60.4347 415.303 768.147 276.685 56.7674 171.378 27.9919 143.386 757.454 753.518 724.733 28.7846 49.6472
internal_count=268644 183048 85596 138460 133198 69787 63411 28485 81481 34926 74055 24602 44588 39341 22389 5262 27592 7426 16952 4778 49453 47324 19928 13003 2461 12469 12133 42195 5247 2946 5003 1312 4772 2129 4480 3865 367 3949 4113 231 1634 4115 913 244 484 93 391 4078 4060 3927 133 220
is_linear=0
shrinkage=0.1


Tree=5
num_leaves=63
num_cat=0
split_feature=37 53 102 52 31 70 103 32 103 101 71 102 68 32 135 4 105 102 102 70 108 103 70 97 59 133 56 102 31 70 83 48 134 68 31 60 104 69 4 112 50 36 69 29 100 135 133 130 119 2 73 102 11 43 118 77 113 81 99 1 101 107
split_gain=2887.53 1579.3 919.336 1244.35 1353.11 821.399 941.7 746.525 739.867 579.425 542.716 504.396 660.868 721.911 486.466 485.145 477.039 417.453 351.43 339.236 296.696 292.695 284.259 268.498 257.099 222.799 213.283 200.845 196.26 192.393 176.591 180.129 176.107 160.633 154.969 122.007 102.752 97.827 80.4909 59.3481 58.258 50.884 66.9812 48.5986 49.8595 64.208 46.196 39.7187 39.0297 34.2819 59.8651 37.0681 27.5374 19.3581 12.317 13.1858 9.11689 9.33195 7.18874 11.4492 6.06334 0.338634
threshold=0.93914055824279796 0.78711462020874035 -0.81006380915641774 1.0329897403717043 1.0010126233100893 -0.24406871199607846 -0.79385596513748158 0.96180790662765514 -0.8661842644214629 -0.93520683050155629 -0.47325778007507319 -0.79180213809013356 0.090855624526739134 0.96252846717834484 1.0000000180025095e-35 0.72533592581748974 -0.85357913374900807 -0.76440042257308949 -0.81898602843284596 -0.29194590449333185 -0.90126293897628773 -0.76779016852378834 -0.18733737617731092 -0.98795071244239796 0.81922990083694469 1.0000000180025095e-35 0.95749479532241832 -0.77998250722885121 0.99734240770339977 -0.2566229104995727 -1.1366128325462339 1.1275157928466799 1.0000000180025095e-35 0.038162495940923698 1.0007031559944155 0.77000808715820324 -0.817187339067459 -0.034645950421690934 0.41485373675823217 -1.0227956771850584 1.1499319076538088 0.93531554937362682 -0.066377956420183168 1.2500041127204897 -0.95502313971519459 1.0000000180025095e-35 1.0000000180025095e-35 1.0000000180025095e-35 -1.4505395293235777 0.49511551856994634 -0.82465609908103932 -0.80218017101287831 1.0960198640823366 0.72536447644233715 -0.91889697313308705 -1.1506018638610838 -0.92728576064109791 -1.162383437156677 -0.96742540597915638 0.72268104553222667 -0.90993189811706532 -0.90865647792816151
decision_type=2 2 2 2 2 2 2 2 2 2 2 2 2 2 2 2 2 2 2 2 2 2 2 2 2 2 2 2 2 2 2 2 2 2 2 2 2 2 2 2 2 2 2 2 2 2 2 2 2 2 2 2 2 2 2 2 2 2 2 2 2 2
left_child=1 23 3 9 19 6 7 24 -6 15 38 34 13 21 -11 -3 26 37 35 -5 -18 -13 -19 53 25 -2 -12 -15 30 -20 31 -8 -32 -26 41 -9 40 -14 46 -40 -36 48 -43 44 45 -25 -4 -38 -7 50 -30 -51 -46 56 -55 -56 57 -1 59 -45 -60 -58
right_child=5 2 10 4 8 11 28 18 -10 14 16 12 17 27 -16 -17 20 22 29 -21 -22 -23 -24 43 33 -27 -28 -29 49 -31 32 -33 -34 -35 36 -37 47 -39 39 -41 -42 42 -44 58 52 -47 -48 -49 -50 51 -52 -53 -54 54 55 -57 61 -59 60 -61 -62 -63
leaf_value=0.054661985360776037 0.089803853349214979 0.068954888754839225 -0.060736538985170188 0.055329598016941484 0.068197948847894499 -0.11156394278693481 -0.085251432736974664 0.049329134143555407 0.0030914962272953722 -0.015072712144941207 0.0074962029598339272 0.072030089985555754 0.089980695755885132 0.0044533218595174656 0.022438711550240339 -0.0006142354553430484 -0.046184387785256506 0.016656938395879149 -0.052369658953033429 0.095427022452536148 0.019044257454502927 -0.0070480162731606484 0.070544901855584929 -0.035099015089582124 -0.012463123326535673 -0.0061424384947964409 0.063711596817970853 -0.070438636323084891 0.14749851188121091 0.017141059977777078 0.02021197583922664 0.058359906387497301 -0.10383440995890909 0.060799392669113828 0.11435431984487901 -0.13233109588694467 0.063196391429448759 0.12846215986109341 -0.026404209098517619 -0.097593577854337227 0.031635471916087503 0.080078932001927172 0.12201024844880755 0.052054483650529351 -0.031439374295496432 0.11625323010011386 -0.14126433584625134 0.0058111017404977143 0.13382972049770064 0.017594836570536138 -0.072030327305165023 -0.13977712312625667 -0.091314992163885889 -0.13752792663813035 -0.062173019371231521 0.15216251400316747 -0.10229150664121954 -0.11684768822555869 -0.12059414924975508 -0.10518569118978016 -0.012320495113693557 -0.12840431914934994
leaf_weight=5.5353236347436905 3698.7565060853958 2476.4427673369646 95.098051011562347 10839.186205863953 2173.1044678241014 6.5223573744297019 108.57076948881149 1424.3136050254107 8869.234959602356 9488.2770889252424 1847.0083541274071 2387.6722341030836 1352.1372788101435 785.75299514830112 5438.9830231666565 1684.0497497320175 2395.4159070253372 1135.7141216397285 939.33984592556953 2619.9200424253941 983.68154686689377 582.18903215229511 7088.7098519206047 64.419607445597649 499.37295944988728 258.96854381263256 1063.5311214923859 657.9180044978857 12.764534398913382 691.17624789476395 194.22530968487263 446.61059130728245 278.63541561365128 746.89189356565475 669.30975095927715 37.95642577111721 823.04340596497059 1291.7444092333317 254.47297467291355 216.93733470141888 97.552179530262947 676.8657141327858 871.4068319350481 7.326835602521899 423.97887951135635 49.618504211306572 283.93357840180397 141.32295250892639 1032.1901291012764 16.930235996842384 462.87141706049442 129.09848347306252 93.8054179251194 5.9000334739685085 6.0100701004266748 5.4940125644206974 5.0004263371229163 7.4318716228008253 82.866791516542435 12.584222838282583 5.5163987576961508 725.47628597915173
leaf_count=19 10809 7611 363 33442 6722 24 388 4577 31357 34781 6247 6964 3855 2652 18135 6014 9587 3570 3665 7471 3220 1898 20851 271 1695 860 3293 2386 35 2317 627 1339 1059 2219 1846 151 2576 3426 948 859 303 1934 2333 25 1746 149 1158 482 2723 56 1775 529 451 30 26 17 25 36 433 58 25 4201
internal_value=0 0.0184965 0.0214876 0.026936 0.0418489 0.0576133 0.0342078 0.0479283 0.0159043 0.00779338 -0.0117742 0.069491 0.0609635 0.0283304 -0.00140483 0.0407953 -0.00163642 0.0742155 0.00901838 0.0631349 -0.0271958 0.0565282 0.0631035 -0.0825952 0.0710529 0.0835257 0.0280377 -0.0296769 -0.0347959 -0.022904 -0.00797431 0.0302754 -0.0528829 0.0314434 0.0996691 0.0446137 0.0765117 0.108782 -0.0867507 -0.0591647 0.103832 0.115166 0.103679 -0.0397123 -0.0291035 0.030755 -0.12106 0.0547869 0.132289 -0.0791506 -0.0661389 -0.121532 -0.0422869 -0.12431 -0.0200585 0.0401873 -0.12675 -0.0436351 -0.101607 -0.0473247 -0.113836 -0.128226
internal_weight=0 52230.2 50729.3 43589.2 24501.4 29546.5 9946.48 8296.78 11042.3 19087.8 7140.08 19600.1 15281.8 4413.53 14927.3 4160.49 6289.64 10868.3 3092.79 13459.1 3379.1 2969.86 8224.42 1500.96 5203.99 3957.73 2910.54 1443.67 1649.71 1630.52 1028.04 555.181 472.861 1246.26 4318.21 1462.27 1731.23 2643.88 850.442 471.41 766.862 2586.99 1548.27 740.117 631.822 114.038 379.032 964.366 1038.71 621.665 475.636 146.029 517.784 760.848 17.4041 11.5041 743.444 12.9672 108.294 19.9111 88.3832 730.477
internal_count=268644 178720 171208 145533 78992 89924 32101 26293 38079 66541 25675 57823 45602 13900 52916 13625 22347 31702 10710 40913 12807 8862 24421 7512 15583 11669 9540 5038 5808 5982 3413 1727 1686 3914 12221 4728 5207 7281 3328 1807 2149 7014 4267 3158 2617 420 1521 3058 2747 2395 1810 585 2197 4354 73 43 4281 55 541 83 458 4226
is_linear=0
shrinkage=0.1


Tree=6
num_leaves=61
num_cat=0
split_feature=71 102 52 103 33 45 30 136 69 102 32 31 103 110 101 69 71 135 30 110 134 50 111 70 99 119 132 32 101 30 103 71 105 30 102 135 45 81 103 112 7 73 26 117 45 104 119 119 62 36 91 53 78 102 127 52 95 119 110 113
split_gain=2374.21 1375.03 1358.87 1030.97 1005.64 856.932 773.83 587.858 486.318 1103.62 554.766 476.473 469.345 483.266 435.746 419.188 404.904 389.198 378.172 339.038 330.63 330.506 283.312 281.991 476.834 275.441 250.254 232.044 219.192 209.629 208.533 179.853 178.512 178.444 224.739 167.869 141.08 123.376 118.533 109.844 108.624 113.186 97.4332 78.9029 76.6736 72.9795 67.7938 66.2331 60.5373 56.3561 53.1049 48.5767 42.2268 40.3781 23.1489 20.0749 38.7844 17.2936 11.902 3.24164
threshold=-0.45559112727642054 -0.82893308997154225 1.0279979705810549 -0.87287327647209156 0.84072598814964306 0.74117809534072887 1.0670700669288637 1.0000000180025095e-35 -0.05719711817800998 -0.80005162954330433 0.96180790662765514 1.0016500353813174 -0.72164365649223317 -1.185108959674835 -0.9365745186805724 -0.14054140448570249 -0.42606566846370691 1.0000000180025095e-35 1.1010537743568423 -1.2006762623786924 1.0000000180025095e-35 1.2132920622825625 -1.2786983847618101 -0.15773496031761167 -0.8027048110961913 -1.3817637562751768 1.0000000180025095e-35 0.95588085055351268 -0.80726104974746693 1.1010537743568423 -0.85371229052543629 -0.41553959250450129 -0.77754846215248097 1.0569295287132265 -0.81373125314712513 1.0000000180025095e-35 1.0784195661544802 -1.443912625312805 -0.88875049352645863 -0.92765682935714711 0.64388954639434826 -0.82288548350334156 1.3213304281234743 -1.556557774543762 1.074760973453522 -0.85097357630729664 -1.16285765171051 -1.6667046546936033 0.75069731473922741 0.90596893429756176 -1.0551306605339048 1.1488979458808901 -1.1791539788246153 -0.5759468376636504 -3.2342544794082637 1.0911931991577151 -0.35115119814872736 -1.6667046546936033 -1.2185080647468565 -0.92574471235275257
decision_type=2 2 2 2 2 2 2 2 2 2 2 2 2 2 2 2 2 2 2 2 2 2 2 2 2 2 2 2 2 2 2 2 2 2 2 2 2 2 2 2 2 2 2 2 2 2 2 2 2 2 2 2 2 2 2 2 2 2 2 2
left_child=1 2 5 29 19 39 7 -5 9 11 16 25 23 22 18 33 -11 -16 -7 55 -13 32 -14 24 -10 -6 -15 28 37 38 -8 -12 48 34 36 44 -3 -17 -4 50 41 -29 -36 -25 -35 -37 -30 54 -21 -42 -1 -34 -31 -49 -23 -2 57 -57 -58 -41
right_child=4 15 3 6 8 14 30 -9 12 10 31 20 13 26 17 27 -18 -19 -20 21 -22 47 -24 43 -26 -27 -28 40 46 52 -32 -33 51 35 42 45 -38 -39 -40 59 49 -43 -44 -45 -46 -47 -48 53 -50 -51 -52 -53 -54 -55 -56 56 58 -59 -60 -61
leaf_value=0.056180687347421737 0.23926524373142449 -0.049405948241529746 0.090554262189374665 0.050971626224342571 0.011403657502652903 0.047653349420703456 0.005512556756054012 -0.01558519308941326 0.096280920822512286 -0.0091194331360133513 -0.070337835957137176 0.02883555445926796 -0.041400235785227134 0.079548252528142266 -0.017587617123185875 -0.039686968287026433 0.042860039366686101 0.017075543295939043 -0.037022928390668002 -0.040003794845272694 0.09460649015852593 -0.027799239017643692 0.082726942976462992 -0.10447666917000648 0.046938262473282276 0.081295835390125346 -0.034768447271462034 0.046646662413449107 -0.12790501240195948 -0.1472578773508588 -0.042190941096391966 -0.0082634100741905102 -0.1156571065016925 -0.11324072231838776 -0.045321523492832805 0.12568900070295874 0.028168457605491526 0.080469682252920352 0.061176776334530752 -0.084445202872374642 0.16329489535276087 -0.042945963018841543 -0.11487959098751832 0.11309205811657959 -0.06587038877543841 -0.052251365915373993 -0.0050399211849492028 0.099410209021184942 0.088509840508838325 -0.11286614280642825 -0.070199173421740896 0.055828286370038664 0.10819645297370742 0.026443628654410481 -0.17759593515889266 -0.17153727344807693 0.033187055233462069 0.022574511032559745 0.12010102810884922 -0.12420516552685111
leaf_weight=50.955471366643906 9.6107599437236768 344.03754058480263 3022.3623834103346 7675.9860896617174 609.07319876551628 3365.0154176205397 2215.4952148348093 1604.4282467663288 3489.8010989427567 2001.9330151826143 658.16227857768536 5009.9026084393263 210.33242569863796 233.50100181996822 7845.3512716293335 97.447200074791908 5960.6232073456049 5517.0283273011446 625.46687066555023 545.09798397123814 901.91613307595253 27.885606542229652 1462.0149103701115 16.815113410353661 4463.3379895985126 7596.0540112704039 1064.5208794027567 220.89391243457794 75.562074452638626 50.27985842525959 1562.7714198827744 1605.0083324313164 541.44981643557549 517.90851460397243 1401.591734662652 57.508271172642708 735.91985040903091 694.38229602575302 2517.4296780526638 21.256294727325439 7.7370642870664588 389.91450998187065 235.16614663600922 1913.555375367403 1004.2374871373177 38.465934455394745 110.70357526838779 103.42824019491673 39.296692818403244 164.50587935745716 95.683608159422874 17.03842468559742 7.4266366362571707 284.32177321612835 16.373867318034172 5.8247202485799816 17.772789180278778 21.645662054419518 138.83825901150703 580.66469193994999
leaf_count=188 23 1269 8617 24260 1988 10757 7633 5607 9673 6851 2574 16552 702 676 29096 356 18405 18470 2424 2170 2604 97 4184 61 13331 21933 3687 714 313 226 5946 5493 3076 2109 5369 166 2350 2006 7710 107 21 1502 979 5120 3954 144 380 312 134 642 453 69 22 983 67 24 54 69 380 3562
internal_value=0 0.0130896 0.0203843 0.0393235 0.0471974 0.00086469 0.0239328 0.0394651 0.0507004 0.0423915 0.0173738 0.0605133 0.0664357 0.0315796 0.00538371 -0.0308964 0.0297914 -0.00327597 0.0343812 -0.026478 0.0388697 -0.0418327 0.0671154 0.0769113 0.0685896 0.0761077 -0.014204 0.0102442 0.0427225 0.0752292 -0.0142186 -0.0263155 -0.0699977 -0.0476109 -0.0319525 -0.0739003 0.0034559 0.0656825 0.0772043 -0.103894 -0.0303237 -0.0105455 -0.0553155 0.111197 -0.0819881 0.0543715 -0.0548824 0.032678 -0.0313621 -0.100461 -0.0262836 -0.110425 -0.114382 0.0459067 -0.0832168 0.0983697 0.0910137 -0.0185842 0.110238 -0.122801
internal_weight=0 42853.6 36757.6 18656.2 38965.1 18101.4 13058.7 9280.41 37196.6 24342.7 10225.7 14116.9 12853.9 2970.37 17352.9 6095.98 7962.56 13362.4 3990.48 1768.58 5911.82 1574.89 1672.35 9883.51 7953.14 8205.13 1298.02 1761.15 978.095 5597.5 3778.27 2263.17 1142.88 4334.84 2716.72 1618.12 1079.96 791.829 5539.79 748.56 783.051 610.808 1636.76 1930.37 1522.15 95.9742 186.266 432.009 584.395 172.243 146.639 558.488 57.7065 387.75 44.2595 193.692 184.081 27.4704 156.611 601.921
internal_count=268644 147352 125078 60021 121292 65057 43446 29867 113834 76400 33323 43077 37434 9249 60747 22274 25256 47566 13181 7458 19156 6908 4886 28185 23004 23921 4363 5934 3055 16575 13579 8067 5449 16340 9967 6373 3619 2362 16327 4310 2879 2216 6348 5181 6063 310 693 1459 2304 663 641 3145 248 1295 164 550 527 93 434 3669
is_linear=0
shrinkage=0.1


Tree=7
num_leaves=53
num_cat=0
split_feature=52 6 127 31 99 72 103 71 101 29 135 52 70 102 102 61 70 102 103 134 47 70 43 134 101 101 116 31 121 101 112 71 136 124 72 0 30 28 32 38 108 116 38 38 37 48 37 76 106 99 53 97
split_gain=1994.26 1039.55 696.417 699.534 796.572 702.107 542.792 611.366 710.631 519.46 401.299 353.143 344.171 668.823 432.696 276.037 271.419 422.248 258.555 346.566 255.835 246.411 217.229 295.874 470.18 180.314 152.682 134.084 132.69 124.911 119.909 90.7586 62.9777 52.4119 94.8589 49.3666 48.5478 37.0451 31.6297 52.6893 55.7403 42.0498 28.852 16.9613 26.6622 13.6325 9.22701 9.15786 8.67849 5.84787 1.02946 0.404394
threshold=1.0681741237640383 0.93964579701423656 -3.3072551488876338 0.99851492047309887 -0.80021491646766651 -0.60004997253417958 -0.82414579391479481 -0.48132197558879847 -0.8593141734600066 1.2196580767631533 1.0000000180025095e-35 1.1116975545883181 -0.25563801825046534 -0.80495819449424733 -0.79180213809013356 0.67268574237823497 -0.20811374485492704 -0.78301668167114247 -0.85519731044769276 1.0000000180025095e-35 1.2359969615936282 -0.21645126491785047 1.0477145910263064 1.0000000180025095e-35 -0.81852006912231434 -0.829778492450714 -1.0126554965972898 1.0014352202415469 -1.3930270075798032 -0.79439491033554066 -1.3150163292884824 -0.43333841860294336 1.0000000180025095e-35 -2.4763455390930171 -0.31355111300945276 0.36278240382671362 1.0378440022468569 1.2689936161041262 0.81852057576179515 0.98153570294380199 -1.0211814045906065 -1.4815970659255979 0.99967029690742504 0.98056322336196911 0.95221596956253063 0.70279332995414745 0.93999940156936657 -0.39107520878314966 -0.88429453969001759 -0.86345690488815297 0.78711462020874035 -0.97723880410194386
decision_type=2 2 2 2 2 2 2 2 2 2 2 2 2 2 2 2 2 2 2 2 2 2 2 2 2 2 2 2 2 2 2 2 2 2 2 2 2 2 2 2 2 2 2 2 2 2 2 2 2 2 2 2
left_child=1 6 20 4 16 29 7 8 9 -1 -10 -7 13 15 25 -5 17 -4 28 -20 30 -16 26 27 -25 -14 36 -24 -9 -6 43 -15 -28 48 -35 -18 -8 49 39 41 -41 -22 46 47 -45 -39 -40 -2 -32 50 51 -3
right_child=2 37 3 12 5 11 22 18 10 -11 -12 -13 14 31 21 -17 35 -19 19 -21 38 -23 23 24 -26 -27 32 -29 -30 -31 33 -33 -34 34 -36 -37 -38 45 42 40 -42 -43 -44 44 -46 -47 -48 -49 -50 -51 -52 -53
leaf_value=0.020273583263952177 0.0092071665008691666 -0.12199989713822884 0.069017482807024827 0.030062908436048825 0.025429085790862289 0.016985943967013598 -0.040164208676984538 0.047605312508083183 -0.043509396640578062 -0.034860013846110281 0.055166952073244117 0.050800173095843615 0.10748493085689081 -0.090095542232568882 -0.032997564406877455 -0.021534039799915423 0.093221005129385776 0.000859961911993229 0.012527770388521306 0.077877705844356215 0.082776289713788143 0.040161072494177108 -0.0047882090235884626 0.12579705951979855 -0.023156024405728667 0.051748223057358315 -0.023146427280186736 -0.066901041447121251 0.10314128336200712 -0.068541495668880417 0.025745235493038327 -0.025070924276269613 -0.13867123362818842 -0.11048790317118805 0.052457155875430886 0.12822984078155428 -0.10966641767479751 -0.076893925083781817 -0.12548469032091267 -0.0086298112811615292 0.16986160779355092 -0.037297623237278886 0.20484504640754886 -0.082736091966491426 0.15119397141416469 0.12738740276935365 -0.025352345530501641 0.13695973010703327 -0.11494733389422603 0.015340762442672474 -0.15779807056364348 -0.13579319794764746
leaf_weight=21499.280407190323 7.2866700589656856 576.81740741431713 10494.573474541306 6094.7005966901779 176.21709647774696 4309.7282080203295 129.94328145682812 794.37263345718384 3267.599139586091 1856.4775807410479 471.62182959914207 10899.745841681957 712.09901404380798 625.59881767630577 932.4570314437151 1249.4132519960403 1482.4569519907236 995.14047804474831 2815.8430426716805 1140.0799998641014 49.460832193493843 909.40470136702061 773.40163320302963 375.45500499010086 486.52312003076077 3139.0191392749548 933.02429230511189 631.1904589086771 938.48543691635132 717.0584062486887 4.4309567809104911 326.76901260018349 49.702270150184631 87.959038555622101 60.16426157951355 553.05735084414482 443.56849260628223 5.4841778278350821 11.19883209466934 25.134377241134644 57.569512203335762 71.076849386096001 5.0675678849220267 14.939693525433542 7.2300823479890814 8.0794852375984174 51.627398326992989 24.403002738952637 416.50718837976456 3.0712681859731665 8.3819514364004117 22.068546265363693
leaf_count=72451 23 3904 30256 19998 558 13666 504 2521 12263 7347 1490 32658 1941 2593 3373 4352 4036 3169 9647 3553 145 2785 2632 1033 1731 9578 3521 2459 2760 2802 22 1165 203 446 226 1425 1832 27 49 85 140 271 13 53 18 25 184 64 2482 12 37 116
internal_value=0 0.0093289 0.0406927 0.0424835 0.0511856 0.0361582 0.0115104 0.0156685 0.00941124 0.0158912 -0.0310635 0.0412186 0.0240535 0.0110605 0.0429885 0.021285 0.0690768 0.0631143 0.0454713 0.0313613 -0.0466741 0.00312394 -0.0241491 -0.00439665 0.041724 0.0620543 -0.0529174 -0.0327002 0.0776826 -0.0500039 -0.0819659 -0.0677848 -0.0289892 -0.0954636 -0.0443034 0.102733 -0.093919 -0.118667 0.0344073 0.054148 0.115617 0.0119729 -0.024687 0.0606469 -0.00644603 0.0447906 -0.043201 0.107585 -0.113466 -0.122299 -0.122995 -0.122508
internal_weight=0 37230.5 44511.5 43617.4 29628 16102.7 36606.6 32783.8 27095 23355.8 3739.22 15209.5 13989.5 8296.48 5692.98 7344.11 13525.2 11489.7 5688.78 3955.92 894.056 1841.86 3822.81 2266.57 861.978 3851.12 1556.24 1404.59 1732.86 893.276 622.921 952.368 982.727 569.061 148.123 2035.51 573.512 623.903 271.135 203.242 82.7039 120.538 67.8938 53.8594 22.1698 13.5637 62.8262 31.6897 420.938 610.339 607.268 598.886
internal_count=268644 130068 138576 134355 88570 49684 125947 112032 93551 79798 13753 46324 45785 28108 17677 24350 38886 33425 18481 13200 4221 6158 13915 7855 2764 11519 6060 5091 5281 3360 3334 3758 3724 3176 672 5461 2336 4121 887 641 225 416 246 158 71 52 233 87 2504 4069 4057 4020
is_linear=0
shrinkage=0.1


Tree=8
num_leaves=60
num_cat=0
split_feature=70 103 52 103 69 34 31 45 32 69 102 101 108 30 134 69 106 37 70 31 70 117 32 110 4 47 29 101 70 101 58 30 37 32 52 30 25 97 103 59 112 124 109 94 33 59 40 92 130 107 72 39 1 39 113 43 51 104 3
split_gain=1703.75 1053.95 977.276 869.014 819.561 776.399 652.611 533.489 416.278 496.543 578.842 410.922 396.055 376.61 311.537 318.923 292.551 324.769 265.269 264.009 262.693 262.464 252.54 250.32 231.382 218.919 264.21 169.75 267.347 167.939 166.634 166.561 160.302 150.272 137.543 132.111 121.665 116.799 113.439 105.953 96.993 80.8409 76.9852 74.9973 73.6353 58.8821 44.771 43.5401 40.3695 40.2552 38.9692 30.3287 28.9429 24.6114 22.9309 20.4705 18.0821 10.1443 3.67223
threshold=-0.27863222360610956 -0.82202494144439686 1.0279979705810549 -0.87114882469177235 -0.17839097976684568 0.8516921103000642 1.0032953619956972 0.74117809534072887 0.96326863765716564 -0.032518761232495301 -0.76967161893844593 -0.9496747851371764 -0.91698426008224476 1.0967776179313662 1.0000000180025095e-35 -0.069194439798593507 -0.89721539616584767 0.95132732391357433 -0.29728943109512324 1.0010126233100893 -0.2179576903581619 -1.5655689835548399 0.95643582940101635 -1.2006762623786924 0.73787295818328869 1.2405204176902773 1.0009030103683474 -0.76283723115921009 -0.1683499217033386 -0.8130250573158263 0.91916763782501232 1.1010537743568423 0.93531844019889843 0.94778889417648327 1.0529967546463015 1.0558484196662905 1.3490236401557925 -1.0107015967369077 -0.81156739592552174 0.80743432044982921 -0.92765682935714711 -2.1909161806106563 -1.1017671823501585 -1.0442771911621092 0.93391144275665294 0.87178424000740062 1.0716928839683535 -1.0412672758102415 1.0000000180025095e-35 -0.92230430245399464 -0.52356407046318043 1.0242928862571719 0.30708365142345434 0.98254024982452404 -1.3579924106597898 1.0449638366699221 1.1154834628105166 -0.67112892866134632 0.73641502857208263
decision_type=2 2 2 2 2 2 2 2 2 2 2 2 2 2 2 2 2 2 2 2 2 2 2 2 2 2 2 2 2 2 2 2 2 2 2 2 2 2 2 2 2 2 2 2 2 2 2 2 2 2 2 2 2 2 2 2 2 2 2
left_child=1 2 7 31 19 23 -6 40 12 10 20 24 16 -13 15 -14 21 -18 35 -5 -10 -7 29 54 -9 26 32 45 -29 34 -16 37 -25 -31 -20 36 39 -4 44 -3 47 -28 46 48 -24 -11 -27 -1 -37 -33 -12 -44 -38 -40 56 -45 -2 -58 -42
right_child=5 18 3 4 6 8 -8 11 9 27 50 13 14 -15 30 -17 17 -19 22 -21 -22 -23 38 25 -26 42 41 28 -30 33 -32 49 -34 -35 -36 43 52 -39 53 -41 58 -43 51 55 -46 -47 -48 -49 -50 -51 -52 -53 -54 -55 -56 -57 57 -59 -60
leaf_value=0.056214785573539233 0.21012276759031351 -0.01708868672640251 0.10947972395899555 0.0071145400542198646 0.056716948705170148 -0.036467554732332132 0.006238827346717611 0.073936182547977042 0.00924160069381561 0.099393448908197179 -0.078848679983945208 0.0022717809565052337 0.043301444208189321 -0.055029300454891884 0.10463023306923534 0.079537048257476095 -0.018318391622352697 0.040552314124463723 -0.061804734123736008 -0.034385617475636822 0.0583871556515832 0.053940971086190836 -0.0064628003853709932 -0.097689790145223943 0.0030497950286441844 0.045871781227201008 -0.055806206057572118 -0.019453778241722574 0.074706758733617193 0.015023475681258154 -0.10907435062607418 0.083377249864463099 -0.016562678305241652 -0.06466797343633808 0.057799740602582521 -0.049722576398605646 -0.13144945076904566 0.060195155481209253 -0.1191306719155556 -0.077673427707589587 -0.091191940346572742 0.060309450289416783 0.045719078732106941 -0.11710968320043352 -0.09919572864792775 0.00090742668468313584 -0.11801362614872533 -0.060931946402444842 0.11996488522494431 -0.1442611540900097 0.054369638694024718 0.12552186309815461 -0.044959672244232488 -0.068656219916531147 -0.060190801187221393 -0.081528663992803091 0.079010488297714079 0.18159318387371676 -0.11976671346137691
leaf_weight=47.637995645403862 12.372596755623816 1519.5068999826908 525.76579138636589 3969.5203571468592 6314.1585332900286 336.91250564157963 4309.1656478792429 1190.857409670949 4199.8223134130239 1037.0861552655697 675.66098961234093 14706.316791847348 6430.0564748644829 1244.0364988148212 1914.0391621142626 3903.4297217279673 1631.9441251754761 2200.7958413958549 108.55174238979816 2497.3185706436634 1467.7265017181635 6845.3822913318872 557.25570192933083 762.25724792480469 750.77866314351559 31.396880716085434 79.939865544438362 475.37721125781536 824.55961534380913 642.15373289585114 37.195768147706985 9.2767733931541425 357.9280831515789 374.68671000003815 841.4750429391861 31.420486122369766 153.65586484968662 5629.6569748669863 154.77481462061405 356.35599656403065 50.73572213947773 239.87507243454456 100.6245634406805 242.37189438939095 101.17504781484604 64.480735778808594 35.536154180765152 94.991649180650711 25.316834032535553 47.776626855134964 22.695636883378029 90.413358822464943 51.712796330451965 257.03183004260063 10.267734304070471 485.75583802163601 164.45002110302448 10.24021005630493 396.04969348013401
leaf_count=173 30 5693 1436 13123 19072 1114 15063 3491 14086 2802 2426 51451 19571 4907 5302 10874 5626 6624 480 9236 4319 20242 1979 4284 2724 100 293 1526 2305 2167 140 28 1500 1401 2493 118 689 16708 650 1408 287 748 331 1047 427 201 137 468 76 226 69 242 214 1081 37 2070 475 24 2830
internal_value=0 0.0115912 0.0171791 0.0307988 0.0191557 0.0408987 0.0362414 6.38039e-06 0.0445745 0.0260007 0.0113838 0.00309011 0.0515636 -0.00219738 0.0639092 0.0569893 0.037795 0.0154857 -0.0279609 -0.0089117 0.0219688 0.0497 -0.00736809 -0.0212932 0.0465263 -0.0336823 -0.0488801 0.0647471 0.040273 0.0139029 0.100556 0.0628284 -0.0717676 -0.0143413 0.0441335 -0.0497824 -0.0365979 0.0644048 -0.0464596 -0.0285979 -0.0936018 0.0312856 0.0511523 -0.0847436 -0.0207122 0.0936285 -0.0411384 -0.0218052 0.0259939 -0.107248 -0.0745193 0.0834877 -0.109671 -0.0876267 0.0853115 -0.0933725 0.093298 0.0850238 -0.116522
internal_weight=0 47687.2 41784 23302.6 17090.2 33962.5 10623.3 18481.4 32067.2 8767.41 6365.91 17892 23299.8 15950.4 12284.7 10333.5 11015 3832.74 5903.2 6466.84 5667.55 7182.29 3037.1 1895.3 1941.64 1697.97 1440 2401.5 1299.94 1966.87 1951.23 6212.48 1120.19 1016.84 950.027 2866.1 2081.23 6155.42 1070.24 1875.86 589.415 319.815 257.971 784.865 658.431 1101.57 66.933 142.63 56.7373 57.0534 698.357 191.038 205.369 411.807 197.331 728.128 187.063 174.69 446.785
internal_count=268644 163216 141223 74892 56494 105428 34135 66331 97227 27734 20900 62573 69493 56358 35887 30445 33606 12250 21993 22359 18405 21356 10678 8201 6215 7635 6825 6834 3831 6541 5442 18398 5784 3568 2973 11315 8004 18144 4137 7101 3758 1041 810 3311 2406 3003 237 641 194 254 2495 573 903 1731 566 3117 529 499 3117
is_linear=0
shrinkage=0.1


Tree=9
num_leaves=61
num_cat=0
split_feature=37 45 102 71 101 136 71 32 69 102 31 91 106 70 101 132 47 134 70 135 77 112 134 70 102 110 110 101 135 101 70 134 68 108 103 29 103 135 113 71 101 27 59 72 31 70 68 102 61 37 36 101 3 33 106 31 47 77 113 113
split_gain=1432.95 833.74 606.174 791.755 709.453 621.497 576.885 461.482 515.35 503.475 379.01 359.173 381.057 341.518 367.469 314.311 421.848 311.199 296.046 265.75 264.715 236.088 228.687 264.768 312.591 226.955 224.672 217.406 214.588 159.438 315.167 125.824 123.765 99.1324 98.7976 97.746 84.7673 82.2113 100.527 83.5189 72.5163 86.1991 67.9138 69.884 57.5106 50.0354 46.4124 52.9046 48.6212 42.8842 35.6115 32.8293 31.9673 28.0821 24.9131 9.57255 6.89675 1.71553 5.46172 0.0588503
threshold=0.93914055824279796 0.79718458652496349 -0.82426372170448292 -0.48037868738174433 -0.8577495515346526 1.0000000180025095e-35 -0.47325778007507319 0.96199220418930065 -0.032518761232495301 -0.76967161893844593 1.0035231709480288 -0.98331156373023976 -0.90158629417419422 -0.23952021449804303 -0.82370448112487782 1.0000000180025095e-35 1.1068482398986819 1.0000000180025095e-35 -0.26058667898178095 1.0000000180025095e-35 -1.1607537865638731 -1.3361476659774778 1.0000000180025095e-35 -0.24067679047584531 -0.7956448197364806 -1.2050304412841795 -1.1970352530479429 -0.79351490736007679 1.0000000180025095e-35 -0.75782501697540272 -0.1683499217033386 1.0000000180025095e-35 0.03080141264945269 -0.91698426008224476 -0.8098432421684264 1.2414865493774416 -0.75467568635940541 1.0000000180025095e-35 -1.1318079829216001 -0.49410711228847498 -0.95828926563262928 1.4237911105155947 0.87178424000740062 -0.52356407046318043 0.99654415249824535 -0.15358295291662213 0.10044433549046518 -0.76294022798538197 0.66013804078102123 0.94995471835136425 0.9703764319419862 -0.95828926563262928 0.74794685840606701 0.71941363811492931 -0.94142237305641163 0.93998232483863842 0.82490062713623058 -1.1657408475875852 -0.91518419981002797 -0.91606023907661427
decision_type=2 2 2 2 2 2 2 2 2 2 2 2 2 2 2 2 2 2 2 2 2 2 2 2 2 2 2 2 2 2 2 2 2 2 2 2 2 2 2 2 2 2 2 2 2 2 2 2 2 2 2 2 2 2 2 2 2 2 2 2
left_child=1 20 3 4 5 -3 37 11 9 13 32 22 19 14 -9 16 -8 -12 31 21 56 -13 23 24 -2 -17 -20 -15 -6 42 36 -14 -5 49 -25 40 -31 39 -39 -4 41 -22 50 -44 -35 -32 48 -48 -11 -24 -10 52 -37 -42 -21 -53 57 58 -1 -59
right_child=7 2 6 10 28 -7 15 8 29 46 17 12 18 27 -16 25 -18 -19 26 54 35 -23 33 34 -26 -27 -28 -29 -30 30 45 -33 -34 44 -36 51 -38 38 -40 -41 53 -43 43 -45 -46 -47 47 -49 -50 -51 -52 55 -54 -55 -56 -57 -58 59 -60 -61
leaf_value=-0.025539232862576134 0.049903403821785167 0.024082330737868318 -0.10068882697199928 0.058250638169558736 -0.030278131319191898 -0.025783668171762877 -0.029016004129207015 0.030926647655331804 0.093526749068856399 0.18812475183786267 0.0039458766689888037 -0.054536278708783296 0.015847548860520883 0.059613482850360638 -0.031788606924621925 0.097307612880958433 0.027525549426502007 0.086297637280182651 0.11504546102962326 0.15100166527916689 -0.093413124404741976 0.051571655493382586 0.019784979557673905 0.1210035758469556 -0.028005536388733782 -0.034987871078796418 0.017323415889104965 0.010123634318930201 0.039115865987685232 0.021347957008636995 0.039688408043226833 -0.079011030161312806 0.12195155027595087 0.14278390190681922 0.068994402370247107 0.074674348795925882 -0.078524409314077503 0.081594637537785578 -0.056409157342570529 -0.051147655235189042 -0.021962916931534779 0.087065888776513681 -0.091455221725653846 0.087277201715981551 0.095931468553348997 0.088741748902536874 0.02709480185479082 -0.062732143966806028 -0.084150432195915073 0.095324595403309509 0.044263350946383145 -0.084054580244845606 -0.068457225256456727 -0.11425384679960569 0.10395895472243094 -0.12838991866166768 -0.018969665832217573 -0.15763896714003089 -0.11820930150599587 -0.1451114554421912
leaf_weight=6.4389894753694525 3195.1932031065226 22836.585270538926 517.99423895776272 5213.4898961186409 4335.7164579182863 2806.5305189043283 1750.1332861185074 1750.2286093682051 1250.2516445219517 6.6403072923421851 2591.6532047837973 220.37844979763031 203.91769182682037 2261.9889621883631 2004.0224158614874 137.24744647741318 5363.1399447023869 557.600357234478 252.93459248542786 220.14028465747833 33.578854262828827 4323.56912766397 188.27125485241413 408.28746375441551 613.94734959304333 2349.6063246279955 3368.5215234160423 1460.9426292032003 496.66376501321793 131.78507848083973 367.1917227357626 444.94577303528786 323.95787446200848 420.55172920227051 3464.7791185379028 23.056225448846817 239.30353012681007 86.067895084619522 136.49017278850079 991.93994268774986 534.66996493935585 124.88956589996815 44.217009127140045 43.297248259186745 694.86935624480247 479.45942716300488 101.32408200204372 185.78966903686523 532.85929508507252 125.08335991203785 166.24974831938744 128.43740056455135 48.276464805006981 35.136027902364731 230.39352865517139 78.443390935659409 7.1217312216758719 7.4939792305231094 517.78546370565891 7.5055990815162641
leaf_count=24 9501 75063 2219 15607 15733 10535 6302 5649 3407 21 8949 748 675 6698 7476 388 17289 1676 679 551 158 12591 611 1060 2065 9313 10714 4682 1561 402 1079 1719 853 1076 9786 75 827 275 544 3853 2246 398 155 119 1935 1309 310 643 1976 347 488 757 221 153 625 412 26 33 4021 36
internal_value=0 0.0114791 0.0136986 0.0195926 0.0120013 0.0186247 -0.00666918 0.0390959 0.022922 0.0105443 0.0462249 0.0488004 0.0349362 0.0187315 -0.00255081 0.00291548 0.0136142 0.0185269 0.0130035 0.0536889 -0.0606941 0.0464255 0.0628986 0.0560661 0.0373462 -0.0276866 0.0241486 0.0401928 -0.0231459 0.0606848 0.0337868 -0.0491999 0.0619773 0.0996352 0.0744771 -0.0302743 -0.0430566 -0.0597799 -0.00304018 -0.0681431 -0.0110129 0.0488231 0.0824631 -0.00302823 0.113596 0.0674674 -0.0635131 -0.0310317 -0.0807992 0.0499385 0.0877449 -0.0806944 -0.0221941 -0.0276539 0.126945 -0.100865 -0.116734 -0.118025 -0.117071 -0.15137
internal_weight=0 52047.7 50494.8 39162.2 30475.5 25643.1 11332.6 29401.3 11025.6 8303.8 8686.7 18375.8 9264.8 7477.18 3754.25 9600.13 7113.27 3149.25 4270.32 4994.48 1552.83 4543.95 9110.98 7682.21 3809.14 2486.85 3621.46 3722.93 4832.38 2721.76 1217.74 648.863 5537.45 1428.78 3873.07 1006.49 371.089 1732.49 222.558 1509.93 728.274 158.468 1504.02 87.5143 1115.42 846.651 826.613 287.114 539.5 313.355 1416.5 278.213 71.3327 569.806 450.534 206.881 546.346 539.224 524.224 14.9996
internal_count=268644 178720 170160 129977 102892 85598 40183 89924 35241 27455 27085 54683 28302 24505 13125 33292 23591 10625 13787 14515 8560 13339 26381 22412 11566 9701 11393 11380 17294 7786 3617 2394 16460 3969 10846 4420 1229 6891 819 6072 2955 556 4169 274 3011 2388 2950 953 1997 958 3895 1465 296 2399 1176 1169 4140 4114 4045 69
is_linear=0
shrinkage=0.1


Tree=10
num_leaves=55
num_cat=0
split_feature=52 31 6 101 71 103 110 68 103 51 102 29 103 135 30 103 134 102 69 89 71 102 70 102 42 2 71 103 5 54 29 134 70 29 72 134 33 69 20 43 78 109 126 119 126 107 28 123 0 49 1 113 53 96
split_gain=1272.69 661.577 650.919 633.9 960.648 473.902 570.053 523.263 427.313 706.64 318.34 342.326 274.112 253.063 307.834 303.78 244.285 333.965 624.16 311.553 224.236 325.468 343.92 224 192.979 184.586 222.179 183.314 177.327 168.711 161.707 130.596 129.433 112.538 102.8 99.5794 130.743 126.35 89.7325 82.6481 106.132 59.6975 54.2729 49.8139 43.3341 38.6393 32.7203 26.6695 24.9811 10.2392 0.819242 0.701795 0.223751 0.0413762
threshold=1.0482141971588137 1.0029525160789492 0.93964579701423656 -0.81852006912231434 -0.44303388893604273 -0.69122174382209767 -1.1934829950332639 0.10243656113743783 -0.87371328473091114 1.022599518299103 -0.94680926203727711 1.2300843596458437 -0.88875049352645863 1.0000000180025095e-35 1.0708002448081972 -0.8350049853324889 1.0000000180025095e-35 -0.85268267989158619 -0.12915123999118802 -1.1181665658950803 -0.45966807007789606 -0.85886350274085987 -0.33443339169025416 -0.8331930637359618 0.98461565375328075 0.49815312027931219 -0.47497871518135065 -0.83443903923034657 0.79358661174774181 1.0505264401435854 1.1717707514762881 1.0000000180025095e-35 -0.28500926494598383 1.1346936821937563 -0.6226116120815276 1.0000000180025095e-35 0.91520833969116222 -0.092803038656711564 1.2742811441421511 1.0078558325767519 -1.2050559520721433 -0.914228856563568 -1.7928971052169798 -1.0132004022598264 -1.8955362439155576 -0.99148249626159657 1.2689936161041262 -1.347298741340637 0.45760235190391546 0.70930698513984691 0.27345319092273718 -0.91694450378417958 0.81946131587028515 -0.99356824159622181
decision_type=2 2 2 2 2 2 2 2 2 2 2 2 2 2 2 2 2 2 2 2 2 2 2 2 2 2 2 2 2 2 2 2 2 2 2 2 2 2 2 2 2 2 2 2 2 2 2 2 2 2 2 2 2 2
left_child=2 3 8 20 25 7 -7 -6 9 10 28 -12 33 14 15 -10 17 29 27 38 21 31 -23 -20 -14 26 -5 -19 -1 30 -3 -2 42 -11 -16 37 -37 -22 41 40 -15 -18 -21 -31 -34 -41 50 -40 -27 -48 -4 52 -52 -53
right_child=1 16 46 4 5 6 -8 -9 13 12 11 -13 24 39 34 -17 19 18 23 32 35 22 -24 -25 -26 48 -28 -29 -30 43 -32 -33 44 -35 -36 36 -38 -39 47 45 -42 -43 -44 -45 -46 -47 49 -49 -50 -51 51 53 -54 -55
leaf_value=0.069840726555041768 0.065229921459982285 0.043961578916569211 -0.051017321655174502 -0.05987111247232782 0.025896454515198827 0.0608559719871756 -0.03795278887212241 0.057922323399794653 0.0068747113532529689 -0.0072178445201623899 -0.0013164254949022338 -0.076385950294800872 -0.0010720724589277993 0.053558760053823186 -0.057904580541582075 -0.040358683433690382 0.076503650524267441 -0.020161009457101808 0.061840692901721853 -0.1174029114383409 0.051281126602750152 -0.018809810341590197 0.039775505571141484 0.0032956097370068003 0.059885145315734994 -0.11860869772024384 -0.0018907603839003512 -0.070461513708566972 -0.0091897926948300152 -0.0075356814393245548 -0.11438974816503739 -0.11718025193701652 -0.084757233468446602 0.072918692267711846 0.088598518444763685 -0.025715853242420674 0.12046236998335545 0.087103492378758085 -0.12856376522696961 0.17925167855808807 -0.029153280700969255 0.14451862598022394 -0.022890978598068858 -0.15455027915614433 0.062200633781921637 0.065383843867936775 -0.067868164941678952 0.031528601107587831 0.027505299135179968 0.11361554316366081 -0.12952411835856029 -0.1156343044984902 -0.15552974867740477 -0.12333637331211358
leaf_weight=934.31337329745293 3797.4611616432667 2167.3433832526207 1.9166714102029789 907.51015712320805 15508.538552805781 843.42591331899166 1897.396128937602 7602.7691552489996 4129.4526555687189 188.94812177121639 10119.051829814911 646.24787777662277 1518.5603843182325 327.76885822415352 1907.8220761716366 2031.4998009651899 236.15251439809799 1419.1145418733358 798.34516760706902 98.235357210040092 3321.7938427627087 1334.043968975544 4026.1657595485449 3602.8543430119753 789.28738702833652 215.46869331598282 2432.1877602189779 1480.2669769823551 407.84559106826782 38.296029552817345 66.466677978634834 39.659223482012749 22.446078449487686 2415.7086979746819 49.129263088107109 68.750584825873375 556.11338870227337 1399.4255331158638 11.613860949873922 33.426289200782776 294.54566812515259 284.52876687049866 159.26411835849285 57.884823471307755 189.17117957770824 274.75107361376286 5.0555047243833533 100.03286077082157 12.37308247387409 8.0733773559331876 14.699409365653993 455.43040312081575 4.2694498747587195 7.0833376571536055
leaf_count=2805 10927 6912 9 3673 48134 2477 7963 21948 14498 620 35052 3070 5246 1016 7401 7942 684 5174 2438 474 9785 4499 12325 12257 2379 864 8309 5990 1541 128 285 149 94 7246 151 224 1474 3864 50 82 1021 747 574 251 563 837 27 343 42 25 86 3903 19 47
internal_value=0 0.0280653 0.0013861 0.0334992 0.0250565 0.0317692 -0.00754663 0.0364318 0.00354645 0.0128816 -9.74711e-05 -0.0058229 0.0448702 -0.014013 -0.0196749 -0.00869993 0.00580557 0.000703303 -0.00981686 0.0504177 0.0505778 0.0411109 0.0251948 0.0139153 0.0197754 -0.0235873 -0.017646 -0.0458417 0.0458255 0.0336662 0.0392499 0.0633446 -0.0113292 0.0671054 -0.0542266 0.0668645 0.104379 0.0618993 0.096227 0.0353834 0.0144106 0.113671 -0.058947 -0.0960139 0.0466129 0.0777345 -0.112035 0.0148753 -0.110674 0.0437321 -0.116266 -0.116525 -0.135377 -0.115752
internal_weight=0 54695.1 26564.9 43963.1 29419.7 25852.1 2740.82 23111.3 26068.4 17020 12107.5 10765.3 4912.5 9048.4 8117.9 6160.95 10732 9630.57 7300.58 1101.44 14543.4 9197.33 5360.21 4401.2 2307.85 3567.54 3339.7 2899.38 1342.16 2329.99 2233.81 3837.12 469.117 2604.66 1956.95 5346.08 624.864 4721.22 632.328 930.492 622.315 520.681 257.499 96.1809 211.617 308.177 496.528 111.647 227.842 13.1289 483.399 481.483 18.9689 462.514
internal_count=268644 173621 95023 136657 93410 80522 10440 70082 90907 57959 42468 38122 15491 32948 29992 22440 36964 33435 25859 3529 43247 27900 16824 14695 7625 12888 11982 11164 4346 7576 7197 11076 1705 7866 7552 15347 1698 13649 1824 2956 2037 1431 1048 379 657 919 4116 393 906 52 4064 4055 105 3950
is_linear=0
shrinkage=0.1


Tree=11
num_leaves=55
num_cat=0
split_feature=52 6 31 101 72 37 132 103 136 70 102 114 31 69 136 103 45 82 69 102 134 92 117 29 68 54 46 69 18 102 134 42 107 53 32 122 45 4 64 70 30 103 45 102 59 42 70 28 16 49 1 113 45 96
split_gain=1040.92 588.005 490.02 576.349 840.39 444.02 391.611 370.2 368.04 466.339 434.124 400.477 299.12 248.382 305.602 250.731 240.805 230.527 222.282 383.082 354.766 238.95 217.086 150.503 162.084 131.114 125.94 122.511 115.458 128.96 280.903 128.499 109.733 103.014 88.395 82.2674 81.9216 79.9294 60.2974 91.4249 57.7633 57.2976 52.4764 51.5159 49.1462 46.7249 40.6446 30.0074 25.9672 8.31412 0.856773 0.542961 0.199975 0.029107
threshold=1.0542855858802798 0.93964579701423656 1.0034018158912661 -0.80726104974746693 -0.60179370641708363 0.94323870539665233 1.0000000180025095e-35 -0.8350049853324889 1.0000000180025095e-35 -0.33322958648204798 -0.87155881524085987 -0.99646660685539235 0.99627846479415905 -0.089525125920772539 1.0000000180025095e-35 -0.80316263437271107 1.1185722351074221 -1.1671143770217893 -0.10851690545678137 -0.83825248479843129 1.0000000180025095e-35 -1.0139460563659666 -0.9366701841354369 1.0997186303138735 0.054797299206256873 1.0505264401435854 1.1195307374000552 -0.15658332407474515 1.2049825191497805 -0.82716265320777882 1.0000000180025095e-35 1.015536963939667 -0.85275498032569874 0.95788708329200756 0.95713582634925853 -1.4960852861404417 1.0825403332710268 0.67188498377799999 0.45085702836513525 -0.23338986188173291 1.0614797472953799 -0.80316263437271107 1.0798213481903078 -0.81785801053047169 0.85327008366584789 1.0485827326774599 -0.25355620682239527 1.2689936161041262 0.93195256590843212 0.70930698513984691 0.27345319092273718 -0.91694450378417958 0.79718458652496349 -0.99356824159622181
decision_type=2 2 2 2 2 2 2 2 2 2 2 2 2 2 2 2 2 2 2 2 2 2 2 2 2 2 2 2 2 2 2 2 2 2 2 2 2 2 2 2 2 2 2 2 2 2 2 2 2 2 2 2 2 2
left_child=1 7 3 13 16 6 -6 8 9 10 -1 37 -7 14 15 -2 34 -18 19 25 26 -22 -16 24 43 27 -21 -4 29 30 -9 32 -30 -13 -5 -11 -31 -10 42 -40 -33 -26 -15 -20 46 -27 -25 50 -46 -49 -3 52 -52 -53
right_child=2 47 18 4 5 12 -8 28 11 35 -12 33 -14 38 22 -17 17 -19 23 20 21 -23 -24 44 41 45 -28 -29 31 36 -32 40 -34 -35 -36 -37 -38 -39 39 -41 -42 -43 -44 -45 48 -47 -48 49 -50 -51 51 53 -54 -55
leaf_value=0.015118944626504184 0.048939406344702702 -0.047004032594620507 0.0060820855806907308 -0.053211878921119643 0.028164825895992191 0.042852043635749223 -0.022580253016424443 -0.033144781959177257 0.054791600798100575 0.024406097987715498 -0.019599626858211889 -0.10234927711256339 0.01183539567974032 -0.17013889577912314 -0.007248767187164668 -0.0087355446719128704 0.02501482485082946 -0.059843812298037063 0.013957475884419514 -0.062531523431115552 0.083770676323001725 -0.050148479541629744 0.089601036826684216 0.037483237806568849 0.060495556391589302 -0.13673601265864407 -0.013396181675215653 0.046857364552234167 -0.084856957907085084 -0.051526986945338665 0.097288543958949092 0.071021768301932756 0.05509274790751828 -0.033585264804650787 -0.12145154886137854 0.066445941517633986 -0.00024305269980807358 0.18181527061941349 0.040613643035113264 0.083679028429330157 -0.067857040808004296 0.0056231569827513636 0.1084202234376343 -0.065686469285362134 0.088094231634698053 -0.012319703731741637 0.073379337710769516 -0.063281751517691887 -0.14438452423938594 0.10184387562874708 -0.12637865807896417 -0.11392854369659225 -0.15238431864068913 -0.12064948700144923
leaf_weight=16218.186247803271 12019.965573295951 1.8745645880699147 1802.2265352904797 923.29642350971699 3157.5659997016191 12672.341893464327 2933.7821488529444 409.08527094125748 249.79222242534161 645.50957471132278 4629.6528830975294 242.14670796692371 4120.1635531038046 6.8574009239673606 1889.8195727467537 804.18989923596382 888.70110388100147 500.38242283463478 109.14336714148521 1719.034719184041 393.36380469799042 201.47928972542286 263.73615378141403 606.68456040322781 362.12360426783562 69.407202750444412 748.90474855899811 1246.4878114461899 728.70546935498714 891.75379015505314 276.8541623800993 99.360462784767151 60.693095117807388 2171.8695250302553 238.95256698131561 1669.074723765254 478.68593041598797 61.792251765727997 845.53689409792423 1182.1722828000784 42.870795086026192 401.04269208014011 490.41650813817978 317.38589960336685 6.4589035660028484 53.415708392858505 657.05935995280743 4.8886442929506293 18.758952587842941 8.1038400530815107 14.226116240024568 417.94290529191494 3.7327810674905768 6.5446186512708655
leaf_count=54473 35883 9 6191 3619 10024 37556 11274 1504 767 2065 16800 1060 13077 27 6062 2695 2849 2022 345 6823 1138 840 737 1923 1048 304 2811 3977 3072 3660 811 337 211 8482 961 5192 1678 160 2516 3288 181 1348 1325 1223 18 187 1911 27 72 25 89 3903 17 47
internal_value=0 0.00241829 0.0260062 0.0303938 0.020783 0.0268524 0.00372442 0.00420004 0.00804677 0.0121369 0.00740904 -0.0267116 0.0352419 0.0443603 0.0394691 0.0453227 -0.0336552 -0.00555337 0.00438369 -0.00568754 -0.0309124 0.0384109 0.00461199 0.0297149 0.00406608 0.0186723 -0.0476212 0.0227533 -0.0291279 -0.0158969 0.0194998 -0.0583325 -0.0740969 -0.0404829 -0.0672416 0.0547215 -0.0336138 0.0799825 0.0733738 0.0657211 0.0291615 0.0316602 0.104579 -0.0453066 0.0533884 -0.0826273 0.0561467 -0.110087 -0.0848411 0.0397125 -0.114467 -0.114753 -0.131784 -0.114032
internal_weight=0 29333.3 51650.9 42937.9 25435.2 22883.9 6091.35 28876 25888 23162.4 20847.8 2725.6 16792.5 17502.7 14977.7 12824.2 2551.33 1389.08 8712.98 6234.32 3062.78 594.843 2153.56 2478.66 1189.7 3171.54 2467.94 3048.71 2988.01 2056.38 685.939 931.63 789.399 2414.02 1162.25 2314.58 1370.44 311.584 2524.98 2027.71 142.231 763.166 497.274 426.529 1288.96 122.823 1263.74 457.313 25.2179 12.9925 444.321 442.446 17.9589 424.488
internal_count=268644 104570 164074 133915 81382 71931 21298 100453 88999 78530 71273 10469 50633 52533 45377 38578 9451 4871 30159 22271 11612 1978 6799 7888 3964 10659 9634 10168 11454 7653 2315 3801 3283 9542 4580 7257 5338 927 7156 5804 518 2396 1352 1568 3924 491 3834 4117 90 52 4065 4056 106 3950
is_linear=0
shrinkage=0.1


Tree=12
num_leaves=52
num_cat=0
split_feature=52 31 100 38 89 105 105 69 100 102 71 32 135 30 105 69 102 99 71 101 1 129 72 119 70 54 134 1 71 104 132 29 70 102 82 32 99 103 62 133 103 30 30 30 74 69 58 53 75 6 52
split_gain=902.451 593.981 551.674 520.871 473.202 430.363 378.316 339.949 433.581 352.367 314.507 306.439 303.505 384.86 512.768 302.839 293.657 291.936 291.875 278.07 421.189 255.277 257.851 226.818 225.667 216.988 205.998 156.758 144.475 142.227 129.915 100.541 72.3862 156.688 72.016 66.2001 60.7098 56.099 55.2342 46.95 45.6538 77.9103 44.4389 25.0819 6.98267 2.12518 0.247886 0.208896 0.0574342 0.0193959 0.0044592
threshold=1.0279979705810549 1.0002608895301821 -0.79868304729461659 0.97766751050949108 -1.3310533165931699 -0.88618457317352284 -0.8526356816291808 -0.13006311655044553 -0.90264385938644398 -0.81435772776603688 -0.36609725654125208 0.96288424730300914 1.0000000180025095e-35 1.1010537743568423 -0.91436940431594838 -0.21014668792486188 -0.82426372170448292 -0.98036494851112355 -0.42232140898704523 -0.81508335471153248 0.44780498743057257 1.0000000180025095e-35 -0.6494590938091277 -1.6667046546936033 -0.24193440377712247 0.89232072234153759 1.0000000180025095e-35 0.45436689257621771 -0.45966807007789606 -0.93516278266906727 1.0000000180025095e-35 1.1919893026351931 -0.20811374485492704 -0.77998250722885121 -0.8715757131576537 0.94888487458229076 -0.99805772304534901 -0.92229673266410817 0.66041895747184765 1.0000000180025095e-35 -0.94166439771652211 1.1106498241424563 1.0804353356361391 1.1032782196998598 -1.0422037839889524 -0.31649036705493921 0.66702237725257885 1.0198496580123904 -1.086596608161926 0.93964579701423656 0.78146257996559154
decision_type=2 2 2 2 2 2 2 2 2 2 2 2 2 2 2 2 2 2 2 2 2 2 2 2 2 2 2 2 2 2 2 2 2 2 2 2 2 2 2 2 2 2 2 2 2 2 2 2 2 2 2
left_child=4 2 18 6 46 31 15 8 27 26 11 -5 17 14 29 -4 -10 35 19 28 -21 22 -19 -12 -11 -16 -9 -7 -2 -14 -8 34 33 -20 42 36 -6 -23 -34 -36 41 -15 -3 -42 -37 47 48 -33 49 -1 -51
right_child=1 5 3 10 12 7 30 9 16 24 23 -13 13 40 25 -17 -18 21 32 20 -22 37 -24 -25 -26 -27 -28 -29 -30 -31 -32 45 38 -35 39 44 -38 -39 -40 -41 43 -43 -44 -45 -46 -47 -48 -49 -50 50 -52
leaf_value=-0.11918974400875554 0.033520841468013728 0.069195704054809848 -0.069570907072408553 0.024217468662498926 0.076093484572321762 -0.14660124772775104 -0.016842014740556029 0.030026731661006764 -0.01128303753309697 -0.023632293886856219 -0.024399365079708458 -0.035620388156911577 0.15806690539036528 0.065963847737999265 -0.010527691202669972 0.020393476960153374 -0.063701504336899278 -0.029004271436998616 0.061210540472747578 0.020825965869056391 -0.090609805008901326 0.12065309885259307 0.010656179299742066 0.044500356390300311 0.02119584726055956 0.026691991216540013 0.10062356311532571 0.041451769348548849 0.057770699660315408 0.06537783377060756 -0.061797758258960944 -0.15588612080926914 0.099745309361197632 -0.015869021775086155 0.10662965324637973 0.16270136431066198 0.015730858164820869 0.036862571395147772 0.048851445356074025 -0.10558924544027022 -0.054950035606940173 -0.10760609799248839 0.036922507414527524 -0.10895133229215909 0.078362545796302641 -0.064366823263299053 -0.14607247563942299 -0.13663601086733834 -0.12876589286765786 -0.112399497798343 -0.11658936279939125
leaf_weight=4.2901281714439383 10315.868338450789 1244.7325863391161 407.69861410558224 2934.9132859408855 268.62041322886944 45.564874395728111 1783.4500304460526 3862.7640267759562 6777.1685762703419 2368.8248161673546 508.21446321904659 1208.1417847126722 202.91727630794048 55.749145641922951 3067.7519597709179 4549.990341603756 1268.8322316110134 7364.904518969357 3406.0539566129446 2178.6177284568548 401.71959616243839 101.15940529108047 2108.6220829337835 7982.9607626497746 2135.1568899452686 3200.4868595898151 462.85280539095402 1631.6842511892319 3224.8604286313057 898.92968443781137 1005.0939055383205 8.5312460064888054 741.22267809510231 285.8620520979166 13.661487758159636 50.095561608672142 438.78492715954781 380.26675528287888 299.37108455598354 44.001157507300377 134.51244772970676 48.237599939107895 649.17633427679539 238.5371513441205 12.209241837263106 3.9617006778717032 2.2247316539287558 16.617797285318375 2.1841603666543952 375.59766714274883 2.5574292242526999
leaf_count=32 31756 3623 1779 8951 835 211 6339 12205 24197 8636 1680 4081 531 184 10895 14451 5448 28118 9820 6950 1536 279 7333 23851 6750 10199 1266 5133 9309 2792 4818 38 2025 927 38 122 1402 1251 888 164 550 203 1969 1063 34 18 11 86 13 3831 23
internal_value=0 0.0216181 0.0285381 0.0168378 -0.00332417 0.00772167 -0.00357894 0.00299138 -0.00990793 0.0171962 0.0293557 0.00676836 -0.001044 0.0139009 0.0195351 0.0129952 -0.0195493 -0.011979 0.039973 0.033563 0.0034771 -0.0165667 -0.0201766 0.0403766 -0.00238107 0.00847623 0.0375808 0.036343 0.0392962 0.0824475 -0.0330457 0.0520298 0.0618083 0.0552423 0.0547815 0.0473556 0.0386521 0.054469 0.0851035 -0.0553101 -0.0731467 -0.0145522 0.0581334 -0.0894798 0.146174 -0.132442 -0.112789 -0.143166 -0.112596 -0.112504 -0.112428
internal_weight=0 61767.6 41234 20380.5 18958.6 20533.5 7746.23 18552.8 9723.25 8829.6 12634.2 4143.06 18571.8 7847.12 7370.09 4957.69 8046 10724.7 20853.6 16121.1 2580.34 9954.95 9473.53 8491.18 4503.98 6268.24 4325.62 1677.25 13540.7 1101.85 2788.54 1980.68 4732.51 3691.92 1951.57 769.71 707.405 481.426 1040.59 57.6626 477.036 103.987 1893.91 373.05 62.3048 29.1107 386.854 25.149 384.629 382.445 378.155
internal_count=268644 198943 129161 65950 69701 69782 27387 63846 34989 28857 38563 13032 65791 26417 24417 16230 29645 39374 63211 49551 8486 36981 35451 25531 15386 21094 13471 5344 41065 3323 11157 5936 13660 10747 5794 2393 2237 1530 2913 202 2000 387 5592 1613 156 142 3910 124 3899 3886 3854
is_linear=0
shrinkage=0.1


Tree=13
num_leaves=63
num_cat=0
split_feature=69 136 103 53 103 103 70 68 103 109 53 113 104 133 69 103 103 52 102 68 31 31 31 31 25 113 30 101 102 134 52 110 74 84 136 69 69 97 135 103 51 69 61 32 124 65 36 44 63 60 26 68 3 99 99 1 41 34 123 107 29 4
split_gain=756.505 637.423 683.86 607.066 544.562 537.133 604.926 462.387 434.811 479.186 326.504 298.774 287.938 287.005 257.795 451.631 236.531 215.406 200.695 228.922 199.076 187.681 180.613 169.214 139.41 139.006 136.148 115.495 112.286 123.243 149.264 111.213 110.671 104.173 99.881 89.708 82.8214 81.0551 66.7039 63.9217 60.1025 59.8188 191.443 87.1809 75.5881 56.4515 50.6722 49.2913 51.2531 46.1309 44.3455 55.8236 43.4987 33.8456 28.1996 25.7662 25.5335 22.7865 16.4858 13.3108 18.6239 1.71862
threshold=-0.10851690545678137 1.0000000180025095e-35 -0.81156739592552174 0.99314779043197643 -0.79617217183113087 -0.88255932927131642 -0.3170917928218841 0.076307386159896864 -0.70434540510177601 -1.1246227025985716 1.1423495411872866 -1.0460576415061948 -0.84483367204666127 1.0000000180025095e-35 -0.015282529406249521 -0.75798168778419484 -0.78549560904502858 1.092239558696747 -0.82836386561393727 0.0097095086239278334 0.99627846479415905 0.99918293952941906 0.99817380309104931 1.0008047819137575 1.3356692194938662 -1.3797867298126218 1.1060367822647097 -0.84957191348075856 -0.81671059131622303 1.0000000180025095e-35 1.087643086910248 -1.2185080647468565 -0.95490673184394825 -0.6425391137599944 1.0000000180025095e-35 -0.0872041881084442 -0.11257400363683699 -0.8917669653892516 1.0000000180025095e-35 -0.80572080612182606 1.1103863716125491 -0.069194439798593507 0.69798350334167492 0.95351669192314159 -1.6073603630065916 0.33783710002899175 0.95624178647995006 1.0635297894477846 0.51197344064712536 0.71186441183090221 1.2350943684577944 0.026645120233297351 0.38909599184989935 -0.87971821427345265 -0.85343751311302174 0.47578597068786627 1.1151034235954287 0.90413764119148265 -1.2046980857849119 -0.9111630618572234 1.1161322593688967 0.7552480697631837
decision_type=2 2 2 2 2 2 2 2 2 2 2 2 2 2 2 2 2 2 2 2 2 2 2 2 2 2 2 2 2 2 2 2 2 2 2 2 2 2 2 2 2 2 2 2 2 2 2 2 2 2 2 2 2 2 2 2 2 2 2 2 2 2
left_child=1 2 3 12 23 26 -7 16 14 31 -11 49 13 -1 15 -9 22 38 19 21 24 -13 34 41 33 -16 -5 -21 47 30 -30 -10 -19 -4 -6 -24 39 -14 -18 -22 -31 42 44 -44 -2 -38 53 58 -49 54 57 -52 -26 -43 55 -3 -48 -20 -25 60 -51 -56
right_child=4 11 20 5 7 6 -8 8 9 10 -12 18 37 -15 25 -17 17 32 50 27 36 -23 35 28 52 -27 -28 -29 29 40 -32 -33 -34 -35 -36 -37 45 -39 -40 -41 -42 46 43 -45 -46 -47 56 48 -50 59 51 -53 -54 -55 61 -57 -58 -59 -60 -61 -62 -63
leaf_value=0.0071555363987240482 0.041009303018364356 0.0077163681546948111 0.0033005348823536237 0.056546136248322089 0.044285878091009617 0.0012622378360816462 0.033478061128104857 0.040707829608730317 -0.033013579305250146 -0.065069351513088236 0.016862163127664399 -0.01224404698307037 -0.10501372478766413 -0.030133861970401923 -0.05717268648949711 -0.015800915844709159 -0.079395412071108284 0.065116907516574549 0.030200064034260982 0.076188056273992957 -0.041977836319364949 -0.055514426615056303 -0.061071639339227692 -0.11039972645545269 -0.11072885681428873 0.062596277523695634 -0.12423930332752474 -0.0099788161288651527 -0.028176800636026501 0.10525877757303025 0.029149120078583501 0.056067558127640686 -0.019119076071808145 -0.057853915534995373 -0.063972103056484264 0.0031962984890916233 0.074955441822060681 0.072608246955283881 0.12843106993454215 -0.084650965298632655 -0.0032332136849369357 -0.063207767892825811 0.04116282768172834 -0.02041725835617321 0.076279551595417397 -0.029369112717339302 0.047866546656886257 0.095330607638744347 0.047156300025992325 -0.08587646325696667 -0.08282420614193832 0.033130139342898109 -0.0095821197295396891 0.093963562856268029 0.174191588061129 0.11817164351041198 -0.087634238783432294 -0.15481107872433586 0.023966284587625755 0.12763084584532775 0.059034774155202613 0.12493968256936072
leaf_weight=11551.496172711253 843.46747057139874 30.882556155323982 2425.2571745887399 4526.5386786013842 1302.7182198613882 11646.853720620275 11667.523163691163 5505.4665258675814 161.06152406334877 1287.1547497138381 781.83043898642063 2253.3801530450583 324.93889848142862 2513.0862845182419 99.759753793478012 1903.2823296263814 729.04273753613234 172.71623919904232 7.1265768408775321 315.04006844758987 718.20347574353218 1805.6048365086317 333.62301422655582 23.755261361598969 169.63139796257019 3386.0003771036863 42.043680444359779 307.27314732968807 694.90167582035065 216.86741060018539 1311.3293346613646 1079.277646869421 1608.6029212623835 314.69035115838051 91.189842820167542 622.34002198278904 69.911927312612534 27.897033780813217 15.77786250412464 686.61168195307255 66.78703610599041 13.922040060162542 534.84548754990101 403.2254291176796 2173.1258665025234 200.97019402682781 222.73877489566803 268.46854250133038 1245.0025448799133 20.572060003876686 434.94783148169518 45.900192365050316 56.739657983183861 863.34593607485294 57.301964491605759 66.802442044019699 14.832906126976011 101.03981989622116 14.832915738224981 6.9578640460968009 15.589746460318564 8.0844713449478132
leaf_count=39901 2524 96 8874 13263 3900 39813 36992 16465 530 5915 2778 8931 2099 9385 337 6181 3082 500 23 920 2776 7141 1297 90 835 9755 208 1015 2407 592 4140 3183 5350 1135 310 2067 209 103 41 2922 211 54 1591 1296 6144 718 656 758 3677 73 1699 142 251 2380 138 176 52 411 47 19 45 21
internal_value=0 0.00714924 0.0109157 0.0149141 0.0275106 0.0235284 0.0173844 0.0179782 0.0270993 -0.00464618 -0.034109 -0.0251358 -0.00174576 0.000492596 0.0367423 0.0261909 -0.00859142 -0.0298339 -0.0297557 -0.0228337 -0.0255193 -0.0314925 0.0142445 0.0479197 -0.00995449 0.0591686 0.0548824 0.0336423 0.0320908 0.0180163 0.00929304 0.0445001 -0.0109516 -0.00372322 0.0372036 -0.0192327 -0.0530722 -0.09097 -0.0749929 -0.0628346 0.0797141 0.0599157 0.0541482 0.0146929 0.0664177 -0.002444 0.0803747 0.0528562 0.0557017 0.0929515 -0.0847694 -0.0717556 -0.0853765 0.0914693 0.117274 0.0832518 0.0394065 -0.142622 -0.0587508 0.000967528 -0.0234037 0.168102
internal_weight=0 52418.9 46942.4 42300.4 27991.3 27883 23314.4 19079.8 14203.8 3309.32 2068.99 5476.5 14417.4 14064.6 10894.5 7408.75 4876.01 2526.14 5270.31 4681.3 4642.02 4058.98 2349.87 8911.45 2966.32 3485.76 4568.58 622.313 3841.94 2289.89 2006.23 1240.34 1781.32 2739.95 1393.91 955.963 1675.7 352.836 744.821 1404.82 283.654 5069.5 3954.66 938.071 3016.59 270.882 1114.84 1552.06 1513.47 206.191 589.014 480.848 226.371 877.268 163.071 97.685 237.572 108.166 38.5882 43.1197 36.1618 65.3864
internal_count=268644 180334 159484 141764 88310 90276 76805 61691 45144 12406 8693 20850 51488 49286 32738 22646 16547 8973 20282 18007 17720 16072 7574 26619 11095 10092 13471 1935 11922 7350 6547 3713 5850 10009 4210 3364 6625 2202 3123 5698 803 14697 11555 2887 8668 927 3142 4572 4435 568 2275 1841 1086 2434 431 272 708 434 137 137 118 159
is_linear=0
shrinkage=0.1


Tree=14
num_leaves=53
num_cat=0
split_feature=52 31 91 106 23 34 135 88 104 97 103 69 30 101 48 53 132 30 77 136 22 104 71 136 108 102 31 102 128 102 75 104 54 101 22 135 133 30 52 103 72 69 133 42 115 5 29 54 6 4 89 103
split_gain=657.532 544.077 555.524 546.28 527.653 393.458 422.402 324.986 316.524 297.312 291.163 601.617 249.11 255.651 205.102 191.319 186.654 170.429 212.868 164.255 175.626 264.97 164.245 163.412 155.997 146.73 130.889 230.2 130.074 116.251 104.169 103.614 95.4802 89.7856 84.5541 76.7217 68.5939 66.5401 64.428 53.319 46.9023 42.1343 47.5822 40.0347 15.643 15.4147 9.93449 0.563878 0.0512306 0.0101183 0.00618544 0.00206734
threshold=0.95209720730781566 0.99950847029685985 -1.0068871378898618 -0.91009613871574391 1.3458824157714846 0.84249767661094677 1.0000000180025095e-35 -1.2831618785858152 -0.93516278266906727 -1.0043256878852842 -0.84225815534591664 -0.15658332407474515 1.1010537743568423 -0.9393760859966277 1.2344319224357607 1.0842186212539675 1.0000000180025095e-35 1.084310829639435 -1.1749096512794492 1.0000000180025095e-35 1.2846089601516726 -0.80594521760940541 -0.55412462353706349 1.0000000180025095e-35 -0.99161890149116505 -0.95108953118324269 0.99310514330863964 -0.76294022798538197 1.0000000180025095e-35 -0.91833424568176258 -1.0800054669380186 -0.8460208773612975 0.94748184084892284 -0.89115390181541432 1.4991474747657778 1.0000000180025095e-35 1.0000000180025095e-35 1.0624265074729922 0.98591941595077526 -0.94166439771652211 -0.70044019818305958 -0.37513047456741327 1.0000000180025095e-35 0.99482142925262462 -0.93538001179695118 0.69581112265586864 1.2072655558586123 0.78458082675933849 0.93964579701423656 0.86074003577232372 -1.3310533165931699 -0.81682148575782765
decision_type=2 2 2 2 2 2 2 2 2 2 2 2 2 2 2 2 2 2 2 2 2 2 2 2 2 2 2 2 2 2 2 2 2 2 2 2 2 2 2 2 2 2 2 2 2 2 2 2 2 2 2 2
left_child=7 2 19 22 10 8 15 47 38 32 23 -12 13 16 -10 -7 25 18 -15 26 21 -21 34 -5 -8 -9 28 -28 -2 -19 -22 -11 -6 43 36 -35 -3 -18 -4 41 44 42 -14 -24 -41 -36 -43 48 49 -1 51 -50
right_child=1 3 5 4 9 6 24 12 14 31 11 -13 39 17 -16 -17 37 29 -20 20 30 -23 33 -25 -26 -27 27 -29 -30 -31 -32 -33 -34 35 45 -37 -38 -39 -40 40 -42 46 -44 -45 -46 -47 -48 -49 50 -51 -52 -53
leaf_value=-0.12448928639533396 0.037851566568159273 0.029608388679343289 0.030359799068987243 0.038289043107290865 -0.040015152635429908 0.0010439545030392218 0.094940185969522473 0.088427703718820722 -0.032969128671684222 -0.039931828290059986 -0.05256333187962961 0.0070341661357848796 -0.0060681825767336071 0.042124537148548302 0.055633791145175839 0.022202933953770654 -0.01421204625351649 -0.019129502649453182 -0.024273302622250133 0.067671019187189096 -0.020139810805629182 -0.065882855958987227 0.10641626425182714 -0.011809333185021826 0.020818429025095696 0.019572487830463507 0.032526514107059132 -0.021052210360452236 0.064527557388439599 -0.075428852308942917 0.023378929660551943 -0.096029517395202546 0.044152972199415781 0.034320947507594089 -0.14260649971071362 0.081299882678656218 -0.044754641987970273 -0.11451000501452989 0.12501867819302495 -0.08212557127510095 0.20016604634120772 0.014916518063337226 -0.10396904840652546 0.033576563936347552 -0.12412131223771927 -0.033391541410037653 0.16622611509074134 -0.15591776558943646 -0.11046009573271698 -0.1163897255601891 -0.11459683509157632 -0.11098079203529353
leaf_weight=2.6399864479899398 8174.3612902462482 569.9300674200058 130.69551940262318 3480.2239690423012 177.33396534621716 7736.2960488647223 899.35758475959301 399.45808500051498 3341.225302875042 3011.9639633148909 1943.5096924602985 13183.414462357759 128.27544285356998 701.77919099479914 283.42221422493458 9546.7570595294237 171.5581457093358 731.20559531450272 1547.6694823578 899.47370128333569 1417.7160796672106 177.94196863472462 425.22662591934204 800.91883714497089 414.9428913295269 1374.1324065849185 9363.5835857540369 877.00918991863728 2354.3422124236822 735.87826336920261 898.69017720222473 369.66167426109314 561.62409092485905 1363.7552618086338 42.290898978710175 466.55109269917011 158.55069524049759 107.65088035166264 159.8442562520504 298.67730997502804 5.4676665663719168 6.7603061497211483 80.988187313079834 91.735884204506874 126.16300197690725 18.610068663954735 12.116298109292982 2.7998162508010855 215.88560242205858 3.7096388712525368 4.0062326043844214 117.88867469877005
leaf_count=17 25131 1792 442 11159 641 25250 2478 1189 13747 11311 7633 44469 478 2266 920 29874 671 2664 5965 2600 5228 609 1234 2982 1342 4727 29039 2876 6840 2792 3030 1612 1741 4217 183 1328 584 455 437 1347 17 24 366 273 623 70 36 13 2527 31 37 1327
internal_value=0 0.0156142 0.0221243 0.00421883 -0.00100716 0.0108219 0.0168877 -0.0169469 -0.017991 -0.0335075 0.00589307 -0.00062293 -0.0118585 -0.00520787 -0.026041 0.0127317 0.0231163 -0.0208525 -0.00355862 0.0326546 0.0122584 0.0456138 0.0434201 0.0289166 0.0715389 0.0350804 0.0359875 0.027938 0.0438166 -0.0473688 -0.00325596 -0.0460641 0.0239544 0.0566902 0.00396064 0.046296 0.0134236 -0.0528826 0.0824376 -0.0701314 -0.0908515 -0.0310501 -0.0439573 0.0934907 -0.0945969 -0.109233 0.112037 -0.111222 -0.110858 -0.119757 -0.110691 -0.110644
internal_weight=0 73341 46675.7 26665.3 23528.7 22512.5 18597.4 6774.71 3915.19 4120.58 19408.1 15126.9 6427.78 5769.33 3624.65 17283.1 2052.8 3716.53 2249.45 24163.1 3393.82 1077.42 3136.65 4281.14 1314.3 1773.59 20769.3 10240.6 10528.7 1467.08 2316.41 3381.63 738.958 2347.27 789.382 1830.31 728.481 279.209 290.54 658.448 430.308 228.14 209.264 516.963 424.84 60.901 18.8766 346.93 344.13 6.34963 337.781 333.774
internal_count=268644 241072 149843 91229 81548 74490 58944 27572 15546 15305 66243 52102 23620 20729 14667 55124 7042 13687 8231 75353 11467 3209 9681 14141 3820 5916 63886 31915 31971 5456 8258 12923 2382 7052 2629 5545 2376 1126 879 2891 1987 904 844 1507 1970 253 60 3952 3939 48 3891 3854
is_linear=0
shrinkage=0.1


Tree=15
num_leaves=63
num_cat=0
split_feature=70 103 136 69 103 103 32 53 68 103 109 48 68 103 101 113 31 31 31 51 25 116 45 32 135 136 123 52 134 58 38 59 52 42 69 103 102 103 103 63 69 124 32 134 16 54 40 44 74 128 77 37 102 102 61 38 51 20 118 107 52 0
split_gain=557.962 482.069 523.004 456.058 675.033 441.233 421.249 420.724 382.148 321.979 387.368 275.831 251.079 396.098 247.412 221.393 192.653 172.156 167.188 177.538 161.056 155.042 130.702 126.687 121.79 114.761 112.814 149.943 133.241 193.947 152.428 110.844 106.041 105.965 104.032 116.052 103.794 99.3564 81.3263 77.8237 186.166 77.7323 74.6745 69.5947 61.3259 53.4233 49.8059 47.2365 46.5168 44.1343 43.3255 40.0674 55.8267 37.727 33.1026 31.6622 29.2871 25.4401 24.576 24.5491 23.7038 20.2363
threshold=-0.25762377679347986 -0.80870741605758656 1.0000000180025095e-35 -0.15658332407474515 -0.83737134933471669 -0.79153454303741444 0.96163162589073192 0.92542254924774181 0.073192294687032713 -0.69796237349510182 -1.1246227025985716 1.2344319224357607 0.10890095308423044 -0.76653233170509327 -0.8336869180202483 -1.0460576415061948 1.0002608895301821 0.99641379714012157 0.99918293952941906 0.96661329269409191 1.2307540178298952 -1.5223522186279295 1.1412888169288637 0.96788424253463756 1.0000000180025095e-35 1.0000000180025095e-35 -1.4848101735115049 1.0820189118385317 1.0000000180025095e-35 0.83980795741081249 0.91549509763717662 0.83784714341163646 1.0586217641830447 1.1532743573188784 -0.11257400363683699 -0.79617217183113087 -0.83633449673652638 -0.81991359591484059 -0.7817205786705016 0.52508950233459484 -0.088383127003908143 -1.6220284700393675 0.95832782983779918 1.0000000180025095e-35 0.98111459612846386 0.98389568924903881 1.0619869232177737 1.0840933918952944 -1.0703049302101133 1.0000000180025095e-35 -1.1256365180015562 0.96613851189613353 -0.80558651685714711 -0.79414665699005116 0.64879161119461071 0.96473827958107006 1.0977566838264468 1.3712756037712099 -1.4336913824081419 -0.9111630618572234 1.0835483074188235 0.44330662488937383
decision_type=2 2 2 2 2 2 2 2 2 2 2 2 2 2 2 2 2 2 2 2 2 2 2 2 2 2 2 2 2 2 2 2 2 2 2 2 2 2 2 2 2 2 2 2 2 2 2 2 2 2 2 2 2 2 2 2 2 2 2 2 2 2
left_child=1 2 3 4 7 23 14 -1 20 12 33 -12 13 -10 -5 54 -6 26 19 -17 24 -14 41 32 38 51 28 48 30 -30 -3 -29 49 -11 45 42 -8 -20 -7 43 -41 -22 -36 -34 -24 50 56 -47 -28 55 -19 52 -25 -53 57 -2 -27 -4 -26 -56 -37 -51
right_child=5 17 15 6 16 8 36 -9 9 10 11 -13 21 -15 -16 18 -18 34 37 -21 22 -23 44 25 58 46 27 31 29 -31 -32 -33 39 -35 35 60 -38 -39 -40 40 -42 -43 -44 -45 -46 47 -48 -49 -50 61 -52 53 -54 -55 59 -57 -58 -59 -60 -61 -62 -63
leaf_value=-0.012580970319152677 -0.069807464939052336 -0.059241720665039167 0.14286808289603778 0.058672744258002778 -0.016705836228993139 -0.016123518061490434 0.022556764968599971 0.017471404674809357 0.033348436319319795 0.047676968427387022 -0.057861069524309097 0.028345592695827062 -0.07748340822230175 -0.024561356283443678 0.025023318556703606 -0.097391577433808524 -0.066036773229955548 -0.050706688898718447 -0.033591635346700614 0.0027723605441511805 -0.064534792993709775 0.045615061612711269 0.022194348090004666 -0.0054936443501806993 0.15585090018961306 -0.075762771994382416 -0.11960944618254761 0.055440274716772681 0.14491990096484739 -0.095921130346565964 0.014441906956366733 -0.065652643563569646 0.057642099612485842 -0.099079756707685956 0.04735134387806323 -0.11058422116270455 -0.025520523383847568 -0.094674086999704102 -0.062965769946339872 0.015600985389122805 0.054586288350311464 0.0019610876490718859 -0.024559673218886136 0.11031903830833863 0.09325997679869083 -0.10485033618245883 -0.10131000525002168 -0.057887532634292853 -0.016280964531341747 -0.083964002815821795 0.22705674411133023 0.029804905628007212 -0.089599193317538628 -0.034515970568659952 -0.045111520353161655 0.038257707036634864 0.089802015939083421 0.061409582113263028 0.03049530587480493 0.13402466529363583 -0.051676076960376377 0.12421097062205205
leaf_weight=5817.3176418021321 129.04424379020929 422.32879836857319 84.836573973298073 3873.3864153176546 2011.4839626774192 605.85013182461262 656.52122713625431 23384.286919295788 3399.3593530356884 1007.8440517932177 1395.9180719479918 505.5914853811264 104.17345848679543 1810.044296503067 5013.0596744418144 191.31301609426737 1305.432887211442 11.692004367709162 2623.4051179736853 2358.1988846510649 256.31104066967964 5739.4499066397548 416.23652243614197 226.35472556948662 33.444014430046082 11.246219426393507 47.043182156980038 674.67418883740902 36.600632071495056 386.79544124007225 837.4956706315279 85.130072504281998 1229.7812127023935 51.725072398781776 222.93956243991852 118.22088298201561 1420.9441257864237 296.37960033118725 954.70582220703363 1731.4447267949581 4186.7930926084518 559.64132565259933 409.92730911076069 315.05806130170822 171.44586074352264 317.44464859366417 15.955104157328604 658.3650436103344 589.82264168560505 5.7720039933919933 10.805193290114401 306.808723077178 121.16738772392273 129.75682009756565 28.518437311053276 34.324073880910873 213.78286887705326 69.952681198716164 29.377403363585472 10.454620853066443 161.78716617822647 24.447783708572388
leaf_count=22137 504 1873 217 11641 7405 2051 2097 76375 10280 3010 6613 1620 364 6031 15946 1542 5459 54 9976 8318 914 17072 1307 730 84 40 471 2027 109 1557 2778 308 3622 183 659 496 5157 1181 3782 5405 12332 1841 1474 852 482 1333 59 2812 2343 22 36 941 469 449 96 106 596 201 89 27 613 76
internal_value=0 0.00584533 0.00885254 0.0125754 0.0066288 0.0237333 0.0302129 0.0114846 0.0143851 0.0213448 -0.00794034 -0.0349396 0.0291902 0.0132273 0.0396903 -0.0197327 -0.0361209 -0.0237658 -0.0234543 -0.00474385 -0.0178362 0.0434206 0.00697023 0.0420826 -0.0392848 0.00906803 -0.00913563 0.011875 -0.0265694 -0.0751015 -0.0102589 0.0418728 0.0465026 0.0405127 -0.0473424 -0.0229441 -0.0103271 -0.039792 -0.0447803 0.048398 0.0431807 -0.0189269 0.00077237 0.0683852 0.0429265 -0.0696527 0.0694223 -0.0731652 -0.0239135 -0.026567 0.0827005 -0.00948145 -0.034818 0.0106873 0.0853152 -0.0471027 0.0815276 0.106055 0.0972304 0.00294221 -0.0765474 0.0844494
internal_weight=0 54136.6 49145.5 43482.4 32518.5 25722.9 10963.9 29201.6 17041.1 14014.1 2961.08 1901.51 11053 5209.4 8886.45 5663.06 3316.92 4991.07 5469.3 2549.51 3027.01 5843.62 1403.63 8681.74 1623.38 1025.07 3079.89 1396.67 1683.22 423.396 1259.82 759.804 7656.67 1059.57 1911.18 912.875 2077.47 2919.78 1560.56 7463.08 5918.24 815.952 632.867 1544.84 587.682 998.307 240.984 975.81 636.866 193.588 22.4972 784.088 347.522 436.566 193.762 163.368 225.029 154.789 62.8214 38.9731 280.008 30.2198
internal_count=268644 186718 167775 146217 111376 81926 34841 98512 55723 45173 11426 8233 33747 16311 27587 21558 12864 18943 21017 9860 10550 17436 4544 26203 6006 3284 11466 5149 6317 1666 4651 2335 22919 3193 7477 3242 7254 11157 5833 22211 17737 2755 2133 4474 1789 4235 695 4145 2814 708 90 2589 1199 1390 541 610 636 418 173 123 1109 98
is_linear=0
shrinkage=0.1


Tree=16
num_leaves=52
num_cat=0
split_feature=52 102 70 6 31 100 134 109 101 4 29 102 135 135 39 102 30 32 102 70 134 30 69 135 53 132 136 27 29 30 30 103 101 73 83 30 134 103 104 72 28 66 30 40 46 54 99 67 95 52 54
split_gain=489.582 354.075 780.184 349.802 298.398 452.2 356.779 532.93 291.515 329.727 279.581 274.192 254.029 240.609 230.773 196.993 175.99 160.527 178.755 166.416 153.822 154.837 132.748 131.596 116.903 104.722 89.4679 116.583 78.5498 77.6229 98.3591 76.9238 75.3744 74.1873 53.6974 51.3743 75.3786 52.2429 37.7173 29.5292 24.7731 13.2836 12.7895 5.16025 9.46767 4.67878 1.0867 0.663659 0.504514 0.142079 0.00949211
threshold=1.0339431166648867 -0.86704063415527333 -0.33677548170089716 0.93964579701423656 0.99793416261672985 -0.78631049394607533 1.0000000180025095e-35 -0.92902681231498707 -0.93396452069282521 0.72533592581748974 1.2094488143920901 -0.83825248479843129 1.0000000180025095e-35 1.0000000180025095e-35 0.87717729806900036 -0.89297816157340992 1.0881804823875429 0.9545138180255891 -0.84760791063308705 -0.35733607411384577 1.0000000180025095e-35 1.0804353356361391 -0.048624575138092034 1.0000000180025095e-35 1.0526106953620913 1.0000000180025095e-35 1.0000000180025095e-35 1.2097817659378054 1.1887776255607607 1.072553336620331 1.1060367822647097 -0.93238496780395497 -0.94772115349769581 -0.84792092442512501 -1.2389928698539732 1.0894572734832766 1.0000000180025095e-35 -0.90771630406379689 -0.87088048458099354 -0.67300933599472035 1.2689936161041262 0.19342038035392764 1.0736850500106814 0.94095757603645336 1.0524138212203982 0.65820690989494335 -0.8573637306690215 0.043123232200741775 -1.0376574993133543 0.8752533793449403 0.75167286396026622
decision_type=2 2 2 2 2 2 2 2 2 2 2 2 2 2 2 2 2 2 2 2 2 2 2 2 2 2 2 2 2 2 2 2 2 2 2 2 2 2 2 2 2 2 2 2 2 2 2 2 2 2 2
left_child=3 20 17 8 5 22 11 -8 9 29 12 -6 15 -7 -14 -10 25 18 19 -3 21 26 -4 -20 28 -11 27 -2 -23 31 -31 -1 -18 -28 -26 37 -37 -12 42 43 46 -40 -19 44 -22 -42 48 -45 50 -50 -5
right_child=1 2 4 40 6 13 7 -9 10 16 35 -13 14 -15 -16 -17 32 38 23 -21 39 24 -24 -25 34 -27 33 -29 -30 30 -32 -33 -34 -35 -36 36 -38 -39 41 -41 45 -43 -44 47 -46 -47 -48 -49 49 -51 -52
leaf_value=0.044307325488585708 0.011018095266977496 -0.030829492752435191 0.03343127681946842 -0.1090514291027863 0.0223554846554926 0.0090946765966425352 -0.01717374789284842 0.058747426620162281 0.0069480233664280817 0.038719747513758965 -0.01040055373868462 -0.00751895896480906 0.0015111764175016504 0.067596764747738139 0.051523499755849959 -0.023381323331829441 -0.016952327274488945 -0.080943924070583012 -0.059234297781312541 0.024993997892169169 -0.1693314884466339 0.019011447462562749 0.064840208963317339 0.0092792087125736604 -0.15933791285475618 -0.034972662536204291 -0.023665011102970309 0.056340056731733958 -0.13352671994704243 0.0594876076767199 -0.02631569825348681 -0.023874581280510069 -0.072544119688847372 0.036656799931476886 0.0057608141619349424 -0.090318979034340441 0.3015576723809168 -0.079977668526080251 -0.10785598305607642 0.073173950358773693 -0.02761907840429513 0.049687877674817589 0.068440288830980966 -0.18460840511978704 -0.02753010478102566 0.09586109404683224 -0.027420266268380566 -0.14501697861208745 -0.12058913640270484 -0.14052691086661573 -0.11695859239045603
leaf_weight=373.70493143796921 659.87271654605865 1084.0976345837116 10344.230819940567 294.03654488176107 4124.8335983157158 15300.248374611139 1397.8695424944162 2730.7572235912085 3155.0442144572735 749.52536720782518 271.13820554316044 12039.300825387239 3587.8065701723099 736.88001202046871 1242.036474391818 6666.5449035987258 609.52568482607603 8.4791567027568835 1458.8577553480864 1052.4741639196873 11.728642150759699 658.88002459704876 1546.8379541784525 347.03010152280331 63.984754294157028 259.63859347999096 313.79306288063526 4057.458168104291 35.582002907991409 1876.8415030539036 143.83899393677711 296.96136809885502 406.58562614023685 582.08579641580582 28.463484168052673 441.47193305194378 4.9636966586112967 179.27155792713165 301.24461221694946 6.5527990609407416 6.0562095418572408 5.4487729519605628 17.684037312865257 25.659505859017376 7.86654008924961 6.220334604382515 1.5932839065790165 5.0705915987491599 19.0618399232626 4.3990222215652457 1.5260531827807415
leaf_count=1124 2069 3800 31637 3879 13583 50385 4934 8452 11248 2593 1035 41429 11846 2174 3719 25340 2368 31 5887 3420 47 2029 4609 1214 300 1015 1085 11857 178 5647 551 1044 1756 1856 90 1938 13 729 1256 19 32 18 53 104 27 20 8 20 140 22 14
internal_value=0 0.0151223 0.0124043 -0.00278671 0.0160343 0.0227397 0.00680577 0.0330421 -0.00111647 0.0206598 -0.00772237 0.000104531 -0.00440472 0.0117828 0.0143723 -0.0136385 -0.00981945 -0.0285376 -0.0229072 -0.00333087 0.0372198 0.0386748 0.0375171 -0.0460683 -0.00286705 0.0197601 0.0444985 0.0500003 0.0111959 0.0435959 0.0533798 0.0141174 -0.0391968 0.0155283 -0.108506 -0.0619217 -0.0859619 -0.0380936 -0.0952252 -0.126505 -0.104463 -0.105057 0.0200268 -0.152505 -0.112405 0.0349464 -0.109801 -0.178076 -0.110213 -0.124328 -0.109092
internal_weight=0 58953.3 52496.3 20597.8 48221 27928.2 20292.8 4128.63 20264.9 4716.62 15548.3 16164.1 14651.4 16037.1 4829.84 9821.59 2025.28 4275.32 3942.46 2136.57 6457 6400.12 11891.1 1805.89 786.91 1009.16 5613.21 4717.33 694.462 2691.35 2020.68 670.666 1016.11 895.879 92.4482 896.845 446.436 450.41 332.857 56.8781 332.893 306.693 26.1632 50.3253 19.5952 12.2765 320.617 30.7301 319.023 23.4609 295.563
internal_count=268644 192563 172882 76081 157203 88805 68398 13386 71966 16098 55868 55012 52153 52559 15565 36588 7732 15679 14321 7220 19681 19464 36246 7101 2597 3608 16867 13926 2207 8366 6198 2168 4124 2941 390 3715 1951 1764 1358 217 4115 1274 84 198 74 52 4063 124 4055 162 3893
is_linear=0
shrinkage=0.1


Tree=17
num_leaves=63
num_cat=0
split_feature=70 103 136 69 102 53 103 53 135 110 105 113 37 32 101 70 116 69 63 32 68 63 31 52 31 24 69 102 33 136 103 31 58 2 68 27 59 62 92 111 69 73 101 54 52 97 128 38 36 104 61 101 107 53 60 6 127 110 1 79 74 56
split_gain=457.55 547.144 371.725 460.503 436.436 383.95 337.066 343.132 240.602 237.77 238.325 221.628 213.519 212.898 184.762 150.762 139.205 136.698 178.723 157.924 135.341 148.134 127.76 127.178 190.199 119.689 136.454 121.578 118.103 139.382 171.348 97.1216 124.732 94.8333 89.592 88.5458 92.3954 86.5144 66.8437 66.6116 66.511 88.394 64.9812 64.3135 74.3196 58.3213 58.0408 55.7442 51.6391 46.1577 45.8258 42.9597 41.8705 41.2651 41.2367 39.3504 33.3419 35.7013 32.9997 28.2826 25.2039 23.5889
threshold=-0.27863222360610956 -0.82625967264175404 1.0000000180025095e-35 -0.17839097976684568 -0.85642927885055531 0.97635900974273693 -0.80247959494590748 1.0675091743469241 1.0000000180025095e-35 -0.89630839228630055 -0.85457828640937794 -0.9962455928325652 0.93531844019889843 0.95782354474067699 -0.84262052178382862 -0.29375413060188288 -1.5140029788017271 -0.082399152219295488 0.53392031788826 0.95782354474067699 0.032903272658586509 0.51025027036666881 0.99828767776489269 0.98132002353668224 0.99641379714012157 1.1943580508232119 -0.048624575138092034 -0.7956448197364806 0.93288069963455211 1.0000000180025095e-35 -0.81371882557868946 0.98969092965126049 0.92446449398994457 0.55156031250953685 0.045530641451478011 1.2646350264549258 0.80743432044982921 0.59277829527854931 -0.91000962257385243 -1.2550943493843076 -0.14741317927837369 -0.7884630262851714 -0.83307117223739613 1.0672790408134463 1.0814900398254397 -0.96326789259910572 1.0000000180025095e-35 0.86891183257102977 0.9047428071498872 -0.81818360090255726 0.65371856093406688 -0.82840347290039051 -0.90116170048713673 1.0475085973739626 0.77385631203651439 0.59260511398315441 -1.9607870578765867 -1.0802314281463621 0.39028672873973852 -1.3705391883850095 -0.9524666666984557 1.003403425216675
decision_type=2 2 2 2 2 2 2 2 2 2 2 2 2 2 2 2 2 2 2 2 2 2 2 2 2 2 2 2 2 2 2 2 2 2 2 2 2 2 2 2 2 2 2 2 2 2 2 2 2 2 2 2 2 2 2 2 2 2 2 2 2 2
