tree
version=v4
num_class=1
num_tree_per_iteration=1
label_index=0
max_feature_idx=136
objective=binary sigmoid:1
feature_names=Column_0 Column_1 Column_2 Column_3 Column_4 Column_5 Column_6 Column_7 Column_8 Column_9 Column_10 Column_11 Column_12 Column_13 Column_14 Column_15 Column_16 Column_17 Column_18 Column_19 Column_20 Column_21 Column_22 Column_23 Column_24 Column_25 Column_26 Column_27 Column_28 Column_29 Column_30 Column_31 Column_32 Column_33 Column_34 Column_35 Column_36 Column_37 Column_38 Column_39 Column_40 Column_41 Column_42 Column_43 Column_44 Column_45 Column_46 Column_47 Column_48 Column_49 Column_50 Column_51 Column_52 Column_53 Column_54 Column_55 Column_56 Column_57 Column_58 Column_59 Column_60 Column_61 Column_62 Column_63 Column_64 Column_65 Column_66 Column_67 Column_68 Column_69 Column_70 Column_71 Column_72 Column_73 Column_74 Column_75 Column_76 Column_77 Column_78 Column_79 Column_80 Column_81 Column_82 Column_83 Column_84 Column_85 Column_86 Column_87 Column_88 Column_89 Column_90 Column_91 Column_92 Column_93 Column_94 Column_95 Column_96 Column_97 Column_98 Column_99 Column_100 Column_101 Column_102 Column_103 Column_104 Column_105 Column_106 Column_107 Column_108 Column_109 Column_110 Column_111 Column_112 Column_113 Column_114 Column_115 Column_116 Column_117 Column_118 Column_119 Column_120 Column_121 Column_122 Column_123 Column_124 Column_125 Column_126 Column_127 Column_128 Column_129 Column_130 Column_131 Column_132 Column_133 Column_134 Column_135 Column_136
feature_infos=[-1.7391834259033203:2.1873281002044678] [-1.6486232280731201:2.0962586402893066] [-1.5678098201751709:2.0136351585388184] [-1.4949060678482056:1.9394575357437134] [-1.4299124479293823:1.8737261295318604] [-1.3728283643722534:1.8164401054382324] [-1.333403468132019:1.7788288593292236] [-1.3043193817138672:1.7939627170562744] [-1.2702003717422485:1.9694005250930786] [-1.226288914680481:2.0549979209899902] [-1.1696058511734009:1.9997674226760864] [-1.0977727174758911:2.073509693145752] [-1.0288742780685425:2.1457490921020508] [-0.91207128763198853:2.2142360210418701] [-0.8030850887298584:2.2759943008422852] [-0.68971306085586548:2.4052433967590332] [-0.63882678747177124:2.5269482135772705] [-0.65620064735412598:2.5277442932128906] [-0.66012513637542725:2.5653238296508789] [-0.66667592525482178:2.5221147537231445] [-0.8555336594581604:2.4413206577301025] [-0.86833834648132324:2.3840618133544922] [-0.86565589904785156:2.2409591674804688] [-0.7797551155090332:2.1797337532043457] [-1.0841877460479736:2.1696581840515137] [-1.4308524131774902:2.0883691310882568] [-1.6366665363311768:1.9448176622390747] [-1.8254417181015015:1.7025836706161499] [-1.9202775955200195:1.5450669527053833] [-2.2033448219299316:1.3473584651947021] [-2.6534385681152344:1.1459542512893677] [-2.9375624656677246:1.0691677331924438] [-2.8964071273803711:1.0182701349258423] [-2.6209216117858887:1.0153312683105469] [-1.9672813415527344:1.0222163200378418] [-1.2877312898635864:1.096311092376709] [-0.66409575939178467:1.2523990869522095] [-0.67049169540405273:1.4357191324234009] [-0.67177027463912964:1.5244829654693604] [-0.6765514612197876:1.427788257598877] [-0.67391806840896606:1.3506048917770386] [-0.77278417348861694:1.3033223152160645] [-0.78214722871780396:1.4334096908569336] [-0.6774904727935791:1.6771683692932129] [-0.67593681812286377:1.8418123722076416] [-0.67998087406158447:1.9795904159545898] [-0.67735743522644043:1.8671952486038208] [-0.68056988716125488:1.8940913677215576] [-0.67851173877716064:2.0411467552185059] [-0.68057990074157715:2.1347439289093018] [-0.67868822813034058:2.1180493831634521] [-0.68411111831665039:2.1010029315948486] [-0.68776941299438477:2.3278176784515381] [-0.6967010498046875:2.41339111328125] [-0.68777680397033691:2.0181429386138916] [-0.66555494070053101:1.663224458694458] [-0.63047897815704346:1.3776267766952515] [-0.79989981651306152:1.3641012907028198] [-0.9627259373664856:1.3483799695968628] [-0.83332031965255737:1.3266682624816895] [-0.62303602695465088:1.3006186485290527] [-0.62908732891082764:1.4134206771850586] [-0.65896600484848022:1.6471337080001831] [-0.67422842979431152:1.5962808132171631] [-0.93073725700378418:1.2496439218521118] [-1.1747497320175171:1.0751444101333618] [-1.3727543354034424:0.99085426330566406] [-1.6713657379150391:0.88367986679077148] [-1.8910553455352783:0.75060045719146729] [-2.0949718952178955:0.59843027591705322] [-1.9126988649368286:0.44751104712486267] [-1.7446892261505127:0.31280896067619324] [-1.674402117729187:0.20481951534748077] [-1.5674382448196411:0.12430305778980255] [-1.4517455101013184:0.30397361516952515] [-1.6804615259170532:0.84510332345962524] [-1.8599822521209717:1.4404212236404419] [-2.0371255874633789:1.2026444673538208] [-2.1728529930114746:1.1285310983657837] [-2.2573421001434326:0.92254304885864258] [-2.3058340549468994:0.73609095811843872] [-2.3315773010253906:0.27998179197311401] [-2.3403120040893555:0.3133491575717926] [-2.3343968391418457:0.36315670609474182] [-2.3124566078186035:0.5232703685760498] [-2.2730567455291748:0.45226269960403442] [-2.2140905857086182:0.47906926274299622] [-2.1362462043762207:0.50354379415512085] [-2.0426793098449707:0.59374678134918213] [-1.9374580383300781:0.53568804264068604] [-1.8240519762039185:0.65060514211654663] [-1.8478662967681885:1.0689502954483032] [-1.6520191431045532:1.4172115325927734] [-1.5958865880966187:1.6290324926376343] [-1.5394163131713867:1.6649528741836548] [-1.4922878742218018:1.6182941198348999] [-1.4547033309936523:1.5608183145523071] [-1.4384253025054932:1.5595740079879761] [-1.4264529943466187:1.5630311965942383] [-1.5819015502929688:1.5628886222839355] [-2.0638625621795654:1.5685317516326904] [-2.4619696140289307:1.5680602788925171] [-2.648137092590332:1.5700795650482178] [-2.5047333240509033:1.5659784078598022] [-2.1062953472137451:1.5674868822097778] [-1.4475361108779907:1.5623446702957153] [-1.2213733196258545:1.563502311706543] [-1.117332935333252:1.561995267868042] [-1.168958306312561:1.5723429918289185] [-1.225186824798584:1.5757462978363037] [-1.369315505027771:1.5825309753417969] [-1.6010570526123047:1.5861003398895264] [-2.1418814659118652:1.5904537439346313] [-2.4733853340148926:1.5896482467651367] [-2.5047738552093506:1.5896980762481689] [-2.0072333812713623:1.5865405797958374] [-1.6131480932235718:1.5868538618087769] [-1.6321159601211548:1.7016431093215942] [-1.6864286661148071:2.5795986652374268] [-1.7459897994995117:2.8008601665496826] [-1.820858359336853:2.5472877025604248] [-1.9280952215194702:1.7180403470993042] [-2.1567583084106445:1.6308574676513672] [-2.3918964862823486:1.6220458745956421] [-2.6616356372833252:1.8138364553451538] [-2.9761693477630615:2.1645474433898926] [-3.3559722900390625:3.0688047409057617] [-3.8750591278076172:4.2020993232727051] [0:1] [0:1] [0:1] [0:1] [0:1] [0:1] [0:1] [0:1] [0:1]
tree_sizes=6589 6752 6369 6149 6364 6237 6671 6579 6660 6596 6465 6410 6681 6193 6897 6148 6605 6461 6656 6432 5830 6548 6158 4847 6180 6871 6884 5090 6273 6665 6936 5112 4620 6385 6694 5032 5817 6532 6614 6839 5815 5231 6350 5522 6900 5700 5858 6434 6012 6671 6834 5805 5815 6840 6841 5124 4668 6567 5427 6141 6913 5887 6459 6151 6487 4496 5314 5979 5127 6414 5775 6856 6947 6838 6672 5091 5119 6931 6403 6367 6566 6040 6137 6781 5318 6911 6598 6511 6884 6323 6662 5119 6163 6198 5911 6816 6920 6779 6806 5215 6174 6459 5825 6392 4983 4700 6870 5565 6909 6082 6831 6847 6041 5863 4698 6941 6197 6271 6589 5799 5406 6801 5465 6113 6738 6785 6589 6705 6435 5976 6478 6887 5584 6934 6129 5879 6811 6038 6354 6929 6580 6303 4445 6090 5020 5847 6247 4378 4867 4810 5230 6503 6363 6496 6502 6914 5983 6363 6313 6642 5965 6266 6556 5477 6770 6951 6615 6488 6562 6984 6898 6917 6513 5366 5641 6925 5920 6942 6164 6362 6616 6312 6476 6372 6664 6208 6540 6492 5908 5975 6276 5366 6568 3798 6926 5428 6272 4972 6920 5930

Tree=0
num_leaves=61
num_cat=0
split_feature=106 131 130 136 84 129 30 134 72 128 133 131 77 88 71 48 4 31 56 82 108 53 94 108 102 127 104 0 30 54 12 79 100 97 34 53 0 135 68 23 55 66 19 76 74 52 126 108 76 102 112 101 32 101 1 33 103 0 0 0
split_gain=89765.5 30697.5 25413.1 22415.1 27590.1 20165.8 13264.9 9619.35 9652.47 9149.94 5597.21 4775.22 3510.04 3304.96 3027.24 3929.27 2204.78 1988.45 1693.89 1604.84 1524.85 1313.69 758.579 709.738 685.884 566.12 517.467 926.294 541.892 486.251 772.667 429.4 418.155 384.166 355.837 282.191 608.241 266.149 250.871 210.294 207.628 149.616 488.394 121.263 118.643 96.0756 214.897 84.756 169.32 61.575 53.7257 202.011 41.9264 31.5079 29.3267 19.697 18.9917 2.84217e-14 2.84217e-14 3.55271e-15
threshold=-0.86317032575607289 1.0000000180025095e-35 1.0000000180025095e-35 1.0000000180025095e-35 -1.1598131060600279 1.0000000180025095e-35 1.0839332938194277 1.0000000180025095e-35 -0.65933680534362782 1.0000000180025095e-35 1.0000000180025095e-35 1.0000000180025095e-35 -1.3035469055175779 -1.2617462277412412 -0.43290783464908594 1.2393307685852053 0.65297454595565807 1.0049828886985781 0.97949665784835827 -1.2429022789001463 -0.88980466127395619 1.0063392519950869 -1.08487993478775 -0.90434831380844105 -0.84770932793617237 -2.0555472373962398 -0.86066365242004383 0.47344054281711584 1.0702251195907595 1.0290073752403261 0.77884444594383251 -1.3258175253868101 -0.83121252059936512 -0.84283912181854237 0.93171286582946788 0.99524334073066723 0.48877337574958807 1.0000000180025095e-35 0.087109908461570754 1.3821036815643313 0.9825449287891389 0.26850043237209326 1.1571203470230105 -1.2182800769805906 -0.98061281442642201 1.0501625537872317 -1.3676366209983823 -0.89589247107505787 -1.2011010050773618 -0.88411921262741078 -0.90617549419403065 -0.90120580792427052 0.92411971092224132 -0.87850472331047047 0.36410118639469152 0.91884857416152965 -0.86483111977577198 0.56791424751281749 0.055900847539305694 0.52927881479263317
decision_type=2 2 2 2 2 2 2 2 2 2 2 2 2 2 2 2 2 2 2 2 2 2 2 2 2 2 2 2 2 2 2 2 2 2 2 2 2 2 2 2 2 2 2 2 2 2 2 2 2 2 2 2 2 2 2 2 2 2 2 2
left_child=1 2 5 4 7 6 9 13 21 -1 -8 14 45 37 18 -16 -15 20 -6 -10 25 -9 43 29 -22 -14 50 33 -29 30 32 -24 -3 -28 49 36 52 -2 -36 -38 -32 44 -43 -19 -31 57 55 48 -37 -7 56 -52 -25 -49 58 -47 -4 59 -13 -5
right_child=3 23 26 12 11 34 10 8 19 -11 -12 54 17 16 15 -17 -18 22 -20 -21 24 -23 31 35 -26 -27 27 28 -30 41 40 -33 -34 -35 38 47 39 -39 -40 -41 -42 42 -44 -45 -46 46 -48 53 -50 -51 51 -53 -54 -55 -56 -57 -58 -59 -60 -61
leaf_value=-1.4845093775587248 -2.1252054888362748 -1.4680487837192806 -2.1469594555415519 -2.1569051934609025 -1.6692366411784751 -2.1503946831160121 -1.7778934528603829 -1.6658375175403251 -2.043797615268832 -1.9588899884027431 -1.5149971327361629 -2.1569051934609025 -1.9537036014254257 -1.9990133902011689 -1.7232077821333633 -1.3247293699765965 -1.5767833782059948 -1.7087476475840877 -1.2340199637911438 -1.8196050583877736 -1.4776355789959257 -1.3878463265449947 -1.9528403694079211 -1.525956325363607 -1.5905893820721784 -1.6835298591400323 -2.0893886443617493 -1.3132498710448823 -1.9543799587433264 -1.7506403112558191 -1.920122478160136 -1.7575011726972345 -2.1569051934609025 -1.9185523539086533 -1.5294265833494003 -1.6817496089903723 -1.8230268255899027 -1.2317566884061282 -2.0644019589789999 -2.0820367569927423 -2.1569051934609025 -2.1569051934609025 -1.515311359511287 -1.2415806985798894 -2.1569051934609025 -2.1569051934609025 -1.3230434764076255 -2.1546427465698885 -2.0855772036876488 -2.0844655330364805 -2.1075882282729519 -1.4474879679604857 -1.1858206034232608 -2.0733758452312268 -1.7712408555411889 -1.8492440037479712 -2.0885214327037129 -2.1569051934609025 -2.1569051934609025 -2.1569051934609025
leaf_weight=25002.935856312513 2679.2624661624432 56.042705237865448 310.52800333499908 6.9031392335891706 113.99492999911308 237.1880216896534 2542.3756041526794 276.72545501589775 771.37317222356796 413.31875815987587 1188.3979820609093 124.15498945116997 91.193088799715042 5648.0715520083904 899.04688087105751 341.43694716691971 126.43933367729187 6.8913938105106345 414.96529012918472 544.80142191052437 893.42509829998016 440.74026346206665 151.34554189443588 7.3423464894294721 1349.7529889345169 518.67974132299423 320.20313912630081 31.116565585136414 22.874409765005112 7.6020110845565787 456.51581740379333 438.82485204935074 10.456225603818892 223.51493683457375 18.45738297700882 11.37470108270645 39.313203096389771 3.3383074402809134 16.693633228540421 154.69286608695984 40.30215111374855 34.617212921380997 18.05131596326828 28.680163502693176 132.07329621911049 12.182010412216188 4.629709690809249 341.27100950479507 119.07223105430603 351.73478847742081 31.312045723199844 5.4418437182903281 7.1558831036090851 55.461287617683411 2.0020195245742789 2.5096032917499533 67.744814783334732 109.63809370994568 6.0910052061080924 7.207689493894577
leaf_count=99949 25653 216 3032 68 639 2323 16656 1543 6839 3359 5066 1223 737 47874 5462 890 607 41 754 3767 3518 1391 1222 32 6642 2972 2966 78 185 48 3556 2797 103 1738 81 65 273 6 151 1423 397 341 77 54 1301 120 12 3355 1099 3243 295 20 10 506 13 18 627 1080 60 71
internal_value=-2.04395 -1.56834 -1.54687 -1.85793 -1.92189 -1.53011 -1.51807 -1.98542 -1.79015 -1.49222 -1.69415 -1.57144 -1.63909 -2.03238 -1.52812 -1.61353 -1.98977 -1.61913 -1.32781 -1.951 -1.58372 -1.49507 -1.78056 -2.01142 -1.5456 -1.72393 -2.0395 -1.97993 -1.58488 -1.94336 -1.89648 -1.80759 -1.57636 -2.01916 -2.09257 -2.08134 -1.98286 -2.12409 -1.78349 -2.02955 -1.93933 -2.08064 -1.93701 -1.33209 -2.13479 -2.12452 -1.91714 -2.12029 -2.05036 -2.11102 -2.12528 -2.00985 -1.35808 -2.14328 -2.15107 -2.10435 -2.13649 -2.15691 -2.15691 -2.15691
internal_weight=0 32275.2 30783.8 16014.3 12392.4 29771.1 29147 10490.8 2033.64 25416.3 3730.77 1901.69 3621.86 8457.11 1769.44 1240.48 5774.51 3478.79 528.96 1316.17 2853.05 717.466 625.742 1491.34 2243.18 609.873 1012.74 597.709 53.991 755.661 563.317 590.17 66.4989 543.718 624.074 735.684 208.504 2682.6 35.151 194.006 496.818 192.344 52.6685 35.5716 139.675 143.07 19.3213 527.179 130.447 588.923 415.027 36.7539 14.4982 396.732 132.248 14.6916 378.273 123.749 130.246 14.1108
internal_count=268644 152571 139769 116073 96721 130828 125030 87680 13540 103308 21722 9041 19352 74140 7745 6352 48481 17983 1393 10606 13869 2934 4114 12802 10160 3709 8941 4967 263 6039 4272 4019 319 4704 5798 6763 1738 25659 232 1696 3953 1767 418 95 1349 1369 150 5025 1164 5566 3974 315 42 3861 1296 138 3659 1219 1283 139
is_linear=0
shrinkage=1


Tree=1
num_leaves=62
num_cat=0
split_feature=32 131 130 129 136 84 128 110 122 75 55 87 31 75 134 123 70 1 53 101 29 37 107 56 70 82 101 22 107 0 103 54 104 100 97 28 28 114 77 31 27 32 30 90 115 32 102 31 90 0 69 101 107 131 11 52 31 20 103 72 105
split_gain=34165 17460.7 13192.3 12474.6 6975.42 11860.1 6916.92 5880.65 2221.12 2337.78 1817.48 1679.38 1290.34 997.424 1223.44 995.068 986.215 1120.86 938.38 2390.87 1563.63 781.242 690.116 537.386 919.266 504.515 435.449 407.425 394.452 367.91 342.862 336.994 407.229 297.748 286.107 263.883 260.922 319.886 260.92 252.048 235.468 229.231 228.111 222.617 607.953 215.888 204.189 201.331 141.239 121.48 83.3832 107.739 82.5541 72.9209 62.2278 36.6085 36.0073 7.94785 13.5888 3.07231 0.00563296
threshold=0.95220306515693676 1.0000000180025095e-35 1.0000000180025095e-35 1.0000000180025095e-35 1.0000000180025095e-35 -1.1879459619522093 1.0000000180025095e-35 -1.2050134539604185 -1.2156182527542112 -1.0950121879577634 1.0071097612380984 -1.0653751492500303 1.0075133442878725 -1.0093123316764829 1.0000000180025095e-35 -1.1930040121078489 -0.23852175474166867 0.35179018974304205 1.0547859072685244 -0.84410125017166127 1.11499559879303 0.95887869596481334 -0.87724676728248585 0.96640345454216015 -0.2281050309538841 -1.3306572437286375 -0.8873656392097472 1.6040115356445315 -0.87922406196594227 0.41650669276714331 -0.73874640464782704 0.96349889039993297 -0.89946237206459034 -0.78782081604003895 -1.0276256799697874 1.2107864618301394 0.99088850617408764 -1.0173101425170896 -1.0874969363212583 0.99885818362236034 1.1645414829254153 0.92282557487487804 1.0226386189460757 -1.1866920590400694 -0.93038359284400929 0.94180604815483104 -0.98557406663894642 1.0171325206756594 -1.1492535471916197 0.46902102231979376 -0.16716302186250684 -0.90228283405303944 -0.8855435550212859 1.0000000180025095e-35 1.0653626322746279 1.097526013851166 0.88371348381042492 1.6095811128616335 -0.93515142798423756 -0.63369151949882496 -0.91809290647506703
decision_type=2 2 2 2 2 2 2 2 2 2 2 2 2 2 2 2 2 2 2 2 2 2 2 2 2 2 2 2 2 2 2 2 2 2 2 2 2 2 2 2 2 2 2 2 2 2 2 2 2 2 2 2 2 2 2 2 2 2 2 2 2
left_child=1 2 3 6 5 8 7 -1 9 29 -11 13 21 14 -7 -8 17 -13 19 25 -21 23 31 24 -6 -4 50 57 39 -2 54 32 35 -25 -34 -3 37 -5 -18 -23 -30 -32 -15 53 -45 56 60 49 -47 -28 51 -14 -49 -10 -20 -38 -33 59 -59 -24 -29
right_child=4 22 18 36 12 11 15 -9 43 10 -12 16 26 42 -16 -17 38 -19 30 20 -22 28 27 33 -26 -27 47 46 40 -31 41 45 34 -35 -36 -37 55 -39 -40 -41 -42 -43 -44 44 -46 48 -48 52 -50 -51 -52 -53 -54 -55 -56 -57 -58 58 -60 -61 -62
leaf_value=0.0040115336442119436 0.23272828685434691 0.65670026697500861 -0.10400372131792544 -0.1144215461712299 0.23004858826343383 0.024705425843338992 0.14109888890507921 0.3299362619498562 -0.062464446585621926 0.1088397916335113 -0.015290874852013331 0.40817849247227928 0.44675831160290197 0.28252653955127099 0.33470745856759215 -0.060184379743704067 0.40357861571257631 0.2054367504401686 -0.078200020920328198 0.53422601412094417 0.06127656899175913 0.14316868133241287 -0.11156317096352029 0.35667361728339353 0.47347921893579437 0.060869178107364835 -0.0095562986816339728 -0.1129336584818656 -0.0066054761114963936 0.83137797093983457 -0.12370922430820622 0.14353428334795754 0.65088533563264583 -0.038534583166032685 0.198797354666014 -0.020984736458133684 -0.063802469578395402 0.59000259566545321 0.13746157153927591 -0.046908606054885726 0.2729465147370253 0.35072059245488152 0.073502514304475575 -0.029974484700548865 0.42314460584754415 -0.097248073100904053 0.52022569688356357 0.096930950724501308 0.098280247140812668 0.15352384864351573 0.4861195079739779 0.0096211270653876989 0.53828933874788454 -0.11224460911209422 0.36554076424925858 -0.10816394426680823 -0.10473569817453135 -0.11725110915320834 0.17739213185434302 -0.069259971942802034 -0.11849220473531008
leaf_weight=560.77127441763878 13.378508090972899 6.0051217228174201 268.90534069389105 12.68642830103636 1861.8802960366011 171.66828832775354 659.72577051818371 43248.30684877187 1337.116521731019 2515.0063778609037 2221.3412978500128 958.21418043971062 10.807921871542932 56.206876888871193 492.65305492281914 391.26740165799856 41.426907725632191 381.15661413222551 616.67630611360073 171.6491102874279 117.93320248275995 176.05016925185919 831.80075582116842 781.78017861396074 169.22788064926863 599.09667013585567 294.32266339659691 4.29013615846634 34.663135692477226 44.123939037322998 14.793614305555819 6.0302110388874999 16.13985376060009 19.539698511362076 105.51245713233948 133.08868668228388 524.53960069268942 13.106617435812948 333.01925597339869 115.55160411447287 230.42418956011534 32.686179421842098 734.19634106755257 1526.8065378814936 30.196071855723858 48.721333235502243 15.683296538889406 7.0607885122299221 152.82226257771254 54.0685925334692 24.098476395010948 11.787205070257185 10.600422531366346 377.29976297169924 3.1765605807304373 288.25063317269087 186.91407458484173 3.9322178512811661 2.6003720983862868 17.529780365526676 3.1703877523541468
leaf_count=3105 87 14 2717 119 7912 1380 4690 123673 13326 17214 19168 2130 15 288 1482 3614 131 1684 5519 674 894 899 8489 2346 363 4790 1890 43 239 57 99 48 40 146 656 1150 5153 29 1733 761 931 96 4485 13330 146 478 29 35 1156 305 35 69 24 3897 9 2775 1843 33 13 163 25
internal_value=0 0.291291 0.30201 0.312539 0.118992 0.0793682 0.319682 0.325764 0.0149659 0.0583172 0.0506227 0.243299 0.236074 0.164279 0.254599 0.0661645 0.310373 0.350482 0.0383557 0.0928013 0.341616 0.256405 -0.0407444 0.27769 0.250331 0.00979187 0.0691354 -0.0986494 0.148106 0.692096 -0.056088 0.0369362 0.125147 0.347037 0.258777 0.00827308 -0.0695982 0.243528 0.166903 0.0678477 0.236392 0.202899 0.0883666 -0.04856 -0.0211868 -0.0213687 0.315362 0.0324508 0.0510131 0.0157529 0.356723 0.218717 0.361838 -0.0734198 -0.075926 -0.079535 -0.0969764 -0.109845 3.50008e-05 -0.11069 -0.115296
internal_weight=0 49057.8 47523.6 45698.7 15035.7 11233.8 44860.1 43809.1 8065.27 4793.85 4736.35 3168.54 3801.86 1454.72 664.321 1050.99 1713.82 1339.37 1824.92 1157.58 289.582 3389.12 1534.24 2832.43 2031.11 868.002 412.746 879.007 556.689 57.5024 667.333 655.234 260.746 801.32 121.652 139.094 838.583 25.793 374.446 291.602 265.087 47.4798 790.403 3271.42 1557 394.488 23.1438 366.052 201.544 348.391 46.6936 22.5951 17.6612 1714.42 619.853 812.79 192.944 855.863 6.53259 849.331 7.46052
internal_count=268644 172136 157956 143158 96508 80538 135082 126778 67225 36526 36382 13313 15970 7635 2862 8304 5678 3814 14798 9075 1568 13597 14180 10767 8275 7507 2373 8795 2830 144 5723 5385 1860 2492 696 1164 8076 148 1864 1660 1170 195 4773 30699 13476 3525 97 2254 1634 2195 119 84 59 17223 5528 7928 1891 8698 46 8652 68
is_linear=0
shrinkage=0.1


Tree=2
num_leaves=58
num_cat=0
split_feature=32 109 131 129 130 29 136 87 123 56 130 76 128 112 31 69 0 107 53 35 106 121 54 101 128 99 5 74 62 42 30 54 102 31 112 10 128 30 31 130 0 136 102 134 52 73 30 70 63 115 105 28 71 34 15 136 106
split_gain=18645.3 10675.1 7043.81 6240.68 5353.19 4682.12 4267.44 6806.28 1915.23 1594.36 1708.24 1104.14 891.408 687.814 682.111 664.432 832.461 502.438 432.318 420.71 416.135 372.791 304.408 253.75 249.419 228.256 224.548 224.542 209.324 212.896 207.132 203.947 254.611 236.909 195.622 191.556 137.51 124.873 122.444 92.8487 90.8173 80.3963 61.6837 53.2482 48.9622 45.7987 35.3779 35.3309 65.2845 32.8218 26.7876 25.4993 19.145 10.257 207.877 0.582622 0.0104362
threshold=0.95369794964790355 -0.85529804229736317 1.0000000180025095e-35 1.0000000180025095e-35 1.0000000180025095e-35 1.2197749614715578 1.0000000180025095e-35 -1.0979710221290586 -1.3058272600173948 0.96859088540077221 1.0000000180025095e-35 -1.1940813064575193 1.0000000180025095e-35 -0.86454826593399037 1.0075133442878725 -0.1158473528921604 0.32564441859722143 -0.87724676728248585 1.0121604800224306 0.94014686346054088 -0.864001303911209 -1.0720573067665098 1.0063669085502627 -0.8873656392097472 1.0000000180025095e-35 -0.77644571661949147 0.44876796007156378 -0.98711627721786488 0.47892998158931738 0.98044744133949291 0.88784208893775951 0.96349889039993297 -0.92889928817749012 1.0031920075416567 -1.0208121538162229 1.0252227783203127 1.0000000180025095e-35 1.0641575455665591 1.0171325206756594 1.0000000180025095e-35 0.46902102231979376 1.0000000180025095e-35 -0.81506520509719838 1.0000000180025095e-35 1.0894441008567812 -0.62860995531082142 1.0787400603294375 -0.32030963897705073 0.43782979249954229 -1.0098683238029478 -0.84122648835182179 1.1216567158699038 -0.35915525257587427 0.90249025821685802 0.99754229187965404 1.0000000180025095e-35 -0.84961989521980275
decision_type=2 2 2 2 2 2 2 2 2 2 2 2 2 2 2 2 2 2 2 2 2 2 2 2 2 2 2 2 2 2 2 2 2 2 2 2 2 2 2 2 2 2 2 2 2 2 2 2 2 2 2 2 2 2 2 2 2
left_child=1 2 3 4 5 -1 7 8 9 10 -2 -6 -11 18 19 16 20 31 37 25 -9 24 42 47 -20 27 -24 -8 29 -10 49 32 -4 -33 -18 51 -30 39 40 -3 -25 -23 -17 53 -40 50 -32 48 -16 -5 -21 -19 -27 55 -55 -15 -39
right_child=6 13 17 30 11 -7 14 15 28 12 -12 -13 -14 43 23 22 34 35 21 45 -22 41 26 38 -26 52 -28 -29 36 -31 46 33 -34 -35 -36 -37 -38 56 44 -41 -42 -43 -44 -45 -46 -47 -48 -49 -50 -51 -52 -53 -54 54 -56 -57 -58
leaf_value=0.24231545297528881 0.061145219241327702 0.25818960869572577 -0.038106526031332785 0.17407695564547906 0.22686779174364591 0.065412892988841259 -0.055898375925001791 0.31634652346602748 -0.11504669112929988 -0.052635217014486438 0.24912486433352676 0.019828795053216438 0.081831845117985261 -0.11122028843474348 0.28229923290780279 0.16585294556108415 0.093287773143244518 0.057160022236885627 -0.043621757558360993 -0.12441559611025604 -0.097033868444636281 -0.063529927905633693 0.1876311429190827 -0.0099352712630542423 0.25613669244939702 -0.12182004429107274 0.086479328234535788 0.20157192599144982 -0.065603152279755689 0.42487957837726803 -0.087520108663382917 -0.099007839741474701 0.16377977671298896 0.052156561375750025 0.26704949375921594 0.33770139749396588 -0.017985644866180109 -0.11869125159849025 0.060407707882273259 -0.047008824194566638 0.13413317003340983 0.069871633060638164 0.43723287280479028 0.25679097696027342 0.36769924696451911 0.33995527098347456 -0.033837053444976777 0.33201294577539142 -0.12324754360928568 0.51583269941832965 -0.0018708475621217685 -0.11161402862236405 0.15503763235092874 -0.11154618689224637 0.83060579302008708 -0.11804190955178213 -0.11144940552662506
leaf_weight=53272.019659236073 2391.6488410010934 101.78266884386539 91.621296606957912 5.2604054138064384 315.69146723300219 1539.3809485733509 34.204023092985153 929.03021985292435 12.082550004124643 1604.6233956664801 605.89149181544781 1399.4463102817535 711.63770511746407 595.49109045416117 12.980526559054853 10.521143041551111 299.61352422833443 9.1344715282320958 43.419692501425743 25.568732053041458 25.007475726306438 420.19141424447298 399.1789051219821 288.86135541647673 76.954244397580624 24.142603628337387 487.46317963302135 3491.7410001903772 2098.2997574210167 18.461472615599632 530.75264589488506 174.52294512093067 196.32859533280134 255.39977376163006 82.666647337377071 9.8397627770900709 852.99250546842813 2.5305444151163092 8.2289667874574679 11.050285406410692 51.566339574754238 50.618943572044373 41.071211852133274 3.9838649630546561 14.017966046929358 3.3155596107244483 159.69721662998199 31.302461430430412 5.7179888635873786 6.0331055894494039 58.996803499758244 448.01486987620592 2.7859332412481299 48.986338533461094 2.459458351135253 158.53397326171398 9.3151242733001691
leaf_count=128362 14883 286 815 29 1696 6697 209 1468 111 14181 3254 10917 5610 6662 25 36 1496 84 397 163 145 4125 1462 1872 431 171 2357 11616 20596 62 5414 1806 1058 2039 257 15 8210 22 36 88 261 222 48 9 22 7 1660 34 38 11 386 4856 13 534 7 1270 103
internal_value=0 0.216408 0.223227 0.228224 0.231903 0.237347 0.0904678 0.0570155 0.0149974 0.0509909 0.0991415 0.0579368 -0.0113222 -0.044753 0.177702 0.210262 0.255549 -0.0181074 0.0266533 0.191513 0.305511 -0.00903464 0.145759 0.055857 0.148012 0.196859 0.132019 0.199074 -0.0491452 0.211297 -0.0681551 0.0344141 0.0995426 -0.00920716 0.130863 -0.0988454 -0.0518406 0.195874 0.0267411 0.2283 0.0118875 -0.0491873 0.381891 -0.107903 0.254035 -0.0246285 -0.0751035 0.267045 0.158283 0.356646 -0.0389227 -0.108242 -0.0931773 -0.109707 -0.0665049 -0.112655 -0.112996
internal_weight=0 59938.5 58413.1 57228.3 56526.5 54811.4 14623.6 10570.2 8295.64 5313.8 2997.54 1715.14 2316.26 1525.32 4053.43 2274.55 1336.32 1184.86 715.863 3640.75 954.038 591.184 938.234 412.676 120.374 3552.87 886.642 3525.95 2981.84 30.544 701.743 717.873 287.95 429.923 382.28 466.989 2951.29 124.679 362.675 112.833 340.428 470.81 51.5924 809.455 22.2469 87.8811 690.45 50.001 18.6985 11.2935 84.5655 457.149 26.9285 805.471 51.4458 754.025 11.8457
internal_count=268644 179615 165459 154786 147672 135059 89029 74176 66907 37928 18137 12613 19791 14156 14853 7269 3366 10673 5674 12565 1613 5175 3903 2288 828 12009 3819 11825 28979 173 7114 5718 1873 3845 1753 4955 28806 499 2191 374 2133 4347 84 8482 58 556 7074 97 63 40 549 4940 184 8473 541 7932 125
is_linear=0
shrinkage=0.1


Tree=3
num_leaves=56
num_cat=0
split_feature=32 110 131 129 134 130 136 88 103 77 85 75 134 123 74 134 29 31 107 128 115 36 103 57 70 35 0 91 62 30 86 108 114 97 33 131 73 105 26 112 88 91 97 54 101 104 78 135 30 112 57 75 27 88 1
split_gain=11827.4 6906.66 4476.11 4165.21 3495.18 2861.44 2845.25 5195.71 2609.13 1211.04 1471.99 862.601 726.551 665.373 1023.49 581.771 496.722 424.785 406.671 386.729 381.258 303.861 299.922 275.523 388.307 201.119 190.237 182.335 178.324 166.111 164.047 255.07 156.77 155.035 139.551 138.091 134.178 127.975 114.8 107.053 139.018 105.846 99.4789 89.8817 88.6468 68.2044 64.5318 54.6446 36.2866 33.6488 16.4503 14.1194 12.4553 0.445579 0.0270621
threshold=0.95329597592353832 -0.86692407727241505 1.0000000180025095e-35 1.0000000180025095e-35 1.0000000180025095e-35 1.0000000180025095e-35 1.0000000180025095e-35 -1.1493389606475828 -0.85777798295021046 -1.2056120634078977 -1.1274353861808775 -1.0277488827705381 1.0000000180025095e-35 -1.3038042187690733 -0.95325410366058339 1.0000000180025095e-35 1.098123371601105 1.0075133442878725 -0.87724676728248585 1.0000000180025095e-35 -0.90752363204956044 0.93689405918121349 -0.81215721368789662 0.92577478289604198 -0.2252416983246803 0.94014686346054088 0.46902102231979376 -1.1416814923286436 0.28979402780532842 0.90292972326278698 -1.1237050890922544 -0.90935644507408131 -1.0235425829887388 -0.8401798903942107 0.9131983518600465 1.0000000180025095e-35 -0.80076164007186879 -0.83770564198493946 1.2572236657142641 -0.96236321330070485 -1.1365468502044676 -1.1653621792793272 -0.97954329848289479 1.079154968261719 -0.94990810751914967 -0.84731236100196827 -1.2527754306793211 1.0000000180025095e-35 1.0787400603294375 -0.87705647945404042 0.65994113683700573 -1.1587226986885069 1.1714187264442446 -1.1432419419288633 0.41762208938598638
decision_type=2 2 2 2 2 2 2 2 2 2 2 2 2 2 2 2 2 2 2 2 2 2 2 2 2 2 2 2 2 2 2 2 2 2 2 2 2 2 2 2 2 2 2 2 2 2 2 2 2 2 2 2 2 2 2
left_child=1 2 3 4 5 -1 7 13 -6 39 11 -11 20 14 16 -12 -2 21 30 -16 27 23 45 24 -8 -24 37 44 50 32 31 -4 -5 -25 41 -36 42 46 -39 40 -9 -15 -28 -29 -3 -23 -19 49 -31 -22 -20 -14 -30 -41 -32
right_child=6 12 18 29 8 -7 17 9 -10 10 15 -13 51 34 19 -17 -18 26 28 -21 47 22 25 33 -26 -27 36 43 52 48 54 -33 -34 -35 35 -37 -38 38 -40 53 -42 -43 -44 -45 -46 -47 -48 -49 -50 -51 -52 -53 -54 -55 -56
leaf_value=0.17827575995141243 0.35384553551695608 -0.11471365006771567 0.12556958313348529 -0.11279057013657179 0.31420042010878219 0.048384657049368215 0.14108172188522319 -0.11525041876681491 0.20634726780062965 0.14216801245142577 0.13299135609510568 0.02438146977586482 0.37856127553363628 -0.074304911959746006 -0.021239660716114769 0.23110621024767616 0.079138324917115588 -0.091783691908490658 0.12814643677842616 0.05857728139658025 -0.041663377702538633 0.17910215927821846 0.14486632739882352 0.23016375913944037 0.29063845043932124 -0.023878248247309372 0.21585493000151523 0.2318148896819725 -0.024020295788319507 -0.085357653935394281 -0.11127800840761588 -0.0037031092431895288 0.36792292816535727 0.019289415684531193 -0.039831641397374377 -0.094385613438602398 0.34903644505254489 0.080092861335923402 0.45745447102799758 0.59790207407700791 0.54895365164847165 0.12015417723153926 -0.0033337963329087028 -0.029736906555741228 0.028918796069340481 -0.067387298441865751 0.014711051983566124 0.17675067326452931 -0.029699958114147704 -0.10635811172778627 0.32497068769183318 0.26986707993400699 -0.11052364366306174 0.61605786372049198 -0.11514962139260206
leaf_weight=49668.796702004969 123.97119881957769 61.195751093327999 245.35429599136114 11.32620892673731 3039.5540276914835 1755.9569576084614 2392.6955793499947 5.160451889038085 8559.1111447811127 977.63214150071144 1443.3885737583041 1708.0203197970986 25.518963873386383 41.814274646341801 2044.6637418121099 1039.6324772238731 140.33100569248199 87.819973841309547 8.754434712231161 863.3612661883235 88.520802333950996 12.466876938939093 610.84676796942949 732.49173395335674 187.18697093427181 79.865250274538994 38.570036202669144 55.754709258675575 17.378635533154011 507.57332071661949 40.092473611235619 403.88296696543694 16.916523084044456 36.606781028211117 2158.3345367461443 591.05779673904181 28.662269249558449 62.157995074987411 9.2630902901291829 25.839413993060589 8.0930440202355367 84.669835120439529 44.705670177936554 17.189597964286804 144.27026964724064 112.76077756285667 161.61484754830599 7.1658596992492667 152.28082746267319 875.87223313748837 8.2461595833301526 22.477760463953018 394.4024682790041 28.346335887908936 32.844550058245659
leaf_count=114058 230 605 1539 119 3072 12468 7746 47 17245 4767 4986 11232 18 461 16458 1846 858 667 34 6361 750 37 2099 1466 238 519 75 189 166 5553 454 3336 24 184 21583 6435 37 383 15 30 14 598 250 129 1215 597 888 14 1624 9926 7 29 4640 27 296
internal_value=0 0.174252 0.178822 0.182353 0.185025 0.17384 0.0781539 0.0511367 0.234611 0.124065 0.118571 0.0672582 -0.0541504 -0.0119992 0.0195811 0.174072 0.20799 0.144463 -0.0166268 0.00245713 -0.0688112 0.154261 0.0995396 0.167594 0.151933 0.125355 0.0501708 0.0343584 -0.0937695 -0.0623481 0.0291757 0.0451505 0.175142 0.220127 -0.0468347 -0.0515595 0.162417 0.011011 0.129035 0.545089 0.290336 0.0558681 0.0981858 0.170179 -0.0138605 -0.0428484 -0.0227832 -0.0983755 -0.072513 -0.10042 0.223616 0.327658 -0.106873 0.6074 -0.113021
internal_weight=0 66160.4 64862.5 63711.5 63023.4 51424.8 15882 11284.3 11598.7 5236.11 5168.67 2685.65 1297.97 6048.2 3172.33 2483.02 264.302 4597.71 1150.96 2908.03 1249.97 4164.92 815.94 3348.98 2579.88 690.712 432.794 278.41 428.782 688.097 722.174 649.237 28.2427 769.099 2875.88 2749.39 111.938 320.856 71.4211 67.4392 13.2535 126.484 83.2757 72.9443 205.466 125.228 249.435 971.559 659.854 964.393 17.0006 47.9967 411.781 54.1857 72.937
internal_count=268644 177510 164635 154163 146843 126526 91134 75933 20317 22949 22831 15999 12875 52984 23907 6832 1088 15201 10472 22819 12828 12886 3252 9634 7984 2618 2315 2138 4847 7320 5625 4875 143 1650 29077 28018 362 1953 398 118 61 1059 325 318 1820 634 1555 10690 7177 10676 41 47 4806 57 750
is_linear=0
shrinkage=0.1


Tree=4
num_leaves=58
num_cat=0
split_feature=108 32 131 30 72 110 133 134 136 89 57 81 30 53 104 128 129 131 107 70 32 0 126 125 34 59 70 73 27 22 87 88 28 126 1 75 49 31 52 109 103 104 73 26 104 105 60 117 124 32 32 130 107 32 21 136 21
split_gain=8310.82 6096.5 3366.56 3052.1 3910.68 2393.5 1709.11 1541.1 1330.31 2797.14 1242.04 1158.08 1137.54 598.57 1278.89 572.577 456.387 666.213 448.663 434.923 399.889 346.587 334.863 326.247 269.435 241.559 435.291 267.537 200.256 177.526 157.776 253.209 117.497 91.0582 143.437 171.341 82.5756 73.8752 75.9937 52.9088 52.0576 49.966 47.3503 40.0059 24.867 23.7322 79.7134 12.0267 37.4628 10.1837 5.79693 16.7095 1.51015 0.0428605 0.0397652 0.0391886 0.0113166
threshold=-0.84734269976615895 0.95488551259040844 1.0000000180025095e-35 1.0796600580215456 -0.68376499414443959 -1.2105739712715147 1.0000000180025095e-35 1.0000000180025095e-35 1.0000000180025095e-35 -1.0616234540939329 0.80157282948493969 -1.3958918452262876 1.0719510912895205 1.0799440145492556 -0.80387678742408741 1.0000000180025095e-35 1.0000000180025095e-35 1.0000000180025095e-35 -0.87724676728248585 -0.27887324988842005 0.96108013391494762 0.32387606799602514 -1.8883330821990965 -1.4298971295356748 0.93655294179916393 0.80111184716224682 -0.25288629531860346 -0.78389275074005116 1.0490720272064211 1.6040115356445315 -1.1093060970306394 -1.0976891517639158 1.1216567158699038 -1.4114651679992674 0.53539565205574047 -1.1812038421630857 1.137551546096802 0.98590263724327099 1.1251693964004519 -0.82128620147705067 -0.83620154857635487 -0.92460420727729786 -0.61927497386932362 1.2043678164482119 -0.80868124961853016 -0.75356203317642201 0.80967393517494213 -0.90846803784370411 -1.1871170997619627 0.96502444148063671 0.95792871713638317 1.0000000180025095e-35 -0.83707919716835011 0.95349979400634777 1.5465829968452456 1.0000000180025095e-35 1.6016783118247988
decision_type=2 2 2 2 2 2 2 2 2 2 2 2 2 2 2 2 2 2 2 2 2 2 2 2 2 2 2 2 2 2 2 2 2 2 2 2 2 2 2 2 2 2 2 2 2 2 2 2 2 2 2 2 2 2 2 2 2
left_child=1 2 3 4 12 -6 7 -5 9 13 -8 33 -1 14 -3 -15 17 20 30 21 23 -11 -21 -13 25 26 -10 -27 -18 54 31 -4 43 34 37 -36 -22 38 -2 -39 -37 -31 44 -20 -26 49 -47 48 55 -30 52 -52 -49 -32 -19 -35 -34
right_child=11 8 18 6 5 -7 10 -9 24 19 -12 16 -14 15 -16 -17 28 29 32 22 36 -23 -24 -25 42 27 -28 -29 45 41 53 -33 56 47 35 40 -38 39 -40 -41 -42 -43 -44 -45 -46 46 -48 50 -50 -51 51 -53 -54 -55 -56 -57 -58
leaf_value=0.22259733668987694 0.067583741028250474 0.0018911457595959342 0.03225643678540549 0.063598049455874162 -0.090920714985568862 0.14757503320614371 0.19136582762952695 0.26085996502500408 0.06676424148912484 0.21704230724103329 0.033405414442866543 0.20030760634903594 0.16214214730249865 -0.085350276838900299 0.13339857908388111 0.063294568037607551 0.25294922979498369 -0.10909203411897719 -0.11389138365739433 0.11341378412339904 -0.067363885866844275 0.10374689849336849 -0.055130030679387522 0.072828453546798191 -0.10722671212027479 0.21105856078379365 0.22311763163093523 0.12599282436934364 -0.11144781578143743 -0.030097995658055161 -0.11172322617063246 0.39806777013691419 -0.10940678024941303 -0.11067299339674981 0.7834592848232379 0.38175598501910607 0.040582351995481651 -0.084107039295255689 -0.086440565932285801 -0.021941392348930944 -0.11188570948592139 0.27755275099001014 0.32065339247950031 0.27107150785941586 -0.0016349677525291163 0.58619211645288194 -0.1123533600831548 -0.084994203342354857 0.23690765033626748 -0.066587271134698048 -0.10992047280777269 0.038895803930536384 -0.11053220621154299 -0.12074483080783838 -0.11649048235284259 -0.12598312686243593 -0.11605031204541111
leaf_weight=10424.258858151734 80.402224168181419 3544.9936191663146 700.30479767918587 6888.2692368924618 424.85341767966747 44059.762495823205 2664.5532918125391 420.20529642701149 1250.2692324593663 813.35943945497274 612.13642942160368 384.28408240526915 4437.3171310722828 996.73362118005753 934.41213650256395 350.18367109447718 17.606723606586456 222.96445564925671 3.5599443092942229 1322.8695667684078 117.37941412627697 404.19947507977486 129.41226430982351 420.35522631555796 52.253816403448582 437.27844909578562 207.62966472655535 2393.0982010364532 200.00766205787659 7.8540962189435986 66.990025542676449 19.447386369109154 406.92207869887352 9.1471564769744855 4.2860099077224723 3.0123217403888694 178.83358926326036 780.583082459867 53.247456319630146 166.02695997804403 7.345879837870597 16.101866103708744 3.3498469591140738 11.169006265699862 38.911051861941814 2.2102708220481855 6.2610640749335289 24.051841907203197 4.1953861415386191 67.74190404266119 27.736625976860523 10.36448112875223 620.99226484447718 5.7153968662023535 7.5094499140977851 2.0457847863435736 2.5802679583430281
leaf_count=15775 660 26559 5120 24809 2073 99466 4553 426 4909 1042 1858 1846 9274 9602 5531 2508 34 2955 35 4806 1156 1562 755 2537 355 889 474 6834 2209 51 750 66 5240 107 5 4 1360 8625 483 1843 82 12 3 31 254 9 64 226 13 680 339 111 7526 42 69 14 23
internal_value=0 0.136982 0.148442 0.151312 0.160135 0.145297 0.101845 0.0749397 0.0736723 0.0505889 0.161856 -0.0215439 0.204547 0.0117478 0.0293238 -0.0467043 0.0389411 0.0634359 -0.0164718 0.135351 0.0971422 0.179431 0.0983949 0.133711 0.11842 0.122101 0.0890316 0.139135 -0.0740413 -0.0824027 0.0279589 0.0421405 -0.0994677 -0.0771613 -0.0591634 0.251703 -0.00219317 -0.0633776 0.00621882 -0.0732037 0.0316728 0.176688 -0.0485901 0.178027 -0.062158 -0.0948841 0.0699054 -0.105372 -0.017946 -0.100098 -0.107341 -0.0694386 -0.10958 -0.112432 -0.109333 -0.113471 -0.109449
internal_weight=0 84027 71148 69931.4 59346.2 44484.6 10585.2 7308.47 12879 8496.16 3276.69 3442.55 14861.6 5826.32 4479.41 1346.92 1649.11 1355.28 1216.69 2669.84 1100.85 1217.56 1452.28 804.639 4382.79 4288.28 1457.9 2830.38 293.828 254.43 792.458 719.752 424.231 1793.44 1094.9 14.6442 296.213 1080.26 133.65 946.61 10.3582 23.956 94.5147 14.729 91.1649 276.221 8.47133 698.534 15.3883 267.75 683.145 38.1011 645.044 72.7054 230.474 11.1929 409.502
internal_count=268644 235624 169541 158234 126588 101539 31646 25235 66083 52365 6411 33020 25049 44200 32090 12110 12982 9986 11307 8165 6899 2604 5561 4383 13718 13106 5383 7723 2996 3087 5978 5186 5329 20038 11702 91 2516 11611 1143 10468 86 63 612 66 609 2962 73 8336 134 2889 8202 450 7752 792 3024 121 5263
is_linear=0
shrinkage=0.1


Tree=5
num_leaves=57
num_cat=0
split_feature=106 31 81 29 131 109 119 70 129 53 136 38 32 130 123 121 53 134 110 133 82 52 28 1 29 75 28 10 127 29 29 20 12 84 109 101 55 136 20 4 15 127 42 31 0 133 56 108 45 61 38 44 113 106 136 136
split_gain=6527.17 3399.54 3103.99 2463.38 2219.57 2140.85 3467.53 2473.28 1974.31 1111.07 1057.8 1041.89 458.683 452.605 445.617 377.701 372.034 360.968 300.85 295.219 287.8 265.025 233.466 228.576 214.719 182.39 174.54 199.542 174.125 161.335 158.123 143.644 127.383 109.868 207.275 553.834 171.835 131.608 97.1771 90.0762 83.6224 66.0786 63.5099 55.6986 51.8479 39.8061 27.6151 23.8402 96.9287 9.66089 8.52055 28.9784 8.35547 5.97282 0.0641151 0.0460308
threshold=-0.85712304711341847 1.0061172842979433 -1.3958918452262876 1.2229411602020266 1.0000000180025095e-35 -1.135295510292053 -1.642866790294647 -0.26870590448379511 1.0000000180025095e-35 1.1452305912971499 1.0000000180025095e-35 0.97901383042335521 0.96523749828338634 1.0000000180025095e-35 -1.0728965997695921 -1.4047909975051878 0.93852868676185619 1.0000000180025095e-35 -0.95720538496971119 1.0000000180025095e-35 -1.1406420469284055 1.1421340107917788 1.172210216522217 0.66563013195991527 1.0156190991401675 -1.0277488827705381 1.3778845071792605 0.99525848031044017 -3.1817976236343379 1.2503160834312441 1.2357050180435183 1.2472711205482485 1.2093768119812014 -1.4185916185379026 -0.82128620147705067 -0.84074017405509938 1.0242338180541994 1.0000000180025095e-35 1.2529656291007998 0.87198126316070568 0.89313536882400524 -1.5534357428550718 1.0786256790161135 0.98754355311393749 0.27889719605445867 1.0000000180025095e-35 1.0170475840568545 -0.89304736256599415 1.1222534179687502 0.59149065613746654 0.97226426005363475 1.090465843677521 -1.1807125210762022 -0.85677930712699879 1.0000000180025095e-35 1.0000000180025095e-35
decision_type=2 2 2 2 2 2 2 2 2 2 2 2 2 2 2 2 2 2 2 2 2 2 2 2 2 2 2 2 2 2 2 2 2 2 2 2 2 2 2 2 2 2 2 2 2 2 2 2 2 2 2 2 2 2 2 2
left_child=1 3 33 5 8 11 28 -8 9 10 -4 21 24 15 23 40 25 -18 -14 -13 -11 -1 31 30 -10 -17 27 -16 -7 -25 -5 42 47 46 37 55 -37 43 -33 -28 52 -39 -15 -35 -24 -42 50 48 -6 -46 54 -52 -3 -49 -2 -36
right_child=2 13 4 14 32 6 7 -9 12 20 -12 19 18 22 26 16 17 -19 -20 -21 -22 -23 44 29 -26 -27 39 -29 -30 -31 -32 38 -34 34 35 36 -38 41 -40 -41 45 -43 -44 -45 49 -47 -48 53 -50 -51 51 -53 -54 -55 -56 -57
leaf_value=0.081770293408382641 -0.10875953543407704 -0.15010407178552734 0.058401064276127179 0.054045025731216029 0.29268573375898549 0.22135708651434857 0.1416597446957068 0.091607904892767836 0.17692003925313826 -0.0752094095126455 0.11564047559798218 -0.063214018959806315 0.25228885281035546 -0.060378300578434921 -0.052838288564350216 0.2203658241279432 0.026093244811873348 0.11593105971723912 0.016168127297819967 0.20566946896616903 0.18619859790017013 0.23744228023322417 0.16570563241635447 0.16404346978407336 -0.081863976558836968 0.0026325941069181517 -0.11358607177971175 0.082148095037472751 0.27006869537918737 -0.022339492579366793 -0.076820463201878561 0.45975049560346354 0.18469504319142521 -0.017298952491788672 -0.11071130765110762 0.55936891947301925 0.05291602028910819 -0.047343799695181439 -0.0062040627559431264 0.21873450156657884 0.075651001215219851 0.13224310405671805 0.13979357916616345 -0.085519650423010768 -0.078639258188190814 0.22630564616026494 0.2632274458629964 -0.030631795767318976 -0.11387000982730285 -0.11286229974720659 0.1228197468525182 -0.091598731657573915 0.027488069980902766 -0.11008855837854302 -0.11160934213402159 -0.12395087347025498
leaf_weight=526.57963644713163 416.92862537503242 6.3752164840698242 7732.3881692811847 326.48276784271002 7.555737078189849 1856.8701864778996 49813.800280362368 12312.9671690166 33.253323756158352 43.526758007705212 5543.0316237583756 868.04008963704109 60.129726283252239 40.278624787926674 332.51730459928513 172.34843550622463 3237.6644547954202 518.93500079214573 526.00390619039536 42.849060654640198 1300.0117730051279 138.02787497639656 7.6179456040263167 246.99361533671618 895.18994782119989 49.528511315584183 297.19721858203411 163.28592585772276 1213.345043361187 57.197486124932766 128.73790882527828 14.688301317393782 15.521520085632799 143.00271474570036 46.126857578754425 23.92865015566349 9.3043517693877202 35.396477036178112 6.4375240206718436 8.3865061253309232 19.79430964589119 48.646845251321793 26.134516380727291 733.71200089156628 144.9407837241888 153.87367914617062 2.0601039081811896 9.5962866246700269 26.195091426372528 191.42751859873533 6.6363468617200843 125.49766989052296 4.5329403430223447 669.00117539614439 97.386025220155716 2.7845682799816123
leaf_count=1320 5722 29 40151 1182 37 2048 102231 30891 104 279 14013 3750 275 304 1557 244 16832 1541 4682 54 1722 175 21 549 8995 154 1443 503 786 215 655 39 28 1300 554 95 84 170 37 11 46 177 115 9111 1207 143 17 106 256 1612 68 1501 15 8419 1049 20
internal_value=0 0.125582 0.0591501 0.13118 0.072105 0.134083 0.136867 0.13174 0.0798113 0.0910711 0.0823009 0.0188973 -0.0288702 0.042318 0.00699381 0.052423 0.0459352 0.0385034 0.0403911 -0.0505655 0.17773 0.114101 -0.0551675 0.0618834 -0.0725953 0.171762 -0.0450208 -0.00838239 0.240608 0.128998 0.0170358 0.0906396 -0.0987099 -0.0699948 -0.0498971 0.102568 0.417576 -0.0629328 0.317763 -0.104466 0.192265 0.0566066 0.0183922 -0.074392 -0.092273 0.209134 -0.102315 -0.104885 -0.0228551 -0.0981156 -0.10348 -0.0808297 -0.0763047 -0.108965 -0.109299 -0.111465
internal_weight=0 72927.9 18552.8 68333.3 16861.4 66772.5 65197 62126.8 16133.5 14619 13275.4 1575.5 1514.58 4594.58 1560.8 4163.05 3978.48 3756.6 586.134 910.889 1343.54 664.608 431.525 759.412 928.443 221.877 801.387 495.803 3070.22 304.191 455.221 87.539 727.87 1691.41 1042.9 82.1444 33.233 960.758 21.1258 305.584 184.576 84.0433 66.4131 876.715 343.986 173.668 648.509 712.348 33.7508 336.368 646.449 132.134 10.9082 678.597 514.315 48.9114
internal_count=268644 169709 98935 147370 79067 141255 135956 133122 70221 56165 54164 5299 14056 22339 6115 19004 18771 18373 4957 3804 2001 1495 3335 2601 9099 398 3514 2060 2834 764 1837 495 8846 19868 11511 753 179 10758 76 1454 233 347 419 10411 2840 189 8357 8818 293 2819 8340 1569 44 8525 6771 574
is_linear=0
shrinkage=0.1


Tree=6
num_leaves=61
num_cat=0
split_feature=129 131 130 128 30 72 102 55 135 107 5 99 123 32 31 101 31 54 15 107 64 126 75 20 105 113 28 116 125 97 108 75 30 114 101 31 106 56 57 103 66 22 33 102 108 83 29 46 55 109 88 118 30 71 108 88 26 127 84 81
split_gain=5047.23 5029.43 3716.17 3799.31 1830.05 2427.26 1104.25 3457.12 1041.5 893.097 813.923 967.52 638.816 519.956 461.382 402.882 385.095 282.067 388.395 238.022 251.594 225.332 345.474 171.404 169.042 187.84 210.209 182.681 172.051 160.087 146.37 117.165 114.194 103.454 99.9743 86.3531 170.168 235.346 81.068 177.883 78.1518 176.242 63.0856 62.2946 62.1337 156.05 46.3323 35.6344 33.7992 17.375 49.6407 16.8028 4.74843 3.10662 3.08996 0.0375156 0.0305165 0.029872 0.0126216 0.00549331
threshold=1.0000000180025095e-35 1.0000000180025095e-35 1.0000000180025095e-35 1.0000000180025095e-35 1.0889143347740176 -0.67499589920043934 -0.80891939997673024 1.0071097612380984 1.0000000180025095e-35 -0.87686026096343983 0.6263025999069215 -0.90326115489006031 -1.2401919960975645 0.96439638733863842 0.99983406066894542 -0.76139533519744862 0.9917452633380891 1.0285090208053591 0.97403377294540416 -0.86251094937324513 0.46097160875797277 -1.6204646825790403 -1.0813004970550535 1.6095811128616335 -0.80412188172340382 -0.98862606287002552 1.1270962357521059 -1.1105309128761289 -1.72624135017395 -0.87756785750389088 -0.90771523118019093 -1.1351047754287718 0.90292972326278698 -1.0235425829887388 -0.8362351357936858 1.0086130499839785 -0.87471991777420033 0.92342558503150951 0.9479888677597047 -0.75473415851593006 0.26850043237209326 1.255560636520386 0.94457399845123302 -0.98557406663894642 -0.97400915622711171 -1.0659823417663572 1.1409532427787783 1.1805135607719424 1.0092590451240542 -0.91317665576934803 -1.1635157465934751 -0.93895471096038807 1.015491306781769 -0.76246246695518483 -0.8836606740951537 -1.0610871911048887 0.98920688033103954 -1.8067542910575864 -1.3097723126411436 -1.3933003544807432
decision_type=2 2 2 2 2 2 2 2 2 2 2 2 2 2 2 2 2 2 2 2 2 2 2 2 2 2 2 2 2 2 2 2 2 2 2 2 2 2 2 2 2 2 2 2 2 2 2 2 2 2 2 2 2 2 2 2 2 2 2 2
left_child=1 2 3 4 5 -1 10 14 -6 17 34 -12 16 32 -8 -9 -5 18 29 24 21 22 -21 49 25 28 -27 55 -15 -3 -20 -14 33 56 -4 44 57 -38 39 -22 46 -42 -23 58 45 -34 -19 -29 -46 50 -11 -35 -40 -45 -51 -26 -2 -37 -25 -58
right_child=13 9 6 12 8 -7 7 15 -10 23 11 -13 31 19 -16 -17 -18 40 30 20 38 42 -24 43 27 26 -28 47 -30 -31 -32 -33 35 51 -36 36 37 -39 52 -41 41 -43 -44 53 48 -47 -48 -49 -50 54 -52 -53 -54 -55 -56 -57 59 -59 -60 -61
leaf_value=0.14608859862449877 -0.12219530409092638 0.29992810439388273 -0.1032016768021834 0.085433148625254515 0.10742227610213913 0.10699180113635348 0.26389502273088788 -0.080499068867075294 0.014654287578335019 0.19567060616433171 -0.028330857888282591 0.16694077288743484 -0.10353845495379813 0.10150369585131631 0.10657619987042054 0.049377594105747706 0.0096326013160069751 -0.11353449312379027 0.056488707572669029 0.58938928864043649 -0.04199304840664192 -0.075864586077727628 0.08359173184799587 -0.10988589883710982 -0.12221957832042003 0.60181777255535729 0.13113273278065632 0.59189842397304104 -0.09625107038889047 0.034643805835152981 -0.015840687603474273 -0.030551127398474598 0.46269793799166142 0.26987121516850293 -0.049216287118354171 -0.11732117956860309 0.27899144188226171 -0.072155025542987403 -0.035569239127345435 0.2469890741829972 -0.079044397935666255 0.23913557961743181 0.39359538620608797 0.21034143701871255 -0.074591422178936384 -0.040021019764780064 0.055841656409884567 0.34558507996070076 -0.10527055760404819 -0.089950708210516872 -0.11392244116519548 0.12070695539197335 -0.10694483238876216 0.14631912272588238 -0.10798036146825232 -0.13687086462663831 -0.10922907987912836 -0.11208596054982548 -0.11882827907127716 -0.11312902890522528
leaf_weight=22655.731246449053 3.0556574538350132 75.704825721681118 741.45484159141779 1097.2742507532239 2169.2261009961367 53090.230022236705 643.98508174344897 817.57975187897682 2737.4136145114899 7.3798856213688877 774.57503267377615 377.34729183092713 304.86978956311941 95.193575046956539 262.37661309540272 337.41668160259724 1722.1241394728422 201.16796177625656 584.07531060278416 19.738283760845661 218.52711600810289 44.433184631168842 42.754716761410236 1.9941452033817748 3.0563669726252556 10.789337262511252 78.687150381505489 9.8103250935673731 81.800283692777157 32.518423445522785 537.03021396696568 789.49393326044083 6.7003598883748046 14.527730733156206 638.37772028148174 13.337830588221548 37.55351759493351 38.814021937549114 9.873299837112425 23.601154021918774 59.989518243819475 24.525752123445272 3.0595123395323744 13.914250306785108 800.82947218418121 78.697896957397461 17.56003025919199 14.63614923506975 651.04014299064875 104.79789853841066 17.367164470255375 15.7271726205945 166.54579102247953 16.647029593586922 1022.5194084458053 4.0815833956003216 7.1622300595045099 59.612396709620953 7.570097241550684 7.2857802882790539
leaf_count=35138 26 174 6641 4974 4365 110990 1782 7134 9737 39 6255 1601 3829 475 1326 1768 11616 1719 3437 61 2139 508 309 26 21 35 570 23 726 149 4269 5728 31 11 4672 111 283 405 90 165 521 56 21 11 8379 661 114 30 7148 1114 173 35 1802 29 14311 21 95 627 62 76
internal_value=0 0.101335 0.105425 0.110183 0.114852 0.118686 0.0178237 0.0721631 0.055667 -0.0324967 -0.0264195 0.0356363 0.0139626 -0.0409954 0.218354 -0.0425573 0.0391332 0.0179982 0.0393054 0.0242737 -0.0160236 0.118568 0.243347 -0.0974084 0.0957319 0.0698044 0.187889 0.314476 0.0101085 0.220217 0.0218416 -0.0508841 -0.0721026 0.0803846 -0.0782254 -0.0764205 -0.00381763 0.10052 -0.0513915 -0.0138249 -0.06838 0.0132893 -0.0456217 0.105764 -0.0834726 -0.000577616 -0.0999366 0.44443 -0.0883484 -0.104485 -0.0215979 0.192332 -0.10295 0.175468 -0.106304 -0.130597 -0.113116 -0.113043 -0.116964 -0.111196
internal_weight=0 91884.2 89159.5 84566.4 80652.6 75746 4593.11 2061.36 4906.64 2724.76 2531.75 1151.92 3913.76 2560.93 906.362 1155 2819.4 1532.57 1229.33 826.588 528.533 109.986 62.493 1192.19 298.055 266.47 89.4765 31.5844 176.994 108.223 1121.11 1094.36 1734.34 47.7586 1379.83 1686.59 149.318 76.3675 418.547 242.128 303.243 84.5153 47.4927 40.1255 1537.27 85.3983 218.728 24.4465 1451.87 1152.06 24.7471 30.2549 176.419 30.5613 1127.32 7.13795 17.5037 72.9502 9.56424 14.448
internal_count=268644 243760 217556 186377 160230 146128 31179 12010 14102 26204 19169 7856 26147 24884 3108 8902 16590 10439 8029 6996 5095 899 370 15765 1901 1806 605 95 1201 323 7706 9557 17888 243 11313 17645 1426 688 4196 2304 2410 577 529 128 16219 692 1833 53 15527 15637 212 46 1892 40 15425 42 197 738 88 171
is_linear=0
shrinkage=0.1


Tree=7
num_leaves=60
num_cat=0
split_feature=32 134 115 33 105 133 29 136 78 54 103 42 53 70 117 88 136 101 88 74 71 115 43 22 122 26 73 0 107 108 31 135 79 122 79 73 117 97 42 31 32 93 56 78 128 34 39 65 0 120 11 39 65 66 110 30 90 55 15
split_gain=4129.7 2706.15 3056.67 2123.62 2078.11 1735.35 1364.27 1316.76 1159.77 1142.47 1046.03 1844.35 942.767 1166.54 930.527 898.261 1200.17 823.842 680.573 690.711 621.534 584.026 549.844 427.992 642.044 350.451 317.538 307.543 305.755 298.582 218.811 210.746 184.132 180.566 171.338 153.974 150.074 143.496 342.139 138.365 117.257 226.818 308.54 108.93 106.042 72.3279 57.1303 318.153 83.8047 39.982 35.9747 33.7336 334.281 49.3942 31.6187 15.6048 10.6155 6.3603 5.56039
threshold=0.95220306515693676 1.0000000180025095e-35 -0.92743349075317372 0.8569464683532716 -0.91712912917137135 1.0000000180025095e-35 1.2197749614715578 1.0000000180025095e-35 -1.3337942957878111 1.0486915707588198 -0.85474506020545948 0.99839150905609142 1.1012907624244692 -0.32994119822978968 -1.5327585935592649 -1.0336982607841489 1.0000000180025095e-35 -0.86357909440994252 -1.1493389606475828 -0.9244345724582671 -0.40229295194149012 -0.89084300398826588 1.0037321448326113 1.372974753379822 -1.0522210597991941 1.2092890143394472 -0.9074430763721465 0.26496665179729467 -0.84462478756904591 -0.86593127250671376 1.0061172842979433 1.0000000180025095e-35 -1.1358669400215147 -1.4948436617851255 -1.3317211270332334 -0.86864963173866261 -1.1328339576721189 -0.9806152582168578 0.96386563777923595 0.99930399656295787 0.96091270446777355 -1.0609691143035886 0.95516616106033336 -1.132005453109741 1.0000000180025095e-35 0.87775966525077831 0.99082934856414806 0.35739792883396154 0.49541324377059942 -1.0054578781127927 0.9870571792125703 1.0165421366691592 0.39306473731994634 0.32696655392646795 -0.86229234933853138 1.0839332938194277 -1.1660740971565244 0.96012881398201 0.94044697284698497
decision_type=2 2 2 2 2 2 2 2 2 2 2 2 2 2 2 2 2 2 2 2 2 2 2 2 2 2 2 2 2 2 2 2 2 2 2 2 2 2 2 2 2 2 2 2 2 2 2 2 2 2 2 2 2 2 2 2 2 2 2
left_child=1 2 3 6 5 -5 14 23 40 -6 32 17 13 -13 -1 16 18 22 28 -20 -14 39 -12 49 -25 36 -8 31 -10 30 -18 -27 37 -29 -31 -19 43 55 -39 -9 41 46 54 -17 -44 50 48 -48 -2 -4 -34 56 -53 -54 -43 -3 58 -23 -42
right_child=8 10 7 4 9 -7 26 21 15 -11 11 12 20 -15 -16 25 29 35 19 -21 -22 57 -24 24 -26 27 -28 33 -30 34 -32 -33 45 -35 -36 -37 -38 38 -40 -41 51 42 44 -45 -46 -47 47 -49 -50 -51 -52 52 53 -55 -56 -57 -58 -59 -60
leaf_value=0.16151373883829967 -0.075279749188144021 0.20040274293732119 0.025676681325016111 0.010461453628976563 0.074146541659500964 0.13735120171858975 -0.026013881596596556 0.11968224351453993 -0.020292699455937827 0.024596132013730204 -0.071985977878557109 0.17847571197237966 0.2108933712422425 0.082911237222792464 0.11075422790616532 0.20675740117731653 0.078851091245155727 0.18688013512890542 0.11864029072660986 0.026927809542023447 0.06838589517599232 -0.11705418296520612 0.15075513544215055 0.13328975200685686 -0.034286186779465169 0.16469704102783633 0.066725688543006464 0.16000139610073444 0.031422817347112018 0.10789787978496729 0.024032838145938783 -0.039936174967883258 -0.17370423660406606 0.054859737590840667 0.21312663082333505 -0.12205802697439377 0.28959952490976432 0.09048280881469703 0.18405063634902455 0.055922077280221166 -0.10920157033493548 0.25224051441221679 -0.093994785790167068 0.0050481354576290801 0.10931666420714631 0.18469671559017067 0.44968310071867174 -0.043041358161921055 0.024993659525781677 -0.10056271022960586 0.11797009833098998 0.72374992911563818 0.022818147708891175 -0.11088030706957153 0.47180112960224618 0.23431136852900281 0.058053946241743974 -0.012912910588315299 -0.085706103211557957
leaf_weight=4338.1342267245054 459.74928514286876 1517.9022226333618 25.898719150573015 1267.045444495976 17081.400249671191 7215.6573315858841 737.07476907595992 933.84267596900463 3573.7614020034671 6395.3291015103459 167.23753763735294 1852.6777561455965 1918.319373652339 4113.2134511470795 21563.259638294578 28.50588596612215 3970.1603740304708 16.748789429664612 1088.6046096235514 3342.8194621503353 364.14334340393543 140.72200809419155 328.54877558350563 267.14482231065631 1586.0138922519982 1162.9555732011795 739.74220611155033 212.47864204645157 1680.9499411545694 650.89849399030209 891.68441085517406 52.604198694229126 23.244368538260463 706.25025557726622 202.98890164494514 438.52005586028099 21.154952481389046 488.1114829480648 1960.1193479895592 535.53098292648792 183.66797211021185 10.313958764076235 45.904077611863613 440.37353095412254 58.154236063361168 10.671549618244169 15.002225935459135 103.61010197922587 101.80453971773386 801.93681012094021 5.1689960509538642 5.5388473197817794 39.989943020045757 89.42357362434268 18.015764869749546 149.04482717812061 4.5039805024862281 6.1195377707481375 223.04385722056031
leaf_count=5545 5329 970 170 3829 44595 10416 3067 1525 27773 20312 555 1794 1335 8434 40801 49 9790 14 3430 16330 780 1307 401 750 6925 1466 2065 282 12520 1449 3511 158 96 1914 249 1672 17 791 1581 1213 2475 45 569 1722 431 10 68 1330 1101 11056 8 18 394 1061 21 92 38 27 2968
internal_value=0 0.0961764 0.087588 0.093486 0.0759764 0.118398 0.113925 0.00614599 0.0445356 0.0606484 0.137103 0.118296 0.1335 0.112588 0.119256 0.051251 0.0420365 -0.0135673 0.0205929 0.0494575 0.188158 0.077441 0.0756206 -0.0368336 -0.010129 0.10533 0.0204397 0.12284 -0.00374922 0.0783756 0.0687972 0.155841 0.178752 0.0791763 0.132913 -0.110693 0.029066 0.180804 0.165396 0.0964441 -0.0445568 -0.0204721 0.0992834 0.0173112 0.0196283 -0.0372742 -0.0437814 0.019279 -0.0571011 -0.0966133 -0.120642 -0.0803885 -0.0370062 -0.0695663 0.391866 0.203435 -0.0946257 -0.112714 -0.0963165
internal_weight=0 76988.5 63634.9 59337.6 31959.4 8482.7 27378.2 4297.21 19384.9 23476.7 13353.7 9199.41 8248.35 5965.89 25901.4 18026.2 15401.9 951.055 9686.14 4431.42 2282.46 1616.22 495.786 2680.99 1853.16 2624.32 1476.82 2134.29 5254.71 5715.73 4861.84 1215.56 4154.26 918.729 853.887 455.269 490.034 4115.18 2448.23 1469.37 1358.72 812.554 132.388 468.879 104.058 39.0849 680.166 118.612 561.554 827.836 28.4134 546.168 134.952 129.414 28.3297 1666.95 411.216 146.842 406.712
internal_count=268644 172136 153603 130630 79152 14245 51478 22973 96508 64907 18533 14985 12343 10228 46346 80660 75052 2642 60053 19760 2115 4072 956 18901 7675 5608 5132 3820 40293 14999 13301 1624 3548 2196 1698 1686 1788 3434 2372 2738 15848 8894 1066 1771 1000 114 7828 1398 6430 11226 104 6954 1473 1455 66 1062 5481 1334 5443
is_linear=0
shrinkage=0.1


Tree=8
num_leaves=61
num_cat=0
split_feature=129 131 130 128 110 118 101 55 107 3 100 109 34 6 32 73 101 53 15 56 123 48 98 20 81 20 24 31 102 99 99 102 5 102 26 31 123 1 10 66 109 32 78 102 54 27 29 54 41 52 109 86 52 122 87 108 100 89 78 109
split_gain=3454.02 3407.01 2423.31 2421.19 1587.01 2397.01 851.16 2455.12 731.597 629.801 784.852 610.911 576.404 506.254 463.081 384.926 320.976 225.885 306.908 216 242.327 153.401 149.419 140.569 137.647 135.776 226.188 127.627 127.196 114.196 160.967 111.427 105.237 186.477 221.828 171.253 90.2168 69.8895 64.7398 67.8995 55.6161 139.561 160.822 49.8462 49.4796 132.69 45.2071 144.074 38.7597 18.4214 16.751 40.6083 14.1269 7.24522 3.85783 3.42866 1.82036 0.112896 0.0176174 0.0128367
threshold=1.0000000180025095e-35 1.0000000180025095e-35 1.0000000180025095e-35 1.0000000180025095e-35 -1.2050134539604185 -1.5892491936683653 -0.81459251046180714 1.0071097612380984 -0.87686026096343983 0.5811067819595338 -0.88627517223358143 -0.91222280263900746 0.85515117645263683 0.60177013278007518 0.96379008889198314 -0.76095846295356739 -0.76139533519744862 1.057286322116852 0.97403377294540416 0.97623053193092357 -1.5210475325584409 1.1868370175361636 -0.90025919675827015 1.6095811128616335 -1.3811892271041868 1.2510063052177431 1.30252081155777 1.0067760944366457 -0.92889928817749012 -0.79791322350502003 -0.79054227471351612 -0.78785827755928028 0.62519553303718578 -0.88411921262741078 1.3900331258773806 1.0121822953224184 -1.5263509154319761 0.45896200835704809 0.83681231737136852 0.26850043237209326 -1.0007399916648863 0.95916086435318004 -1.057775557041168 -0.98557406663894642 1.0697979331016543 1.1371464729309084 1.0286813378334048 1.0533646345138552 1.0216817259788515 1.0782222151756289 -0.91317665576934803 -1.21436071395874 1.09700483083725 -1.4876993894577024 -1.1283953785896299 -0.8836606740951537 -0.91412717103958119 -1.0616234540939329 -1.1258124709129331 -0.74430420994758595
decision_type=2 2 2 2 2 2 2 2 2 2 2 2 2 2 2 2 2 2 2 2 2 2 2 2 2 2 2 2 2 2 2 2 2 2 2 2 2 2 2 2 2 2 2 2 2 2 2 2 2 2 2 2 2 2 2 2 2 2 2 2
left_child=1 2 3 4 12 -6 9 11 17 22 -11 -8 -1 15 32 -5 -9 18 27 25 21 36 -4 50 -15 29 48 -3 -20 31 -31 -16 40 37 35 -35 -21 49 39 -19 41 42 -2 59 45 -22 47 -42 -27 -34 51 -10 -48 -23 -45 -52 -39 -46 -28 -25
right_child=14 8 6 13 5 -7 7 16 23 10 -12 -13 -14 24 19 -17 -18 38 28 20 44 53 -24 43 -26 26 58 -29 -30 30 -32 -33 33 34 -36 -37 -38 56 -40 -41 46 -43 -44 54 57 -47 52 -49 -50 -51 55 -53 -54 -55 -56 -57 -58 -59 -60 -61
leaf_value=0.081272437849699258 0.35390137811795919 -0.1320925744026521 -0.10591688582875243 0.080115991289422955 0.17239361120166 0.087498548770633344 0.058680979275765911 -0.077132484242630445 0.15940976419220965 -0.024547787830025137 0.16713048737838909 0.22983814505988362 -0.10810477182257623 -0.093817852383958553 0.067167711592736726 0.0023566649285800007 0.037831039770677116 -0.097388670961134211 -0.068343826082643916 0.12184889508377737 0.079915136572285272 0.00066830396947989488 -0.042142095402937667 -0.11919884090943388 -0.020802215580669973 0.34478814502940902 -0.11409023798452417 0.21822168718887772 0.02736194939174029 0.36611013871067377 -0.067188542867640672 -0.071730225006609485 0.18667444497450902 -0.013558426568080428 0.56414651762422197 0.29191126249263383 0.37509690765598336 -0.11226098786049686 0.40593751889179397 0.0071207287130364188 0.70901200562128563 0.26105600291352538 -0.1147102130449465 0.10699007664461216 -0.11095536462407306 -0.077822626371328321 -0.084574846286934152 -0.043074055749839073 0.66281884081223919 -0.028538909926421881 -0.087233229620230154 -0.1130084042106613 -0.10749106379063411 -0.12840801745584246 0.17799133919518798 -0.10694729951402349 -0.084460944568986493 -0.12208470940799004 -0.12389959420614 -0.11128979554473234
leaf_weight=227.30543212592602 8.1545447334647161 11.534185171127318 573.76956677436829 1121.7633146047592 3470.9229927808046 79582.353546440601 303.7138599678874 771.06829189881682 8.2449366375803965 668.60280875861645 313.9170715585351 665.47404140979052 548.66427618265152 342.93081542477012 277.73856072500348 1471.9497840702534 354.5177241563797 228.98398255556822 161.41300220042467 47.699327319860458 72.097243007272482 5.7045511454343822 1021.286862950772 6.2175437211990339 1044.8044091463089 6.7249390110373524 5.7108009085059166 105.74882239103317 994.16980890184641 25.427197657525539 12.934981919825075 72.91972578316927 10.381765939295294 149.78906102478504 7.9535482898354521 20.915371052920818 19.950248181819916 164.86883337050676 2.8963649347424498 85.33348261937499 2.8178592473268536 15.481074497103689 71.862740829586983 13.449795491993429 118.79242855682969 204.86957467347383 510.78736885264516 26.511267114430666 8.908700190484522 6.4471646398305884 97.643336854875088 16.269854284822941 568.29919801279902 18.296346247196198 17.754649370908737 914.21498325839639 27.479964166879654 9.8720770254731161 2.6948595941066724 3.0631510354578495
leaf_count=556 29 68 5962 6597 3096 154027 1187 6927 39 5338 1045 1442 2551 4803 2111 8680 1768 1965 1357 165 636 24 7510 50 6067 36 54 219 6248 84 82 701 10 1600 24 126 39 1769 5 577 8 27 699 28 1360 2225 5632 234 11 44 1114 173 6669 122 12 14311 275 70 18 38
internal_value=0 0.0791504 0.0823638 0.0860977 0.0897165 0.0910464 0.0121892 0.0595343 -0.0322808 -0.0262877 0.0366938 0.176203 -0.0526304 0.00990413 -0.039877 0.035987 -0.0409233 0.0108214 0.029637 0.0170098 -0.0273847 0.119473 -0.065083 -0.0959251 -0.0388455 0.0704563 0.301094 0.18377 0.0139937 0.0562042 0.22001 0.0382838 -0.0724114 -0.0271089 0.0479211 0.0238689 0.196533 -0.0911919 -0.064679 -0.0690156 -0.0870053 -0.013781 -0.0669541 0.086875 -0.0605666 -0.0367619 -0.0933142 0.0291842 0.526015 0.104226 -0.103066 -0.0213874 -0.0966436 -0.0977291 0.147388 -0.105045 -0.108289 -0.111809 -0.117235 -0.116588
internal_weight=0 95150 92483 87810.7 83829.2 83053.3 4672.35 2094.77 2666.94 2577.58 982.52 969.188 775.97 3981.45 2502.09 2593.71 1125.59 1590.08 1272.87 910.342 497.282 91.6505 1595.06 1076.86 1387.74 413.06 24.0393 117.283 1155.58 389.02 38.3622 350.658 1591.75 387.836 178.658 170.704 67.6496 209.178 317.214 314.317 1203.91 95.4984 80.0173 40.4851 405.631 276.967 1108.42 29.3291 15.6336 16.8289 1036.37 24.5148 1079.09 24.0009 31.2044 1011.86 192.349 128.665 8.40566 9.28069
internal_count=268644 243760 217556 186377 160230 157123 31179 11324 26204 19855 6383 2629 3107 26147 24884 15277 8695 10439 7892 7738 4641 350 13472 15765 10870 3097 119 287 7605 2978 166 2812 17146 3848 1750 1726 204 2098 2547 2542 13298 755 728 128 4291 2861 12543 242 47 54 15637 212 12301 146 40 15425 2044 1430 72 88
is_linear=0
shrinkage=0.1


Tree=9
num_leaves=60
num_cat=0
split_feature=106 134 31 81 114 37 131 32 79 32 136 71 122 134 54 71 115 84 2 136 133 107 103 72 83 96 85 2 126 109 42 28 78 106 36 15 104 104 12 40 44 70 2 31 75 107 99 107 83 78 33 126 45 110 72 136 114 97 70
split_gain=2997.44 2190.81 1941.61 1687.29 1548.21 1580.71 1523.41 1158.83 1014.3 970.466 875.134 750.555 642.992 616.078 615.588 1241.6 603.283 491.565 438.38 388.88 387.643 359.226 352.518 342.467 326.421 319.346 277.945 246.284 238.044 198.646 190.757 164.584 125.087 108.994 90.6778 98.4332 147.261 124.821 80.9046 66.193 160.364 43.7144 227.774 27.3005 42.8435 22.5029 22.1997 14.4016 45.0383 24.1909 16.5965 11.3752 9.75594 5.94987 4.81591 0.28389 0.253 0.141043 0.00314803
threshold=-0.86438745260238636 1.0000000180025095e-35 0.99896594882011425 -1.3988366723060606 -0.93280377984046925 0.96279537677764904 1.0000000180025095e-35 0.87481161952018749 -1.0437344908714292 0.9468267858028413 1.0000000180025095e-35 -0.41487266123294825 -1.0413876771926878 1.0000000180025095e-35 1.0552470088005068 -0.47231894731521601 -1.4439457654953001 -1.182218551635742 0.64526724815368663 1.0000000180025095e-35 1.0000000180025095e-35 -0.99142733216285694 -0.75804772973060597 -0.625880867242813 -1.1910465955734251 -0.99368238449096669 -1.1170320510864256 0.66251391172409069 -1.3342367410659788 -0.90854406356811512 1.1172697544097903 1.3778845071792605 -0.96649584174156178 -0.95480868220329274 0.90835693478584301 0.99040368199348461 -0.81918910145759571 -0.81403079628944386 1.2093768119812014 1.0128281712532046 1.093000113964081 -0.27341961860656733 0.36029788851737982 1.0171325206756594 -1.0585178136825559 -0.83390620350837696 -0.89775219559669484 -0.83283331990241993 -1.4052805900573728 -1.3606052994728086 0.92323625087738048 -1.8724935650825498 1.2204125523567202 -0.9663373827934264 -0.60138255357742298 1.0000000180025095e-35 -0.91093918681144703 -0.96146100759506214 -0.2443251088261604
decision_type=2 2 2 2 2 2 2 2 2 2 2 2 2 2 2 2 2 2 2 2 2 2 2 2 2 2 2 2 2 2 2 2 2 2 2 2 2 2 2 2 2 2 2 2 2 2 2 2 2 2 2 2 2 2 2 2 2 2 2
left_child=1 2 4 34 5 7 9 -1 18 13 23 14 27 16 15 25 -5 -15 19 -4 33 -7 26 -11 -17 -3 53 -6 -20 -12 -28 -14 -22 -10 47 39 46 -38 43 45 -41 51 -43 54 -45 -36 -37 48 49 -2 -50 -16 58 -13 -8 57 -57 -49 -24
right_child=3 11 8 6 12 21 38 -9 20 10 29 22 31 17 41 24 -18 -19 28 -21 32 -23 52 -25 -26 -27 30 -29 -30 -31 -32 -33 -34 -35 35 36 37 -39 -40 40 -42 42 -44 44 -46 -47 -48 55 50 -51 -52 -53 -54 -55 -56 56 -58 -59 -60
leaf_value=0.10807599911265371 -0.10923556630344387 0.17060139074530056 -0.011524345349155822 0.14627582514164983 0.048442122172053993 -0.073311356511887069 -0.10580686050060813 0.074751695215349231 -0.12190558583545728 0.040166838968360652 0.033869101991094823 -0.15191472083984325 -0.019455609562225189 0.073853220140212686 0.18301306810840978 -0.004337177034483059 0.046465465217608609 0.15850509634433707 0.14767838669660163 0.042881824021047517 0.08182837789343321 0.022074301710279749 -0.18445798599116819 -0.00037704266887819194 0.076298291833145654 0.12242636133294643 0.039481296012133175 0.18453771880418024 0.0017245095900327051 0.073782756361350801 0.17370189798823968 -0.12000452729206837 0.13353035980025926 0.017448746262173655 0.027540897397908767 -0.11102120775172003 0.59272170040371919 0.11060983047372484 0.12621442185186763 0.20494463844695976 -0.050168134113925344 0.18107199392418336 -0.0019387520340120525 -0.10831902650530641 0.38291239037859842 -0.10321498099182842 0.089612921941698565 -0.10619936577988119 -0.12750750036191372 0.21059217238189087 0.12389938697358296 0.20513701972710641 -0.042839829018959191 -0.072115768440589423 -0.077347522423728568 -0.13942406717749056 -0.11224329049527806 -0.11102577673969934 -0.18185286931830935
leaf_weight=15808.884249728173 3.2999917343258849 1917.2724135667086 4789.1657852418721 683.07037874311209 930.10472144186497 602.00296846032143 652.89683058485389 30698.48200109601 73.288307793438435 3244.0804934352636 1721.5641149803996 61.040661066770554 1615.9165004603565 1413.2432392835617 934.87720115482807 711.14013636112213 5337.9827837385237 1333.00009290874 341.11752876639366 1810.3999106585979 1045.9875248372555 1147.2296070605516 4.961436763405799 5822.8847757056355 1707.2484799772501 4873.9924924522638 509.15488334000111 155.14855787158012 166.18339274823666 4522.5540286377072 133.68982355296612 181.02982536703348 846.76758696138859 239.66881594061852 13.81946739554405 24.855700295418504 7.6807388886809376 17.852056961506605 15.981108043342827 25.961735282093287 484.04937944561243 471.58177223801613 79.466363161802292 4.3934538438916206 2.9795552492141715 276.57248010486364 7.0874384567141524 266.35833213850856 32.200769424438477 8.3463276997208578 2.8589337877929202 309.28300641477108 5.3923434019088736 11.032313972711561 65.418242640793324 3.5370458364486685 107.61429204046726 78.361310087144375 71.282171726226807
leaf_count=25628 51 1264 23552 785 2082 2369 10368 59763 312 15763 4891 289 5721 2479 606 2199 16658 1208 461 4380 1821 3515 20 37282 3267 6256 1101 203 804 10124 124 877 1007 656 72 340 53 115 30 206 6113 351 212 66 2 4329 45 5051 306 17 16 188 15 48 722 18 1130 1025 288
internal_value=0 0.078363 0.0706692 0.0388691 0.078317 0.0825693 0.0448127 0.0860794 0.0286722 0.0491608 0.0339691 0.117773 0.00712094 0.0756913 0.124558 0.114116 0.0577887 0.114942 0.0102863 0.00340041 0.0879119 -0.0107529 0.0240369 0.0141292 0.052587 0.136027 0.0465168 0.0678984 0.0998663 0.0627782 0.0673946 -0.0295852 0.104958 -0.0151853 -0.0695649 -0.0498044 0.076602 0.255638 -0.0963487 -0.0588815 -0.0371818 0.178128 0.15468 -0.10125 0.0901957 -0.0969924 -0.0665052 -0.103295 -0.0504094 0.119969 -0.107007 0.188513 -0.172829 -0.1397 -0.103215 -0.108714 -0.113108 -0.107297 -0.182022
internal_weight=0 72252.8 60451.4 26180.5 51138.8 48256.6 24820 46507.4 9312.58 24078.4 15311.1 11801.4 2882.2 8767.3 11004.9 9209.65 6021.05 2746.24 7106.87 6599.57 2205.71 1749.23 796.554 9066.97 2418.39 6791.26 714.918 1085.25 507.301 6244.12 642.845 1796.95 1892.76 312.957 1360.46 857.879 57.4759 25.5328 741.669 800.403 510.011 1795.21 551.048 725.688 7.37301 290.392 31.9431 502.577 46.706 11.6463 35.0597 1244.16 81.636 72.073 718.315 455.871 111.151 344.72 76.2436
internal_count=268644 149379 133151 119265 100158 91275 100378 85391 32993 89190 68060 16228 8883 21130 14343 12986 17443 3687 29197 27932 3796 5884 1885 53045 5466 7520 1562 2285 1265 15015 1225 6598 2828 968 18887 11273 553 168 11188 10720 6319 1357 563 11158 68 4401 385 7614 390 68 322 794 323 337 11090 7224 1148 6076 308
is_linear=0
shrinkage=0.1


Tree=10
num_leaves=59
num_cat=0
split_feature=129 131 31 82 29 72 105 134 55 79 107 32 28 77 125 102 31 55 75 54 40 12 48 109 54 8 68 20 113 78 25 12 14 101 27 118 35 33 103 102 105 32 102 119 32 32 87 82 108 108 29 56 32 122 108 90 32 91
split_gain=2454.56 2180.47 1704.45 1303.67 1331.35 1845.8 928.432 1513.14 690.306 655.064 620.559 418.492 369.173 352.939 338.928 308.408 218.701 181.692 170.007 159.946 125.637 145.693 124.059 124.03 117.29 224.904 187.439 111.606 106.898 115.681 101.174 100.204 88.0854 140.307 96.3087 97.117 94.882 107.629 81.1562 63.2071 45.4574 44.7654 39.1298 39.0338 156.322 28.0819 20.0193 18.7414 18.0397 31.8583 11.4972 9.53777 7.31539 6.45011 4.31728 3.65182 0.0836202 0.0119269
threshold=1.0000000180025095e-35 1.0000000180025095e-35 0.99896594882011425 -1.4014725089073179 1.2197749614715578 -0.62511274218559254 -0.85056084394454945 1.0000000180025095e-35 0.96940454840660106 -1.0437344908714292 -0.87686026096343983 0.96341094374656688 1.3778845071792605 -1.2897430658340452 -1.615042984485626 -0.8607274293899535 1.002847492694855 1.01778119802475 -0.97286754846572865 0.96221059560775768 1.0128281712532046 0.75959187746047985 1.1868370175361636 -0.86476722359657276 1.0215393304824831 0.63529506325721752 0.03583993390202523 1.6095811128616335 -0.92179667949676503 -1.3043600320816038 1.4822151064872744 0.77362045645713817 0.92493233084678661 -0.83560279011726368 1.2049610614776614 -0.937788426876068 0.90040293335914623 0.88092225790023815 -0.77433475852012623 -0.87921833992004383 -0.75356203317642201 0.96823567152023327 -0.98557406663894642 -1.2979991436004636 0.95916086435318004 0.96523749828338634 -1.3666017055511472 -1.4380064010620115 -0.89304736256599415 -0.89426317811012257 1.0009905695915224 0.96315285563468944 0.9628414809703828 -1.4876993894577024 -0.8836606740951537 -1.1070584058761594 0.95369794964790355 -1.1640027761459348
decision_type=2 2 2 2 2 2 2 2 2 2 2 2 2 2 2 2 2 2 2 2 2 2 2 2 2 2 2 2 2 2 2 2 2 2 2 2 2 2 2 2 2 2 2 2 2 2 2 2 2 2 2 2 2 2 2 2 2 2
left_child=1 2 3 20 5 -5 7 9 14 -4 16 32 -6 -10 -8 -9 19 23 40 30 47 -22 38 28 25 -18 -26 48 29 -13 -3 -30 43 34 35 -34 37 -35 -20 -36 41 -19 57 44 56 -21 -25 -1 49 -12 -45 -48 -52 -24 -50 -44 -2 -29
right_child=11 10 6 4 12 -7 8 15 13 -11 27 17 -14 -15 -16 -17 24 18 22 45 21 -23 53 46 26 -27 -28 42 31 -31 -32 -33 33 36 39 -37 -38 -39 -40 -41 -42 -43 55 50 -46 -47 51 -49 54 -51 52 -53 -54 -55 -56 -57 -58 -59
leaf_value=-0.10941719711160194 -0.11212406310503803 0.059468393846269264 0.016648248244166591 0.093889268840113019 0.017762392209682728 0.060987993181041034 0.095425407547223479 0.14001714193508638 -0.06762561408548777 0.080657864516335567 -0.11367705533654188 -0.1147852667391862 -0.084602050754244915 0.0379200099075961 -0.041232365135630868 0.086275442885993703 0.1733008801809359 -0.10254718699591125 -0.056969274304807083 -0.10686966396896741 -0.042550739786140677 0.13968904223068032 -0.0070142510217737321 0.22066682994736958 -0.078591346003886342 0.029464918934555707 0.12102065258862459 -0.11026844530437666 0.43332692180966154 0.079151001155115017 -0.11800983939433951 -0.01096000937411006 0.20300752234795572 0.26519238082129981 -0.10632323325026843 -0.031215007064382856 0.49836913593852561 -0.11266530008514003 0.17647714550330881 -0.038770274157606019 0.26104250727018502 -0.027125295293762276 0.079683588814551412 0.063970777005711812 0.26364592222279726 0.011387945895020195 -0.034818053283555445 -0.065302511440119934 -0.081789300480381355 0.12785252061979197 -0.10395838402119469 -0.10916260518602788 -0.064649204629650653 -0.1214618996974975 -0.10556206092569168 0.15073631147963495 -0.12663077278229792 -0.11827319118699363
leaf_weight=282.94155991449952 37.169238097965717 150.87313428521156 5922.81920401752 33607.683821108192 1536.1215380951762 34612.599255286157 198.97237452864647 1661.2455650866032 330.78094074130058 2189.9460239857435 13.022119119763376 33.520870082080364 457.16869767010212 7509.263711091131 2064.8407148569822 2989.3685980960727 126.96009805798531 203.57641021162271 18.783992610871792 251.78837966918945 244.82470839470625 53.444830574095249 6.0596878975629798 2.347233071923255 184.59197794646025 756.1833697296679 63.130687035620213 2.6867334358394128 15.247903868556024 373.04392547905445 40.808215036988258 7.6099626049399367 26.521541528403759 14.732897605746986 263.71030950918794 53.238091807812452 6.3059912286698809 15.436625692993401 71.869074173271656 291.73886133730412 4.1146628931164733 128.28569892048836 11.626687183976175 4.2353725135326377 14.914801716804503 21.820392236113548 30.97480446845293 145.99138085916638 84.704368591308594 9.4055595174431783 689.484429910779 38.962897449731827 50.832660254091024 26.284302905201912 778.49396743252873 19.143557041883469 4.4491239488124839 6.0591853298246861
leaf_count=4408 411 708 18614 56041 4759 75095 546 1461 3972 3664 141 317 1925 27519 9469 5133 306 2513 94 2327 2851 446 26 28 1481 4880 274 37 30 2356 335 74 139 27 2841 611 30 163 243 2932 30 1368 26 32 15 128 403 1653 1119 65 8770 548 643 212 14312 14 28 51
internal_value=0 0.0633434 0.06581 0.0734629 0.0748425 0.0771963 0.0420682 0.0599961 0.0194214 0.0339269 -0.0284273 -0.03835 -0.00571528 0.0334669 -0.0292212 0.105473 0.00934265 0.0129964 -0.032472 -0.0483647 -0.0597414 -0.00989647 0.0681162 0.054592 0.0330861 0.0501427 -0.0277214 -0.093592 0.0749914 0.0631611 0.021684 0.285413 -0.071843 -0.045135 -0.0560872 0.0466683 0.145593 0.0718566 0.128105 -0.0708424 -0.0692961 -0.0733919 0.0708364 -0.0942368 -0.0141286 -0.0974386 -0.066595 -0.0944023 -0.100929 -0.0123861 -0.100319 -0.076236 -0.101259 -0.10002 -0.103229 0.123889 -0.113675 -0.115814
internal_weight=0 96329.3 93808 70940.8 70213.6 68220.3 22867.2 12763.4 10103.9 8112.77 2521.3 2433.45 1993.29 7840.04 2263.81 4650.61 1596.16 960.681 458.974 465.29 727.202 298.27 122.997 501.708 1130.87 883.143 247.723 925.142 429.423 406.565 191.681 22.8579 1472.77 671.684 635.209 79.7596 36.4755 30.1695 90.6531 555.449 335.977 331.862 39.5162 801.086 56.5332 273.609 72.2849 428.933 885.626 22.4277 744.552 69.9377 740.317 32.344 863.198 30.7702 41.6184 8.74592
internal_count=268644 243760 217556 147178 137820 131136 70378 28872 41506 22278 26204 24884 6684 31491 10015 6594 10439 8242 4486 3498 9358 3297 575 3756 6941 5186 1755 15765 2777 2673 1043 104 16642 6743 6523 750 220 190 337 5773 3911 3881 128 9899 454 2455 979 6061 15637 206 9445 951 9413 238 15431 40 439 88
is_linear=0
shrinkage=0.1


Tree=11
num_leaves=58
num_cat=0
split_feature=106 134 30 104 105 131 74 56 83 57 32 134 52 136 47 72 130 131 54 72 27 72 52 122 103 74 105 123 43 97 109 29 82 108 75 136 136 22 0 22 83 114 42 31 75 82 57 115 107 30 67 103 103 136 112 101 92
split_gain=2054.01 1901.79 1610.99 1998.13 2140.83 1308.77 1182.84 1280.15 1069.01 971.851 773.383 695.007 649.64 596.713 588.7 586.731 552.449 491.239 419.42 837.69 417.829 417.534 266.492 262.506 249.603 248.228 241.46 251.874 208.612 200.846 199.777 185.052 106.543 150.546 119.951 74.2837 72.4774 60.539 42.0567 272.455 35.4744 30.4218 23.6508 20.4593 29.5305 14.3123 11.1228 9.28606 6.85644 56.3842 5.05547 18.309 0.0845368 0.0822414 0.060384 0.0283453 0.00149937
threshold=-0.86682283878326405 1.0000000180025095e-35 1.0757651925086977 -0.87743276357650746 -0.82953757047653187 1.0000000180025095e-35 -0.99995243549346913 0.85836514830589306 -1.3895871639251707 0.92395254969596874 0.94397756457328807 1.0000000180025095e-35 1.1325855255126955 1.0000000180025095e-35 1.2405908703804018 -0.56648272275924672 1.0000000180025095e-35 1.0000000180025095e-35 1.0546141266822817 -0.63690200448036183 1.4931236505508425 -0.6281980276107787 1.1009382605552676 -1.3288409709930418 -0.75963631272315968 -1.0026683211326597 -0.88132441043853749 -1.0728965997695921 1.1417481899261477 -0.74819284677505482 -0.90854406356811512 1.1745725274086001 -1.445290148258209 -0.80878305435180653 -1.0819692611694334 1.0000000180025095e-35 1.0000000180025095e-35 1.5593246221542361 0.25696040689945226 1.2685742974281313 -0.94570240378379811 -0.91917449235916127 1.1378313899040224 1.0171325206756594 -1.0585178136825559 -1.2696986794471739 0.96834155917167675 -0.92937636375427235 -0.86810627579689015 1.0226386189460757 0.18452200293540957 -0.7766173481941222 -0.75646415352821339 1.0000000180025095e-35 -0.90110570192337025 -1.003122806549072 -1.1103033423423765
decision_type=2 2 2 2 2 2 2 2 2 2 2 2 2 2 2 2 2 2 2 2 2 2 2 2 2 2 2 2 2 2 2 2 2 2 2 2 2 2 2 2 2 2 2 2 2 2 2 2 2 2 2 2 2 2 2 2 2
left_child=1 2 3 16 9 8 26 20 32 -5 11 14 -6 21 -10 18 17 -1 19 25 -8 -12 -13 -21 28 -3 27 -4 29 -17 -15 -9 50 36 -35 -28 -34 43 46 -40 -30 -18 52 48 56 47 -20 55 49 -7 53 -52 -26 -2 -50 -39 -45
right_child=5 15 6 4 12 37 7 31 10 -11 13 22 -14 30 -16 24 41 -19 38 23 -22 -23 -24 -25 42 -27 35 -29 40 -31 -32 -33 33 34 -36 -37 -38 45 39 -41 -42 -43 -44 44 -46 -47 -48 -49 54 -51 51 -53 -54 -55 -56 -57 -58
leaf_value=0.094684490075770247 -0.10646621481431187 0.14970986761218566 0.011756936221177322 0.048031041382571971 0.16275523594549002 0.2999056169635011 0.074115491758074747 0.0045033166599920101 0.034356526795401035 -8.4702376196968379e-06 0.038165109924576293 0.080237800619850683 0.083608309215004922 0.024416653537913151 0.1251462833101766 0.02768053890619972 -0.11046803612837051 -0.056513521796446545 0.15813891725510867 0.06853005786736284 -0.091814644851394608 -0.001716959272907399 0.14593983341874811 -0.0077426687231777194 -0.18320682798819327 0.10538312228470044 -0.10206397681651774 -0.038908015843370773 0.030790935449909202 -0.16909165582749375 0.061734140572678654 -0.066145951865195229 -0.064898445068319432 0.13129504755037333 -0.11692888786314043 0.0057178327470726034 0.019859495622085766 -0.11268769207970869 -0.080974455222792799 0.1535610452094629 0.16884941182520985 0.1063453226430317 0.0088562072851068995 -0.10607813263886634 0.27463216831298187 0.13250734152438345 0.17984340936368637 0.11589818445891889 -0.10679536651039041 -0.091524769050254723 0.00010511664144589839 -0.10774162112867354 -0.17282270504990752 -0.1101931038184356 -0.10474235648409057 -0.12816537418278351 -0.11024463393495598
leaf_weight=18500.68641866371 189.00749814510345 1834.0546757131815 3242.5141930021346 13682.940057449043 1427.0213463008404 3.7528309635817996 7415.2541153915226 2724.6415101550519 5362.3482923917472 6083.4615398086607 4281.3060988076031 1418.9650156348944 3795.0369117334485 2013.1617075800896 823.94037498906255 275.38707157969475 141.92320493608713 217.40757784619927 836.0270164757967 1657.8918156027794 154.92725973576307 6785.5138511285186 1092.7709018737078 619.97277462482452 8.8826054036617261 4059.8543905466795 347.61354632675648 1406.9951026849449 22.903294697403908 63.910490185022354 4991.4660675376654 429.14127457141876 656.30723869800568 83.740080859512091 25.364528104662895 78.358750358223915 119.21432574093342 3.005233846604825 54.749696299433708 519.63229078054428 99.33015750348568 6.7808132208883753 7.7988927364349356 3.5427284948527813 3.5716116428375226 13.832372013479469 329.03783878684044 2.555266637355091 265.44797530397773 189.63947012275457 21.408260308206081 59.47110103815794 66.780950769782066 86.220641747117043 311.24896872416139 1.9516297057271002 1.142156273126602
leaf_count=27044 3715 1255 9899 31953 1154 33 13859 9055 15770 16847 17666 2094 5711 5548 902 616 997 2140 582 3013 698 40214 890 1771 36 5070 2222 5717 45 243 10819 1647 9759 702 258 182 430 34 185 442 76 38 18 67 2 16 180 11 4624 2317 320 938 274 1080 7437 13 16
internal_value=0 0.0638696 0.0569743 0.0668378 0.0482905 0.0321534 0.0295955 0.0484191 0.0357547 0.033246 0.0399605 0.0644604 0.105237 0.0281684 0.0464486 0.103209 0.0914031 0.0929284 0.108763 0.0992724 0.0707197 0.0137118 0.108823 0.0477707 0.00219018 0.119177 -0.0101768 -0.00357486 0.0309691 -0.0093837 0.0510089 -0.00511006 -0.0549885 -0.0363961 0.0735882 -0.0822372 -0.0518693 -0.0939881 0.153351 0.131205 0.142981 -0.100581 -0.156951 -0.0985444 0.0580339 0.0721618 0.164269 -0.0389548 -0.100223 -0.083929 -0.101175 -0.0791953 -0.174042 -0.107634 -0.105687 -0.118782 -0.107094
internal_weight=0 70110.9 59654.7 43855.3 24988.5 28809.9 15799.4 10724 28010.2 19766.4 26769.5 8698.02 5222.06 18071.4 6186.29 10456.2 18866.8 18718.1 9911.22 8171.77 7570.18 11066.8 2511.74 2277.86 544.993 5893.91 5075.48 4649.51 461.531 339.298 7004.63 3153.78 1240.73 884.626 109.105 425.972 775.522 799.69 1739.45 574.382 122.233 148.704 83.4624 778.346 8.2565 21.3445 1165.06 7.51213 770.089 193.392 356.108 80.8794 75.6636 275.228 576.697 4.95686 4.68488
internal_count=268644 142969 129163 85884 55665 125675 43279 25259 111105 48800 93903 19656 6865 74247 16672 13806 30219 29184 12498 11109 14557 57880 2984 4784 1308 6325 18020 15616 980 859 16367 10702 17202 11149 960 2404 10189 14570 1389 627 121 1035 328 14496 85 74 762 58 14411 2350 6053 1258 310 4795 12061 47 83
is_linear=0
shrinkage=0.1


Tree=12
num_leaves=61
num_cat=0
split_feature=129 31 110 118 70 30 105 134 136 108 124 89 34 34 136 32 53 112 102 54 57 54 133 3 110 54 75 71 30 109 108 55 54 0 5 102 18 31 72 78 109 74 1 81 103 110 78 32 29 53 105 32 29 96 30 51 52 103 30 85
split_gain=1792.61 1564.56 1200.31 1868.54 1890.92 1346.52 724.098 1238.87 551.21 507.694 490.369 413.562 412.595 393.906 386.538 377.226 283.816 278.851 273.257 968.432 257.83 256.343 251.519 245.071 223.301 144.217 164.762 124.371 125.307 108.41 130.21 107.547 102.627 89.8719 85.2094 142.765 115.672 102.439 70.5042 69.3681 63.3628 56.6932 56.1578 52.792 48.5385 46.7479 95.6363 122.771 36.2766 70.6701 36.2459 31.0001 20.6293 19.3339 71.384 12.3567 12.0619 10.1978 2.04516 0.148551
threshold=1.0000000180025095e-35 0.99896594882011425 -1.2050134539604185 -1.5838550329208372 -0.2599214762449264 1.0783064365386965 -0.85056084394454945 1.0000000180025095e-35 1.0000000180025095e-35 -1.0056182742118833 -2.5509964227676387 -1.1195526719093321 0.85135996341705333 0.82280561327934276 1.0000000180025095e-35 0.96341094374656688 1.0083173513412478 -0.98685690760612477 -0.86236482858657826 0.97989085316658031 0.88837081193923961 1.1157461404800417 1.0000000180025095e-35 0.55943262577056896 -1.200640022754669 1.0533646345138552 -0.97286754846572865 -0.25679157674312586 0.90292972326278698 -0.86476722359657276 -0.84958282113075245 1.0171703696250918 1.0803900957107546 0.37781214714050299 0.62519553303718578 -0.88411921262741078 1.3493008613586428 1.0086130499839785 -0.54100117087364186 -0.33989822864532465 -0.86972621083259571 -0.8188488483428954 0.45896200835704809 -1.3316576480865476 -0.85548239946365345 -1.0297704339027403 -1.057775557041168 0.95916086435318004 1.0286813378334048 1.113732695579529 -0.75356203317642201 0.96823567152023327 1.0086770653724673 -0.96752789616584767 1.046048700809479 1.0804314613342287 1.09700483083725 -0.75283965468406666 1.0958600044250491 -1.1304729580879209
decision_type=2 2 2 2 2 2 2 2 2 2 2 2 2 2 2 2 2 2 2 2 2 2 2 2 2 2 2 2 2 2 2 2 2 2 2 2 2 2 2 2 2 2 2 2 2 2 2 2 2 2 2 2 2 2 2 2 2 2 2 2
left_child=1 2 12 13 5 -5 7 9 11 22 -6 23 31 21 -11 34 -13 38 43 -20 -19 -4 -3 -8 -15 29 50 28 -14 30 33 52 41 -17 45 42 37 -37 -10 -33 -32 -28 55 -9 -29 46 -2 -48 49 -47 51 -27 -1 54 -31 -36 -50 -55 -44 -34
right_child=15 6 3 4 10 -7 8 18 17 14 -12 16 27 24 -16 25 -18 20 19 -21 -22 -23 -24 -25 -26 26 32 44 -30 53 40 39 59 -35 35 36 -38 -39 -40 -41 -42 -43 58 -45 -46 48 47 -49 56 -51 -52 -53 -54 57 -56 -57 -58 -59 -60 -61
leaf_value=-0.17109817894171703 0.29318728171185154 -0.053230777907177645 -0.16533536282683631 0.073869746671477124 -0.13539344460943917 0.032744387821794854 -0.01003642844344358 -0.03591606126258387 -0.078538875764300242 -0.00044677388303873282 0.0284272720969889 0.22535382991677388 0.11253156906142477 0.054961922064240845 0.048521674522169045 0.0037712508687015624 0.020796526272978639 -0.0092131358674859692 -0.050747174972662658 0.096217861784368822 0.051715485085080032 0.10760506794217228 0.086787371897353138 -0.061660588373185457 0.13948773567080169 -0.10468100225573163 0.14547839724204703 0.078851595743020975 -0.082346125003887521 0.33445783934080447 0.44599985510396745 0.12851518672635884 -0.11465557945036134 0.094399991143593098 0.15207144529655681 -0.05265656508673329 0.26249221142644796 0.11432172290521075 0.13060595549718351 -0.063781017586533997 0.13722073246717889 -0.033460800228905664 -0.11116396109108212 0.12521218283189939 -0.13486462795816831 0.20000573410899372 -0.11326054971886286 0.18207241254956272 -0.083253170504728219 -0.11222494660318588 0.19590012850332955 -0.037977741607717587 -0.012862409749848001 -0.10821306346247234 -0.10772996188854433 -0.026089463287977788 -0.10630076483876164 0.042482497693829085 -0.080988303568291675 -0.13082885077522557
leaf_weight=17.602945879101753 8.980551101267336 140.34397308528423 74.651118651032448 40617.665049094707 184.82644234597683 9902.4503864087164 2489.4026559703052 20.624534159898758 248.21566143631935 5645.3593387492001 16029.810582064092 70.61950346827507 45.771717600524426 342.53465776145458 2256.2267035618424 212.05240951478481 1715.6997818686068 852.13986106961966 543.20933974534273 2568.2778066843748 3755.0330396592617 63.833905175328255 1494.0214154422283 1458.2346558645368 3569.8089585006237 173.83111235499382 80.699927248060703 10.890813183039425 118.20508621633053 5.2270449958741692 12.18432103097439 133.5813614577055 15.947562888264658 226.07132229954004 10.463125020265581 103.21105783432722 19.885477349162102 57.047937035560608 17.23771345615387 21.824254922568798 14.619592532515524 22.682690761983395 145.20582847669721 1443.9835715591908 438.72259301692247 12.371964562684299 65.905714564025402 17.898410022258759 448.41711251810193 17.506973642855883 4.9152322933077803 116.28051869943738 15.488271817564963 51.626098610460758 12.106503281742333 6.1995319314301005 460.01824655383825 4.9184523932635775 26.570081364363432 8.8200461417436582
leaf_count=73 16 440 288 78337 675 23533 17746 51 989 24989 46825 78 95 565 4933 1482 6598 2550 1552 3732 8513 71 2111 11658 3065 2350 255 46 485 57 26 198 156 1327 10 1300 29 403 51 72 76 111 1723 1259 2136 25 708 25 5486 212 30 1289 46 801 188 44 6340 43 321 51
internal_value=0 0.0514073 0.0588969 0.0602753 0.0562724 0.0658088 0.0297165 0.0445546 0.00997436 0.0240296 0.0265599 -0.0110404 -0.0627465 0.12622 0.0135357 -0.0367776 0.0288834 0.0347039 0.0873259 0.0705604 0.0404462 -0.039525 0.0747639 -0.0291061 0.132087 0.0114308 -0.032259 -0.102499 -0.0279489 0.0457446 0.0636253 0.0666548 0.0624168 0.0505356 -0.0699107 -0.0286428 0.03501 0.00678326 -0.0649577 0.10151 0.277583 0.106218 -0.089494 0.122943 -0.129688 -0.0846625 -0.0169503 -0.050185 -0.0913582 0.0170603 -0.0733831 -0.0779455 -0.0970363 -0.0667813 0.0256147 0.0857846 -0.0949241 -0.095105 -0.106496 -0.120415
internal_weight=0 96306.3 71587.7 70785.6 66734.8 50520.1 24718.6 14112 10606.6 9535.95 16214.6 5733.96 802.087 4050.83 7901.59 2361.66 1786.32 4872.63 4576.1 3111.49 4607.17 138.485 1634.37 3947.64 3912.34 961.983 423.177 613.59 163.977 538.806 464.928 188.497 128.15 438.124 1399.68 368.583 180.144 160.259 265.453 155.406 26.8039 103.383 188.439 1464.61 449.613 1031.1 92.7847 83.8041 938.314 29.8789 295.027 290.112 33.0912 73.8781 17.3335 16.6627 908.435 56.5446 171.776 24.7676
internal_count=268644 243760 156510 153359 149370 101870 87250 39067 48183 32473 47500 36080 3151 3989 29922 24884 6676 12103 6594 5284 11063 359 2551 29404 3630 8242 4242 2762 580 4000 2911 389 573 2809 16642 3830 1732 1703 1040 270 102 366 2098 1310 2182 12812 749 733 12063 237 3669 3639 119 1089 245 54 11826 844 2044 207
is_linear=0
shrinkage=0.1


Tree=13
num_leaves=56
num_cat=0
split_feature=81 31 110 118 71 30 104 105 134 77 136 136 34 42 70 72 101 54 112 76 34 119 133 110 110 32 80 110 108 136 33 71 33 73 71 30 42 71 72 105 71 48 31 35 136 107 116 109 134 33 18 38 82 99 121
split_gain=1482.52 1306.39 991.319 1616.57 1409.41 1344.39 874.652 597.154 1170.74 567.088 465.86 388.601 352.625 331.72 474.081 415.364 288.987 839.946 249.952 233.31 217.962 194.441 174.104 164.874 142.716 128.342 101.18 123.834 96.1409 92.7404 80.9493 78.4872 77.0602 69.0553 67.9634 85.5393 67.837 66.5244 66.1118 59.9531 119.985 217.031 98.2035 43.4763 38.2853 90.6741 35.9021 15.6315 10.5046 10.8484 31.245 17.489 8.97531 19.942 4.3375
threshold=-1.3835086822509763 0.99829313158988964 -1.2050134539604185 -1.5892491936683653 -0.42750109732151026 1.0745580792427065 -0.86720824241638172 -0.84966534376144398 1.0000000180025095e-35 -0.96724623441696156 1.0000000180025095e-35 1.0000000180025095e-35 0.85515117645263683 1.0303094983100893 -0.33938744664192194 -0.62740737199783314 -0.87107765674591053 0.97989085316658031 -0.98685690760612477 -1.0980397462844846 0.82280561327934276 -0.90805119276046742 1.0000000180025095e-35 -1.1629101037979124 -1.200640022754669 0.95618915557861339 -1.3933064937591551 -0.86067897081375111 -1.0705909729003904 1.0000000180025095e-35 0.91043719649314891 -0.20812794566154477 0.93420991301536571 -0.69844758510589589 -0.25679157674312586 0.90292972326278698 0.98299074172973644 -0.29155772924423212 -0.59341952204704274 -0.78562021255493153 -0.39325572550296778 1.1481377482414248 0.99840661883354198 0.94751593470573436 1.0000000180025095e-35 -0.83707919716835011 -0.87304037809371937 -0.84148290753364552 1.0000000180025095e-35 0.92538806796073925 1.1517760753631594 0.9727706015110017 -1.3833609819412229 -0.90975576639175404 -1.0152149796485899
decision_type=2 2 2 2 2 2 2 2 2 2 2 2 2 2 2 2 2 2 2 2 2 2 2 2 2 2 2 2 2 2 2 2 2 2 2 2 2 2 2 2 2 2 2 2 2 2 2 2 2 2 2 2 2 2 2
left_child=21 2 12 20 5 -5 -6 8 9 11 13 -3 28 14 -9 -15 36 -18 33 -20 23 25 -11 -4 -22 26 32 29 37 -28 -29 -30 46 -12 35 -14 -10 -2 -34 44 41 -41 -42 -36 47 -46 -1 -27 49 52 51 -51 54 -54 -23
right_child=1 7 3 4 6 -7 -8 10 16 22 18 -13 34 15 -16 -17 17 -19 19 -21 24 48 -24 -25 -26 39 27 30 31 -31 -32 -33 38 -35 43 -37 -38 -39 -40 40 42 -43 -44 -45 45 -47 -48 -49 -50 50 -52 -53 53 -55 -56
leaf_value=-0.07120259514481056 0.036733478356355174 0.00055305027320558871 -0.14402678245295311 0.071262366839168617 0.093226683397287513 0.032556845803008043 0.021701378856412799 0.036999707191739832 0.098682286275417391 -0.018734921897640214 -0.071731949612903884 0.046261322051400391 0.094476765810014823 0.053997355980240407 -0.074559920445023534 -0.013012453900254101 -0.047438146843212486 0.084699761485254529 0.035144821697506094 0.18975781485448479 0.062735727523754642 -0.04273235049559744 0.097253887767612235 0.12680726515541554 0.13398019561329375 -0.10238689788219904 -0.061892261798844411 -0.014094634281289618 0.11323875745765273 0.044436214220209089 0.16180605908865076 -0.090624639505808596 0.45247618206079693 0.1686923233982873 -0.13143157114281559 -0.089199959406346979 0.14091194129117085 -0.14057195093713437 0.024371756276772665 -0.01440097618036913 -0.083306938902750802 0.27437215141331189 0.11796660652904543 0.063648741546005305 -0.086745626281423696 0.17037854394970994 0.087659447764766474 -0.059765648085485505 0.10961484852437652 -0.1054233630136461 0.41590594557327321 0.16561201774021078 -0.11425323506306875 0.29832547071630366 -0.10722551558060384
leaf_weight=210.85237332060933 45.438973881304264 6905.8177425079048 52.91075499355793 33557.120258983225 1895.5319112129509 12249.635015744716 17437.795429632068 530.23554690554738 1091.9283234328032 146.19072508066893 257.16654042899609 2545.6503524929285 33.718916200101376 1318.2960985004902 1352.7375345863402 3100.7654580362141 576.28931079059839 2911.0781168267131 4561.8264223188162 99.731913432478905 311.08052249252796 10.708271894603966 1127.5789156556129 39.078461617231369 2924.4121182560921 247.58847356960177 136.32359823957086 35.5603969655931 139.23994392901659 205.96213313937187 98.994223415851593 21.848456278443336 5.3508954867720631 12.528484776616095 383.21143193542957 102.21214279159904 583.75181456655264 39.605329051613808 11.070183400064705 122.63234297186136 243.81052342802286 33.037539482116699 26.917482599616051 11.775224126875399 42.159955129027367 20.327913105487823 15.255154967308043 131.88662046566606 2.3940334767103186 15.45067029446364 1.4677471034228791 2.8144145607948294 3.433465763926506 1.7783145904541005 398.79452305287123
leaf_count=3032 113 30437 192 61617 2761 28304 49562 2486 1179 414 1041 5427 74 7464 8025 19436 1668 4356 10780 98 473 105 1403 38 2393 3949 1147 345 210 436 501 81 18 32 2019 454 417 166 110 1645 3134 181 291 57 160 27 120 2446 3 329 15 35 53 3 7382
internal_value=0 0.046267 0.0535538 0.0548285 0.0513556 0.0609117 0.0287141 0.0276628 0.0401395 0.0213055 0.0100158 0.0128641 -0.0587596 -0.00799829 -0.0431453 0.00697794 0.0792635 0.0628639 0.0330374 0.0384527 0.122815 -0.0401995 0.0839418 -0.0289722 0.12713 -0.023944 0.0072931 0.0340396 0.0401779 0.00208832 0.115319 0.0855887 -0.0452937 -0.0605632 -0.104627 -0.0436373 0.113394 -0.0458381 0.163872 -0.0498215 -0.0230704 0.0468848 -0.0632951 -0.125616 -0.0756304 -0.00310063 -0.0604844 -0.0875739 -0.0992813 -0.100432 -0.0279897 -0.0636603 -0.103879 0.026523 -0.105539
internal_weight=0 96366.2 69244.6 68467.6 65140.1 45806.8 19333.3 27121.6 15888.3 10725.2 11233.3 9451.47 777.05 6302.03 1882.97 4419.06 5163.05 3487.37 4931.25 4661.56 3327.48 2024.57 1273.77 91.9892 3235.49 1587.73 719.369 476.84 246.133 342.286 134.555 161.088 242.529 269.695 530.918 135.931 1675.68 85.0443 16.4211 868.361 426.398 155.67 270.728 394.987 441.963 62.4879 226.108 379.475 436.841 434.447 19.7328 18.2651 414.715 5.21178 409.503
internal_count=268644 243177 148514 145340 142244 89921 52323 94663 45301 37681 49362 35864 3174 37411 10511 26900 7620 6024 11951 10878 3096 25467 1817 230 2866 17542 5709 2429 570 1583 846 291 3280 1073 2604 528 1596 279 128 11833 5251 1826 3425 2076 6582 187 3152 6395 7925 7922 379 364 7543 56 7487
is_linear=0
shrinkage=0.1


Tree=14
num_leaves=63
num_cat=0
split_feature=129 131 130 128 30 72 54 101 133 107 57 77 2 32 101 0 72 31 54 53 29 107 127 0 127 111 92 107 127 47 118 22 5 102 30 0 100 80 103 26 32 103 108 107 29 53 2 81 24 13 32 109 1 52 33 6 84 30 121 32 87 102
split_gain=1332.28 1180.86 1166.04 1003.13 890.656 1485.66 643.299 1683.58 628.917 505.521 478.211 377.404 345.589 341.333 293.819 360.604 253.258 199.48 136.262 126.29 113.093 114.202 109.013 123.972 120.208 104.496 147.985 114.06 98.2538 86.2243 83.2312 81.6894 79.0462 148.981 114.573 95.0062 74.8644 104.794 74.1219 68.1043 52.5487 52.4506 43.3696 84.4743 40.7216 65.1823 37.0195 32.7169 31.889 29.1092 26.5721 19.6936 39.1689 13.7001 8.07915 18.2089 4.79171 2.18575 1.41587 0.606491 0.0701746 0.0570463
threshold=1.0000000180025095e-35 1.0000000180025095e-35 1.0000000180025095e-35 1.0000000180025095e-35 1.0877249836921694 -0.67499589920043934 1.0427320003509524 -0.81315353512763966 1.0000000180025095e-35 -0.87686026096343983 0.90564081072807323 -1.1842405796051023 0.5407204031944276 0.96341094374656688 -0.76139533519744862 0.33768023550510412 -0.58509501814842213 1.002847492694855 0.96221059560775768 1.0913651585578921 1.0602009892463686 -0.86251094937324513 -2.0443955659866329 0.37781214714050299 -1.9189082384109495 -0.88920328021049488 -1.1662025451660154 -0.89150470495223988 -1.7622910737991331 1.1899397373199465 -0.94631826877593983 1.6040115356445315 0.62970662117004406 -0.87921833992004383 1.0702251195907595 0.45350787043571478 -0.75661048293113697 -1.288520812988281 -0.80124586820602406 1.2530063986778261 0.96502444148063671 -0.868028163909912 -0.97400915622711171 -0.95982128381729115 1.0286813378334048 1.121327340602875 0.30187502503395086 -1.3389237523078916 1.5588468313217165 0.72473198175430309 0.96523749828338634 -0.91317665576934803 0.42506729066371923 1.09700483083725 0.95719105005264293 0.50439208745956432 -1.2841507792472837 1.0958600044250491 -1.3111754059791563 0.95879733562469494 -1.1283953785896299 -0.98557406663894642
decision_type=2 2 2 2 2 2 2 2 2 2 2 2 2 2 2 2 2 2 2 2 2 2 2 2 2 2 2 2 2 2 2 2 2 2 2 2 2 2 2 2 2 2 2 2 2 2 2 2 2 2 2 2 2 2 2 2 2 2 2 2 2 2
left_child=1 2 3 4 5 -1 7 12 -6 17 38 -9 -4 32 40 -16 -12 18 30 22 21 29 36 24 -24 27 -27 -19 -25 -21 -3 51 42 39 35 -35 37 -15 -5 47 -8 -36 43 59 45 -44 -45 -34 -33 -23 -20 52 -11 -46 58 -56 -53 -41 -22 -2 -38 -50
right_child=13 9 6 10 8 -7 14 11 -10 31 16 -13 -14 19 15 -17 -18 25 50 20 54 49 23 28 -26 26 -28 -29 -30 -31 -32 48 33 34 41 -37 60 -39 -40 57 -42 -43 44 46 53 -47 -48 -49 61 -51 -52 56 -54 -55 55 -57 -58 -59 -60 -61 -62 -63
leaf_value=0.07347889815672444 -0.11132084897133132 0.063194431460508294 -0.06085588979651 -0.038998858037776411 -0.012605518352317456 0.042955173855247143 -0.096874325773515818 0.16394385169688028 0.054547436207823763 -0.10983817350059233 0.061803594461367378 0.027576374858586224 0.014589752460819009 0.58178110102266622 -0.0023475028724889878 0.53407065574280277 -0.0013093908691988931 0.040737489806654162 -0.10610483852422499 0.19580275421835969 -0.14510833614917482 -0.097356349219689275 0.028606786367031675 0.10050154850459331 -0.10086312422800628 -0.11416698458717377 0.34704520260774407 -0.032759720058416063 -0.022638040691282949 -0.077751401103680284 -0.069599044478629787 0.11703865950492363 -0.1147667493303193 0.21320414930977638 0.26681622130105626 -0.084205232024352233 -0.11820937040291912 0.13253500315798614 -0.11765393628150236 -0.110940141640746 -0.04262036035700658 0.081284998362252406 0.17059274294754403 -0.11396779355180582 -0.080451509855159059 -0.11212069643913936 0.12642248871776007 0.15086922622668089 -0.11500382572417414 0.070267337320015416 0.0085984891049998274 -0.1055920744425881 0.17405822953356406 -0.1055002519368315 -0.11758191360651199 0.23244860261766154 -0.086540610875209006 -0.078889920322746401 -0.10981716954983052 -0.16999372836597026 -0.1353892641664679 -0.13440563067004344
leaf_weight=22324.990950584412 41.406253840774298 123.55251457542181 1286.394233442843 1408.6995148397982 3839.313315063715 55804.266241423786 858.3572472371161 753.19606143608689 2190.2632584273815 12.819438133388759 1075.1037243679166 277.80131702870131 1149.8350916840136 5.5456882119178763 380.06280992925167 12.959418304264544 1556.0344782471657 842.24437877163291 245.46696983277798 43.382603190839291 12.495837695896624 56.103776916861534 158.71346345171332 206.11374059692025 130.82351100444794 10.08105083554983 22.448897652328014 281.7965527176857 94.50755724683404 15.689532965421675 76.37573353946209 25.100144349038601 6.42027319967747 12.985078938305376 23.691029384732246 62.149639591574669 6.5122375600039959 81.505556881427765 130.94712077453732 141.52679621428251 225.40571586042643 42.703751616179943 15.385738328099249 7.8017777949571601 440.86802354827523 17.353484906256199 35.811016753315926 16.689079411327839 5.1225022710859767 12.706331752240656 22.007100626826286 575.22880571335554 7.8270748257637015 432.60961912572384 4.4369821771979323 2.2346940413117409 171.34208502620459 25.043586295098066 125.97501082718372 1.8400634080171574 3.74482813477516 2.152153342962265
leaf_count=33726 496 469 10192 8589 11778 110838 7416 1524 3888 173 6634 956 7216 18 1758 16 9256 4415 2327 66 64 680 1299 1105 1510 107 29 2390 1099 95 574 35 126 26 91 950 55 344 1668 1721 2101 290 36 84 5724 222 120 22 50 139 128 12435 39 6408 40 16 3021 317 1692 9 20 12
internal_value=0 0.0420111 0.0438017 0.0464469 0.0488193 0.0516772 -0.00345809 0.0200834 0.011788 -0.026902 -0.00142331 0.1272 -0.0252476 -0.035257 -0.0587293 0.0153402 0.0244791 0.00514501 -0.0499866 0.0101279 -0.0474111 0.0211549 0.0329793 0.0168096 -0.0298925 0.0274252 0.204115 0.0223118 0.0617896 0.123147 0.0124652 -0.0919894 -0.0681742 -0.0258694 0.0517735 -0.0328058 0.131046 0.161155 -0.0456885 -0.0838026 -0.0855904 0.147486 -0.0822837 -0.0147827 -0.0887535 0.02074 0.0834197 0.0770699 0.0636087 -0.0664033 -0.0966673 -0.0985553 -0.0022133 -0.0928575 -0.107823 -0.000338348 -0.10122 -0.106121 -0.113002 -0.113817 -0.124482 -0.120744
internal_weight=0 95697.2 93273.6 88329.6 84158.8 78129.3 4944.01 3467.23 6029.58 2423.57 4170.78 1031 2436.23 2284.78 1476.79 393.022 2631.14 1623.97 467.402 960.491 273.025 127.882 687.467 590.158 289.537 1156.57 32.5299 1124.04 300.621 59.0721 199.928 799.592 1324.29 331.209 141.529 75.1347 97.3083 87.0512 1539.65 189.68 1083.76 66.3948 993.076 86.8591 906.217 32.7392 43.6128 23.1094 32.3748 68.8101 267.474 767.217 20.6465 873.478 145.143 6.67168 746.571 166.57 138.471 43.2463 10.2571 7.27466
internal_count=268644 243760 217556 186377 160230 144564 31179 19888 15666 26204 26147 2480 17408 24884 11291 1774 15890 10439 3498 8242 2792 980 5450 5013 2809 6941 136 6805 2204 161 1043 15765 16642 3543 1357 976 437 362 10257 2186 9517 381 13099 709 12390 258 204 148 97 819 2455 15668 212 12132 1812 56 15456 2038 1756 505 75 62
is_linear=0
shrinkage=0.1


Tree=15
num_leaves=56
num_cat=0
split_feature=106 134 130 30 12 105 122 56 131 55 72 42 36 115 81 74 32 54 72 122 72 29 135 101 106 108 133 9 130 35 82 60 32 107 33 22 108 114 31 75 97 41 110 82 106 107 30 94 73 103 48 22 112 101 92
split_gain=1152.73 1419.94 1015.99 917.349 1550.88 1080.37 1039.9 1152.7 877.661 657.064 609.277 1045.5 554.447 606.698 508.252 478.753 445.81 431.232 482.72 400.695 367.147 351.67 288.233 248.067 235.33 222.503 211.04 202.412 170.967 144.861 113.885 90.9678 87.3413 75.8674 65.0985 42.0598 24.52 41.6557 19.0407 21.8627 17.9051 45.542 16.7871 11.4088 9.16179 7.92185 40.9531 7.56874 6.62802 0.613504 0.411536 0.0587228 0.0446072 0.0261695 0.001057
threshold=-0.86682283878326405 1.0000000180025095e-35 1.0000000180025095e-35 1.0716091990470888 0.85978206992149364 -0.82953757047653187 -1.0568625330924986 0.82852318882942211 1.0000000180025095e-35 1.0866892337799074 -0.62740737199783314 1.0516335368156435 0.88431882858276378 -1.4439457654953001 -1.3988366723060606 -1.0026683211326597 0.91450032591819774 1.0465142130851748 -0.63607522845268238 -1.2349203824996946 -0.56648272275924672 1.2304250001907351 1.0000000180025095e-35 -0.92440101504325856 -0.88016015291213978 -0.89915344119071949 1.0000000180025095e-35 0.70774522423744213 1.0000000180025095e-35 0.94014686346054088 -1.155187129974365 0.88156306743621837 0.96729388833045971 -0.92364841699600209 0.94457399845123302 1.5593246221542361 -0.8732328712940215 -0.90639907121658314 1.0171325206756594 -1.0585178136825559 -0.99046659469604481 0.93233126401901256 -0.89563482999801625 -1.2696986794471739 -0.8708079159259795 -0.86810627579689015 1.0226386189460757 -1.0647146105766294 -0.89701229333877552 -0.72240087389945973 1.2393307685852053 1.1913638114929201 -0.90426158905029286 -1.003122806549072 -1.1103033423423765
decision_type=2 2 2 2 2 2 2 2 2 2 2 2 2 2 2 2 2 2 2 2 2 2 2 2 2 2 2 2 2 2 2 2 2 2 2 2 2 2 2 2 2 2 2 2 2 2 2 2 2 2 2 2 2 2 2
left_child=1 2 3 4 5 -1 7 -5 9 10 11 14 22 -14 -2 36 31 18 -18 -13 -19 -6 -12 -8 32 27 28 -26 30 -30 -11 33 42 -17 -34 38 40 -38 45 54 48 -42 -4 47 -27 46 -10 -37 -3 51 -51 -28 -47 -49 -40
right_child=8 15 24 6 21 -7 23 -9 35 26 12 19 13 -15 -16 16 17 20 -20 -21 -22 -23 -24 -25 25 44 49 -29 29 -31 -32 -33 34 -35 -36 43 37 -39 39 -41 41 -43 -44 -45 -46 52 -48 53 -50 50 -52 -53 -54 -55 -56
leaf_value=0.028690842917835725 -0.078333201696798721 0.14354782050189654 -0.10509862661486756 0.06146700112537027 0.086563743748734587 0.079747600064534768 -0.021212442981126473 0.0069658003589233687 0.21007673215166733 -0.12311752520778473 -0.15486428128436741 0.14657550736054947 0.11724549132714518 0.0041128535395448277 0.029462100738875563 -0.1843419344830993 0.078356088366392879 0.12253338731467428 0.017779028908735183 0.016372079756413641 0.010864356648682551 -0.12923360226797301 0.10769588279964644 -0.12225480642122027 0.00012574546236557578 -0.1209670944062782 -0.16835330578350638 0.17899399352436399 -0.090587176513312509 0.22959783368244718 0.11584464694426624 0.16093075576064506 0.15847828107763098 -0.027841796202970528 -0.13069202439229599 0.10017142023386708 -0.093534939414205473 0.130208817868218 -0.10493170288104459 0.23136100110467106 0.080600681849939917 0.13380414628141013 -0.015878184872337175 0.10952066441250424 -0.07498140352751588 -0.10583945890483633 -0.088030008399332671 -0.11232661284953836 0.11804758860374598 -0.19446236688802088 -0.22936936581013018 -0.1832800943717478 -0.10391328222249226 -0.12730314275843949 -0.10872173573514542
leaf_weight=24707.960478875786 456.27512848749757 697.49663782119751 594.50103231519461 7238.832551445812 8881.3255414105952 4979.735646314919 3083.9455277733505 8365.1152757592499 4.7372964471578589 20.321537554264069 304.51983602717519 1064.7214256301522 491.27204422280192 13498.446285489947 10573.936030287296 85.935015603899956 3671.9937562793493 2097.9186792373657 2049.7801113575697 303.79757983237505 342.49050997197628 76.164289116859436 48.464848175644875 263.75537140667439 350.06068263575435 99.959093239158392 4.7394067496061343 77.221973359584808 74.989713024348021 17.410952642560005 1072.7856701016426 11.864758312702177 23.063135124742985 48.434748485684395 11.75206698477268 2.3424746431410322 13.419036015868185 21.902124002575874 2.9236999284476046 3.783890724182128 224.55531553924084 567.49555975198746 21.864174999296665 12.499690391123293 76.467448268085718 218.84776243381202 169.27766716107726 3.0595319531857976 119.37303429841995 8.4301469922065717 5.6349563598632804 5.9372377395629883 266.80789795331657 1.8859300389885909 0.98334323242306698
leaf_count=53442 8051 440 4126 12951 12568 6801 10852 23386 33 217 1471 1280 515 63148 32572 352 4860 1967 4501 2193 756 287 63 1092 1845 766 20 205 376 13 1105 8 66 107 72 8 36 16 67 2 265 398 143 16 561 4372 2317 37 100 34 23 24 7689 13 16
internal_value=0 0.0433893 0.0374816 0.039421 0.0482588 0.037255 0.0213995 0.0322495 0.0195137 0.0222585 0.0189968 0.0352314 0.00496258 0.00808569 0.025003 0.0783225 0.0685656 0.0716661 0.0566548 0.117672 0.106862 0.0847288 -0.118815 -0.0291733 -0.0515331 -0.00655797 0.0943285 0.0324523 0.100361 -0.0302551 0.111402 -0.104493 -0.0932296 -0.12793 0.0608672 -0.0921377 0.127624 0.0452052 -0.0963978 0.0600376 0.129434 0.11872 -0.101934 0.0515409 -0.101036 -0.0982216 -0.0799145 -0.0479014 0.139821 -0.194728 -0.208447 -0.176654 -0.104781 -0.118038 -0.105886
internal_weight=0 68804.4 58851.7 57596.8 38645.2 29687.7 18951.6 15603.9 28638.8 27951.7 26741.4 12398.7 14342.7 13989.7 11030.2 9952.66 8308.42 8162.18 5721.77 1368.52 2440.41 8957.49 352.985 3347.7 1254.89 603.709 1210.25 427.283 1185.51 92.4007 1093.11 146.235 651.18 134.37 34.8152 687.149 1644.24 35.3212 667.362 7.69093 1608.92 792.051 616.365 19.7876 176.427 659.671 174.015 7.28794 816.87 24.7417 14.0651 10.6766 485.656 4.94546 3.90704
internal_count=268644 142969 129163 121379 73098 60243 48281 36337 125675 111105 109293 44096 65197 63663 40623 13806 12551 12084 9361 3473 2723 12855 1534 11944 7784 3377 1812 2050 1711 389 1322 467 4407 459 138 14570 1255 52 14496 85 1203 663 4269 74 1327 14411 2350 58 540 101 57 44 12061 50 83
is_linear=0
shrinkage=0.1


Tree=16
num_leaves=60
num_cat=0
split_feature=129 31 122 109 117 127 105 134 69 107 55 101 134 40 114 71 31 136 125 32 136 102 54 133 29 35 107 108 107 54 29 108 109 44 5 102 97 103 10 31 0 1 41 31 110 78 33 29 53 54 56 52 49 96 100 90 94 119 13
split_gain=1024.22 891.968 910.174 903.978 1319.51 1466.12 653.294 884.361 550.101 521.077 475.461 403.766 388.023 364.135 359.093 349.357 367.514 336.543 322.533 303.144 284.741 277.186 568.666 249.468 248.694 236.164 189.775 180.577 169.962 103.711 107.888 92.6638 83.9642 74.9707 70.5945 116.651 69.6091 120.188 65.5414 99.5541 88.7185 40.3224 40.2273 39.0639 37.0842 64.2358 92.7609 29.9187 46.1881 24.5517 21.4146 12.8268 11.4144 2.87899 2.32124 0.701206 0.210519 0.105135 0.0641603
threshold=1.0000000180025095e-35 0.99733370542526256 -1.0229550600051878 -1.135295510292053 -1.5327585935592649 -2.4410204887390132 -0.85097369551658619 1.0000000180025095e-35 -0.0067363562993705264 -0.97210010886192311 0.9712686836719514 -0.85494962334632862 1.0000000180025095e-35 0.9502883553504945 -0.93115386366844166 -0.45985840260982508 1.00387579202652 1.0000000180025095e-35 -1.615042984485626 0.96341094374656688 1.0000000180025095e-35 -0.87086695432662953 0.97168654203414928 1.0000000180025095e-35 1.2304250001907351 0.85072314739227306 -0.90115657448768605 -1.0661273598670957 -1.0087832808494566 1.0624844431877138 1.0602009892463686 -0.89509636163711537 -0.86476722359657276 1.1736016869544985 0.62519553303718578 -0.88411921262741078 -0.96932449936866749 -0.83104977011680592 0.78828200697898876 1.0116568803787234 0.51421913504600536 0.45896200835704809 0.94305706024169933 0.98814964294433605 -1.0297704339027403 -1.057775557041168 0.94091433286666881 1.0286813378334048 1.113732695579529 1.0717039704322817 0.96315285563468944 1.09700483083725 1.0686424970626833 -1.037497282028198 -0.91412717103958119 -1.0033606886863706 -1.1036358475685117 -1.1621518731117246 0.71729442477226268
decision_type=2 2 2 2 2 2 2 2 2 2 2 2 2 2 2 2 2 2 2 2 2 2 2 2 2 2 2 2 2 2 2 2 2 2 2 2 2 2 2 2 2 2 2 2 2 2 2 2 2 2 2 2 2 2 2 2 2 2 2
left_child=1 2 3 8 25 -6 7 9 28 23 11 13 14 -8 24 16 -12 -11 -13 34 -17 42 -23 -3 -4 -5 -16 -10 -1 32 31 33 36 -31 44 41 -21 -38 39 -37 -40 52 -9 -34 45 -2 -47 48 -46 -33 -45 -49 -36 56 -43 57 -14 -32 -57
right_child=19 6 12 4 5 -7 10 21 27 17 15 18 53 -15 26 20 -18 -19 -20 29 -22 22 -24 -25 -26 -27 -28 -29 -30 30 55 49 43 -35 35 38 37 -39 40 -41 -42 54 -44 50 47 46 -48 51 -50 -51 -52 -53 -54 -55 -56 58 -58 -59 -60
leaf_value=-0.009110307454654883 0.21248841602224086 -0.041069960540357053 0.044044512927710756 -0.02652615230516497 0.0099646583159726521 0.049552335661443583 -0.07899578010627864 0.090198229016353881 -0.11588021586171832 -0.0080727831713266578 0.070884561335545201 0.035193643457949002 0.14765729292026672 0.042450255342636883 0.0082807283925186593 -0.019099211249491686 -0.014154668355701481 0.035172950416387787 -0.08154880342176106 0.37164990263407038 0.02046722710584721 -0.032668773304401801 0.071240926088437739 0.06588986558115581 -0.091952116697990471 0.10524935016170289 -0.082199046627169509 0.011366312270928866 0.080558856369724569 0.16212731797422686 -0.11718804565867534 0.019069716824122888 0.48998124683368038 -0.12400387037054993 0.13083788762095327 -0.053139757099403141 -0.12334386924517832 0.049388498402455738 0.20188583284714368 0.16103742450552594 -0.11575707673083264 -0.10970706381316674 0.12944895997083217 -0.0018117103908533415 0.14793693087961748 -0.11300020437851027 0.1401991343081842 -0.07879898577985317 -0.11021859258548171 -0.10917262465817837 -0.10750705479508689 -0.1042440690351973 -0.043991332436367422 0.11133445240568077 -0.074450904156439304 -0.12596142360519905 0.13895233159923717 -0.10794596276720053 -0.14319666601131006
leaf_weight=601.3366491869092 10.499218955636023 239.87685472518206 734.9659264869988 140.93352635204792 11773.199678283185 45548.365022039041 332.92591097578406 454.10998776555061 613.90766657143831 5844.9671812728047 1761.0220311637968 282.18677018582821 48.178062081336975 955.30053177848458 296.95216198265553 3267.8746978752315 714.34900172054768 2599.9750398620963 1466.7180171199143 6.2873721793293944 4101.8966934680939 619.91902005672455 3501.6346819698811 2397.4173831343651 164.57443705946207 3886.3891975730658 1056.7540722135454 136.28176580369473 325.96270573139191 48.977119326591492 13.940110452473162 23.19365830719471 1.2541878223419178 11.262998104095457 9.692267641425131 105.58355769142509 43.335424281656742 571.74429757148027 37.08923827111721 27.317809578031301 11.525363083928822 128.85962970741093 614.37411823868752 28.800272077322006 13.380290098488333 59.034360896795988 19.166710708290339 400.02753016166389 14.377741143107412 41.892754003405571 57.320635486394167 392.49328137375414 6.0752366110682479 39.606270477175713 21.839617274701595 3.3078667148947698 65.622612610459328 105.16603685356677 6.2236667349934578
leaf_count=1553 16 727 1981 358 25044 95992 1777 492 2829 25963 6236 803 29 4318 1138 21341 5134 5408 7425 21 9937 1549 5081 3600 699 3965 9021 320 506 83 121 226 1 79 9 1372 328 3697 86 128 146 1769 455 419 25 696 37 5486 212 589 1014 6340 45 36 275 22 43 1610 32
internal_value=0 0.0345417 0.0410238 0.0433285 0.0453088 0.0414215 0.0199937 0.0333128 -0.029097 0.0173591 0.00316975 -0.0314194 -0.0193319 0.0110641 -0.029809 0.0138402 0.0463437 0.00524144 -0.0627123 -0.0341793 0.00292283 0.0673786 0.055612 0.0561613 0.0191634 0.100638 -0.0623512 -0.0927642 0.02241 0.00804815 -0.0467826 0.0192507 0.0276957 0.10863 -0.0665212 -0.0282192 0.0406026 0.0372186 0.0272271 -0.00911574 0.12658 -0.088678 0.112767 -0.0640917 -0.0811844 -0.0197607 -0.0509423 -0.0878264 0.0142209 -0.0634732 -0.0721608 -0.0914006 0.063476 0.134556 -0.104598 -0.111116 0.142638 -0.109028 -0.137215
internal_weight=0 94587.6 65433 63026.4 61348.9 57321.6 29154.5 16272.3 1677.49 11082.2 12882.3 3037.13 2406.65 1288.23 2253.25 9845.14 2475.37 8444.94 1748.9 2219.67 7369.77 5190.04 4121.55 2637.29 899.54 4027.32 1353.71 750.189 927.299 962.706 253.964 125.327 708.742 60.2401 1256.96 347.983 621.367 615.08 181.516 132.901 48.6146 166.467 1068.48 87.3751 908.979 88.7003 78.2011 820.279 27.758 65.0864 86.1209 792.521 15.7675 153.407 150.699 128.638 113.801 119.106 9.53153
internal_count=268644 243760 143514 130567 125359 121036 100246 43275 5208 35698 56971 14323 12947 6095 12839 42648 11370 31371 8228 24884 31278 7577 6630 4327 2680 4323 10159 3149 2059 8242 2762 977 5480 162 16642 3830 4046 4025 1732 1500 232 2098 947 1434 12812 749 733 12063 237 815 1433 11826 54 108 2044 1785 72 1731 54
is_linear=0
shrinkage=0.1


Tree=17
num_leaves=59
num_cat=0
split_feature=81 31 131 129 29 72 119 7 30 28 32 30 32 100 77 111 85 103 30 97 48 116 76 54 111 86 70 79 73 122 27 6 74 126 108 124 85 106 3 90 66 7 106 62 118 6 48 7 10 96 43 99 82 106 136 81 128 11
split_gain=902.344 737.855 724.525 736.423 708.673 954.665 256.95 253.633 259.036 250.105 211.736 206.615 180.655 176.167 159.041 270.801 235.864 135.814 101.524 132.774 102.016 97.9947 96.825 90.8901 90.2054 198.506 116.136 88.9676 87.5567 86.0013 79.2231 68.1231 65.8168 64.1475 59.6375 53.1316 40.0706 37.3138 34.9619 30.3504 28.5004 23.3809 14.1682 46.9331 12.0422 78.2323 21.5648 13.2275 11.3982 6.09758 4.95026 3.56011 20.142 1.09 0.645678 0.421603 0.261408 0.0463011
