tree
version=v4
num_class=1
num_tree_per_iteration=1
label_index=0
max_feature_idx=136
objective=binary sigmoid:1
feature_names=Column_0 Column_1 Column_2 Column_3 Column_4 Column_5 Column_6 Column_7 Column_8 Column_9 Column_10 Column_11 Column_12 Column_13 Column_14 Column_15 Column_16 Column_17 Column_18 Column_19 Column_20 Column_21 Column_22 Column_23 Column_24 Column_25 Column_26 Column_27 Column_28 Column_29 Column_30 Column_31 Column_32 Column_33 Column_34 Column_35 Column_36 Column_37 Column_38 Column_39 Column_40 Column_41 Column_42 Column_43 Column_44 Column_45 Column_46 Column_47 Column_48 Column_49 Column_50 Column_51 Column_52 Column_53 Column_54 Column_55 Column_56 Column_57 Column_58 Column_59 Column_60 Column_61 Column_62 Column_63 Column_64 Column_65 Column_66 Column_67 Column_68 Column_69 Column_70 Column_71 Column_72 Column_73 Column_74 Column_75 Column_76 Column_77 Column_78 Column_79 Column_80 Column_81 Column_82 Column_83 Column_84 Column_85 Column_86 Column_87 Column_88 Column_89 Column_90 Column_91 Column_92 Column_93 Column_94 Column_95 Column_96 Column_97 Column_98 Column_99 Column_100 Column_101 Column_102 Column_103 Column_104 Column_105 Column_106 Column_107 Column_108 Column_109 Column_110 Column_111 Column_112 Column_113 Column_114 Column_115 Column_116 Column_117 Column_118 Column_119 Column_120 Column_121 Column_122 Column_123 Column_124 Column_125 Column_126 Column_127 Column_128 Column_129 Column_130 Column_131 Column_132 Column_133 Column_134 Column_135 Column_136
feature_infos=[-1.8014661073684692:2.1475074291229248] [-1.7160434722900391:2.0597634315490723] [-1.6382262706756592:1.9801409244537354] [-1.5680137872695923:1.9086390733718872] [-1.5054070949554443:1.8452587127685547] [-1.4504051208496094:1.7899996042251587] [-1.4123568534851074:1.7536556720733643] [-1.3844102621078491:1.7939627170562744] [-1.3517893552780151:2.0758624076843262] [-1.3099035024642944:2.0974209308624268] [-1.2559221982955933:2.0165181159973145] [-1.1870334148406982:2.064321756362915] [-1.1039742231369019:2.1106562614440918] [-1.0067610740661621:2.1771299839019775] [-0.90047705173492432:2.2825961112976074] [-0.78966546058654785:2.4052433967590332] [-0.67814630270004272:2.5269482135772705] [-0.65591526031494141:2.5277442932128906] [-0.65910369157791138:2.5653238296508789] [-0.66488730907440186:2.5221147537231445] [-0.8555336594581604:2.4413206577301025] [-0.86833834648132324:2.3840618133544922] [-0.86565589904785156:2.2409591674804688] [-0.70636492967605591:2.1797337532043457] [-0.68053698539733887:2.1696581840515137] [-0.94777458906173706:2.0883691310882568] [-1.274228572845459:1.9448176622390747] [-1.700652003288269:1.7314887046813965] [-1.9454965591430664:1.5598906278610229] [-2.2033448219299316:1.3462176322937012] [-2.6534385681152344:1.1459542512893677] [-2.9375624656677246:1.0691677331924438] [-2.8964071273803711:1.0182701349258423] [-2.6209216117858887:1.0153312683105469] [-1.9672813415527344:1.0222163200378418] [-1.2877312898635864:1.0987448692321777] [-0.66409575939178467:1.3781088590621948] [-0.67050886154174805:1.4357191324234009] [-0.67336314916610718:1.5244829654693604] [-0.67729061841964722:1.427788257598877] [-0.67391806840896606:1.3506048917770386] [-0.77278417348861694:1.3033223152160645] [-0.78214722871780396:1.4334096908569336] [-0.67821109294891357:1.6771683692932129] [-0.67593681812286377:1.8418123722076416] [-0.67998087406158447:1.9795904159545898] [-0.67735743522644043:1.8671952486038208] [-0.68056988716125488:1.7601110935211182] [-0.67851173877716064:1.7336448431015015] [-0.68057990074157715:1.7715651988983154] [-0.67868822813034058:1.7863956689834595] [-0.68411111831665039:1.8524037599563599] [-0.6882440447807312:2.0559442043304443] [-0.69760811328887939:1.9949533939361572] [-0.68820065259933472:1.8340702056884766] [-0.66555494070053101:1.7058380842208862] [-0.63047897815704346:1.5109990835189819] [-0.79989981651306152:1.3641012907028198] [-0.9627259373664856:1.3483799695968628] [-0.83332031965255737:1.3266682624816895] [-0.62303602695465088:1.3006186485290527] [-0.62908732891082764:1.6912268400192261] [-0.65896600484848022:1.8743280172348022] [-0.67422842979431152:1.7138135433197021] [-0.81091159582138062:1.3433690071105957] [-1.0305129289627075:1.0751444101333618] [-1.2528316974639893:0.99085426330566406] [-1.6713657379150391:0.88485002517700195] [-1.706031322479248:0.75389385223388672] [-1.8893227577209473:0.60495084524154663] [-1.6767393350601196:0.45876148343086243] [-1.7446892261505127:0.33052113652229309] [-1.674402117729187:0.23037496209144592] [-1.5101885795593262:0.15855956077575684] [-1.4517455101013184:0.30397361516952515] [-1.6804615259170532:0.72941029071807861] [-1.8599822521209717:1.1961984634399414] [-1.985605001449585:0.97948074340820312] [-2.0616223812103271:1.1285310983657837] [-2.1041412353515625:0.92254304885864258] [-2.1569476127624512:0.73609095811843872] [-2.187326192855835:0.28676301240921021] [-2.2015368938446045:0.33890664577484131] [-2.2012209892272949:0.39074629545211792] [-2.1849808692932129:0.5232703685760498] [-2.1524448394775391:0.47703936696052551] [-2.1025960445404053:0.50853937864303589] [-2.0367574691772461:0.53271615505218506] [-1.9560787677764893:0.67684948444366455] [-1.8642418384552002:0.56802195310592651] [-1.767259955406189:0.64909452199935913] [-1.8478662967681885:1.0685811042785645] [-1.6520191431045532:1.4172115325927734] [-1.5958865880966187:1.6290324926376343] [-1.5394163131713867:1.6652539968490601] [-1.4922878742218018:1.6182962656021118] [-1.4531639814376831:1.5608183145523071] [-1.4315723180770874:1.5595740079879761] [-1.414076566696167:1.5630311965942383] [-1.5819015502929688:1.5623300075531006] [-2.0638625621795654:1.5662820339202881] [-2.4619696140289307:1.5653641223907471] [-2.648137092590332:1.569068431854248] [-2.5047333240509033:1.5659784078598022] [-2.1062953472137451:1.5674868822097778] [-1.4475361108779907:1.5623446702957153] [-1.1201972961425781:1.563502311706543] [-1.1215335130691528:1.5619508028030396] [-1.168958306312561:1.5697338581085205] [-1.225764274597168:1.5734660625457764] [-1.3164699077606201:1.5827798843383789] [-1.4701830148696899:1.5860384702682495] [-1.887607216835022:1.5904401540756226] [-2.3280599117279053:1.5879726409912109] [-2.4821960926055908:1.5883719921112061] [-1.8389110565185547:1.5865405797958374] [-1.6131480932235718:1.5868538618087769] [-1.6282110214233398:1.7016431093215942] [-1.6828017234802246:2.5795986652374268] [-1.7428308725357056:2.8008601665496826] [-1.8188323974609375:2.5472877025604248] [-1.9280952215194702:1.7488086223602295] [-2.15055251121521:1.6308574676513672] [-2.3795907497406006:1.6220458745956421] [-2.6463632583618164:1.8138364553451538] [-2.951240062713623:2.1645474433898926] [-3.3559722900390625:3.0688047409057617] [-3.8531808853149414:4.2020993232727051] [0:1] [0:1] [0:1] [0:1] [0:1] [0:1] [0:1] [0:1] [0:1]
tree_sizes=6259 6740 5833 5996 6656 6561 5920 6586 6060 6709 6381 6883 6461 6263 6056 6586 6151 6278 6200 5256 6078 6341 6797 5462 5812 6807 5766 6672 6911 6520 6324 5922 5506 6829 5046 6014 6782 6122 6603 6044 6071 6736 5273 6376 5823 5809 6047 5868 5983 6204 6365 6065 6438 6607 6967 5955 4902 5689 6152 6222 5721 6011 6469 5496 5590 5754 6330 6689 6396 6900 6500 5142 6691 5686 6933 5834 6901 6491 6317 6011 3763 6477 5550 6582 5426 5911 6626 6698 4489 5893 5502 6885 6801 5061 5464 6153 6791 5767 6509 6896 6351 6737 5095 6252 5875 6796 6244 6798 6715 5088 6798 5496 6606 5858 6866 6166 6460 6363 5878 6899 5280 6203 6572 6386 5651 5942 5060 6616 6828 5239 6267 6723 6809 6700 6520 6936 6775 6569 5836 5956 5205 4642 6909 5671 6323 6291 6275 5464 6049 6665 6134 6487 6929 6344 5358 5439 5090 6916 5880 6698 6255 6068 6986 5903 6661 6456 6408 6068 5950 5269 5210 6938 6820 6128 5796 6953 6199 6690 6789 6883 5548 6808 6893 6933 5209 5451 5792 6787 6157 6382 6559 6807 6242 6607 6983 5032 6451 6924 6987 6408

Tree=0
num_leaves=58
num_cat=0
split_feature=106 131 130 136 84 129 30 128 133 127 88 74 81 33 134 134 134 31 129 107 108 70 44 113 104 54 9 30 1 34 54 13 101 127 104 68 53 0 106 67 21 32 74 3 123 98 75 33 28 53 91 22 0 107 83 0 0
split_gain=90000 33361.8 28348.3 21715.6 25434.5 21251.4 12390.3 10640.8 5876 4242.03 3758.48 3403.75 3324.65 3268.02 3476.42 3222.09 1783.56 1361.65 1251.77 1014.34 895.176 739.55 1257.13 898.875 621.306 1570.96 514.55 462.767 446.879 428.496 383.135 816.671 434.546 355.404 335.962 258.159 221.313 562.405 211.085 196.689 543.437 180.224 162.168 474.38 159.459 154.122 132.171 124.677 60.0437 57.504 56.7832 52.3798 26.016 13.2926 85.0977 2.84217e-14 2.84217e-14
threshold=-0.85864499211311329 1.0000000180025095e-35 1.0000000180025095e-35 1.0000000180025095e-35 -1.1841033101081846 1.0000000180025095e-35 1.0838533043861391 1.0000000180025095e-35 1.0000000180025095e-35 0.23248131573200229 -1.2648170590400694 -0.99015328288078297 -1.3987143039703367 0.91955727338790905 1.0000000180025095e-35 1.0000000180025095e-35 1.0000000180025095e-35 1.00330525636673 1.0000000180025095e-35 -0.89253985881805409 -0.88916003704071034 -0.24413179606199262 1.097720801830292 -0.90578231215476979 -0.86631008982658375 0.95847833156585704 0.6380763351917268 1.0732998847961428 0.54845905303955089 0.9330030381679536 1.0223261117935183 0.84102317690849315 -0.83102568984031666 -2.0573461055755611 -0.85697403550147999 0.087167378515005126 0.99305427074432384 0.4883620440959931 -0.90148040652275074 0.15943314880132678 1.234399735927582 0.96287420392036449 -0.93130385875701893 0.53949695825576793 -1.1893958449363706 -0.99863317608833302 -1.0751770138740537 0.92112877964973461 0.87547698616981517 0.99664732813835155 -1.1382617354393003 1.2728753685951235 0.61452558636665355 -0.83400145173072804 -1.4051835536956785 0.12669135630130771 0.53526714444160473
decision_type=2 2 2 2 2 2 2 2 2 2 2 2 2 2 2 2 2 2 2 2 2 2 2 2 2 2 2 2 2 2 2 2 2 2 2 2 2 2 2 2 2 2 2 2 2 2 2 2 2 2 2 2 2 2 2 2 2
left_child=1 2 5 4 10 6 7 -1 -8 13 16 15 47 14 -6 -12 44 20 -13 30 33 23 -23 -19 48 27 -15 -26 -27 41 31 32 -3 -14 -22 -31 37 -21 -33 46 -41 -7 50 -44 -2 -39 -32 53 -4 -18 -38 -49 -50 54 -5 -11 -55
right_child=3 19 24 12 9 29 8 -9 -10 55 11 18 17 26 -16 -17 49 21 -20 36 34 22 -24 -25 25 28 -28 -29 -30 35 39 38 -34 -35 -36 -37 42 45 -40 40 -42 -43 43 -45 -46 -47 -48 51 52 -51 -52 -53 -54 56 -56 -57 -58
leaf_value=-1.4931173408291398 -2.0923074490549118 -1.2848055541113745 -1.7277299756484885 -1.5080226399789738 -1.599571419122674 -2.1124252794711897 -1.7828471175240703 -1.9675933012770945 -1.5134353451085598 -2.1569413837355658 -1.915447640487925 -1.9742807290420068 -1.9241129280928462 -1.8337768377326393 -1.2502185119167093 -1.4788284222322237 -1.5080226399789742 -1.824736733935868 -2.0834579977341567 -1.3355205354113058 -1.3941356705649177 -1.3492616897479246 -1.8635073325736982 -1.5214373070536009 -1.2848055541113745 -2.0272759957185644 -1.2149142686957999 -1.9186617617454396 -1.5294366999048339 -1.5080226399789738 -1.8040618670841597 -2.0001095343188946 -2.1569413837355658 -1.6665315872649247 -1.5554406647301375 -2.0091658157439034 -2.1569413837355658 -1.9020331153738481 -1.8724774767835128 -2.13408078568709 -1.4824475288361718 -1.9405017886116793 -2.112518133591752 -1.3441143815481107 -2.1449449908552847 -2.1165947126784115 -2.1354986116651475 -1.9552994084834054 -2.1457082286394544 -1.1889497574156516 -2.0973670317797342 -1.4004578079072276 -2.0446251306885674 -2.1569413837355658 -2.1569413837355658 -2.1569413837355658 -2.1569413837355658
leaf_weight=26658.542618364096 895.97189173847437 30.98686445504427 3.597927898168563 2.3797612786293021 833.96273753792048 607.07816161215305 2520.1612470895052 481.1880272552371 1192.6897162050009 125.16662015765905 540.34923158586025 4324.3848849236965 63.010258361697197 375.11951697617769 432.59635753184557 245.94920463114977 8.3291644752025622 571.77230703085661 1387.006474584341 12.220003992319105 141.71238768845797 119.49908104538918 78.941334173083305 117.85475525259972 39.840254299342632 780.08324237912893 13.934110000729559 16.20230557769537 18.457292899489403 20.227970868349075 13.128603048622606 221.55010838061571 7.0044580623507491 357.40484619140625 1453.1284073740244 20.900230266153812 364.53636089712381 51.494247436523438 312.15075284987688 33.77583771198988 20.605740427970886 67.781410954892635 34.762690581381321 10.449326023459433 1609.100038215518 95.687677502632141 144.03657272458076 3.8292416483163825 343.68609846383333 17.548693843185902 285.13929460197687 3.0620724931359291 27.498632788658142 11.065013460814951 13.399832814931868 2.2333054691553107 104.1532459706068
leaf_count=108563 8322 70 22 10 4169 5745 16619 3947 5068 1233 4187 35723 493 2640 847 971 35 3979 12776 33 455 337 576 509 90 6804 23 126 81 85 89 1880 69 1995 6706 179 3591 393 2302 326 82 540 329 29 15683 909 1392 31 3352 25 2661 10 244 109 132 22 1026
internal_value=-2.04399 -1.57781 -1.55581 -1.87964 -1.94605 -1.53747 -1.52497 -1.50153 -1.6963 -1.6009 -2.01421 -1.97394 -1.64357 -1.55812 -1.48025 -1.77888 -2.11759 -1.62079 -2.00079 -2.01831 -1.57533 -1.72395 -1.55383 -1.7729 -2.02693 -1.97985 -1.81161 -1.46806 -2.01577 -2.07606 -1.93612 -1.89357 -1.4456 -1.70514 -1.54111 -1.76269 -2.09367 -1.9874 -1.92546 -2.05109 -1.88717 -2.09516 -2.11805 -1.93493 -2.12612 -2.04153 -2.10781 -2.12334 -2.13428 -1.29165 -2.13079 -1.70876 -2.13822 -2.14515 -2.05908 -2.15694 -2.15694
internal_weight=0 34435.5 32797.9 13852.9 10811.7 31568.6 30852.6 27139.7 3712.85 1783.01 9028.64 6497.69 3041.21 1655.61 1266.56 786.298 2530.95 2903.32 5711.39 1637.53 2015.26 888.067 198.44 689.627 1229.37 854.583 389.054 56.0426 798.541 715.988 783.239 571.692 37.9913 420.415 1594.84 41.1282 854.29 159.402 533.701 211.547 54.3816 674.86 694.888 45.212 2505.07 147.182 157.165 137.889 374.783 25.8779 649.676 6.89131 371.185 130.998 15.7796 127.4 115.218
internal_count=268644 165620 151465 103024 86656 140746 134197 112510 21687 8934 77722 53657 16368 7679 5016 5158 24065 15050 48499 14155 9649 5401 913 4488 10719 7101 2663 216 6885 6549 6210 4321 139 2488 7161 264 7945 1335 4182 1889 408 6285 6610 358 24005 1302 1481 1318 3618 60 6252 41 3596 1277 142 1255 1135
is_linear=0
shrinkage=1


Tree=1
num_leaves=62
num_cat=0
split_feature=32 131 130 129 128 83 136 110 122 73 31 134 81 55 72 0 54 101 29 31 123 107 133 3 107 0 28 114 25 22 54 71 90 116 110 77 32 121 126 69 52 103 31 95 74 127 32 12 103 44 90 24 111 31 12 104 57 52 21 72 106
split_gain=35497 16974.3 12845.2 12056.3 7498 7144.44 12509 5930.56 2518.52 2816.57 2057.02 1453.35 1834.09 1113.96 1054.39 1037.05 1019.51 3024.54 1618.76 965.639 860.077 830.599 470.167 447.563 443.996 438.943 438.686 440.024 425.548 387.314 356.184 347.41 341.28 596.442 335.242 547.686 448.093 323.211 312.514 311.177 291.376 282.032 256.654 255.165 252.25 225.895 225.78 209.138 207.99 165.807 165.722 160.081 158.73 93.5443 91.0435 76.2066 67.9407 34.7381 10.2959 3.14139 0.00126038
threshold=0.95224213600158703 1.0000000180025095e-35 1.0000000180025095e-35 1.0000000180025095e-35 1.0000000180025095e-35 -1.1705955266952512 1.0000000180025095e-35 -1.2049688100814817 -1.2246735692024229 -0.80046528577804554 0.9995354712009431 1.0000000180025095e-35 -0.96236857771873463 1.0119729638099673 -0.61768785119056691 0.25650629401206976 1.0243129134178164 -0.84325274825096119 1.1153206229209902 1.007324278354645 -1.2225525379180906 -0.87731644511222828 1.0000000180025095e-35 0.6123405694961549 -0.88216471672058094 0.46883909404277807 0.99106076359748851 -1.0174863338470457 1.2347404956817629 1.6019659638404848 0.96372929215431224 -0.62233179807662953 -1.1864112615585325 -0.93690773844718922 -0.94479015469551075 -1.1668921709060667 0.9636155664920808 -1.2543343305587766 -2.0928863286972041 -0.064893104135990129 1.0697154998779299 -0.73853132128715504 1.0128391385078432 -0.72017499804496754 -1.0396764278411863 -1.6345424056053159 0.9418374001979829 1.013264060020447 -0.80492910742759693 1.0983458757400515 -1.1471327543258665 1.5572977662086489 -0.98734676837921131 0.985579013824463 0.96379125118255626 -0.8149314522743224 0.91362547874450695 1.0976910591125491 1.6000251770019533 -0.63346365094184864 -0.87034285068511952
decision_type=2 2 2 2 2 2 2 2 2 2 2 2 2 2 2 2 2 2 2 2 2 2 2 2 2 2 2 2 2 2 2 2 2 2 2 2 2 2 2 2 2 2 2 2 2 2 2 2 2 2 2 2 2 2 2 2 2 2 2 2 2
left_child=1 2 3 4 7 6 8 -1 9 10 -2 12 24 -11 40 28 17 23 -19 34 -6 30 49 -4 37 42 27 -5 -16 58 31 47 53 -34 36 -36 -8 -7 -26 -24 52 55 -21 -43 -33 -27 54 -3 -17 -14 -48 -31 -13 -10 -32 -18 -42 -28 59 -23 -53
right_child=5 21 16 26 20 11 19 -9 32 13 -12 14 22 -15 15 48 41 18 -20 25 -22 29 39 -25 38 45 57 -29 -30 51 46 44 33 -35 35 -37 -38 -39 -40 -41 56 43 -44 -45 -46 -47 50 -49 -50 -51 -52 60 -54 -55 -56 -57 -58 -59 -60 -61 -62
leaf_value=0.0039829183256087104 0.71283388533142755 -0.084316498691007727 -0.061616881260155722 -0.11328650008120603 0.14271577583622949 0.1466325380387464 0.24334467106757907 0.33100330848862042 0.26032224281449506 0.082330298027166168 0.19305630705781252 -0.026511985041524203 0.3929790734405334 -0.016843516705372839 0.0012142019028532037 0.24427772377619009 -0.10383566062071976 0.55136796007665778 0.082469925661576557 0.018542668035043314 -0.037810944550567119 -0.11146748700680589 0.46864387908483701 0.082548290649961553 -0.058278552233437454 0.46176883975573402 -0.063339130577194286 0.72454986678379985 0.49761703868017726 0.50092753409177293 -0.10090340037911633 0.45929558504806284 -0.019339729729165863 0.52090060586964759 0.26764072194153365 0.54234679202419833 0.032037657532537275 -0.026855051322167495 0.47500388309520397 0.11110847359108794 0.4349590219415358 0.39405555080446708 0.26176378397753364 -0.11827153912450793 0.16273608637263656 0.16890828896361165 -0.097304782664379835 0.18938433278897707 0.10189337044197187 0.045706993605746427 0.11188263528414698 -0.11230413427551061 0.40937054848580723 -0.07643741509537523 0.3151414989470423 -0.034296603559781487 0.53199052703251948 -0.10714143685320406 0.029641203109603026 -0.06738299355604592 -0.11529168184686385
leaf_weight=561.78022143244743 90.533581659197807 78.505489513278008 467.12825372815132 11.473083578050138 559.07043191790581 992.99387914687395 377.22400739043951 43126.860414765775 8.2882550582289678 2654.186645641923 478.84548212587833 16.125033989548683 19.501506134867668 1975.6489057317376 18.907784059643745 252.64513254165649 326.12177655100822 189.21391487121582 120.52134465426207 305.92378041148186 499.87519656121731 825.843008056283 305.66399753093719 399.5232122913003 13.384022213518618 42.46335506439209 521.46512346714735 13.818024910986422 199.31129425764084 14.934496127068998 186.23202501237392 39.011637188494205 1886.7917055413127 20.659676253795624 2589.0209377259016 74.669547028839588 136.73049470037222 120.40772915631533 61.406542353332043 26.449069991707802 96.975924506783485 25.608617767691612 50.555131390690804 15.669753454625605 108.31991677731276 69.357445374131203 49.896483808755875 43.324701741337776 172.73701068758965 46.607691533863544 157.13888674229383 3.5977728366851816 17.336886331439018 1721.5883091166615 5.4126643538475028 304.95687806606293 282.00780792534351 277.35458759218454 5.2673397138714781 16.486757345497608 2.3244724273681623
leaf_count=3132 178 720 4459 112 3913 5372 1462 123878 58 17829 2556 95 47 17090 112 880 3138 686 862 1856 4496 8473 468 3138 106 95 5166 31 268 35 1798 156 16031 74 9914 123 804 942 202 123 179 82 202 123 716 323 495 300 862 283 1155 37 29 17176 34 2502 282 2780 39 146 21
internal_value=0 0.292364 0.302962 0.313445 0.320425 0.117093 0.0854708 0.326798 0.0211687 0.065822 0.275703 0.26647 0.205961 0.0400107 0.357366 0.277377 0.0445593 0.100701 0.368915 0.241317 0.0574982 -0.0347778 0.391691 0.00484275 0.143714 0.107259 -0.0655655 0.344473 0.454606 -0.0992573 0.0490706 0.137951 -0.0426589 -0.0134884 0.261074 0.275341 0.187129 0.127871 0.379571 0.44017 0.482187 -0.0536681 0.0530358 0.19957 0.241262 0.280121 -0.0109354 0.0130158 0.186459 0.148149 0.0614675 0.326468 0.199322 -0.0748239 -0.089153 -0.0702322 0.507162 -0.0785475 -0.109733 -0.110605 -0.113477
internal_weight=0 48956.7 47420.4 45571.7 44747.6 15124.9 12482.5 43688.6 8836.54 5199.21 569.379 2642.46 1586.41 4629.84 1056.05 643.601 1848.74 1176.39 309.735 3645.94 1058.95 1536.3 398.222 866.651 1188.19 468.3 824.111 25.2911 218.219 868.454 667.842 269.162 3637.33 1907.45 3177.64 2663.69 513.955 1113.4 74.7906 332.113 412.446 672.357 356.479 41.2784 147.332 111.821 398.68 121.83 425.382 66.1092 207.035 20.8567 33.4619 1729.88 191.645 631.079 378.984 798.82 847.597 842.33 5.92225
internal_count=268644 172623 158498 143508 135419 96021 85771 127010 70992 37653 2734 10250 7543 34919 2707 2122 14990 9145 1548 14779 8409 14125 921 7597 6622 2476 8089 143 380 8751 5374 1892 33339 16105 12303 10037 2266 6314 308 591 585 5845 2058 205 872 418 3482 1020 1742 330 1650 93 124 17234 1832 5640 461 7946 8658 8619 58
is_linear=0
shrinkage=0.1


Tree=2
num_leaves=53
num_cat=0
split_feature=32 110 131 129 130 29 136 83 124 74 112 55 88 134 74 134 112 35 131 107 31 0 70 0 56 38 91 37 136 30 54 25 114 31 123 62 77 128 30 90 111 74 31 73 135 103 124 107 107 75 27 31
split_gain=19236.8 10314.4 6489.82 6021.17 4993.37 4607.9 4244.86 7734.73 1424.27 1538.24 1251.99 865.091 861.989 815.633 685.538 1157.6 641.267 578.547 547.218 542.487 528.188 364.852 332.507 358.582 315.009 331.732 288.322 275.047 255.138 224.306 219.706 268.314 218.998 218.867 210.305 195.662 195.362 184.7 171.73 161.163 549.8 132.013 75.1446 54.9686 50.9827 41.4687 38.1322 35.5257 41.461 22.7573 12.8802 6.98042
threshold=0.95332342386245739 -0.86875653266906727 1.0000000180025095e-35 1.0000000180025095e-35 1.0000000180025095e-35 1.2192704677581789 1.0000000180025095e-35 -1.2022382616996763 -1.4077616930007932 -0.95313444733619679 -0.911383956670761 1.0072183609008791 -1.0326838493347166 1.0000000180025095e-35 -0.90157943964004505 1.0000000180025095e-35 -0.8773631453514098 0.94013613462448131 1.0000000180025095e-35 -0.87731644511222828 1.0061162710189822 0.467428669333458 -0.23845355212688443 0.26815457642078405 0.93452104926109325 0.93951889872550975 -1.1635670661926267 0.95892202854156505 1.0000000180025095e-35 0.90295198559761058 0.96372929215431224 1.4810341000556948 -1.0236329436302183 1.0026330947875979 -1.2618969678878782 0.29233168065547949 -1.0906326174736021 1.0000000180025095e-35 1.0225808620452883 -1.1889155507087705 -0.87689208984374989 -0.96366876363754261 0.99025169014930736 -0.62725946307182301 1.0000000180025095e-35 -0.87893655896186818 -1.3849468827247617 -0.89394524693489064 -0.8934955596923827 -1.1585274338722227 1.1712099909782412 0.98694723844528209
decision_type=2 2 2 2 2 2 2 2 2 2 2 2 2 2 2 2 2 2 2 2 2 2 2 2 2 2 2 2 2 2 2 2 2 2 2 2 2 2 2 2 2 2 2 2 2 2 2 2 2 2 2 2
left_child=1 2 3 4 5 -1 7 8 9 18 -6 -11 14 16 15 -9 26 20 -2 30 24 34 23 -14 25 -8 28 -26 -3 32 31 -4 -5 -32 -22 -21 -24 -28 -16 42 -41 -23 -10 47 46 -31 -18 51 -49 -15 -37 -19
right_child=6 13 19 29 10 -7 17 12 39 11 -12 -13 22 49 38 -17 44 43 -20 35 21 41 36 -25 27 -27 37 -29 -30 45 33 -33 -34 -35 -36 50 -38 -39 -40 40 -42 -43 -44 -45 -46 -47 -48 48 -50 -51 -52 -53
leaf_value=0.2426487307107851 0.31459347676660271 -0.071452216814324995 0.14947288606476303 -0.11191552670506777 0.025849097861761358 0.068601776180103977 0.2076839341588714 0.0084853498559571382 0.062068932028789027 0.069244582292643186 0.25765939355484446 -0.021038439111699076 0.3084842394185478 0.39469392741206288 0.23886474692371928 0.28380735455216577 0.39297223132317433 -0.023917928700076002 -0.095788127022162467 0.28484257075337927 0.1004067793683001 0.15603705052617389 0.39066958569973043 0.19897527436557072 0.22138081757110648 -0.035625681416085311 0.061757555122183033 0.14266097609556014 0.14967278526347355 -0.10796084209648443 -0.090158358262389715 -0.11506403915848012 0.4606248137438913 0.055922323951675602 -0.046161780780327372 -0.022845455638515397 0.12938420176840612 0.29566795943209362 0.067030617195610667 -0.036909302933845707 0.33329376982789044 0.32267436420712381 -0.077102320199297969 0.36363468325574788 0.24241694010234074 -0.055450463988880344 -0.10818487486302593 0.34626652410468856 -0.021753045935493452 0.26434029840015444 -0.11167467318700011 -0.12547051811506393
leaf_weight=52843.886835679412 252.35978976637125 209.22177749872208 254.2906626984477 11.558124274015428 1424.7086477056146 1566.2269656956196 111.18402090668678 211.60341344028711 39.887201376259327 2098.1545786112547 278.53969220072031 2147.7347067818046 736.45691303163767 29.198136657476425 62.412075854837894 548.72121289372444 1.5206372216343869 7.7945031076669684 37.294457517564297 13.053721748292444 478.57191696763039 109.70166592299938 31.480026803910732 503.39957962930202 2572.9165904149413 112.97497572004795 80.190093994140625 536.38366765528917 69.516758814454079 225.03745017200708 170.06775736808777 45.149208337068558 15.831814497709273 258.39794461429119 123.07200691848993 16.996453709900379 314.53638394922018 58.299424588680267 853.79448641836643 1606.8769861236215 41.143849194049835 83.901596836745739 1419.4998965412378 3.1561862528324118 4.1842376738786689 453.4103489369154 967.49914517998695 3.2754087299108496 46.818444013595581 24.741683483123779 412.20226652920246 51.42632557451725
leaf_count=127699 806 2149 1496 123 11244 6787 372 1648 358 13522 1312 18991 1168 21 275 1247 7 46 306 39 2232 419 62 1688 7721 638 510 2150 256 2447 1698 403 25 2024 789 156 1469 313 4707 14003 197 174 15127 6 13 4667 10023 7 299 33 4453 319
internal_value=0 0.217334 0.223909 0.22871 0.232361 0.237639 0.091092 0.058078 0.00305543 0.0387868 0.0637581 0.0235759 0.186981 -0.0466274 0.136988 0.207183 -0.0614283 0.175981 0.261755 -0.00920465 0.182077 0.108848 0.239832 0.264022 0.199547 0.0850571 0.0422911 0.207801 -0.0163041 -0.0615411 0.0438679 0.109586 0.219022 -0.00206041 0.0704248 -0.096557 0.153156 0.160226 0.078736 -0.0490977 -0.027667 0.228252 -0.0732986 -0.0477946 -0.105894 -0.0728679 -0.107398 -0.0596736 0.00231008 0.334902 -0.108157 -0.112104
internal_weight=0 59433.7 57989.4 56819.2 56113.4 54410.1 15146.5 10905.4 7642.95 4535.54 1703.25 4245.89 3262.4 1444.37 1676.53 760.325 1390.43 4241.18 289.654 1170.16 4128.71 795.247 1585.87 1239.86 3333.46 224.159 417.228 3109.3 278.739 705.838 727.906 299.44 27.3899 428.466 601.644 442.252 346.016 138.49 916.207 3107.41 1648.02 193.603 1459.39 112.471 973.204 678.448 969.02 109.315 50.0939 53.9398 429.199 59.2208
internal_count=268644 177898 164573 154304 147042 134486 90746 75574 63310 33625 12556 32513 12264 13325 7877 2895 13271 15172 1112 10269 14495 3614 4387 2856 10881 1010 3228 9871 2405 7262 5621 1899 148 3722 3021 4648 1531 823 4982 29685 14200 593 15485 677 10043 7114 10030 671 306 54 4609 365
is_linear=0
shrinkage=0.1


Tree=3
num_leaves=55
num_cat=0
split_feature=106 81 131 31 129 134 29 32 57 109 32 136 72 48 54 71 72 73 78 134 54 32 28 78 28 102 30 46 12 114 97 41 0 108 124 108 2 0 31 93 133 106 26 31 80 30 63 119 29 107 45 73 31 116
split_gain=12195.8 5577.12 4433.47 4414.01 3641.33 3425.12 2641.91 3485.41 2817.51 2804.71 2383.52 2479.38 2356.43 1247.49 1024.23 1023.72 946.317 774.809 578.418 594.888 658.362 453.252 324.633 298.936 279.893 270.898 257.67 252.702 234.572 204.767 191.836 457.421 190.735 162.075 138.187 177.093 168.113 113.859 99.1001 73.6019 72.6908 98.4519 64.6694 61.6389 127.414 57.3638 29.4012 29.2288 19.4062 11.3874 6.48701 0.0719747 0.0510324 0.00406075
threshold=-0.86323356628417958 -1.3957846164703367 1.0000000180025095e-35 1.0061162710189822 1.0000000180025095e-35 1.0000000180025095e-35 1.2224771380424502 0.86574727296829235 0.91708251833915722 -1.142699062824249 0.9501464068889619 1.0000000180025095e-35 -0.68575438857078541 1.2393159270286562 1.0552848577499392 -0.47042030096054072 -0.56656441092491139 -0.89820542931556691 -0.98359423875808705 1.0000000180025095e-35 0.90933015942573558 0.96597501635551464 0.99106076359748851 -0.96459120512008656 1.3769595026969912 -0.87142673134803761 1.0979482531547549 1.1321954131126406 1.2054901123046877 -1.0140472054481504 -0.97914525866508473 0.94528019428253185 0.35829532146453863 -0.84736067056655873 -1.2813526988029478 -0.81502556800842274 0.5306895673274995 0.12669135630130771 0.99887326359748851 -1.098033010959625 1.0000000180025095e-35 -0.95356711745262135 1.323191285133362 1.0171249508857729 -1.2627497315406797 1.0838533043861391 0.34643910825252539 -0.97944360971450795 1.0993410348892214 -0.88136440515518177 1.0747285485267641 -0.6419382095336913 1.0036432147026064 -0.90482908487319935
decision_type=2 2 2 2 2 2 2 2 2 2 2 2 2 2 2 2 2 2 2 2 2 2 2 2 2 2 2 2 2 2 2 2 2 2 2 2 2 2 2 2 2 2 2 2 2 2 2 2 2 2 2 2 2 2
left_child=3 33 4 5 10 6 7 9 -9 -1 13 -12 30 -3 15 -14 -16 24 19 20 29 22 -6 -19 -8 46 -22 -23 43 -5 45 -32 -27 38 35 39 -37 51 50 -35 41 -39 -42 49 -45 -7 -21 -36 -49 -4 -2 -20 -40 -54
right_child=1 2 28 18 21 12 17 8 -10 -11 11 -13 14 -15 16 -17 -18 23 37 25 26 27 -24 -25 -26 32 -28 -29 -30 -31 31 -33 -34 34 47 36 -38 40 52 -41 42 -43 -44 44 -46 -47 -48 48 -50 -51 -52 -53 53 -55
leaf_value=-0.065355798244339763 0.33906703080279921 0.15926516877845565 -0.029326342971374465 0.055209643239051379 0.28921021305611977 0.33733187366496198 0.027446568647641695 0.17585129748971295 0.098182187647056496 0.23745936750553143 0.050819414379681252 0.15298361278716766 0.2230840071904201 0.29851806210218518 0.29776577788661124 0.12909509078162146 0.11155688661423249 0.19092953134320867 -0.14779154619064469 0.43507865476643598 0.043103099988382104 0.17943192550557133 -0.072988874215713637 -0.081405874008490503 -0.086877235550705506 0.25190854388057665 -0.086592090805731603 0.012128031835946381 0.30196751209116063 0.28624938192629007 0.19215666523508415 0.31868705154929272 0.083202814098352437 0.10032900965883824 0.29636597465807091 0.012849795512199695 0.55968567963103988 -0.13343239741809235 -0.12921821266311126 -0.087086234050519393 0.27097112181218491 0.21080638432831056 0.13961937727768881 -0.11147903320398485 0.71885812668136573 0.41666168210017962 0.30412012423136181 -0.11020838445812063 -0.082642310151066073 -0.10931849478647243 0.22648285752900765 -0.12983247841319789 -0.11681229724632469 -0.11027474908359164
leaf_weight=315.11310260742903 9.7552449032664352 7187.262594871223 18.13757848739624 52.231458239257336 25.347565516829491 1160.0871812403202 675.41172593832016 29058.958942040801 5565.016159594059 10424.769614346325 5198.3863795623183 4374.3589572161436 2625.3995177447796 706.56608885526657 1662.7178969979286 2074.579458206892 326.5148516446352 338.59448453038931 4.5869769752025604 25.969196796417236 2717.6810852885246 116.04519410431385 1041.9296060651541 45.752291768789291 313.57338114082813 99.33320127427578 162.3353675827384 406.64086354523897 14.338427573442457 144.45102076977491 361.1856861114502 1367.266968280077 205.97492633759975 21.949685469269753 1.8614778816699971 239.77374532073736 5.7569202408194533 12.59618157148361 4.8935578912496549 462.21121367812157 186.01057985424995 24.405372694134712 46.941345945000648 5.5359127074480057 2.7740845084190351 98.924613237380981 50.44304071366787 705.11319054663181 400.40107119828463 945.69375718384981 10.766055025160311 4.3458488732576352 2.0615731924772285 1.7623115703463534
leaf_count=1637 11 21399 154 181 42 872 3239 72468 18461 18802 34564 13601 4713 935 1642 6081 911 995 21 19 15790 840 10551 232 1739 131 1136 3612 34 239 749 1251 797 212 9 2237 32 71 31 4837 211 52 116 61 3 90 53 7935 4481 10269 29 25 20 21
internal_value=0 0.0917646 0.10716 0.178908 0.117861 0.185881 0.174669 0.178805 0.163368 0.228575 0.13105 0.0975043 0.240032 0.17173 0.207054 0.181597 0.267201 0.0380232 0.0736615 0.0624899 0.0478813 -0.0270223 -0.0643867 0.158511 -0.0088016 0.180237 0.0357927 0.0492723 -0.0995529 0.224894 0.313874 0.292247 0.138092 -0.0735765 -0.0772942 -0.0435073 0.0256714 0.212199 0.160011 -0.0785897 0.223822 0.0936196 0.244503 -0.105475 0.165708 0.343565 0.348627 -0.0995577 -0.100224 -0.107813 0.280002 -0.139054 -0.122455 -0.113799
internal_weight=0 21909.3 20043 60151.2 19056.5 56413.9 46737.2 45363.9 34624 10739.9 17466.6 9572.75 9676.68 7893.83 6689.21 4699.98 1989.23 1373.33 3737.31 3458.42 3076.7 1589.96 1067.28 384.347 988.985 381.72 2880.02 522.686 986.48 196.682 2987.46 1728.45 305.308 1866.31 1837.07 729.692 245.531 278.886 29.2387 484.161 269.953 37.0016 232.952 972.141 8.31 1259.01 76.4122 1107.38 1105.51 963.831 20.5213 8.93283 8.71744 3.82388
internal_count=268644 115920 96065 152724 85544 133882 117573 111368 90929 20439 70499 48165 16309 22334 13347 10794 2553 6205 18842 18346 17346 15045 10593 1227 4978 1000 16926 4452 10521 420 2962 2000 928 19855 19743 7318 2269 496 112 5049 450 123 327 10487 64 962 72 12425 12416 10423 40 46 72 41
is_linear=0
shrinkage=0.1


Tree=4
num_leaves=61
num_cat=0
split_feature=32 131 130 129 128 30 78 84 136 88 77 54 101 29 107 105 96 22 0 3 109 57 20 74 79 28 109 0 103 69 77 78 108 18 31 32 93 0 128 87 114 38 42 102 104 76 103 108 79 0 21 72 11 129 82 0 136 54 32 31
split_gain=8484.79 5163.18 3963.55 3891.51 2848.9 2470.7 2133.91 1567 3109.85 851.468 1625.64 658.285 1571.33 688.335 566.231 558.989 488.178 377.123 362.448 327.535 296.407 374.376 213.496 208.969 198.711 193.087 178.257 175.699 170.497 161.702 159.041 158.362 276.18 238.39 148.289 116.687 319.909 294.29 216.887 109.211 101.822 89.615 147.927 84.357 83.4395 59.9723 36.7536 11.9107 56.5909 29.751 11.0396 3.43824 30.0825 1.04975 2.93131 0.611811 0.266859 0.0156004 0.0082957 0.00391127
threshold=0.95332342386245739 1.0000000180025095e-35 1.0000000180025095e-35 1.0000000180025095e-35 1.0000000180025095e-35 1.0809705257415774 -1.3336905837059019 -1.1426732540130613 1.0000000180025095e-35 -1.147766053676605 -1.2053235173225401 1.0253087878227236 -0.84325274825096119 1.1153206229209902 -0.87731644511222828 -0.81322160363197316 -0.95230677723884571 1.2582468986511233 0.2978490442037583 0.6123405694961549 -0.87431862950325001 0.917666256427765 1.6072667837142947 -0.91157692670822132 -1.3362214565277097 0.99106076359748851 -0.95033088326454151 0.16909485310316089 -0.73853132128715504 -0.115385714918375 -1.100965619087219 -1.1434882283210752 -0.90894067287445057 1.3852979540824892 0.95568275451660167 0.96110618114471447 -1.0614329576492307 0.45746344327926641 1.0000000180025095e-35 -1.2178264260292051 -1.0174863338470457 0.99042582511901867 1.0819011330604555 -0.98474246263504017 -0.8149314522743224 -1.2196469902992246 -0.87893655896186818 -0.83585640788078297 -1.3657370209693906 0.49162626266479498 1.7850034832954409 -0.63346365094184864 0.73890700936317455 1.0000000180025095e-35 -1.385189354419708 0.39380656182765966 1.0000000180025095e-35 1.0238185524940493 0.9418374001979829 1.002194404602051
decision_type=2 2 2 2 2 2 2 2 2 2 2 2 2 2 2 2 2 2 2 2 2 2 2 2 2 2 2 2 2 2 2 2 2 2 2 2 2 2 2 2 2 2 2 2 2 2 2 2 2 2 2 2 2 2 2 2 2 2 2 2
left_child=1 2 3 4 5 -1 35 8 9 15 -11 12 19 -14 31 -8 -6 26 29 -4 21 -10 51 -20 -22 40 27 -9 44 -19 -28 32 33 -3 -30 36 41 38 -38 -34 -5 45 -43 50 -13 -2 -27 53 49 -49 -24 55 -53 56 -55 -16 -37 59 -59 -33
right_child=6 14 11 25 16 -7 7 17 20 10 -12 28 13 -15 22 -17 -18 18 23 -21 24 -23 43 -25 -26 46 30 -29 34 -31 -32 57 39 -35 -36 47 37 -39 -40 -41 -42 42 -44 -45 -46 -47 -48 48 -50 -51 -52 52 -54 54 -56 -57 -58 58 -60 -61
leaf_value=0.16754829915108577 -0.072677945536384347 0.075274779852227747 -0.067256257374500902 -0.1125642827277499 -0.051542435980185354 0.11089831487741895 -0.029090868814013335 0.14260689997577672 0.090138749011926533 0.60757395185318064 0.055319245877898875 -0.10526352336852325 0.28302394314873308 0.030528251285637954 -0.10189126871910484 0.041544622579816406 0.066882421330058353 0.21647853961361757 0.22824811015167695 0.046505866640070906 0.17176882428562157 0.1495266915936134 -0.12142066543834024 0.092048382898183387 0.34499595357757884 -0.10555869629157928 -0.044867042452369894 0.023224777711940564 -0.12521070944230822 0.13063104615596952 0.28311887593888213 -0.11545836054477915 0.031686552712050502 0.32542441253138493 0.22970556777766507 -0.11102910332905565 -0.098857845041965015 0.43315424124459395 0.16819352098961102 -0.068315730004819317 0.2493348164395211 0.5999013655807327 -0.11208411461339965 0.25788698173194374 -0.036030040571910775 0.025652346179789717 -0.059161566472091469 -0.081844260910631683 0.32026156668620354 0.33080894255013243 0.090510602649773786 -0.11115468744575084 0.32855172859013276 -0.1103788260764111 -0.056442154270738024 -0.10999375803358757 -0.1348897549505593 -0.11216198804240203 -0.11510929896395775 -0.11777289170453104
leaf_weight=56037.597775027156 577.59058775752783 247.25141427665949 539.26936060190201 10.631281353533266 601.88926135748625 8924.9192550480366 3061.0934237837791 176.4041331410408 2298.0894680321217 54.353982910513878 2754.742784768343 344.96704264730215 340.26243624091148 158.14884193241596 110.46157428622246 1767.12669377774 825.50604727119207 1019.0210879594088 133.98756419122219 476.89141852408648 353.34165696799755 1972.6259921342134 9.1899515464901906 707.35465496778488 81.492796286940575 254.36833027750254 18.854188770055771 409.35513813793659 17.424367062747478 279.6190100312233 68.488304138183594 23.395216025412083 254.26245437562466 45.035900391638279 36.2908935546875 128.48185227066278 56.559572048485279 23.206263944506645 65.783575676381588 191.42243032157421 28.930497318506241 5.4210875034332258 6.3203127682209015 22.895152948796749 351.3971908017993 69.488510124385357 519.26657599955797 402.47566251456738 3.5625010654330245 1.7547702342271794 3.3552991747856131 13.622412979602812 1.7565557360649098 34.85715626180172 14.173136457800863 596.0981759801507 4.8647163659334174 25.236545644700527 15.363930962979792 10.613372042775152
leaf_count=104877 6713 1527 4795 112 4748 25056 24675 615 7719 99 15447 3203 762 967 1488 13926 4182 1217 299 3188 821 5322 76 2599 70 2745 104 1933 116 763 127 206 1703 161 89 1466 586 18 487 1540 31 24 67 35 2679 402 5592 4615 22 16 11 153 13 413 155 7353 26 268 138 84
internal_value=0 0.145594 0.149647 0.154032 0.156695 0.159765 0.0660889 0.0769809 0.0616303 0.0222302 0.066005 0.0195265 0.057468 0.202906 -0.0337398 -0.00323831 0.0169463 0.144334 0.164869 -0.0138669 0.125578 0.11757 -0.0959454 0.113739 0.204234 -0.0633976 0.079049 0.0591773 -0.0570857 0.197994 0.212318 0.0242399 0.0382767 0.113818 0.114576 -0.0522859 -0.0275084 0.106664 0.0447349 -0.0112646 0.152083 -0.0571504 0.216645 0.143684 -0.0703271 -0.0621185 -0.0744168 -0.0860562 -0.0765558 -0.0800529 -0.0647384 -0.107709 -0.0609323 -0.107299 -0.0947874 -0.108727 -0.1119 -0.114601 -0.113277 -0.116181
internal_weight=0 71037.7 69467.8 67203.1 66389.9 64962.5 16550.5 15156 12342.9 7637.32 2809.1 2264.65 1514.57 498.411 1569.96 4828.22 1427.4 2813.08 2139.98 1016.16 4705.55 4270.72 757.379 841.342 434.834 813.197 673.102 585.759 750.079 1298.64 87.3425 812.581 737.972 292.287 53.7153 1394.54 804.37 145.549 122.343 445.685 39.5618 658.82 11.7414 35.4404 696.364 647.079 773.635 590.17 407.793 404.23 12.5453 721.939 15.379 182.377 49.0303 706.56 133.347 74.6091 40.6005 34.0086
internal_count=268644 177898 163142 147343 138863 129933 90746 75736 68079 54147 15546 15799 9712 1729 14756 38601 8930 7657 4878 7983 13932 13041 9129 2898 891 8480 2779 2548 6087 1980 231 5627 4931 1688 205 15010 8297 1091 1073 3243 143 7206 91 122 5882 7115 8337 6713 4653 4631 87 9007 166 2060 568 8841 1492 696 406 290
is_linear=0
shrinkage=0.1


Tree=5
num_leaves=60
num_cat=0
split_feature=81 131 129 130 103 30 118 55 103 107 80 101 32 136 110 93 123 52 54 9 75 5 134 30 53 53 31 127 117 122 68 21 98 124 75 110 31 115 36 114 120 33 33 43 102 84 79 107 85 109 31 77 115 32 79 108 106 136 136
split_gain=6396.82 5026.13 4467.44 3089.82 2126.75 3902.51 2413.22 1223.01 3753.02 914.429 556.947 554.824 461.241 303.089 270.576 379.271 263.174 339.683 260.042 338.911 255.985 222.665 220.618 216.558 207.399 175.775 175.632 172.43 184.882 169.429 147.021 276.033 129.234 97.7635 143.377 92.0283 114.238 92.8097 76.125 69.0179 63.2356 49.8742 46.0325 83.0018 37.365 21.2479 53.3298 134.493 26.1889 20.9508 20.4363 27.9824 10.9579 8.55834 13.6068 5.15915 1.42382 0.354981 0.190455
threshold=-1.3808069825172422 1.0000000180025095e-35 1.0000000180025095e-35 1.0000000180025095e-35 -0.84609180688858021 1.0756722092628481 -1.5835304260253904 1.0072183609008791 -0.8068481683731078 -0.87695607542991627 -1.3932359814643858 -0.75965949892997731 0.96623006463050853 1.0000000180025095e-35 -0.86419060826301564 -1.0605727434158323 -1.5227659940719602 1.1129599809646609 1.0223261117935183 0.66202571988105785 -1.0765753388404844 0.76713564991951 1.0000000180025095e-35 0.90295198559761058 1.0301506519317629 1.0403390526771548 1.0111966133117678 -1.5640309453010557 -0.9543754756450652 -1.4099464416503904 0.035975413396954543 1.234399735927582 -0.860448658466339 -1.2813526988029478 -1.1585274338722227 -0.85557514429092396 0.985579013824463 -0.90786728262901295 0.88320481777191173 -1.0236329436302183 -0.96823942661285389 0.93222451210021984 0.94616588950157177 1.1118643879890444 -0.98474246263504017 -1.4184551835060117 -1.41971218585968 -0.80358862876892079 -1.4016828536987302 -0.85413554310798634 0.99258422851562511 -1.2872728705406187 -0.92375311255455006 0.97472411394119274 -1.2562092542648313 -0.88337913155555714 -0.85864499211311329 1.0000000180025095e-35 1.0000000180025095e-35
decision_type=2 2 2 2 2 2 2 2 2 2 2 2 2 2 2 2 2 2 2 2 2 2 2 2 2 2 2 2 2 2 2 2 2 2 2 2 2 2 2 2 2 2 2 2 2 2 2 2 2 2 2 2 2 2 2 2 2 2 2
left_child=10 2 3 4 5 -2 -6 8 -5 18 33 -9 23 14 42 22 29 -18 19 32 -17 53 -16 39 50 -21 -25 28 -26 -14 38 -32 -3 34 41 37 -37 -36 -20 -4 -29 -1 49 -44 52 56 47 -47 -48 -12 -15 -52 -23 55 -55 -11 58 -58 -35
right_child=1 9 12 7 6 -7 -8 11 -10 21 13 -13 16 24 15 20 17 -19 30 25 -22 44 -24 26 27 -27 -28 40 -30 -31 31 -33 -34 45 35 36 -38 -39 -40 -41 -42 -43 43 -45 -46 46 48 -49 -50 -51 51 -53 -54 54 -56 -57 57 -59 -60
leaf_value=0.10225522784199784 0.16689152531760676 0.26602326266087289 -0.11170242813273874 0.0046163105011708273 0.1821717332906499 0.10160400725849016 0.10337020617249132 -0.080475232004315875 0.27662892839763942 -0.087254302521420524 -0.11286214797358021 0.076410591952637288 0.18599191467038434 0.076837822001314782 -0.056550457955005386 0.28616965859017701 0.086516682911059295 -0.089485937143353636 0.063187228188848102 0.045085332740560362 -0.082874422102825279 -0.12335407558657213 0.22863506046019408 -0.069165087442971174 0.20239048563836934 -0.088052232800988728 0.079187832546089243 0.23137355384818031 -0.05033875763893312 0.68866805619605287 -0.10075378587118405 0.22325652404463595 0.03535341333042729 -0.11524674034633853 -0.1111685835331544 0.12082081167489533 -0.044437778525300106 0.49685075094464781 -0.10563939715471256 0.23581931009693419 0.091474846436590734 0.60759460957064415 0.09636964403713337 -0.09743832358751868 0.22437468687118073 -0.10995090251928363 0.037582939235427798 0.54723148827393941 -0.094286557798653831 -0.064228193502099767 -0.14020936585633556 0.074825879714747676 0.12221363414188434 -0.11248502547920634 0.19894215837405593 -0.1090362414210086 -0.1091644677700373 -0.11535819790145746 -0.13987834612444056
leaf_weight=3.5968789830803862 26804.566481530666 91.976924724876881 6.9118504077196112 1930.354369558394 4367.3310412615538 13905.015930525959 35277.158561043441 965.21506935358047 688.01173197478056 125.0407343134284 187.96382947266102 294.10289886593819 52.129103392362595 6.7305435836315146 229.2568099796772 81.854215011000633 333.46777731925249 163.3834293782711 30.136370591819286 921.32458808273077 24.398097150027752 4.7232770919799831 30.76638987660408 1366.0330563262105 44.363510563969612 111.12517870217562 84.752537004649639 117.46714895963669 83.288669273257256 7.6949920803308478 55.341857522726059 50.09231773763895 33.003250695765018 3.7528327628970173 214.57240867614746 48.831306405365467 291.7278711348772 2.5402111858129492 234.79161530733109 32.996222272515297 44.568593725562096 4.273401640355587 40.419612154364586 48.74863763153553 24.162666857242584 9.2606166526675207 15.772231310606001 4.691765069961547 333.55815248191357 167.520552046597 41.745008327066898 7.077515795826911 2.9533103406429291 3.4079411849379539 2.3846504986286154 834.06992844492197 448.95987050235271 116.55721294879913 19.195428118109703
leaf_count=32 42205 257 76 13698 6412 34818 91536 8158 2013 1319 2007 1651 212 17 2718 285 2450 1578 228 6050 231 38 19 14208 73 959 774 143 341 19 509 147 174 34 2524 340 3306 16 2057 34 113 12 317 470 36 121 190 29 4262 1569 211 21 11 35 10 10444 6022 1010 95
internal_value=0 0.116713 0.120782 0.12433 0.128537 0.144592 0.112051 0.0371438 0.0760914 -0.0223671 -0.0402826 -0.0438359 -0.025172 0.0120044 -0.0214031 0.0422412 0.052499 0.0286404 0.0262449 0.0495824 0.201428 -0.0968789 -0.0228068 -0.054177 0.0904745 0.0307554 -0.0604986 0.124416 0.0374933 0.25065 -0.046688 0.0531852 0.205111 -0.0801251 -0.0471958 -0.0531773 -0.0207421 -0.104055 -0.0864349 0.175631 0.192894 0.376644 -0.0738291 -0.00958594 0.163314 -0.0996922 -0.0806755 0.11104 -0.0883327 -0.0899436 -0.0865173 -0.109037 -0.0288801 -0.105465 0.015721 -0.106196 -0.111432 -0.110441 -0.13585
internal_weight=0 88803.7 86279.1 84231.8 80354.1 40709.6 39644.5 3877.68 2618.37 2524.53 2673.46 1259.32 2047.37 1156.17 810.928 366.276 556.675 496.851 1527.79 1157.43 106.252 996.743 260.023 1490.69 345.241 1032.45 1450.79 289.688 127.652 59.8241 370.362 105.434 124.98 1517.29 565.542 557.672 340.559 217.113 264.928 39.9081 162.036 7.87028 444.653 89.1682 31.8393 951.748 363.283 13.9524 349.33 355.484 55.5531 48.8225 7.67659 964.903 5.79259 959.111 588.465 565.517 22.9483
internal_count=268644 242116 219842 200491 174971 77023 97948 25520 15711 22274 26528 9809 19351 8535 7616 3253 4259 4028 10381 7440 516 11893 2737 15092 919 7009 14982 670 414 231 2941 656 431 17993 6230 6186 3646 2540 2285 110 256 44 4363 787 85 11763 4602 150 4452 3576 249 232 49 11808 45 11763 7161 7032 129
is_linear=0
shrinkage=0.1


Tree=6
num_leaves=54
num_cat=0
split_feature=32 115 134 129 110 118 71 54 77 106 85 136 71 34 134 54 31 128 31 134 81 36 106 72 92 97 42 28 52 136 115 53 33 107 126 0 44 128 133 119 29 111 30 32 111 24 30 60 61 121 23 96 77
split_gain=5166.28 3302.26 2246.66 1954.5 1964.34 3049.44 1693 1572.7 1291.38 1175.72 926.619 1852.2 697.64 626.222 563.205 433.421 740.65 371.539 298.133 251.715 286.149 204.459 177.1 165.548 163.356 159.725 410.2 146.68 216.531 138.873 183.75 190.031 135.465 130.388 94.8115 213.813 223.194 109.908 91.7942 88.9796 101.097 80.8166 48.7561 48.3226 31.3295 28.0641 24.653 14.1371 150.778 7.88816 4.54479 4.29878 0.00810795
threshold=0.95492666959762584 -0.89672723412513722 1.0000000180025095e-35 1.0000000180025095e-35 -1.2049688100814817 -1.5888486504554746 -0.52442631125450123 1.0680418014526369 -1.2784953713417051 -0.86688020825386036 -1.1273940205574033 1.0000000180025095e-35 -0.40221390128135676 0.85084426403045665 1.0000000180025095e-35 1.0625461339950564 0.99258422851562511 1.0000000180025095e-35 1.0055273175239565 1.0000000180025095e-35 -0.96236857771873463 0.92713981866836559 -0.83376371860504139 -0.59604051709175099 -0.92540782690048207 -0.98021671175956715 0.96618309617042553 1.0897399783134463 1.1214991211891177 1.0000000180025095e-35 -0.90401723980903614 1.0505394339561465 0.9431034028530122 -0.87695607542991627 -1.5055698156356809 0.44321820139884954 1.0789639353752138 1.0000000180025095e-35 1.0000000180025095e-35 -0.90839836001396168 1.1854565143585207 -0.88717398047447193 1.0786677598953249 0.95310252904891979 -0.87852418422698964 1.5572977662086489 1.0838533043861391 0.72117871046066295 0.64790558815002453 -1.0231109261512754 1.5216494798660281 -1.0444089770317075 -1.2934401035308836
decision_type=2 2 2 2 2 2 2 2 2 2 2 2 2 2 2 2 2 2 2 2 2 2 2 2 2 2 2 2 2 2 2 2 2 2 2 2 2 2 2 2 2 2 2 2 2 2 2 2 2 2 2 2 2
left_child=1 2 3 4 13 -6 25 9 29 -8 11 15 -9 -1 39 16 -10 -17 22 20 33 -20 -13 32 -25 46 -27 28 -5 34 31 44 -21 -12 35 37 -37 -2 -22 40 43 -33 -29 -3 -31 50 -4 48 -36 -32 -41 -16 -49
right_child=8 14 6 27 5 -7 7 12 10 -11 19 18 -14 -15 51 17 -18 -19 21 23 38 -23 -24 24 -26 26 -28 42 -30 30 49 41 -34 -35 47 36 -38 -39 -40 45 -42 -43 -44 -45 -46 -47 -48 52 -50 -51 -52 -53 -54
leaf_value=0.12366630085798157 -0.092667990968815062 -0.073702096473227063 0.22082613913474747 0.24152370176403626 0.19851603531233319 0.10076004450639407 0.13630269932742908 0.2173022972689248 0.19299720076411131 0.058484575019386469 0.049373982987426131 0.098861026367618787 0.064370494724659291 -0.097859154576219826 0.22594095214426269 -0.091262009242580475 0.012132345801356833 0.043578790722704687 0.071439158746233453 0.18616739391065393 0.044025162059084161 -0.027336916616067731 0.1787447138491052 -0.030665001356960001 0.13599318825464324 0.10959398036931037 0.20592474549205467 -0.089229354495315286 -0.0722796713543334 -0.12116081940368527 0.29131255437606507 0.17745001996693394 -0.084153121727716856 0.20099093546972485 -0.093980743435603545 -0.086677761310388249 0.25407589916593015 -0.013842048795170462 0.16941485888421404 -0.11063103122800336 0.28720029788585288 -0.088213247236980416 -0.022992894988429477 0.033607736888944841 0.052514810440599739 0.096346193964767082 0.26538241957256908 -0.10785484785287147 0.26533265191575878 0.19659865450491765 -0.063247786966179484 0.17711334380530239 -0.11004751779414286
leaf_weight=160.17507778853178 354.21035637706518 196.63408741727471 1467.0751646608114 38.262408494949341 3374.9648431837559 58558.801032155752 4491.4159403294325 2051.7679699808359 235.89025986939669 3419.8257628530264 1063.585746973753 3130.0855843275785 349.03029473870993 627.63625590503216 34.375817731022835 703.34826050698757 5636.5065270289779 288.02378379553556 816.80280311405659 627.02948465943336 68.519823394715786 281.87374378740788 304.52608950436115 83.872345879673958 196.85629189014435 570.22051841020584 1966.5366298854351 515.85799500346184 51.701097223907709 86.491431668400764 15.708256661891935 51.727730929851532 19.103111639618874 59.916149266064167 203.82395819947124 31.865583978593349 48.445744059979916 353.33359893411398 394.67003527283669 683.06492101028562 9.1738485991954786 14.706360280513762 141.64534509927034 53.348490558564663 11.804215908050535 6.7040186151862136 135.66340939700603 241.5783443748951 12.388448454439638 19.97477225959301 20.860724419355392 37.921176820993423 18.129761420190334
leaf_count=375 4370 2221 944 94 3104 137085 7361 1517 1195 9666 4276 7879 819 2800 19 6765 37474 1956 2699 603 225 1214 471 331 393 1032 1579 6197 574 428 11 86 71 110 2711 369 272 3678 445 8616 17 68 1591 641 39 24 93 3606 133 33 109 32 223
internal_value=0 0.107913 0.110278 0.102175 0.104091 0.106087 0.145863 0.124177 0.044553 0.102664 0.0539556 0.0418349 0.195069 -0.0528194 -0.0689226 0.00907271 0.0193976 -0.0520866 0.0914396 0.108913 0.084727 0.0460974 0.105944 0.150318 0.0862013 0.199885 0.184271 -0.0585741 0.0611841 -0.0447768 0.0325595 -0.0120056 0.178175 0.0574597 -0.0570409 -0.0357527 0.118873 -0.0533039 0.150866 -0.0889952 -0.0388364 0.118641 -0.0749601 -0.0508012 -0.100304 -0.107287 0.224598 -0.0922822 -0.073393 0.238293 -0.109227 0.20033 -0.108008
internal_weight=0 78962.7 77920.6 63469 62721.6 61933.8 14451.5 10312 15374.8 7911.24 13910.6 11397.1 2400.8 787.811 1042.08 6863.77 5872.4 991.372 4533.29 2513.55 1586.69 1098.68 3434.61 926.861 280.729 4139.5 2536.76 747.467 89.9635 1464.19 200.413 164.73 646.133 1123.5 1263.78 787.855 80.3113 707.544 463.19 969.786 259.156 66.4341 657.503 249.983 98.2956 710.63 1602.74 475.921 216.212 35.683 703.926 72.297 259.708
internal_count=268644 186510 174831 151820 143364 140189 23011 19363 82134 17027 66107 59653 2336 3175 11679 47390 38669 8721 12263 6454 5056 3913 8350 1398 724 3648 2611 8456 668 16027 665 621 674 4386 15362 8689 641 8048 670 11628 2879 154 7788 2862 467 8749 1037 6673 2844 44 8725 51 3829
is_linear=0
shrinkage=0.1


Tree=7
num_leaves=60
num_cat=0
split_feature=106 81 134 31 131 115 109 118 107 129 31 71 136 72 69 136 54 71 20 4 136 133 92 58 103 52 32 31 46 70 77 30 118 31 22 4 96 29 2 110 128 108 35 109 31 80 31 27 107 29 107 26 30 32 32 136 88 106 120
split_gain=4227.62 2233.14 2096.44 2086.83 1961.23 1841.72 1884.67 1874.86 1350.02 1170.47 1181.6 1120.27 1098.86 1012.9 935.746 775.03 649.037 647.226 606.443 492.613 546.635 355.689 353.876 333.348 323.762 314.778 313.886 270.015 238.963 163.071 147.334 142.305 136.458 135.097 131.989 113.303 109.003 244.018 158.977 84.4949 124.966 77.0394 75.3496 65.7377 48.4887 46.0286 45.8413 30.7193 17.0656 18.3458 10.6608 10.6343 6.03182 3.76996 22.8825 0.179499 0.142353 0.0422056 0.00306094
threshold=-0.86323356628417958 -1.3957846164703367 1.0000000180025095e-35 0.99887326359748851 1.0000000180025095e-35 -0.9268679916858672 -1.1353823542594907 -1.5789721608161924 -0.97331959009170521 1.0000000180025095e-35 0.99808326363563549 -0.4316371083259582 1.0000000180025095e-35 -0.68575438857078541 -0.0064842589199542991 1.0000000180025095e-35 1.0465895533561709 -0.41040977835655207 1.2450574636459353 0.70749515295028698 1.0000000180025095e-35 1.0000000180025095e-35 -1.1179752945899961 0.76493483781814586 -0.75955200195312489 1.06480348110199 0.96505784988403331 1.0100085139274599 1.1321954131126406 -0.27206599712371821 -1.2801956534385679 1.1010208129882815 -0.89216962456703175 0.98594394326210033 1.6019659638404848 0.68769744038581859 -0.99423822760581959 1.1869201660156252 0.61181518435478222 -0.86093434691429127 1.0000000180025095e-35 -0.84736067056655873 0.87640598416328441 -0.82105067372322071 1.0171249508857729 -1.2627497315406797 0.99887326359748851 1.1197575330734255 -0.88260397315025318 1.1528859138488772 -0.88136440515518177 1.505540192127228 1.0838533043861391 0.95782783627510082 0.95799872279167186 1.0000000180025095e-35 -1.2665948867797849 -0.85864499211311329 -0.95250475406646717
decision_type=2 2 2 2 2 2 2 2 2 2 2 2 2 2 2 2 2 2 2 2 2 2 2 2 2 2 2 2 2 2 2 2 2 2 2 2 2 2 2 2 2 2 2 2 2 2 2 2 2 2 2 2 2 2 2 2 2 2 2
left_child=2 32 3 5 9 6 14 -8 21 10 11 -3 -12 36 -1 35 18 29 25 20 -10 42 -21 -20 -19 -15 27 -11 -28 -18 -17 -23 33 39 44 -7 48 38 -38 47 -41 46 -5 -43 50 -46 -35 -2 52 -50 -6 -39 -4 55 -55 56 -34 -57 -56
right_child=1 4 13 8 34 15 7 -9 19 26 12 -13 -14 16 -16 30 17 24 23 22 -22 31 -24 -25 -26 -27 28 -29 -30 -31 -32 -33 53 41 -36 -37 37 51 -40 40 -42 43 -44 -45 45 -47 -48 -49 49 -51 -52 -53 -54 54 58 57 -58 -59 -60
leaf_value=0.065861957075799324 0.14428847898405958 0.12385176301594357 0.20333158929324935 -0.10270205072739316 -0.028076916785494496 -0.11871398505008952 0.17535943983553334 0.10018371312512618 0.0037487342974238461 -0.072907831639636156 0.011076757895227829 0.059238062566548892 0.077361041376750525 0.21202305556646972 -0.085113300504688308 -0.1420795833323911 0.19259917540689564 0.085799125325941347 -0.085255232232020348 -0.040301847316744452 0.066112129409440723 0.13697670715891205 0.18411578312992602 0.11192654891026024 -0.13417432318164321 -0.02023182835584203 0.13506743292025492 0.23964369957441045 -0.005066850795015912 0.13657873960285341 0.14881068095596928 -0.0068508552239584606 -0.10758686385987125 0.16639342934966667 0.1675786624853883 -0.023707859575363421 0.17318047833288586 -0.15830175608531916 0.035648090089396463 -0.051237095892219725 0.179983574807974 -0.076453941066004991 0.032416086369929195 8.9478446473864159e-05 -0.10879281119176631 0.34042241010503638 -0.12150104349586366 -0.10062306517357172 0.19598957218436297 0.16863142066677189 -0.10619847045596378 0.0069914318127413701 0.22643835395490358 0.23639513377920918 -0.11235501300279682 -0.12391729341701643 -0.1129456499855464 -0.11262940361049834 -0.10699787986403092
leaf_weight=905.7292258515954 5.8828569017350665 5556.4653960093856 597.4866036772728 63.856185503304005 17.879792712628841 138.76659073680639 3594.0169963389635 43123.022497400641 5038.2866145968437 815.42624594271183 4901.7846581488848 5189.3679506778717 5106.5764283388853 65.097381040453911 750.87290788441896 18.384004980325699 1709.9981041550636 422.34463313221931 87.333301737904549 90.300224781036377 1949.32227191329 1818.693876683712 316.68399795889854 4688.1707783490419 79.504396602511406 563.37927038967609 162.90763018280268 28.610259305685759 480.90940921753645 746.43561594188213 329.26020304858685 71.496193885803223 329.96756575256586 23.046851165592674 18.633823841810226 1315.6526009514928 1643.465814858675 23.444295316934589 88.577417194843292 36.875282317399979 63.842387400567532 739.21620242670178 116.69420309364796 132.27943240106106 4.3420658782124519 4.8052555322647077 7.2772254720330229 39.569890212267637 889.28176698088646 338.37689663469791 758.72493223100901 4.6670606434345236 139.31287077069283 2.2389724291861084 1.1609074510633952 3.4196332991123191 58.335444379597902 105.64276866614819 13.125244919210669
leaf_count=2109 37 12177 350 285 154 847 3257 86280 25111 9482 26870 18606 12846 80 3192 93 1244 883 294 507 4809 2648 461 8568 315 1899 1066 241 4256 1002 452 215 5232 33 33 4812 1422 102 205 389 309 9816 336 1645 61 3 69 353 548 296 10270 14 88 26 13 22 623 1072 216
internal_value=0 0.0500892 0.0981242 0.0904279 0.0579314 0.0985524 0.10225 0.105967 0.0473604 0.0634791 0.0696212 0.0926486 0.0448971 0.1361 -0.00256922 -0.000709963 0.116781 0.154434 0.0961678 0.0273752 0.0211462 0.118727 0.134323 0.108321 0.0509503 0.00382505 -0.0221983 -0.0623133 0.0303919 0.175576 0.133428 0.131536 -0.0656272 -0.044929 -0.0954658 -0.0327724 0.179476 0.161404 0.166147 0.0442523 0.0953278 -0.0593838 -0.0153718 -0.0648358 -0.101704 0.127188 0.097304 -0.0689247 0.19567 0.188449 -0.1044 -0.13086 0.207701 -0.107837 -0.0608483 -0.109399 -0.108392 -0.112983 -0.107433
internal_weight=0 24608.3 71727.9 59641 23046.4 50175.7 48373.6 46717 9465.33 22242 20754.2 10745.8 10008.4 12086.9 1656.6 1802.06 8362.26 2958.28 5403.98 7394.59 6987.61 2070.74 406.984 4775.5 501.849 628.477 1487.85 844.037 643.817 2456.43 347.644 1890.19 1561.88 1047.99 804.386 1454.42 3724.61 1760.15 1732.04 146.17 100.718 901.82 180.55 871.496 785.752 9.14732 30.3241 45.4527 1964.46 1227.66 776.605 28.1114 736.799 513.891 16.5251 497.365 388.303 109.062 14.2862
internal_count=268644 115920 152724 135414 96065 101042 94838 89537 34372 85544 70499 30783 39716 17310 5301 6204 14285 3444 10841 30888 29920 3484 968 8862 1198 1979 15045 9723 5322 2246 545 2863 19855 12651 10521 5659 3025 1743 1627 1088 698 11563 621 11461 10488 64 102 390 1282 844 10424 116 438 7204 255 6949 5855 1094 229
is_linear=0
shrinkage=0.1


Tree=8
num_leaves=55
num_cat=0
split_feature=106 131 30 72 81 133 110 120 131 127 48 59 72 31 134 30 136 124 0 134 130 102 110 24 104 29 24 37 102 107 22 118 108 84 35 92 35 27 35 29 31 80 105 118 105 2 111 108 115 32 113 107 103 89
split_gain=3370.32 1981.86 1848.81 2194.7 1665.61 1553.48 1395.64 1713.26 1366.8 1309.54 1178.33 1144.56 1112.99 1479.58 986.412 900.535 803.011 743.631 702.289 535.892 531.283 319.257 303.157 224.937 195.85 139.672 138.343 132.436 121.129 115.93 112.012 104.449 92.9871 196.663 88.0919 83.0808 81.9017 81.2417 64.5842 59.3516 38.9271 36.5345 34.4307 30.8059 30.2898 15.8858 11.7493 7.18805 65.7945 4.60305 23.8607 2.74319 0.112306 0.00109078
threshold=-0.86485770344734181 1.0000000180025095e-35 1.0795939564704897 -0.6756722331047057 -1.3987143039703367 1.0000000180025095e-35 -1.2103413343429563 -1.7203594446182249 1.0000000180025095e-35 -2.5085866451263423 1.2393159270286562 0.68824040889740001 -0.62870237231254567 0.99964967370033275 1.0000000180025095e-35 1.0715057253837588 1.0000000180025095e-35 -1.1370089650154112 0.57011273503303539 1.0000000180025095e-35 1.0000000180025095e-35 -0.90017616748809803 -1.200797915458679 1.665934205055237 -0.84723049402236927 1.2413162589073183 1.4703282713890078 0.99615994095802318 -0.89281532168388356 -0.89491954445838917 1.6019659638404848 -0.89216962456703175 -0.81502556800842274 -1.4184551835060117 0.77463385462760936 -0.99207305908203114 0.88379898667335521 1.3321148753166201 0.8661189377307893 1.1986556053161623 1.0171249508857729 -1.2627497315406797 -0.87625762820243824 -0.89625307917594899 -0.90642693638801564 -0.1115901432931423 -1.1385723948478697 -0.90397414565086354 -1.0278524756431577 0.95782783627510082 -0.84833881258964527 -0.86908999085426319 -0.86286860704421986 -1.2105684876441953
decision_type=2 2 2 2 2 2 2 2 2 2 2 2 2 2 2 2 2 2 2 2 2 2 2 2 2 2 2 2 2 2 2 2 2 2 2 2 2 2 2 2 2 2 2 2 2 2 2 2 2 2 2 2 2 2
left_child=2 4 3 8 31 14 27 22 15 -9 12 21 13 -6 17 20 -14 18 -4 -17 -1 23 -8 -7 29 -19 -23 38 39 -10 40 32 43 -34 46 44 -36 -37 -5 -16 47 53 -30 -2 -13 -29 -12 48 -3 52 -51 -49 -33 -42
right_child=1 30 5 6 10 11 7 9 24 -11 34 35 16 -15 28 19 -18 25 -20 -21 -22 26 -24 -25 -26 -27 -28 45 42 -31 -32 49 33 -35 36 37 -38 -39 -40 -41 41 -43 -44 -45 -46 -47 -48 51 -50 50 -52 -53 -54 -55
leaf_value=0.1507718592772419 -0.072194427892469812 -0.11477449057801831 0.010206618484016321 0.023931373994507302 0.11033972777405576 0.14972754511207226 0.076115947113136517 0.047712026495309583 0.031147801809625127 0.089752746182323873 0.034498620083814775 -0.12430312625072513 0.014738689998642009 0.033980485454322445 0.19173272420822607 0.079451560034092733 0.066858316384269284 -0.024594396275544793 0.076305658150718436 0.1539290133168166 -0.033166524131739643 0.10504743518428863 0.16376500614070513 -0.069503925695566279 0.34461433973095712 -0.10770681534493397 0.015015040533676517 0.27441039953696478 0.044350577077673536 -0.075886803825567645 0.13832717728559374 -0.11089342348586879 -0.076417639911410346 0.082160853851923565 0.18218693959163942 0.0079897969053682946 0.08823825969939933 -0.14911297130382484 -0.11585846864107777 0.0627146057493954 -0.10689772468983852 0.27107899667560192 -0.18847830465587667 0.093910658830251847 -0.015865664677618945 0.076915104345743057 -0.17420085411143582 -0.091628332316552555 0.37619498061070678 0.26293823738883171 -0.1070101842458891 -0.10775500102236249 -0.10735763160630772 -0.1100426811075985
leaf_weight=10446.716623969376 527.33631436899304 20.629412785172466 3905.7655127979815 36.094749867916107 5788.4382872954011 2472.099182382226 454.37855325639248 10051.640811182559 141.62014961987734 28185.937599018216 4.1196951195597649 105.08755494654179 8490.7869037054479 4518.276322837919 420.46983064711094 3999.490781314671 4534.9582388550043 1538.708855047822 2731.5776801481843 1273.8126664012671 159.42585778981447 438.1661446839571 3000.2019822895527 47.704139843583107 13.223284155130385 232.78841385990381 279.56626565754414 9.0100965499877947 20.748530417680744 354.47462091222405 19.827330678701401 171.32428653538227 162.63467662036419 150.64358853921294 801.95947706699371 338.86575421690941 104.93373952060938 36.457692369818687 391.84003243595362 38.959640949964523 3.0970194302499294 5.3921400308608991 9.1534516513347608 11.406766850501297 34.124236360192299 7.4325151070952407 7.8142921552062017 122.35192147269845 3.1456909999251357 2.0689298920333377 11.080956321209667 764.86761942505836 188.8560706153512 1.7127249762415884
leaf_count=12253 7207 194 15052 114 13034 3393 905 22137 841 57525 17 453 45792 18925 277 8384 11358 6101 6732 1134 1096 752 2526 182 39 1194 706 8 45 3347 38 2070 2226 1226 726 906 234 144 1979 86 52 3 37 150 121 38 36 1455 15 21 189 12035 3113 21
internal_value=0 0.0456748 0.0874995 0.0949925 0.0509389 0.0528336 0.0829155 0.0847944 0.126043 0.0787014 0.0566864 0.106799 0.0523121 0.0768652 0.030078 0.131215 0.0328843 0.0220462 0.0374095 0.0974422 0.148007 0.128818 0.152237 0.145577 -0.0352076 -0.035516 0.0699786 -0.0933667 0.168099 -0.0453316 -0.09684 -0.0628116 -0.0434856 -0.000163281 0.167764 -0.0317431 0.171316 -0.00727065 -0.104068 0.180792 -0.101902 0.0923514 -0.0269219 -0.0686775 -0.0977224 0.185137 -0.102156 -0.104077 -0.0498142 -0.106918 -0.0488046 -0.105531 -0.109039 -0.108018
internal_weight=0 26417.7 71175.5 58525.3 25476.6 12650.2 42136.5 41692.2 16388.8 38237.6 24251.3 3752.07 23332.5 10306.7 8898.17 15879.4 13025.7 8408.84 6637.34 5273.3 10606.1 3237.54 3454.58 2519.8 509.318 1771.5 717.732 444.377 489.331 496.095 941.024 1225.35 852.021 313.278 918.827 514.535 906.893 375.323 427.935 459.429 921.197 10.2019 29.902 538.743 139.212 16.4426 11.934 910.995 23.7751 373.33 13.1499 887.22 360.18 4.80974
internal_count=268644 120137 148507 112326 106324 36181 85232 83093 27094 79662 90122 6657 89109 31959 29524 22867 57150 29079 21784 9518 13349 5033 3431 3575 4227 7295 1458 2139 445 4188 13813 16202 10809 3452 1013 1624 960 1050 2093 363 13775 76 82 7357 574 46 53 13699 209 5393 210 13490 5183 73
is_linear=0
shrinkage=0.1


Tree=9
num_leaves=61
num_cat=0
split_feature=32 122 130 134 33 105 30 83 136 103 44 124 74 134 114 53 29 29 91 54 53 110 26 0 6 31 130 32 72 110 79 121 74 56 103 57 101 135 71 80 116 32 47 130 105 103 114 31 70 78 120 39 115 33 70 107 96 42 118 127
split_gain=2822.73 1994.57 1564.98 1320 1390.26 1725.15 1093.97 919.302 1508.81 743.349 1346.41 608.963 957.279 596.334 702.367 548.724 845.409 441.039 424.114 408.353 354.002 334.427 294.491 381.028 240.605 232.34 182.561 180.183 181.11 167.07 163.419 153.95 170.184 188.563 153.587 298.946 153.199 149.168 148.58 122.516 202.9 200.993 111.535 158.445 108.71 97.8805 99.5625 90.3352 77.718 76.7108 72.9073 70.0504 66.0415 50.9457 46.0041 1.33655 1.26 1.66392 0.27857 0.0863765
threshold=0.95200940966606151 -1.0236018896102903 1.0000000180025095e-35 1.0000000180025095e-35 0.85717445611953746 -0.91895273327827443 1.0869842171669009 -1.1755162477493284 1.0000000180025095e-35 -0.85826334357261647 1.0309062004089358 -1.4077616930007932 -0.94043317437171925 1.0000000180025095e-35 -0.93146210908889759 1.0545640587806704 1.1297779083251955 1.2192704677581789 -1.1352855563163755 0.97406950592994701 1.0240713357925417 -0.90261179208755482 1.2315285205841067 0.30504210293293005 0.68655803799629223 1.007324278354645 1.0000000180025095e-35 0.81059333682060253 -0.80394989252090443 -0.97678026556968678 -1.1312243938446043 -1.3176323771476743 -0.80699926614761341 1.0033078193664553 -0.83794292807579029 0.88862928748130809 -0.88785365223884571 1.0000000180025095e-35 -0.44802187383174891 -1.2783470749855039 -0.97351083159446705 0.95679870247840892 1.1467707157135012 1.0000000180025095e-35 -0.82901161909103382 -0.73853132128715504 -1.1026453971862791 1.0128391385078432 -0.33443260192871088 -1.1641892194747923 -1.3542388081550596 0.70531421899795543 -0.92981255054473866 0.91486358642578136 -0.2813021838665008 -0.89303120970726002 -1.0404850244522093 0.9099106788635255 -0.89216962456703175 -2.045805692672729
decision_type=2 2 2 2 2 2 2 2 2 2 2 2 2 2 2 2 2 2 2 2 2 2 2 2 2 2 2 2 2 2 2 2 2 2 2 2 2 2 2 2 2 2 2 2 2 2 2 2 2 2 2 2 2 2 2 2 2 2 2 2
left_child=1 2 3 4 6 -6 -1 8 11 30 -11 12 21 14 17 16 18 20 -4 -14 -3 -2 31 37 -18 34 29 51 -29 -25 -5 32 33 -9 38 -36 48 44 -10 40 -13 -41 43 -33 -24 53 -47 -38 -27 -44 -34 -16 -19 -17 -39 -15 58 -58 -57 -28
right_child=7 13 15 9 5 -7 -8 22 25 10 -12 39 19 55 27 45 24 52 -20 -21 -22 -23 23 26 -26 36 59 28 -30 -31 -32 42 50 -35 35 -37 47 54 -40 41 -42 -43 49 -45 -46 46 -48 -49 -50 -51 -52 -53 -54 -55 -56 56 57 -59 -60 -61
leaf_value=0.10114654997225142 0.066572120421375627 0.11612426461853663 -0.068934395172690191 0.15197612660085058 0.10147427458631537 0.048592087812176714 0.04641860267724536 0.052577771277253549 0.13071285805548058 -0.035444900465474632 0.10713278195496706 -0.088180619042976929 0.16568409979960327 0.1974703631200373 -0.11033558813034763 -0.097968186058168275 -0.081267344688419146 -0.074524120880223615 0.15389368520936603 -0.0067588651610657139 -0.11171812861552571 0.18917018456977 0.1386630715307467 0.03807623340448086 0.027886114789968799 -0.087696991978714889 -0.12820953093088244 0.0011032087786600161 -0.078731290298549486 0.115656884753676 -0.078849984404472703 0.028568439206404374 0.050264753625123129 0.16188724502265756 -0.055242332567454158 0.06875506836038002 -0.021632266529339552 -0.087554341193179216 -0.013861319177596577 0.073911043451090605 -0.027768896898385648 -0.068639992932521751 0.10630929142024184 0.35312691453203954 -0.079119043125773433 -0.08510235844134427 0.16700030203303734 0.093556888530819018 0.19541296552990767 -0.050290771053817268 -0.03894572607020521 0.16617922774691987 0.098715760324604482 -0.040787584059192285 0.080000495738808186 0.16922699964348498 0.13535809124072823 0.1704948631289622 0.17988178108526065 -0.12005678382346151
leaf_weight=23113.135231569409 956.45215257629752 627.2478644400835 101.22069266065955 3527.609655097127 8257.0090881623328 24393.845413118601 4338.0098545104265 463.63152043521404 609.78779299557209 716.31404477357864 8788.3355831205845 778.30856421217322 141.03977156430483 15.332807421684263 518.8449723534286 498.20601295679808 462.99235266074538 245.7080919072032 547.07593759149313 5211.5843363963068 76.510491076856852 289.95463145524263 1423.4219387769699 872.15768580138683 358.16336101293564 11.621363103389738 21.007704958319664 630.5378879122436 517.27236774936318 407.17288506776094 30.940433919429779 102.90771543979645 183.50072427839041 239.2483718842268 203.42165695875883 4399.6944872513413 547.77753290534019 39.014765381813049 80.465083241462708 234.84860135614872 1946.0032176561654 170.87698533013463 34.621080324053764 17.616441503167152 23.295688584446907 29.256640180945396 33.721388787031174 77.745005086064339 58.539794161915779 324.17530879378319 182.93714564293623 9.3263401612639409 24.169550560414791 226.72346132993698 28.252578169107437 76.460965558886528 25.290663003921509 28.853575617074966 36.134984612464905 34.072632856667042
leaf_count=37344 4076 1061 846 2879 13188 62827 11395 1341 1086 2003 13112 6736 275 8 5806 3804 3569 1022 1182 33610 764 1013 1690 2726 1813 45 125 2426 4322 853 104 367 533 465 813 10208 2155 138 252 1123 23013 1341 119 30 102 148 56 208 72 1465 803 21 57 1691 59 44 23 17 19 251
internal_value=0 0.0765493 0.0796428 0.082173 0.075911 0.0619654 0.0924981 0.0345493 0.0232423 0.110984 0.0963875 -0.00106626 0.0161641 -0.00584512 -0.0178748 -0.00236497 0.0337374 0.0496755 0.119103 -0.00221505 0.0913539 0.0950924 0.0749685 0.0940508 -0.0336579 0.0627311 0.0550931 -0.0571171 -0.034875 0.0627678 0.149969 0.0398707 0.06098 0.0897849 0.0698715 0.0632754 0.00840064 0.128388 0.113859 -0.0373929 -0.0450279 0.0138737 -0.00722216 0.0760076 0.135156 -0.0696962 0.0498852 -0.00731563 0.148519 -0.0351801 0.00572812 -0.105453 -0.0590092 -0.0800848 -0.0171806 0.169216 0.166618 0.154083 0.172646 -0.123166
internal_weight=0 78254.2 75422.6 73165.2 60102 32650.9 27451.1 20115.2 15718.1 13063.2 9504.65 9729.07 6599.03 2831.69 2649.62 2257.36 1469.45 973.636 648.297 5352.62 703.758 1246.41 4397.03 2848.4 821.156 5989.05 1334.41 1675.98 1147.81 1279.33 3558.55 1548.64 1069.32 702.88 5293.37 4603.12 695.684 1513.98 690.253 3130.04 2724.31 405.726 479.321 120.524 1446.72 787.908 62.978 625.523 70.1612 358.796 366.438 528.171 269.878 724.929 67.2673 182.073 166.74 54.1442 112.596 55.0803
internal_count=268644 171551 155961 142852 124754 76015 48739 97093 86026 18098 15115 71187 38974 15590 15479 13109 7410 2904 2028 33885 1825 5089 11067 5944 5382 14839 3955 12575 6748 3579 2983 5123 3142 1806 12359 11021 2480 1989 1338 32213 29749 2464 1981 397 1792 5699 204 2363 117 1584 1336 5827 1079 5495 197 111 103 40 63 376
is_linear=0
shrinkage=0.1


Tree=10
num_leaves=58
num_cat=0
split_feature=131 129 128 130 110 118 101 56 107 48 3 73 32 103 28 31 0 76 53 54 122 5 102 26 37 26 20 64 27 108 98 63 56 109 54 68 62 109 92 110 88 107 83 29 19 111 102 1 108 31 30 32 115 28 107 88 12
split_gain=2374.1 2322.42 1758.66 1893.12 1198.57 1265.07 757.289 2267.18 662.122 550.059 549.51 469.903 418.103 356.596 301.159 239.576 212.267 272.563 166.134 165.643 152.272 138.401 251.205 251.56 124.917 120.993 120.047 115.348 114.587 130.433 113.963 148.324 103.119 101.702 125.081 203.154 143.208 107.216 99.2103 69.0443 296.054 66.4697 58.6965 51.5907 49.8747 47.4203 39.9905 35.0726 9.38784 30.0111 24.0838 9.21162 8.3983 0.840171 49.0189 0.125293 0.109208
threshold=1.0000000180025095e-35 1.0000000180025095e-35 1.0000000180025095e-35 1.0000000180025095e-35 -1.2103413343429563 -1.5888486504554746 -0.81369116902351368 0.96704623103141796 -0.87695607542991627 1.1370753645896914 0.58091318607330333 -0.75714120268821705 0.96422681212425243 -0.83270749449729908 1.0985118150711062 1.0026330947875979 0.37743566930294042 -1.069055914878845 1.1100006103515627 0.96243083477020275 -1.1160679459571836 0.62960931658744823 -0.87787911295890797 1.3891720175743105 0.99615994095802318 1.2492762207984927 1.6072667837142947 0.46234770119190222 1.3178267478942873 -0.90894067287445057 -0.85960242152214039 0.52596861124038707 0.99021387100219738 -0.91906270384788502 1.0223261117935183 0.035975413396954543 0.57640531659126293 -0.88342559337615956 -1.1657540202140806 -1.040091276168823 -0.98715490102767933 -0.87731644511222828 -1.288529574871063 1.0284758210182192 1.4130056500434878 -0.95122954249382008 -0.98474246263504017 0.4259492307901383 -0.88337913155555714 1.0128391385078432 1.0225808620452883 0.96505784988403331 -0.92375311255455006 1.1073719859123232 -0.86689266562461842 -1.2648170590400694 1.178826689720154
decision_type=2 2 2 2 2 2 2 2 2 2 2 2 2 2 2 2 2 2 2 2 2 2 2 2 2 2 2 2 2 2 2 2 2 2 2 2 2 2 2 2 2 2 2 2 2 2 2 2 2 2 2 2 2 2 2 2 2
left_child=1 2 3 4 24 -6 10 -8 15 20 -5 13 21 -11 -13 19 17 32 -19 28 27 39 25 -24 -1 -23 48 -4 42 -30 31 -18 -14 34 36 -36 -17 41 -39 40 -3 -35 -2 -41 51 -22 52 -32 49 50 -10 -21 56 54 -50 -55 -28
right_child=8 12 9 6 5 -7 7 -9 26 11 -12 14 16 -15 -16 33 30 18 -20 44 45 22 23 -25 -26 -27 46 -29 29 -31 47 -33 -34 37 35 -37 -38 38 -40 43 -42 -43 -44 -45 -46 -47 -48 -49 53 -51 -52 -53 -54 55 -56 -57 -58
leaf_value=-0.10297281055812298 -0.1263343131350026 0.84264325970170306 -0.0094308686073732283 -0.063830570159228037 0.1310977059914806 0.070639803821922156 0.16476488779369058 -0.043140209741405866 0.24185832172376492 -0.071760523697363673 0.030587372224369289 0.066378625103614572 -0.0095846878496583503 0.12780897412955083 -0.036747755873577925 0.060923810360589151 0.035528851393823772 0.18055772474209408 -0.12226450493311575 -0.11197634016018464 0.016033720554278749 0.11607893214201015 0.074563639401795709 0.78940642827784147 0.18863220357133731 -0.10318909873794041 -0.11606743478172794 -0.10072605283743082 0.071107639337639778 -0.10632568709865559 0.15146655775099765 0.19671150619460409 -0.10614565728845721 -0.03093050604818285 -0.076990550792990775 0.13934361063710174 0.24168642979591512 -0.11605667721315538 0.30304522450992766 0.053822757518026544 -0.035784754024668318 0.26228186886539417 0.17767352849007778 -0.090856164928098559 0.13295394255867929 -0.089953125934138928 0.14563790519087913 -0.11859784694783126 0.54397210972935994 0.15642023808309849 -0.094352320102983389 -0.036265745176109976 0.053979839097215071 -0.10595888157930566 -0.10540160497747392 -0.10868984700358784 -0.13889375835943105
leaf_weight=421.74405038356781 7.3023803308606139 4.0436818003654471 1379.4355063214898 1641.7949344813824 3616.0374530255795 80745.35526317358 967.2187371738255 1145.9464283101261 2.176455818116664 103.59724447876215 986.95339597016573 444.87131533771753 303.50529651716352 659.55961776524782 779.10059342905879 533.20571529865265 106.26436642184854 97.201097570359707 22.267097130417824 265.96820182353258 46.240915738046169 29.040304325520992 119.93254012614489 5.1336108669638625 15.22050368785858 188.61811001971364 3.8392878249287588 153.82522644847631 74.854897692799568 92.783258780837059 5.7817308641970149 123.37841509282589 173.9984320923686 358.40431489050388 149.47816766798496 61.173121571540833 47.753088168799877 7.9763649031519916 19.352071635425091 25.218988813459873 74.956860911101103 7.9018772095441809 48.747979894280434 1086.3231574855745 8.9047738015651685 484.78835929185152 26.494753882288933 28.575205594301224 1.1753199547529209 5.3136127628386012 101.13290252909064 17.103687666356564 3.5925985202193251 255.65728601068258 106.14885733649135 489.93752627074718 4.6158585771918297
leaf_count=2089 46 9 7960 13645 3664 154501 2565 8601 15 599 6463 2155 2695 3332 5027 2646 793 377 176 2197 202 151 1310 10 19 2117 35 1531 279 616 40 851 2040 2704 1160 229 71 77 33 236 626 49 123 13176 36 5374 34 238 5 38 1292 118 24 4946 2410 6862 27
internal_value=0 0.0635334 0.0660213 0.0689372 0.0723756 0.0732313 0.00744824 0.0520202 -0.0315301 0.00157794 -0.0283817 0.0391334 -0.0337193 0.100718 0.000735105 0.00643497 0.0220471 -0.0109725 0.124116 -0.0504636 -0.0345738 -0.0650337 -0.00903715 0.103906 -0.0928155 -0.073934 -0.0960999 -0.0185901 0.0142886 -0.027097 0.0967129 0.122126 -0.0447707 0.0311899 0.0518461 -0.0141671 0.075782 -0.0103504 0.180722 -0.0811535 0.00917802 -0.0246054 0.138067 -0.0875736 -0.100071 -0.080724 0.0769498 -0.0731503 -0.103036 -0.0753485 -0.0872692 -0.107402 -0.0741053 -0.106563 -0.0982902 -0.107753 -0.128529
internal_weight=0 95985.9 93591.7 89540.3 84798.4 84361.4 4741.91 2113.17 2700.99 4051.42 2628.75 1987.13 2394.24 763.157 1223.97 1700.91 860.972 596.972 119.468 515.665 2064.29 1533.27 342.725 125.066 436.965 217.658 1000.08 1533.26 223.689 167.638 264 229.643 477.504 1185.24 791.61 210.651 580.959 393.635 27.3284 1190.54 79.0005 366.306 56.0504 1111.54 291.977 531.029 38.5425 34.3569 961.542 108.623 103.309 283.072 12.0477 852.919 107.324 745.595 8.45515
internal_count=268644 242572 217727 191547 160273 158165 31274 11166 26072 26180 20108 11113 24845 3931 7182 10384 7210 5288 553 3415 15067 17635 3588 1320 2108 2268 15688 9491 1064 895 1922 1644 4735 6969 4106 1389 2717 2863 110 14047 635 2753 169 13412 2351 5576 120 278 15568 1345 1307 2315 86 14223 2415 11808 62
is_linear=0
shrinkage=0.1


Tree=11
num_leaves=63
num_cat=0
split_feature=32 134 122 33 106 133 108 30 56 72 41 103 84 136 71 53 114 123 73 122 68 30 29 42 52 53 23 1 108 78 32 55 53 104 32 3 135 31 74 9 0 69 136 109 42 105 42 99 3 74 39 104 34 93 101 39 49 84 23 104 46 2
split_gain=2053.56 1634.42 1592.2 1227.18 1835.35 1425.92 1107.1 1100.01 896.925 797.575 1149.21 1172.79 693.896 872.965 652.203 1104.23 562.048 487.994 712.447 401.141 380.511 370.031 368.713 355.737 307.625 265.396 217.713 241.167 200.9 383.746 223.802 242.507 200.212 159.594 159.499 156.177 155.004 138.474 126.834 167.734 121.354 114.662 106.229 177.052 133.727 105.76 104.18 456.552 404.187 103.498 254.462 103.392 94.3847 59.0979 57.641 57.0302 54.3775 45.7921 32.7135 21.604 9.96427 3.45274
threshold=0.95200940966606151 1.0000000180025095e-35 -1.0236018896102903 0.86801809072494518 -0.95094025135040272 1.0000000180025095e-35 -1.0706682205200193 1.0869842171669009 0.97152331471443187 -0.68822547793388356 0.99020677804946911 -0.84477955102920521 -1.1426732540130613 1.0000000180025095e-35 -0.49088400602340693 1.1022364497184756 -0.93146210908889759 -1.3081365227699278 -0.79077717661857594 -1.3008089065551756 0.11776527762413026 1.0553774833679201 1.2192704677581789 1.0421491265296938 1.0124747753143313 1.0240713357925417 1.2654590010643008 0.35335522890090948 -0.88916003704071034 -1.2399051785469053 0.96343201398849498 1.0222496390342715 1.0738757252693178 -0.82966336607933033 0.81059333682060253 0.72679740190505993 1.0000000180025095e-35 1.0128391385078432 -0.91157692670822132 0.65788760781288158 0.36403098702430731 -0.115385714918375 1.0000000180025095e-35 -0.95033088326454151 1.1132851243019106 -0.85183176398277272 0.99369290471076976 -0.91040724515914906 0.60604009032249462 -0.95874616503715504 1.0146792531013491 -0.85359984636306752 0.89905348420143139 -1.0299642682075498 -0.957991063594818 0.70531421899795543 1.1310811638832095 -0.69924861192703236 1.2617609500885012 -0.84661805629730214 1.0776013135910036 0.55671131610870372
decision_type=2 2 2 2 2 2 2 2 2 2 2 2 2 2 2 2 2 2 2 2 2 2 2 2 2 2 2 2 2 2 2 2 2 2 2 2 2 2 2 2 2 2 2 2 2 2 2 2 2 2 2 2 2 2 2 2 2 2 2 2 2 2
left_child=1 2 3 6 5 -5 20 -8 -6 46 11 24 13 17 45 -16 22 18 23 -20 -1 -13 25 -2 -11 -4 33 36 30 32 31 -15 -30 57 55 -36 41 -32 52 -40 -31 -28 44 -44 -35 -12 47 51 -49 50 -19 -3 -29 -51 -24 -18 -38 58 -14 60 -48 -61
right_child=12 9 16 4 8 -7 7 -9 -10 10 14 21 26 28 15 -17 34 49 19 -21 -22 -23 54 -25 -26 -27 27 38 29 40 37 -33 -34 42 35 -37 56 -39 39 -41 -42 -43 43 -45 -46 -47 59 48 -50 53 -52 -53 -54 -55 -56 -57 -58 -59 -60 61 -62 -63
leaf_value=0.01634587810879241 0.022827339766363596 0.13837188511796469 0.098230971061580477 -0.002738500201788837 0.03746010883642744 0.10514049678293352 0.081959878967277022 0.031437684678945858 -0.016758701580253926 -0.049102378017317226 0.12754155277201187 0.081723641973326697 -0.098631835572017448 0.022657356135508303 0.044855931692070701 0.13711042582609617 -0.10900882237791261 -0.026412342863826873 0.022076860214383653 -0.031438362776643504 -0.11949600226188445 -0.11021965842674852 -0.11744104514881329 0.11523263156109581 0.099635923083174413 -0.10936999830386845 0.12485027471020407 -0.03378595961401034 0.043635076793309593 0.071944319014362129 -0.037182845862770771 0.10675838074184851 0.11272329697987626 -0.0027649335229328214 -0.056017406932568008 0.033154773131768359 0.032491505085313531 0.11898365489214169 0.044123634796057909 -0.084727339025411755 0.22636370342198436 0.065507240037994546 -0.070161074788349209 0.18623665997145863 0.1053615319774901 0.1807733623211403 0.15602596622843981 0.090458713376705691 -0.13296585669085959 -0.048672206604280933 0.21798443802984602 0.047847995376638995 0.16023370358788058 -0.11093091107181684 -0.022761245245416978 0.13536430249731365 -0.13989650948700486 0.14766177279582782 0.018800627444799163 0.18682351374949846 0.12672664795742777 0.15385011383173941
leaf_weight=482.04420964419842 796.15642488747835 2845.1711960881948 627.44910876452923 1517.3411938622594 16763.900789223611 6364.6838583350182 28450.639067452401 5078.8934451118112 3729.9691184908152 164.36240400373936 739.71667948365211 117.33101931214333 132.61759589612484 1381.9678094536066 3416.8050867319107 2091.6873669028282 485.9584828838706 2036.2085591927171 2964.6601895913482 2655.1508500352502 360.35552160441875 697.5296409279108 105.70842174068093 873.92930153757334 902.96319977939129 68.280526343733072 1203.13624599576 30.897778540849686 3028.1374155580997 71.486144408583641 631.35057151317596 455.9967678040266 486.89591631293297 177.79686533659697 885.63862490281463 252.37724375352263 45.1711136251688 62.390488564968109 823.83972904831171 115.14999888837337 176.65460185706615 446.40382828563452 146.29047329723835 33.009249180555344 320.68834755569696 753.33628082275391 504.68030849099159 241.82051481306553 121.72766855359077 772.46236838400364 43.512608338147402 132.02554346621037 133.00676852464676 189.95903945714235 164.15243845432997 9.741317790001629 30.757373377680779 9.5560719370841962 28.88957866281271 242.60160408914089 150.74238151311874 36.539875909686089
leaf_count=1155 3162 2281 1061 3904 48302 8498 47388 13374 13424 451 772 185 597 3532 6673 1976 5806 23347 15979 18727 1818 2490 513 2720 1216 764 1308 171 7468 142 2202 821 786 701 5498 1250 108 131 2307 497 111 1002 575 42 901 575 318 313 413 7378 292 244 164 1695 566 21 123 14 90 141 133 28
internal_value=0 0.0620536 0.0555788 0.0587558 0.0433642 0.0843731 0.0714623 0.074307 0.0275921 0.0942073 0.0771284 0.00775918 0.0263748 0.017681 0.0957766 0.0798869 -0.0211143 -0.000204185 0.0138351 -0.00320708 -0.0417636 -0.0825819 0.039371 0.0711816 0.076731 0.0778565 0.0656846 0.0790147 0.0470366 0.0616896 0.0252562 0.0435227 0.053205 0.021269 -0.0568635 -0.0362417 0.10236 -0.0231383 0.0424907 0.0283224 0.181877 0.108791 0.0430524 -0.022958 0.0667956 0.1544 0.129696 0.121439 0.015649 -0.0338465 -0.021299 0.134358 0.123659 -0.0609606 -0.0598487 -0.104206 -0.03734 -0.0650409 -0.0776261 0.15921 0.149287 0.182507
internal_weight=0 78506.2 65347.1 62747.8 28375.9 7882.03 34371.9 33529.5 20493.9 13159 8883.73 1882.19 20304.1 16626.9 7001.55 5508.49 2599.31 10332 7289.9 5619.81 842.4 814.861 965.59 1670.09 1067.33 695.73 3677.21 2828.36 6294.88 3763.17 2531.71 1837.96 3515.03 848.848 1633.72 1138.02 1725.47 693.741 1102.89 938.99 248.141 1649.54 677.785 179.3 498.485 1493.05 4275.31 3340.74 363.548 3042.14 2079.72 2977.2 163.905 962.421 269.861 495.7 75.9285 171.063 161.507 934.564 655.423 279.141
internal_count=268644 171551 153342 137863 74128 12402 63735 60762 61726 18209 14338 4342 97093 88493 9996 8649 15479 73300 40588 34706 2973 2675 2904 5882 1667 1825 8600 5680 15193 8507 6686 4353 8254 2920 12575 6748 2541 2333 3139 2804 253 2310 2219 617 1602 1347 3871 3251 726 32712 23639 2525 335 9073 1079 5827 231 701 687 620 451 169
is_linear=0
shrinkage=0.1


Tree=12
num_leaves=59
num_cat=0
split_feature=106 134 131 30 16 105 105 56 80 55 72 102 34 52 122 0 71 88 29 56 103 97 55 43 133 102 133 101 57 79 82 104 1 35 15 105 20 114 124 71 104 96 74 34 31 108 103 108 84 42 81 56 31 107 33 87 124 108
split_gain=1785.2 1383.27 1249.9 1154.94 1804.95 1428.15 1023.68 1114.68 936.737 813.579 869.405 945.397 628.342 626.818 623.932 924.515 519.675 470.57 451.48 317.543 349.79 314.478 593.361 394.753 304.963 253.98 246.551 209.887 205.217 187.886 161.652 92.4731 84.0178 77.3725 209.926 122.514 74.5778 73.238 66.0669 65.4748 55.4117 73.9189 41.2262 27.1838 27.157 73.267 17.8949 14.8268 59.3118 8.12769 8.01886 6.42341 50.1047 2.63367 0.380739 0.185097 0.166032 0.00316684
threshold=-0.86688020825386036 1.0000000180025095e-35 1.0000000180025095e-35 1.0764768719673159 1.1704235076904299 -0.94408199191093434 -0.82901161909103382 0.97152331471443187 -1.3932359814643858 1.0861378312110903 -0.62870237231254567 -0.80881762504577626 0.82314541935920726 1.1326722502708437 -1.0577079653739927 0.57011273503303539 -0.42891298234462732 -0.79867628216743458 1.211324214935303 0.99974384903907787 -0.78367662429809559 -0.94066125154495228 0.99700391292572033 1.0156383514404299 1.0000000180025095e-35 -0.72577399015426625 1.0000000180025095e-35 -0.92500984668731678 0.80427154898643505 -1.1685594916343687 -1.1583011746406553 -0.95858508348464955 0.27852976322174078 0.89976587891578685 0.99014300107955944 -0.81403338909149159 1.6072667837142947 -1.1977630853652952 -1.2813526988029478 -0.45867815613746638 -0.91891929507255543 -1.0259389281272886 -1.0070167183876035 0.91846159100532543 1.0128391385078432 -0.88746288418769825 -0.95896491408348072 -0.83857649564743031 -1.3954512476921079 1.1378321647644045 -1.2467183470726011 0.98490062355995189 1.0043532252311709 -0.86822691559791554 0.92049244046211254 -1.1592981815338133 -1.2786234021186826 -0.88337913155555714
decision_type=2 2 2 2 2 2 2 2 2 2 2 2 2 2 2 2 2 2 2 2 2 2 2 2 2 2 2 2 2 2 2 2 2 2 2 2 2 2 2 2 2 2 2 2 2 2 2 2 2 2 2 2 2 2 2 2 2 2
left_child=1 3 8 4 6 24 7 -1 33 10 11 -10 -12 -8 15 -7 21 18 -6 20 29 40 23 -23 31 32 30 -16 -26 -18 -11 -5 -21 47 38 -36 44 -19 -35 -24 41 -3 -42 -22 51 -46 50 48 -2 -27 55 53 -53 -4 -28 -38 -49 -47
right_child=2 16 36 5 17 14 13 -9 9 26 12 -13 -14 -15 27 -17 19 37 -20 25 43 22 39 -25 28 49 54 -29 -30 -31 -32 -33 -34 34 35 -37 46 -39 -40 -41 42 -43 -44 -45 45 57 -48 56 -50 -51 -52 52 -54 -55 -56 -57 -58 -59
leaf_value=0.051657577509008505 0.23775023003264653 0.15886957133660939 -0.091783344017778629 -0.098308483901850097 0.10125892690055077 0.0061038544629578272 0.14842130667126627 0.0038325123744217811 0.041569371459764783 -0.12882295330816404 -0.12834492996095176 0.1312405048695387 0.017889678175817072 0.06852429005671716 -0.01886802041767642 0.07518011529124663 -0.1022295645946143 -0.1105073294636606 0.014745807387981993 0.13776660719534162 -0.19386516637502488 -0.040323227813336526 0.14385638783814633 0.073858319204447215 0.11117959077028872 -0.17965725426059859 -0.18539127160974542 -0.11675870590058433 0.0057772352263708538 0.042836601605194119 0.12516299609193132 0.02995176035010709 -0.058699231346729254 -0.034580847700469319 -0.039950925989691105 0.39899136649055755 -0.11235221054155405 0.070275205022955256 -0.10613950142995446 0.10941753506255536 0.14060273968931022 -0.17801404242343022 0.11611142058957365 -0.080837146308894339 0.21513857156607488 -0.11036223984229024 0.13414249395714925 -0.11873240251181538 -0.11840076565806899 -0.042899743465048518 0.08523058040272341 -0.11024194971056281 0.27821217357121264 -0.1062061163278739 -0.15460216858025869 -0.15222277088673217 -0.10738562822684337 -0.10602708064563393
leaf_weight=21555.936648257077 6.2869481779634979 12.500110030174257 161.46786819398403 82.55609542503953 10864.084456969053 6684.2914411462843 1343.0738475397229 6297.1980582885444 10426.616157706827 25.582223393023014 300.31956807151437 1325.1622089222074 13596.855369951576 3651.7446618452668 2661.0784705653787 2728.4607651606202 103.8325229883194 128.00576686859131 638.6800748705864 366.92295064032078 85.541422545909882 331.50768376886845 1258.7230200469494 3494.5435633808374 2363.3155795782804 28.835737854242325 23.145471110939983 238.67499766498804 200.38121555745602 637.09216311573982 1224.9209917113185 176.15789775550365 23.139643639326096 459.25060210749507 10.3183004334569 16.570359203964472 2.6645400971174267 27.1645717471838 179.4291653521359 983.30205775797367 1547.6487410217524 13.599025070667265 1236.3715071827173 28.32382844388485 10.136018060147761 1.8265936002135266 17.349970959126949 13.477777518332003 18.248505543917418 5.1169017851352683 2.7383130043745041 22.489829231053594 3.8956271298229685 586.44931252300739 4.8596409410238257 2.0681402310729027 298.61095878481865 21.747460212558511
leaf_count=46122 25 7 2014 427 15304 21126 1109 17548 32762 217 1051 2079 57949 5636 9821 5267 410 408 1511 335 345 842 1006 5780 3153 117 94 1036 445 1290 1460 500 63 5970 137 133 33 42 3529 1141 1068 59 1203 90 35 22 24 119 179 14 5 297 25 11557 22 14 5247 420
internal_value=0 0.0580124 0.0284078 0.0522029 0.0603179 0.0283397 0.0483207 0.040845 0.0320075 0.0355406 0.0316598 0.0516809 0.0147295 0.0900081 0.0136324 0.0261269 0.0921256 0.0941219 0.0964554 0.032526 -0.00257023 0.10071 0.0879026 0.0639651 0.0924991 0.103278 0.113395 -0.0269253 0.102941 0.0225072 0.119967 -0.0109763 0.126112 -0.0629213 -0.043161 0.230551 -0.0923117 -0.078859 -0.0546844 0.128752 0.128367 -0.0166645 0.129726 -0.16575 -0.0975564 -0.00969319 0.0784245 -0.101991 -0.0271409 -0.159047 -0.0509701 -0.101382 -0.0528894 -0.103092 -0.180049 -0.129775 -0.107876 -0.106363
internal_weight=0 69797.8 28762.5 59640.8 44505.9 15134.9 32848 27853.1 27929.7 26927.5 25649 11751.8 13897.2 4994.82 12312.5 9412.75 10157 11657.9 11502.8 1278.81 854.79 8878.2 6068.08 3826.05 2822.41 424.015 1278.51 2899.75 2563.7 740.925 1250.5 258.714 390.063 1002.19 665.568 26.8887 832.834 155.17 638.68 2242.03 2810.12 26.0991 2784.02 113.865 808.013 33.7101 24.821 336.624 24.5355 33.9526 7.47099 774.303 26.3855 747.917 28.0051 4.73268 312.089 23.5741
internal_count=268644 143225 125419 129455 87680 41775 70415 63670 110973 95634 93841 34841 59000 6745 37250 26393 13770 17265 16815 2664 2135 11106 8769 6622 4525 529 1793 10857 3598 1700 1677 927 398 15339 9769 270 14446 450 9499 2147 2337 66 2271 435 14370 477 76 5570 204 131 52 13893 322 13571 116 47 5366 442
is_linear=0
shrinkage=0.1


Tree=13
num_leaves=57
num_cat=0
split_feature=131 129 31 128 103 30 118 47 107 32 72 3 121 31 31 39 105 91 54 54 47 76 123 5 99 31 25 19 95 20 71 34 107 31 11 94 17 110 77 29 12 83 79 25 105 108 31 30 32 28 107 107 106 108 119 2
split_gain=1504.73 1551.23 1213.68 1088.84 1017.55 1449.29 1059.85 519.885 517.29 371.634 266.577 261.952 254.684 205.627 179.126 176.638 353.202 162.961 140.97 132.42 123.493 121.09 135.752 116.289 209.227 134.945 103.742 141.084 102.25 87.4311 85.9648 166.482 98.1018 83.3868 82.6791 63.5627 62.9472 58.452 161.113 44.2814 37.4334 30.8475 22.7483 16.6803 11.9782 10.1695 21.6456 19.214 9.14355 0.91273 30.3965 0.237927 0.164894 0.073114 0.0512518 0.0229404
threshold=1.0000000180025095e-35 1.0000000180025095e-35 1.0055273175239565 1.0000000180025095e-35 -0.83975288271903981 1.0732998847961428 -1.5888486504554746 1.1237682700157168 -0.87695607542991627 0.96422681212425243 -0.56898871064186085 0.67247995734214794 -1.3520055413246153 1.0026330947875979 1.009681284427643 0.99383476376533519 -0.80612036585807789 -0.98296126723289479 0.96243083477020275 1.0625461339950564 1.1900696158409121 -1.0920366048812864 -1.1031752228736875 0.62960931658744823 -0.93083152174949635 1.0086243748664858 1.4810341000556948 1.4272770881652834 -0.95022395253181446 1.6072667837142947 -0.62233179807662953 0.82009276747703563 -0.89253985881805409 0.98149055242538463 0.96565175056457531 -0.87057942152023304 1.0718175172805788 -1.0305142402648924 -1.0379334092140196 1.0284758210182192 0.96379125118255626 -1.2686665654182432 -1.0607866644859312 1.2974733114242556 -0.89028906822204579 -0.88337913155555714 1.0128391385078432 1.0225808620452883 0.96505784988403331 1.1073719859123232 -0.86689266562461842 -0.82268601655960072 -0.86444115638732899 -0.90894067287445057 -0.93487057089805592 0.57409176230430614
decision_type=2 2 2 2 2 2 2 2 2 2 2 2 2 2 2 2 2 2 2 2 2 2 2 2 2 2 2 2 2 2 2 2 2 2 2 2 2 2 2 2 2 2 2 2 2 2 2 2 2 2 2 2 2 2 2 2
left_child=1 2 3 4 5 -1 -6 33 13 23 -9 12 35 18 -14 16 28 19 26 -17 -19 22 -13 37 43 -26 27 -2 -11 45 34 -32 -33 -5 54 -4 -18 38 -3 -39 48 51 -23 -25 -43 46 47 -10 -20 50 -47 -31 -51 -28 -15 -53
right_child=8 9 11 7 6 -7 -8 10 29 15 -12 21 14 30 -16 17 36 20 40 -21 -22 42 -24 24 25 -27 53 -29 -30 41 31 32 -34 -35 -36 -37 -38 39 -40 -41 -42 44 -44 -45 -46 49 -48 -49 -50 52 -52 55 -54 -55 -56 -57
leaf_value=0.077925639811961517 -0.023724494960709937 0.40468067401434943 0.17621043934105651 -0.016258309505403801 0.09280610352607975 0.040304901525492265 0.036933332339949582 0.054566894299953018 0.18849637614917497 0.0025545284399317706 -0.011344279088901087 0.15858819899563839 0.0051537432508443528 -0.12062526285063176 -0.037051841926870922 0.0067466777002714272 0.26897785790189838 0.17458510101723379 -0.11117379674780176 -0.09671659793741029 -0.091518205672575556 -0.18745754680140583 -0.082131776299850939 -0.019906316704160581 0.0076300849039459898 0.20031689929280688 -0.12777104453482777 0.16146759840282343 0.20659099139979939 -0.15469614485130873 0.29560828997453431 0.043142008857590092 -0.021046995068938264 -0.074114660097070725 0.2951258317559588 0.06060608161382576 0.62076617448942151 0.041146518030984396 -0.045975924718033793 -0.089656692786710665 0.087517755824546087 0.013070460209829257 0.033135363405682725 -0.11101738379539841 0.1456344101642161 0.31580151549451346 0.11642442248520318 -0.09066369841416505 -0.034803650391758721 -0.10947661775106853 -0.10444597833233321 -0.12380919712014525 -0.10577841036378133 -0.12000553522269175 -0.11459663764544502 -0.10980160136427074
leaf_weight=28269.421186048537 118.4774321988225 8.7537360116839391 55.035866737365723 357.63523336872458 3750.8086416274309 16055.908676333725 35793.698566131294 1330.3922447040677 2.5368071347475043 97.600805208086967 1138.9585111513734 191.42474786192179 3797.8623213879764 41.017778217792511 1367.73141092062 452.46497872471809 8.1206242702901381 78.481828600168228 257.45876274630427 170.24836204200983 22.422508753836155 14.929597243666651 26.694215334951878 23.568356409668922 139.11771612986922 49.199279349297285 22.246785596013069 63.0177206620574 32.820447102189064 2.5622544065117827 23.011331401765347 795.06721498817205 339.88198346272111 820.94639270752668 5.236076906323432 350.20046177506447 13.613212730735539 26.558854576200247 84.613219916820526 1014.3830872811377 10.316057249903677 10.429172173142435 6.8059374392032614 136.29953321814537 19.675362274050713 1.7581260874867428 5.8029150217771521 87.754103042185307 16.693686846643686 161.84323270246387 81.793142383918166 2.3311854116618633 472.71589112468064 26.64686157554388 21.489838927984238 2.3455015234649181
leaf_count=44883 577 20 51 2142 5298 34542 87907 7324 15 795 7000 172 14466 300 6291 3720 76 214 2198 2079 158 62 141 354 1260 354 139 148 133 14 27 3827 2610 6830 4 604 35 234 705 13088 35 34 14 1620 18 5 38 1292 118 2197 2410 20 9611 200 201 34
internal_value=0 0.0466059 0.0486299 0.0515683 0.0538945 0.0642983 0.0422329 -0.00191451 -0.0306099 -0.0334923 0.0241662 0.00437307 -3.25963e-05 0.000636522 -0.00602133 0.0181567 0.116096 -0.00243708 -0.0523963 -0.0215399 0.115453 0.106698 0.129128 -0.0640036 -0.0134522 0.057971 0.00574784 0.0405769 0.0539002 -0.0944775 0.022913 0.0293185 0.0239194 -0.0565584 -0.0865784 0.0763065 0.489324 -0.0795208 -0.00372405 -0.0863193 -0.0994867 0.0551419 -0.118384 -0.0975854 0.09971 -0.10134 -0.0707884 -0.0828204 -0.106523 -0.105428 -0.0956029 -0.130203 -0.106722 -0.123539 -0.118553 -0.116784
internal_weight=0 95686.7 93328.5 87517.8 83869.8 44325.3 39544.5 3647.93 2592.11 2358.27 2469.35 5810.68 5570.83 1740.56 5165.59 875.773 152.155 723.618 514.857 622.713 100.904 239.854 218.119 1482.49 348.185 188.317 230.389 181.495 130.421 851.548 1225.7 1157.96 1134.95 1178.58 67.7437 405.236 21.7338 1134.31 93.367 1040.94 284.469 37.3435 21.7355 159.868 30.1045 814.204 96.0938 90.2909 274.152 718.11 83.5513 7.23894 634.559 48.8936 62.5076 4.67669
internal_count=268644 242572 217727 195926 172630 79425 93205 23296 26072 24845 14324 21801 21412 10384 20757 7210 1039 6171 3415 5799 372 389 313 17635 3588 1614 1064 725 928 15688 6969 6464 6437 8972 505 655 111 14047 725 13322 2351 120 76 1974 52 15568 1345 1307 2316 14223 2415 68 11808 339 501 54
is_linear=0
shrinkage=0.1


Tree=14
num_leaves=55
num_cat=0
split_feature=81 31 29 72 30 118 109 104 132 130 76 105 134 4 77 70 101 112 118 98 0 41 95 32 28 0 57 40 101 2 129 100 69 23 32 107 74 32 94 13 33 24 125 89 75 30 134 83 105 32 32 106 131 81
split_gain=1335.05 1265.77 965.584 1319.57 1286.34 946.712 1465.14 986.445 743.482 609.668 558.399 471.622 923.099 685.998 455.372 441.672 342.564 293.277 256.89 217.678 272.505 270.302 199.95 170.226 166.857 173.99 146.463 484.689 141.704 113.169 103.22 114.216 150.923 97.7158 83.7218 79.4049 64.7546 54.6846 52.9249 29.3104 29.1964 113.78 90.1772 21.6609 66.8085 11.0996 7.94715 4.51141 25.0458 4.41096 15.5409 1.3391 0.030526 0.0129843
threshold=-1.3808069825172422 0.99887326359748851 1.2224771380424502 -0.62471958994865406 1.0528374314308169 -1.5835304260253904 -1.1386987566947935 -0.87945479154586781 1.0000000180025095e-35 1.0000000180025095e-35 -0.84803178906440724 -0.85006943345069874 1.0000000180025095e-35 0.62120839953422557 -0.97110718488693226 -0.33200047910213465 -0.86905112862586964 -0.98592847585678089 -0.89216962456703175 -0.83614760637283314 0.349563017487526 1.0551385283470156 -0.92407095432281483 0.96110618114471447 1.3769595026969912 0.66930776834487926 0.90750235319137584 0.99591687321662914 -0.86410090327262867 0.68844869732856762 1.0000000180025095e-35 -0.81320458650588978 -0.061878776177763932 1.62895804643631 0.96443673968315136 -0.8317599594593047 -0.950059413909912 0.96572580933570873 -1.1113718748092649 0.86727103590965282 0.9520678222179414 1.207494914531708 -1.568159222602844 -1.292420446872711 -1.1238237023353574 1.0475962758064272 1.0000000180025095e-35 -1.374812066555023 -0.83957502245903004 0.95782783627510082 0.95799872279167186 -0.84447538852691639 1.0000000180025095e-35 -1.3957846164703367
decision_type=2 2 2 2 2 2 2 2 2 2 2 2 2 2 2 2 2 2 2 2 2 2 2 2 2 2 2 2 2 2 2 2 2 2 2 2 2 2 2 2 2 2 2 2 2 2 2 2 2 2 2 2 2 2
left_child=18 2 3 4 10 6 -5 -7 -6 11 -2 12 14 15 -3 -13 -14 22 23 26 34 -22 29 30 25 -19 27 -11 -15 -4 31 35 -33 -24 -21 -1 -26 -28 -32 -40 43 53 -43 44 -25 -45 47 49 52 51 -51 -20 -49 -42
right_child=1 9 17 5 8 7 -8 -9 -10 19 -12 13 16 28 -16 -17 -18 24 46 20 21 -23 33 40 36 -27 37 -29 -30 -31 38 32 -34 -35 -36 -37 -38 -39 39 -41 41 42 -44 45 -46 -47 -48 48 -50 50 -52 -53 -54 -55
leaf_value=0.024199798942438594 0.10233825401595471 0.012768226326778438 -0.0028244868209330652 -0.075044708598238086 0.056833571805881944 0.069575684876896568 0.10235005173429229 0.022508847118684026 -0.038250142781568179 -0.062001144710696038 -0.090042217469427588 0.11645513661009116 0.11162117278880396 -0.037136063751499061 0.07797339114230728 0.011454658438057012 0.054860070904875373 -0.048807952093136833 -0.12187964233236313 -0.1169832402660072 -0.13214649318330651 0.33243607433928113 0.043684772696928269 -0.047797997726559939 -0.11678585492244611 0.063166841618567518 -0.11416666304809718 0.097520201089405859 -0.14263959433721923 0.11895823241799333 0.62673326365181592 0.24096914912216383 0.028643100532450325 -0.14651104753568089 0.033496108613961122 -0.033434672901551464 0.11638533164691496 -0.042173067339751846 -0.10688554581242614 0.011405499146057922 -0.10850712328230261 0.69592069786789734 0.045552438735150608 -0.07082816731718565 0.52276713837543765 -0.11143789779747955 0.097427389342672074 -0.12225629879466626 0.29449237659338146 0.15819563795202815 -0.10613215088050128 -0.10698096029183467 -0.10854624648276096 -0.11400058988115642
leaf_weight=499.02464822679758 8234.7143954448402 8383.0328204575926 112.13799931481481 530.16179263591766 24552.471408659592 5416.416941087693 3822.2660050988197 25031.912043303251 850.85139462351799 842.62725164741278 153.69274650141597 420.55841554701328 1677.6702190935612 211.70996122621 1227.9124285653234 8444.0823014825583 2903.2916165888309 728.0497185215354 73.498634450137615 52.577691555023193 16.399745061993599 52.98341827839613 44.196798488497734 12.932497374713419 340.2875755764544 171.44319042935967 338.19344743341208 246.09809119254351 319.31745379790664 238.79896936565638 1.051017228513955 45.654982950538397 125.50649020448327 69.473505310714245 124.57496057450771 458.8469487093389 12.342240035533903 153.34500415250659 115.95099276676774 25.565273575484753 7.4645394980907467 3.8001276254653931 4.8566292412579042 386.64670576527715 2.4392887353897086 81.490587241947651 1.9237848818302143 5.2060763090848923 1.8277352750301341 2.7996220588684073 10.823491014540194 336.65601013787091 2.3603173121809959 10.157086268067362
leaf_count=2132 13779 29712 360 2312 47179 8236 4102 67433 2064 6432 1613 1256 1668 1261 1770 33835 5216 2792 756 326 93 78 97 255 1683 513 2780 1217 1740 352 9 171 795 292 702 5627 17 1206 2081 356 109 4 44 5362 20 1360 2 47 7 26 247 6979 41 98
internal_value=0 0.0420173 0.0489309 0.0507849 0.0648605 0.0371174 0.0807419 0.0308815 0.0536489 0.0228909 0.0988135 0.0272012 0.0387065 0.00982271 0.021099 0.0164361 0.0756475 -0.0251449 -0.0364858 -0.032764 0.054631 0.222625 0.042708 -0.0196608 -0.0503221 -0.0274656 -0.0463984 -0.0259426 -0.100577 0.0800439 -8.80442e-05 0.0100362 0.0852782 -0.0725599 -0.0111651 -0.0034087 -0.108625 -0.0917069 -0.0802652 -0.085516 -0.0684827 0.0341706 0.33105 -0.0740619 0.0427428 -0.0778973 -0.105371 -0.106272 -0.0377284 -0.107791 -0.0518114 -0.109651 -0.117979 -0.111674
internal_weight=0 95723.6 70309.2 68592.5 33791.7 34800.8 4352.43 30448.3 25403.3 25414.4 8388.41 23587.6 14191.9 9395.67 9610.95 8864.64 4580.96 1716.73 2216.48 1826.8 246.536 69.3832 464.607 1781.39 1252.12 899.493 1580.26 1088.73 531.027 350.937 1271.6 1129.03 171.161 113.67 177.153 957.872 352.63 491.538 142.567 141.516 509.787 26.2784 8.65676 483.509 15.3718 468.137 435.096 433.172 9.39413 423.778 13.6231 410.155 7.56639 17.6216
internal_count=268644 242116 152824 146718 64635 82083 6414 75669 49243 89292 15392 76458 38366 38092 31482 35091 6884 6106 26528 12834 1199 171 1101 18423 5005 3305 11635 7649 3001 712 11171 8725 966 389 1028 7759 1700 3986 2446 2437 7252 255 48 6997 275 6722 8105 8103 95 8008 273 7735 88 207
is_linear=0
shrinkage=0.1


Tree=15
num_leaves=60
num_cat=0
split_feature=131 129 130 128 72 30 84 104 55 43 107 55 28 58 117 32 31 72 1 126 32 32 54 82 16 26 119 32 25 20 118 126 55 72 22 55 66 101 20 49 91 120 76 20 5 32 103 108 31 73 30 114 32 31 28 28 99 106 108
split_gain=1162.56 1174.95 1010.47 907.933 863.719 1863.38 897.126 579.664 1134.95 603 463.225 447.954 588.392 427.134 376.979 322.135 183.974 172.318 143.937 178.705 156.839 141.975 122.277 108.052 102.532 203.457 158.448 119.486 84.749 103.096 82.5589 121.183 82.1063 167.148 222.642 146.791 88.0818 76.2695 70.2001 59.9884 45.0136 39.5565 149.541 31.777 26.4107 15.4495 14.0706 10.3187 19.3134 24.1472 15.8302 9.75592 9.06071 2.63719 0.963303 24.6486 0.202064 0.155205 0.0418264
threshold=1.0000000180025095e-35 1.0000000180025095e-35 1.0000000180025095e-35 1.0000000180025095e-35 -0.6457540988922118 1.0725614428520205 -1.1426732540130613 -0.80234310030937184 1.0125482082366946 1.0966039299964907 -0.87695607542991627 0.99651727080345165 1.1732641458511355 0.84393376111984264 -1.1037858724594114 0.96422681212425243 1.0026330947875979 -0.56898871064186085 0.42340044677257543 -1.7584780454635618 0.96673795580863964 0.96505784988403331 0.96243083477020275 -1.3486691713333128 1.0481608510017397 1.2370876073837282 -0.95118761062622059 0.95850011706352245 1.4810341000556948 1.4631387591362002 -1.0561120510101316 -1.621425926685333 0.9925084412097932 -0.63346365094184864 1.3189498186111452 1.024923622608185 0.26982787251472479 -0.85548174381256092 1.6072667837142947 1.1512906551361086 -1.0362010002136228 -1.3542388081550596 -0.90685671567916859 1.4401405453681948 0.76713564991951 0.96287420392036449 -0.95896491408348072 -0.88337913155555714 1.009681284427643 -0.83890041708946217 1.0225808620452883 -0.9774484634399413 0.96505784988403331 0.99629220366477977 1.1073719859123232 1.1060853004455569 -0.96741208434104908 -0.86444115638732899 -0.90894067287445057
decision_type=2 2 2 2 2 2 2 2 2 2 2 2 2 2 2 2 2 2 2 2 2 2 2 2 2 2 2 2 2 2 2 2 2 2 2 2 2 2 2 2 2 2 2 2 2 2 2 2 2 2 2 2 2 2 2 2 2 2 2
left_child=1 2 3 4 5 -1 -6 11 9 -9 16 12 -4 23 -10 24 22 -15 19 20 -17 -13 28 -5 41 26 -26 -27 29 -2 40 -32 33 34 -18 36 -34 -35 47 -37 -20 42 -3 52 56 -43 51 48 50 -50 -12 -46 -24 -21 55 -49 -40 -56 -30
right_child=10 15 7 13 6 -7 -8 8 14 -11 38 21 -14 17 -16 18 32 -19 30 53 -22 -23 43 -25 25 27 -28 -29 58 -31 31 -33 35 37 -36 39 -38 -39 44 -41 -42 45 -44 -45 46 -47 -48 54 49 -51 -52 -53 -54 -55 57 -57 -58 -59 -60
leaf_value=0.07637232723592681 -0.020793646716392333 0.2487512036271356 0.061814519993779883 -0.10017026641586307 0.011788920912450521 0.03156770841852926 0.043697074946668857 0.074338974436688021 0.05269755958531417 0.26893084113422089 0.13637421877939337 -0.10475402861247203 -0.04050759275307262 0.038203096776447745 -0.092419126708483748 -0.07773843717546243 -0.10817773283064205 -0.011793616665863592 -0.12209312175942391 -0.076791832279661146 0.055470064276276557 -0.0079766850731587107 -0.10984941449974546 -0.034203485203469421 0.30417693646450539 -0.068230501797676008 0.0047017791148428953 0.07461850084088717 -0.12488944348422822 0.13780281460272434 0.149092795907698 0.0078981063773096022 -0.11958311238946362 -0.1256948948059369 0.032036906298029376 0.34519577414797725 0.095660060174011075 0.13209264024519871 -0.11823212802938965 0.042312153123241443 0.13677495316942578 -0.1020997281350067 -0.11433499214768623 0.069214493248478379 -0.14489548789657927 -0.061390983860760501 0.12820653878615518 -0.10423095645905514 0.22781335169624681 -0.052889520986229947 -0.097563024749975621 0.069047496265504604 -0.033309136548162414 -0.11281235757472029 -0.10904715499334489 0.24485351914325282 -0.15281094029877196 -0.1053494184278439 -0.11880780333728472
leaf_weight=20363.794071264565 127.31963618844748 16.138490691781044 867.03429431840777 341.29026222415268 11853.056787617505 17057.534675188363 34338.848446696997 496.4161596223712 287.48447269201279 234.45753072202206 3.0084692835807791 758.22886025160551 1597.34848594293 1694.2621198482811 474.43467906489968 122.045724760741 133.17361635714769 1162.2691154740751 29.917149275541306 24.183035869151354 320.49409240484238 189.46657422930002 245.3398922495544 911.3363883793354 29.025763854384422 559.46955832093954 45.146157458424568 65.399779964238405 20.459208913147449 60.448070555925369 153.10895557329059 100.80846597254276 120.99173463135958 12.285417057573794 756.78455162793398 11.231578305363655 22.556363016366959 174.40601500496268 3.2992173135280609 15.651324436068535 8.6620329767465574 551.29563278891146 38.176527597010136 10.902829550206659 3.7571872659027585 112.20032224804163 20.63667694106698 68.895899189636111 4.5668112710118285 9.3164749369025213 75.10467516630888 4.9258421529084453 16.506716907024384 127.42286464944482 153.5950675830245 2.0838805660605422 3.4645365066826335 434.93779113888741 25.28415185958147
leaf_count=30154 601 42 4570 3713 32369 36146 61604 2775 1178 349 15 6311 10385 11034 4389 1253 1084 7167 210 349 2292 1317 2197 4266 134 6294 467 568 139 124 746 936 1000 87 4141 13 99 480 30 65 29 8190 385 36 25 1555 23 2402 48 117 1165 23 118 1395 2197 13 19 9611 200
internal_value=0 0.0381778 0.0399322 0.0424019 0.0446573 0.0559493 0.0355093 -0.00423853 0.0477352 0.136762 -0.0303627 -0.0269772 -0.004508 -0.0034896 -0.0376642 -0.0323697 -0.00174615 0.0178604 0.0149034 -0.0133667 0.0187332 -0.085406 -0.0525861 -0.0521768 -0.0619523 -0.0346927 0.121896 -0.0532797 0.000528373 0.0302633 0.0723281 0.0930367 0.0188927 0.0291015 0.0110551 -0.045599 -0.085761 0.115129 -0.0940689 0.168856 -0.0639705 -0.0884992 -0.00645206 -0.0980594 0.0421795 -0.0952157 0.0832708 -0.100611 -0.0692367 0.0394458 -0.0885531 -0.0235266 -0.105024 -0.107067 -0.104987 -0.0939823 -0.135944 -0.106314 -0.121528
internal_weight=0 94930.8 92627.3 87722.4 83613.2 37421.3 46191.9 4904.87 1492.79 730.874 2540.93 3412.08 2464.38 4109.16 761.919 2303.49 1753.34 2856.53 886.642 594.146 442.54 947.695 506.261 1252.63 1416.85 699.041 74.1719 624.869 233.511 187.768 292.497 253.917 1247.08 1076.65 889.958 170.431 143.548 186.691 787.593 26.8829 38.5792 717.811 54.315 272.749 36.0835 663.496 29.3197 751.509 91.9964 13.8833 78.1131 8.68303 261.847 151.606 659.513 70.9798 6.76375 588.533 45.7434
internal_count=268644 242572 217727 186453 160273 66300 93973 31274 8691 3124 26072 22583 14955 26180 5567 24845 10384 18201 7210 5289 3545 7628 3415 7979 17635 7463 601 6862 1064 725 1921 1682 6969 5792 5225 1177 1099 567 15688 78 239 10172 427 2351 120 9745 71 15568 1345 165 1180 48 2315 1744 14223 2415 49 11808 339
is_linear=0
shrinkage=0.1


Tree=16
num_leaves=56
num_cat=0
split_feature=81 31 109 118 70 29 38 125 130 105 134 5 107 70 101 133 41 118 34 110 101 88 77 56 55 105 32 127 32 51 114 46 129 120 110 127 31 13 36 33 24 123 55 89 120 30 134 83 100 32 32 106 21 81 30
split_gain=1001.35 925.844 834.949 1104.57 1235.43 996.975 579.435 538.325 430.886 347.36 732.212 672.389 379.196 352.922 310.441 246.616 246.084 232.8 232.556 185.481 183.17 177.616 346.77 308.06 235.958 410.125 198.503 166.864 142.245 129.159 110.913 85.6645 75.6645 101.019 165.309 89.5074 75.4606 40.0599 159.231 25.2042 76.1723 34.6099 24.1674 18.4981 40.2603 11.363 6.62302 4.65559 22.8316 4.44306 12.4383 1.08648 0.0452044 0.00891455 0.00708018
threshold=-1.3808069825172422 0.99887326359748851 -1.1353823542594907 -1.5888486504554746 -0.25965428352355951 1.2137384414672854 0.97762873768806469 -2.8331470489501949 1.0000000180025095e-35 -0.8505137264728545 1.0000000180025095e-35 0.64307469129562389 -0.97914785146713246 -0.33200047910213465 -0.86905112862586964 1.0000000180025095e-35 1.056596100330353 -0.89216962456703175 0.82314541935920726 -1.1626864075660703 -0.86491307616233815 -1.1830465197563169 -1.2002260088920591 0.9543251395225526 0.93361005187034618 -0.85562160611152638 0.96528297662734996 -3.1826419830322261 0.96110618114471447 1.1143097877502444 -1.3871031403541563 1.0963139533996584 1.0000000180025095e-35 -1.0135449171066282 -0.86419060826301564 -1.5596303343772886 0.99964967370033275 0.86727103590965282 0.91265568137168895 0.9520678222179414 1.207494914531708 -1.3294894099235532 1.0242541432380678 -1.292420446872711 -0.97781485319137562 1.0475962758064272 1.0000000180025095e-35 -1.374812066555023 -0.9134027063846587 0.95782783627510082 0.95799872279167186 -0.84447538852691639 1.6121561527252199 -1.3957846164703367 1.0290712118148806
decision_type=2 2 2 2 2 2 2 2 2 2 2 2 2 2 2 2 2 2 2 2 2 2 2 2 2 2 2 2 2 2 2 2 2 2 2 2 2 2 2 2 2 2 2 2 2 2 2 2 2 2 2 2 2 2 2
left_child=17 2 6 18 5 -5 16 -6 9 10 12 13 -3 -11 -12 29 31 28 19 -4 -13 24 23 -23 25 -10 -24 -20 32 -8 -18 -2 33 34 -1 -35 -26 54 -39 43 53 -42 -17 44 -30 -45 47 49 52 51 -51 -19 -49 -41 -34
right_child=1 8 3 4 7 -7 15 -9 21 11 14 20 -14 -15 -16 42 30 46 27 -21 -22 22 26 -25 36 -27 -28 -29 39 -31 -32 -33 37 35 -36 -37 -38 38 -40 40 41 -43 -44 45 -46 -47 -48 48 -50 50 -52 -53 -54 -55 -56
leaf_value=-0.020932486556417058 -0.20881317415365863 0.058529265301107927 -0.15645741081855147 0.051000268006309302 -0.13369541553125616 -0.0087980651798557023 0.10128955216154689 0.017648918601423928 -0.11052170472701284 0.10647517621268994 0.10086706042798058 -0.025372731812006524 0.0067704260842798101 0.010071749005061744 0.045482072827129537 0.040005088501217895 0.048421634123448569 -0.12049140544281711 0.086611609628086492 0.12622727288735228 -0.13040621243006648 0.15261716629359784 -0.080273370733441596 -0.06334928627174588 0.030073791177005479 0.23461387904951328 0.036175458836936202 0.13581916278113038 0.3396642418732706 -0.097218891516540451 0.15250820537635204 -0.023844374386829695 -0.10677560833724076 -0.046087039733645946 0.12280646835668102 0.020469166016028266 -0.10017148017022236 -0.075373568750546793 0.5777451560459681 -0.10751974960025497 0.4008372101078459 0.041179303208289907 0.18487679523087666 -0.067654730018953044 -0.047620482187063197 -0.11067424567749205 0.086652837271533931 -0.11211107707302387 0.27999560533886564 0.12352454014565091 -0.10549958390619599 -0.10639507789912886 -0.13192214191016924 -0.11232185400468409 -0.10500261405533767
leaf_weight=153.08595241606236 29.163371670991182 1729.9740747362375 60.901395827531815 45856.402933068573 238.56409856677055 2968.5748796835542 34.011214517056942 15837.15241644904 72.42639447003603 397.49982767179608 1589.8259393721819 278.08825753070414 7785.3628902174532 8502.7793015688658 2784.6707097887993 17.490623608231544 330.49739210307598 66.714685069397092 1610.1107328087091 37.505185127258301 412.05319439992309 214.59396972507238 445.06886934489012 95.415818016976118 48.0588234141469 65.628324717283249 218.12807837873697 1204.7674494534731 3.4028333500027683 903.16604486107826 148.31843368709087 177.01317086815834 35.593454916030169 396.08894537948072 167.61497490480542 412.4864351414144 597.88531301170588 22.800315797328953 4.4636576622724524 6.6809590868651858 5.7819509506225586 4.9801699593663198 33.704206317663193 362.72424354217947 12.710249356925486 73.910203153267503 1.8060753047466267 5.4868245702236891 1.8390366286039332 3.1501505374908438 9.592017784714697 303.04780449904501 1.4577789865434168 9.1741800382733363 61.335902014747262
leaf_count=838 120 2753 208 88336 827 9077 54 46360 549 1143 1655 1548 28430 33617 5011 32 676 756 1841 33 2301 800 3468 745 297 206 1243 837 24 3814 138 449 655 4030 752 3105 5526 346 19 109 4 44 22 5362 251 1360 2 79 4 26 247 6979 12 98 1426
internal_value=0 0.0344717 0.0404298 0.0421517 0.0394477 0.0473645 -0.0293519 0.015403 0.018067 0.0216416 0.0317483 0.00700403 0.0161806 0.0143773 0.0656107 -0.0783399 0.0413326 -0.0349249 0.10239 -0.0487193 -0.0880836 -0.0296967 -0.00116121 0.0861463 -0.0651189 0.0535485 -0.0419729 0.107672 -0.0191638 -0.0900148 0.0806636 -0.0500079 -0.00144575 0.00670201 0.054193 -0.0121341 -0.0904811 -0.0755325 0.031555 -0.065494 0.0290753 0.234406 0.135382 -0.0710538 0.034168 -0.0749368 -0.104403 -0.105285 -0.0333034 -0.106938 -0.0488797 -0.108938 -0.11627 -0.110298 -0.105654
internal_weight=0 94724.8 69487.3 67814 64900.7 48825 1673.36 16075.7 25237.5 23480.3 13889.8 9590.42 9515.34 8900.28 4374.5 988.372 684.992 2125.93 2913.28 98.4066 690.141 1757.21 973.207 310.01 783.999 138.055 663.197 2814.88 1732.83 937.177 478.816 206.177 1253.47 1129.28 320.701 808.575 645.944 124.193 27.264 479.365 26.6173 10.7621 51.1948 452.748 16.1131 436.634 393.094 391.288 8.78364 382.505 12.7422 369.762 6.9446 15.8551 96.9294
internal_count=268644 242116 152824 147519 144600 97413 5305 47187 89292 76458 37849 38609 31183 34760 6666 3922 1383 26528 2919 241 3849 12834 6256 1545 6578 755 4711 2678 18423 3868 814 569 11171 8725 1590 7135 5823 2446 365 7252 255 48 54 6997 275 6722 8105 8103 95 8008 273 7735 91 207 2081
is_linear=0
shrinkage=0.1


Tree=17
num_leaves=57
num_cat=0
split_feature=131 129 130 128 30 72 133 105 55 101 107 39 101 32 72 31 55 127 54 53 102 10 27 77 63 22 39 26 40 108 70 34 107 11 20 28 61 32 32 11 30 54 83 108 31 58 30 104 32 32 28 28 107 106 71 48
split_gain=902.192 894.169 734.485 685.47 696.603 1349.25 657.605 530.789 678.64 909.409 418.164 382.989 315.128 280.664 169.236 164.513 117.821 140.661 106.64 97.7874 113.338 139.334 107.003 95.3704 93.0892 146.571 101.776 91.3549 81.8446 88.2576 73.9428 138.613 73.6517 65.6521 59.7309 51.1946 208.01 48.5749 48.5984 31.0538 28.4405 23.8422 22.6154 10.6108 17.3193 19.4743 13.0298 9.46055 8.47595 7.66217 0.960088 19.3332 0.217937 0.130087 0.105721 0.0198793
threshold=1.0000000180025095e-35 1.0000000180025095e-35 1.0000000180025095e-35 1.0000000180025095e-35 1.0887635946273806 -0.67474976181983937 1.0000000180025095e-35 -0.87013596296310414 1.0067051053047182 -0.81439697742462147 -0.87695607542991627 0.9813409447669984 -0.76296928524970997 0.96422681212425243 -0.56898871064186085 1.0026330947875979 1.0256148576736452 -2.1700230836868282 0.96243083477020275 1.0505394339561465 -0.87787911295890797 0.78944578766822826 1.1884573698043825 -1.0483442544937132 0.59191185235977184 1.1959711313247683 0.99383476376533519 1.1568490862846377 0.90913680195808422 -0.90894067287445057 -0.46588812768459315 0.82009276747703563 -0.89253985881805409 0.96565175056457531 1.6072667837142947 1.1214699745178225 0.70830631256103527 0.96728327870368969 0.96854674816131603 1.0518734455108645 0.90847468376159679 1.0625461339950564 -1.2686665654182432 -0.88337913155555714 1.009681284427643 0.83315694332122814 1.0225808620452883 -0.9259190261363982 0.96505784988403331 0.96287420392036449 1.1073719859123232 1.1060853004455569 -0.82268601655960072 -0.86444115638732899 -0.62233179807662953 0.97716644406318676
decision_type=2 2 2 2 2 2 2 2 2 2 2 2 2 2 2 2 2 2 2 2 2 2 2 2 2 2 2 2 2 2 2 2 2 2 2 2 2 2 2 2 2 2 2 2 2 2 2 2 2 2 2 2 2 2 2 2
left_child=1 2 3 4 5 -1 -6 37 9 -9 15 23 -10 19 -13 18 24 27 28 20 22 -22 -3 -5 26 -26 -15 -18 29 -2 33 -32 -33 54 43 36 -21 39 -39 -4 -20 -19 52 44 46 -46 -12 -44 -42 -37 51 -45 -36 -52 -17 -54
right_child=10 13 7 11 6 -7 -8 8 12 -11 34 14 -14 16 -16 30 17 41 40 35 21 -23 -24 -25 25 -27 -28 -29 -30 -31 31 32 -34 -35 42 49 -38 38 -40 -41 48 -43 47 50 45 -47 -48 -49 -50 -51 53 -53 55 -55 -56 -57
leaf_value=0.060326049841278664 0.052696359055352408 0.12931972182267276 -0.10558311216083503 -0.056293602982349006 -0.023800047639918515 0.031085973910287654 0.048658469339643941 -0.0076496029132704056 -0.082574282299550175 0.10891720821176853 0.10508049696024012 0.037297994205060615 0.02371234208871972 0.093991744670711572 -0.012583182975506146 -0.11738220625182161 0.14583571475704593 -0.013680047591064545 0.1248689731076657 0.11688729200824138 -0.0044132702382534148 0.27051191652554973 -0.1030783368549989 0.047992511473194097 -0.11554049039398491 0.33352993622978894 0.0012665345464667262 -0.13375239837677594 0.17565396006412004 -0.078076804858292007 0.25947796101671688 0.032911734117333134 -0.022316491854781111 0.23451138499767962 -0.15305305142346115 -0.10589894341643968 -0.089008293978100853 0.24952464617112133 -0.12404237600191302 0.021115385696554259 -0.10607571875247823 -0.10074099510456183 -0.0032104799315877449 -0.10384614781866056 0.12741896241166797 -0.10832347928937514 -0.096288440896603725 0.11864656727868016 -0.031500256693969129 -0.065195979606623752 -0.10844453876517053 0.18360529820992361 -0.11022007646128434 -0.10493328851827217 -0.13247643359154182 -0.12421180423567091
