tree
version=v4
num_class=1
num_tree_per_iteration=1
label_index=0
max_feature_idx=136
objective=binary sigmoid:1
feature_names=Column_0 Column_1 Column_2 Column_3 Column_4 Column_5 Column_6 Column_7 Column_8 Column_9 Column_10 Column_11 Column_12 Column_13 Column_14 Column_15 Column_16 Column_17 Column_18 Column_19 Column_20 Column_21 Column_22 Column_23 Column_24 Column_25 Column_26 Column_27 Column_28 Column_29 Column_30 Column_31 Column_32 Column_33 Column_34 Column_35 Column_36 Column_37 Column_38 Column_39 Column_40 Column_41 Column_42 Column_43 Column_44 Column_45 Column_46 Column_47 Column_48 Column_49 Column_50 Column_51 Column_52 Column_53 Column_54 Column_55 Column_56 Column_57 Column_58 Column_59 Column_60 Column_61 Column_62 Column_63 Column_64 Column_65 Column_66 Column_67 Column_68 Column_69 Column_70 Column_71 Column_72 Column_73 Column_74 Column_75 Column_76 Column_77 Column_78 Column_79 Column_80 Column_81 Column_82 Column_83 Column_84 Column_85 Column_86 Column_87 Column_88 Column_89 Column_90 Column_91 Column_92 Column_93 Column_94 Column_95 Column_96 Column_97 Column_98 Column_99 Column_100 Column_101 Column_102 Column_103 Column_104 Column_105 Column_106 Column_107 Column_108 Column_109 Column_110 Column_111 Column_112 Column_113 Column_114 Column_115 Column_116 Column_117 Column_118 Column_119 Column_120 Column_121 Column_122 Column_123 Column_124 Column_125 Column_126 Column_127 Column_128 Column_129 Column_130 Column_131 Column_132 Column_133 Column_134 Column_135 Column_136
feature_infos=[-1.7391834259033203:1.7600680589675903] [-1.6486232280731201:1.7309049367904663] [-1.5678098201751709:1.7044392824172974] [-1.4949060678482056:1.6806706190109253] [-1.4299124479293823:1.6595996618270874] [-1.3728283643722534:1.6412254571914673] [-1.333403468132019:1.7937201261520386] [-1.3043193817138672:1.9274762868881226] [-1.2702003717422485:2.0758624076843262] [-1.226288914680481:2.0974209308624268] [-1.1696058511734009:2.0118343830108643] [-1.0977727174758911:2.0267508029937744] [-1.011857271194458:2.0742456912994385] [-0.91207128763198853:2.1771299839019775] [-0.8030850887298584:2.2825961112976074] [-0.68971306085586548:2.4052433967590332] [-0.63881856203079224:2.5269482135772705] [-0.65620064735412598:2.5277442932128906] [-0.66012513637542725:2.5302853584289551] [-0.66667592525482178:2.4445860385894775] [-0.8555336594581604:2.3619022369384766] [-0.86833834648132324:2.2948129177093506] [-0.86565589904785156:2.1489822864532471] [-0.7797551155090332:2.1797337532043457] [-1.0841877460479736:2.1696581840515137] [-1.4308524131774902:2.0883691310882568] [-1.6366665363311768:1.9448176622390747] [-1.8254417181015015:1.7314887046813965] [-1.9454965591430664:1.5598906278610229] [-2.2033448219299316:1.3473584651947021] [-2.6534385681152344:1.1458766460418701] [-2.9375624656677246:1.0433628559112549] [-2.8855924606323242:1.0182701349258423] [-2.3245775699615479:1.0153312683105469] [-1.6179424524307251:1.0222163200378418] [-0.8696785569190979:1.0386093854904175] [-0.66409575939178467:1.1642487049102783] [-0.67050886154174805:1.3183631896972656] [-0.67336314916610718:1.4165236949920654] [-0.67729061841964722:1.3777114152908325] [-0.67375040054321289:1.3165556192398071] [-0.77278417348861694:1.2206546068191528] [-0.78214722871780396:1.2647323608398438] [-0.67822211980819702:1.3808037042617798] [-0.67542338371276855:1.5838102102279663] [-0.67887544631958008:1.7493973970413208] [-0.67565232515335083:1.7343066930770874] [-0.68056988716125488:1.8940913677215576] [-0.67851173877716064:2.0411467552185059] [-0.68057990074157715:2.1347439289093018] [-0.67868822813034058:2.3221406936645508] [-0.68411111831665039:2.3866791725158691] [-0.6882440447807312:2.2922041416168213] [-0.69760811328887939:2.324758768081665] [-0.68820065259933472:2.0119130611419678] [-0.66498374938964844:1.5468263626098633] [-0.62701141834259033:1.3939603567123413] [-0.6819922924041748:1.3641012907028198] [-0.83747786283493042:1.3483799695968628] [-0.61647558212280273:1.3266682624816895] [-0.58463895320892334:1.3006186485290527] [-0.6056399941444397:1.5017008781433105] [-0.63139909505844116:1.6471337080001831] [-0.66095739603042603:1.5962808132171631] [-0.81091159582138062:1.2496439218521118] [-1.0305129289627075:1.0751444101333618] [-1.2528316974639893:0.99085426330566406] [-1.6713657379150391:0.88367986679077148] [-1.706031322479248:0.75060045719146729] [-1.8203862905502319:0.59843027591705322] [-1.7363165616989136:0.44751104712486267] [-1.7446892261505127:0.31280896067619324] [-1.674402117729187:0.20481951534748077] [-1.5101885795593262:0.12430305778980255] [-1.4517455101013184:0.30397361516952515] [-1.6804615259170532:0.84510332345962524] [-1.8599822521209717:1.3364263772964478] [-2.0371255874633789:1.0853415727615356] [-2.1728529930114746:1.1285310983657837] [-2.2573421001434326:0.92254304885864258] [-2.3058340549468994:0.73609095811843872] [-2.3315773010253906:0.27998179197311401] [-2.3403120040893555:0.3133491575717926] [-2.3343968391418457:0.36315670609474182] [-2.3124566078186035:0.5232703685760498] [-2.2730567455291748:0.45226269960403442] [-2.2140905857086182:0.47906926274299622] [-2.1362462043762207:0.50354379415512085] [-2.0426793098449707:0.67684948444366455] [-1.9374580383300781:0.53568804264068604] [-1.8240519762039185:0.65060514211654663] [-1.7103197574615479:1.0689502954483032] [-1.6520191431045532:1.4168777465820312] [-1.5958865880966187:1.6290324926376343] [-1.5394163131713867:1.6652539968490601] [-1.4922878742218018:1.6182962656021118] [-1.4547033309936523:1.5607637166976929] [-1.4384253025054932:1.5597559213638306] [-1.4264529943466187:1.5643377304077148] [-1.4611638784408569:1.563044548034668] [-1.8343979120254517:1.5685317516326904] [-2.2499499320983887:1.5680602788925171] [-2.5584738254547119:1.5700795650482178] [-2.4521515369415283:1.5659784078598022] [-2.0341367721557617:1.5674868822097778] [-1.4073458909988403:1.5623446702957153] [-1.2213733196258545:1.563502311706543] [-1.1215335130691528:1.5613243579864502] [-1.1656886339187622:1.5697338581085205] [-1.225764274597168:1.5732566118240356] [-1.3317182064056396:1.5835809707641602] [-1.6010570526123047:1.5860384702682495] [-2.1418814659118652:1.5904537439346313] [-2.4733853340148926:1.5886306762695312] [-2.5047738552093506:1.5883719921112061] [-2.0072333812713623:1.5826603174209595] [-1.577265739440918:1.5835590362548828] [-1.6321159601211548:1.6058655977249146] [-1.6864286661148071:2.4495923519134521] [-1.7459897994995117:2.6529664993286133] [-1.820858359336853:2.5047237873077393] [-1.9280952215194702:1.7488086223602295] [-2.15055251121521:1.5756756067276001] [-2.3795907497406006:1.5728672742843628] [-2.6463632583618164:1.8138364553451538] [-2.9497678279876709:2.1645474433898926] [-3.3559722900390625:3.0688047409057617] [-3.8750591278076172:4.2020993232727051] [0:1] [0:1] [0:1] [0:1] [0:1] [0:1] [0:1] [0:1] [0:1]
tree_sizes=4369 5630 5540 5542 5553 4588 5564 5241 5261 5880 4958 5050 4917 4700 4814 4816 4934 4908 4503 5115 5101 5355 5148 4727 5239 4202 4969 4920 4482 4943 5090 5172 4409 4181 5043 5333 5320 5168 4708 4716 4199 4461 4831 4637 5157 4881 4866 4847 5001 5110 4400 4831 5001 5022 5023 5421 5427 4769 5397 4397 5333 5247 5025 4322 5178 5073 5794 4929 6706 5669 6484 5178 6618 6958 6213 6332 6808 6207 6985 6564 6423 5487 6255 5942 6982 6353 6673 6058 5912 5616 4809 6606 6570 6849 4312 6929 5372 5472 4711 6611 6914 6866 5885 6947 5865 6923 6822 6930 4623 6303 4311 4955 6027 4200 6820 6867 5708 6603 4622 4604 6018 6685 6923 6460 6008 6911 6731 6391 6326 5747 5854 6009 5241 6731 6357 5255 4940 6502 6057 6564 4922 6359 6434 6923 6533 6956 6126 5898 6389 6848 6728 6835 6474 6065 6569 6538 5758 5090 6626 5551 5922 6377 6469 6815 5360 6468 4946 6268 6925 6281 6135 6636 6632 6450 5032 4940 6497 6804 6781 4620 5880 6168 6304 6665 6887 6619 4413 4729 5898 6380 5677 5946 6568 6974 6844 5574 5271 6326 4595 5603

Tree=0
num_leaves=40
num_cat=0
split_feature=125 33 77 114 74 30 76 46 135 39 108 128 134 113 108 133 80 70 116 113 46 53 70 0 71 47 52 37 112 113 109 101 31 31 33 33 64 23 72
split_gain=147406 14211.7 9702.13 10718.3 8141.73 7325.46 4338.89 6737.68 3828.22 2818.85 2520.27 2136.29 1807.95 1492.17 1107.36 1056.25 937.853 868.869 757.735 755.007 794.338 647.778 1043.7 663.924 646.706 553.021 533.866 530.997 470.346 458.689 442.561 277.916 385.266 238.706 11.077 1.22046 1.77836 0.240183 0.242116
threshold=-0.38822916150093073 0.93122488260269176 -0.41257116198539728 -1.136643052101135 -1.0275888442993162 1.0894491076469424 -0.51768586039543141 1.2108610868453982 1.0000000180025095e-35 1.0256718993186953 -0.82645258307456959 1.0000000180025095e-35 1.0000000180025095e-35 -0.94869962334632862 -0.94658425450325001 1.0000000180025095e-35 -1.1397197842597959 -0.15380607545375821 -1.5220362544059751 -1.3197845220565794 1.2254244685173037 1.0619207024574282 -0.21159861981868741 0.37590785324573522 -0.40574915707111353 1.2001218795776369 0.85566309094429027 0.97417074441909801 -1.2956376671791074 -1.0442187190055845 -1.1269463300704954 -0.82054433226585377 1.0008342862129214 1.0022091865539553 0.77533692121505748 0.76996779441833507 0.24625265598297122 1.5537528991699221 -0.55056947469711293
decision_type=2 2 2 2 2 2 2 2 2 2 2 2 2 2 2 2 2 2 2 2 2 2 2 2 2 2 2 2 2 2 2 2 2 2 2 2 2 2 2
left_child=1 2 3 6 14 -6 8 -8 -1 19 11 12 15 17 -5 -3 -14 -13 25 30 -21 31 23 -23 -15 -11 34 -24 -20 -28 -4 32 -12 -33 35 37 -37 38 -2
right_child=26 10 9 4 5 -7 7 -9 -10 18 21 13 16 24 -16 -17 -18 -19 28 20 -22 22 27 -25 -26 -27 29 -29 -30 -31 -32 33 -34 -35 -36 36 -38 -39 -40
leaf_value=-2.0537890938094407 -1.1993918496106797 -1.7452464321831791 -1.3211183846495649 -1.2602897313828247 -1.8422068729957832 -1.6586874606438571 -1.5894742890692917 -2.084824409100313 -1.7858961723409184 -1.559699977082734 -1.7109527804578715 -1.5405172093073851 -1.5319759522286585 -1.6411829970193663 -2.0471301578004724 -2.0463139742268175 -1.9097778912083734 -1.8932831422728769 -1.598879810625059 -2.2921253160014095 -1.5035905746817597 -1.4757980777545907 -2.1130748683549152 -1.8208441673650713 -1.816401672577274 -2.3028103953035579 -2.3324340046262488 -1.8561369179242551 -2.2624114924345395 -1.3010630130278087 -1.4987161239347431 -2.2690389528854973 -2.2824923205652152 -1.6459993530014629 -1.2793284218248047 -1.2497091007090018 -1.1993918496106797 -1.2115463649543363 -1.2115463649543363
leaf_weight=4659.8932486772537 4089.1024436950684 5099.5266026258469 182.37600958347321 18.063025414943695 18034.736949920654 2473.3525825738907 628.07235634326935 487.8971186876297 602.38259440660477 11.934229671955107 32.645182192325592 1395.0882878899574 574.89217340946198 440.25327056646347 1826.2711093425751 119.2553551197052 74.185015261173248 73.498543500900269 56.572417497634888 22.878405809402466 28.928457498550415 88.275867938995361 142.93797266483307 151.41949933767319 403.88335418701172 62.261051714420319 7.6784432530403164 183.93742763996124 13.170029282569883 9.8356304168701154 608.37029713392258 72.734267950057983 18.465507388114929 6.7173075675964347 17.513885617256165 11.924339652061464 17.092187762260437 16.454789996147156 16.454789996147156
leaf_count=41222 5024 31083 422 32 125517 13167 2956 4451 3890 53 189 5957 2411 2275 16047 1047 561 545 271 251 114 326 1340 1025 2718 689 87 1303 141 21 2371 783 201 35 34 20 21 22 22
internal_value=-2.22159 -1.82705 -1.86021 -1.8708 -1.83817 -1.82007 -1.98514 -1.80604 -2.02312 -1.55185 -1.71602 -1.70047 -1.73255 -1.61907 -2.03942 -1.75213 -1.57516 -1.55817 -1.96083 -1.48199 -1.85182 -1.89854 -1.85227 -1.69377 -1.72502 -2.18328 -1.20228 -1.96849 -1.72418 -1.75323 -1.45776 -2.09935 -1.91744 -2.21636 -1.19997 -1.19963 -1.22007 -1.19949 -1.19944
internal_weight=0 38594.9 29717.2 28730.7 22352.4 20508.1 6378.25 1115.97 5262.28 986.491 8877.72 8180.58 5867.86 2312.72 1844.33 5218.78 649.077 1468.59 143.938 842.553 51.8069 697.133 566.571 239.695 844.137 74.1953 4186.06 326.875 69.7424 17.5141 790.746 130.562 51.1107 79.4516 4168.54 4151.03 29.0165 4122.01 4105.56
internal_count=268644 263393 211594 207282 154763 138684 52519 7407 45112 4312 51799 46597 35102 11495 16079 32130 2972 6502 1154 3158 365 5202 3994 1351 4993 742 5251 2643 412 108 2793 1208 390 818 5143 5109 41 5068 5046
is_linear=0
shrinkage=1


Tree=1
num_leaves=52
num_cat=0
split_feature=45 128 32 30 123 89 75 134 54 136 74 69 34 30 54 115 49 73 51 73 132 36 53 30 72 68 119 113 57 62 75 124 89 69 29 24 125 113 135 130 10 73 3 112 99 127 24 33 30 68 30
split_gain=23073.8 6441.26 5055.36 4867.58 6302.65 4071.38 3355.71 3541.47 3181.4 3154.64 2492.26 1801.13 1576.42 1330.71 1222.38 1127.76 1067.62 1304.19 803.69 709.099 617.931 570.379 546.614 545.818 539.735 445.646 413.317 377.797 360.742 359.668 343.04 216.478 179.236 178.32 96.591 243.5 160.551 151.403 191.4 147.036 154.369 101.175 96.5884 111.075 60.8345 3.19866 74.5675 1.56347 0.000338752 0.000224272 3.20432e-05
threshold=0.73864436149597179 1.0000000180025095e-35 0.94474494457244884 1.0864570140838625 -2.1616845130920406 -1.2415948510169981 -1.0365906953811643 1.0000000180025095e-35 1.0559168457984927 1.0000000180025095e-35 -1.0377732515335081 -0.087305359542369829 0.94839143753051769 1.0430977940559389 1.0192030668258669 -1.477951645851135 0.94364953041076671 -0.91402456164360035 1.1018765568733218 -0.77858999371528614 1.0000000180025095e-35 0.9394386112689973 1.145168721675873 1.0979956984519961 -0.6127910017967223 0.13450267910957339 -0.90405434370040882 -0.87298747897148121 0.9421781897544862 0.61226403713226329 -1.1366643309593198 -1.0322400927543638 -0.90318334102630604 -0.02050963323563337 1.2419087290763857 1.7280694842338564 -0.38822916150093073 -1.0304985046386717 1.0000000180025095e-35 1.0000000180025095e-35 1.0242636799812319 -0.93288704752922047 0.7481067180633546 -0.9143463373184203 -0.99016779661178578 1.0000000180025095e-35 1.1449391245841982 0.76996779441833507 1.0938680768013003 -0.6671851873397826 1.0748605728149416
decision_type=2 2 2 2 2 2 2 2 2 2 2 2 2 2 2 2 2 2 2 2 2 2 2 2 2 2 2 2 2 2 2 2 2 2 2 2 2 2 2 2 2 2 2 2 2 2 2 2 2 2 2
left_child=20 2 3 4 15 18 7 10 19 -6 -4 13 -10 22 -9 -2 23 -18 27 -8 34 29 -7 -5 26 -23 -20 30 -15 -13 -3 -29 44 -26 36 42 39 38 -37 40 -1 -39 43 -36 -22 46 -38 -47 -44 -46 -51
right_child=1 5 6 16 9 11 8 14 12 -11 -12 21 -14 28 -16 -17 17 -19 24 -21 32 25 -24 -25 33 -27 -28 31 -30 -31 -32 -33 -34 -35 35 37 45 41 -40 -41 -42 -43 48 -45 49 47 -48 -49 -50 50 -52
leaf_value=0.44334813754096392 0.14170629874293786 0.25621659643345357 0.005821209091988272 0.30345004506300788 0.1442055369863488 0.5544168807832287 0.26553969083548612 0.15675808469540317 0.19759669623594855 0.28131359460331712 0.27435555073384854 0.3272211116233239 0.40533951812876945 0.39203648964387766 -0.050979309416568634 0.34706746017862167 0.073498541027435069 0.28493720940756134 0.4635762041039122 0.37249370354786615 0.27013159114928043 0.34519224553602235 0.17037453406746972 0.41239018513917203 0.18472413662309986 0.2198047165234488 0.0048826150642453806 -0.07030727612521942 -0.027653627204212529 0.025476503434979952 0.03944140458757471 0.4694955473531785 0.55836835760410009 -0.083456781385148782 0.47361694780428804 -0.11802821835071292 0.046907652508621722 0.32183708261252936 0.62973649170843893 0.77747915075892038 0.094289785214916003 0.57887899904479101 -0.11738575727075234 0.0053093438119330393 -0.11686402838615642 0.43185602521050886 0.43124281741275283 0.44548212915494578 -0.11887823311657374 -0.11582069141248484 -0.1162050169731676
leaf_weight=19.789990790188313 299.99688182771206 124.01636046171188 357.25362101942301 910.89723823219538 13759.76611687988 804.19266778230667 695.82293710112572 1703.8554144576192 2257.8589919358492 1911.2102239727974 10609.126517795026 64.014306455850601 435.77532651275396 2069.178841561079 339.73273597657681 2461.9242626875639 328.37965030223131 2613.3661813139915 131.83176607638597 5680.2389620691538 4.7800133004784575 2520.2765586450696 38.851963125169277 928.91733102500439 141.0025872066617 319.37271362543106 23.084149956703186 190.14613304287195 20.685178361833096 103.1621045768261 177.45930710434914 7.7313100174069396 5.4816603213548651 30.083883300423622 15.592804372310642 7.6991375386714918 5.2471802383661261 16.768984615802765 6.1631909906864166 5.1739536821842185 35.21335256844759 176.39416882395744 2.5080896019935599 7.5011320710182199 2.42028884589672 8180.21523681283 133.06527332961559 85.082240700721741 3.8632929548621178 23.109316006302841 2.3941354751586905
leaf_count=69 1764 671 3148 3794 92262 1914 3457 10199 12041 9507 51183 220 1430 7219 2653 7880 2463 10962 389 21465 25 7994 258 2695 839 1555 181 1727 153 695 1263 8 17 273 40 60 22 64 6 8 243 366 20 51 20 4991 82 53 29 196 20
internal_value=0 0.254973 0.241379 0.208797 0.185475 0.34599 0.275635 0.243085 0.322327 0.160927 0.265607 0.374908 0.231205 0.430664 0.122223 0.324761 0.298704 0.261335 0.137878 0.360822 0.430578 0.320522 0.536718 0.358454 0.260006 0.33109 0.395226 0.0581461 0.387882 0.141019 0.128615 -0.0492165 0.0291846 0.137567 0.43234 0.495374 0.430578 0.533655 0.214428 0.267821 0.21988 0.556565 0.226407 0.321506 -0.0595149 0.431744 0.416662 0.431996 -0.118291 -0.115944 -0.115857
internal_weight=0 52059.2 45294.1 23214.5 18432.9 6765.09 22079.7 13010 9069.7 15671 10966.4 5939.73 2693.63 2932.91 2043.59 2761.92 4781.56 2941.75 825.355 6376.06 8738.46 3006.83 843.045 1839.81 326.002 2839.65 154.916 499.353 2089.86 167.176 301.476 197.877 38.1854 171.086 8700.28 236.491 8463.79 207.025 13.8623 60.1773 55.0033 193.163 29.4653 23.0939 32.7038 8403.61 138.312 8265.3 6.37138 27.9237 25.5035
internal_count=268644 262262 236903 131327 111413 25359 105576 67183 38393 101769 54331 20008 13471 9544 12852 9644 19914 13425 5351 24922 6382 10464 2172 6489 1682 9549 570 3669 7372 915 1934 1735 278 1112 6104 636 5468 496 66 320 312 430 140 91 261 5148 104 5044 49 236 216
is_linear=0
shrinkage=0.1


Tree=2
num_leaves=51
num_cat=0
split_feature=45 128 31 131 30 6 112 105 69 134 134 77 106 73 69 35 31 87 44 83 129 132 100 114 73 104 69 35 32 99 30 48 81 114 109 107 104 69 24 31 112 28 74 125 127 95 96 29 97 99
split_gain=13714.5 2873.49 2797.32 2360.13 2308.99 3298.24 1919.05 1852.78 1375.5 1365.48 1051.03 1724.5 1255.49 697.338 609.272 457.218 431.684 445.755 391.19 389.723 384.678 333.5 330.351 301.59 275.357 241.835 194.869 166.096 148.059 122.331 119.379 115.553 105.528 67.5726 166.704 71.7963 66.362 110.984 56.0604 27.0665 66.4304 32.2563 75.8287 53.6342 27.7328 21.6559 18.6989 0.0107808 0.0100433 0.0112083
threshold=0.73864436149597179 1.0000000180025095e-35 0.99997591972351085 1.0000000180025095e-35 1.0938680768013003 0.59602597355842601 -0.88550603389739979 -0.86486154794692982 -0.11460708454251288 1.0000000180025095e-35 1.0000000180025095e-35 -1.1933871507644651 -0.84493467211723317 -0.89664819836616505 -0.073290694504976259 0.93216291069984447 1.0012564659118655 -1.2689602971076963 1.0873842835426333 -1.4389445781707761 1.0000000180025095e-35 1.0000000180025095e-35 -0.95344194769859303 -0.95360970497131337 -0.81544455885887135 -0.81228229403495777 -0.057191858068108552 0.92224183678627025 0.96761912107467662 -1.0120261311531065 1.0296801924705508 1.1310314536094668 -1.0283423662185667 -0.93745723366737355 -0.90869075059890736 -0.88082945346832264 -0.94226595759391774 -0.6769406497478484 1.4707313776016238 0.92849111557006847 -0.9143463373184203 1.3936711549758913 -1.0015702843666074 -0.38822916150093073 -1.1633887887001035 -0.98552256822586048 -1.0079605579376218 1.2419087290763857 -0.82275745272636402 -0.99016779661178578
decision_type=2 2 2 2 2 2 2 2 2 2 2 2 2 2 2 2 2 2 2 2 2 2 2 2 2 2 2 2 2 2 2 2 2 2 2 2 2 2 2 2 2 2 2 2 2 2 2 2 2 2
left_child=21 2 4 10 5 7 14 -2 13 -7 12 -12 -4 -5 16 26 19 -18 28 -3 22 33 -6 -17 31 -10 -16 -26 30 -23 -8 -20 48 34 36 47 37 -1 -22 41 44 43 -43 -35 -41 -38 -42 -36 49 -31
right_child=1 6 3 8 20 9 18 -9 25 -11 11 -13 -14 -15 15 23 17 -19 24 -21 38 29 -24 -25 27 -27 -28 -29 -30 32 -32 -33 -34 39 35 -37 45 -39 -40 40 46 42 -44 -45 -46 -47 -48 -49 -50 -51
leaf_value=0.4807033737087883 0.13061896312385016 -0.080898733974449064 0.25666409099117588 -0.027738187950898309 0.30384087385274666 0.1260466821222084 0.29293336929107572 0.20060623077669668 0.31085015620687106 0.0088804305934064333 0.095925227930923229 0.23995830094243342 0.18352634139555274 0.12371512339776464 0.1543418715231985 0.25167129776375247 0.16003430670269062 0.27340832057895087 0.20169929676027951 0.31055965506918837 0.27215601571896181 0.53017521991644578 0.22888533088852056 0.16886479515062414 -0.1193907461453361 0.15878137746245843 -0.038438636638722434 0.1279294649300837 0.41711071179240999 -0.1207613948920888 -0.018066566513001838 0.40540392847640416 0.35093974203048828 0.20612714243465119 -0.12071820455637344 0.21310322708447874 0.41726903893999678 -0.043524244175178792 -0.0977818435801181 0.2088991426412537 0.18905247703062136 0.18680646743820081 0.37790415427932489 0.3154087659358627 0.39480833833826151 0.30382355842808589 -0.12075337510259435 -0.12604885080746869 -0.12202273013157224 -0.11413126925128135
leaf_weight=6.0773859024047878 5126.2312148734927 25.667800270020962 10185.501828454435 349.47146483510733 1110.7297415584326 10489.281827166677 12.870366893708704 14430.728538006544 437.17903058230877 1098.8798755481839 1470.3932307884097 1912.4223718419671 3049.8810361772776 2336.9096297174692 165.23372695595026 2358.5337366908789 465.95473979413509 1356.0384671315551 68.620467871427536 2771.036643281579 4.6551989167928687 4.244251921772956 1249.3640311211348 540.65758097916842 30.641040787100792 137.45962180197239 76.808378510177135 238.64095345884562 8.5225865468382818 2.8472799062728908 301.00184982270002 46.86557175219059 5.8162131607532492 45.108605280518532 8.3252844512462634 10.857517518103121 27.004522532224655 12.037683852016924 34.123575150966644 16.361143834888932 2.9868513569235802 23.529009744524956 176.73238763958216 10222.640977829695 15.74664204567671 44.646770849823952 5.6025421246886236 6.9705094993114463 2.0865195766091373 24.399873986840248
leaf_count=4 31241 206 35414 2901 2699 55499 24 57650 1136 7106 8362 6411 12567 11420 660 5868 1773 3342 315 6411 14 5 3712 2217 236 562 473 1380 15 20 2370 69 13 197 60 39 25 83 209 46 14 78 236 5141 12 85 41 43 15 225
internal_value=0 0.190687 0.182109 0.211833 0.164493 0.157212 0.244811 0.182261 0.13405 0.114936 0.227097 0.177352 0.239811 0.104013 0.259183 0.225206 0.282291 0.244414 0.087106 0.306967 0.259029 0.313473 0.264162 0.236229 0.155187 0.274474 0.0931659 0.0997874 0.00585292 0.0230518 -0.00531398 0.284365 -0.038182 0.31455 0.238618 0.0164466 0.303347 0.132348 -0.0533726 0.315387 0.233994 0.315704 0.355452 0.314929 0.300075 0.34658 -0.0130224 -0.123147 -0.115336 -0.114824
internal_weight=0 61890.3 53423.2 19879.2 33544 31145.1 8467.09 19557 3261.02 11588.2 16618.2 3382.82 13235.4 2686.38 7759.93 3141.23 4618.7 1821.99 707.163 2796.7 2398.87 10664 2360.09 2899.19 384.768 574.639 242.042 269.282 322.395 39.3941 313.872 115.486 35.1499 10624.6 115.92 26.1533 89.7664 18.1151 38.7788 10508.7 40.6972 10468 200.261 10267.7 32.1078 71.6513 8.58939 15.2958 29.3337 27.2472
internal_count=268644 262262 236903 78773 158130 151496 25359 88891 16019 62605 62754 14773 47981 14321 20950 9218 11732 5115 4409 6617 6634 6382 6411 8085 2000 1698 1133 1616 2409 278 2394 384 273 6104 339 142 197 87 223 5765 113 5652 314 5338 58 110 55 103 260 245
is_linear=0
shrinkage=0.1


Tree=3
num_leaves=51
num_cat=0
split_feature=45 128 31 123 30 106 136 53 73 134 92 89 113 79 122 74 125 31 54 117 57 69 117 74 132 52 127 0 32 81 29 99 81 114 109 103 57 104 69 127 7 81 86 75 101 116 125 74 97 99
split_gain=10681.9 1762.6 1827.77 2495.71 2050.14 1821.89 1257.51 1754.98 1511.07 1354.37 1349.32 1190.03 990.9 572.01 505.029 465.199 373.512 368.485 362.973 335.807 310.212 364.266 252.14 352.975 222.29 201.102 172.81 138.601 128.006 103.422 101.337 72.1731 76.9732 59.5731 100.854 56.3138 39.3286 36.5652 65.6601 36.4349 62.7233 91.9555 23.466 20.9356 20.4337 18.4369 28.5702 20.5429 0.0071576 0.00788235
threshold=0.73864436149597179 1.0000000180025095e-35 0.98877233266830455 -2.1960042715072627 1.0876209139823916 -0.99465098977088917 1.0000000180025095e-35 1.0829150676727297 -0.77858999371528614 1.0000000180025095e-35 -1.1690041422843931 -1.2362749576568601 -1.1476036906242368 -0.40406572818756098 -2.0229799747467037 -1.0152146220207212 -1.7182672023773191 0.98058217763900768 1.0122433900833132 -1.5773746371269224 0.93718624114990245 -0.050532219931483262 -0.88553601503372181 -0.99444913864135731 1.0000000180025095e-35 1.1291850805282595 -1.9616598486900327 0.33873301744461065 0.91633823513984691 -1.3783966302871702 1.0627638101577761 -1.0120261311531065 -1.0283423662185667 -0.93745723366737355 -0.90869075059890736 -1.0463600754737852 0.92350560426712047 -0.94226595759391774 -0.6769406497478484 -1.1633887887001035 0.85765427350997936 -1.1586314439773557 -1.1230641603469846 -1.0590627789497373 -0.90744310617446888 -0.90467882156372059 -0.38822916150093073 -0.99444913864135731 -0.82275745272636402 -0.99016779661178578
decision_type=2 2 2 2 2 2 2 2 2 2 2 2 2 2 2 2 2 2 2 2 2 2 2 2 2 2 2 2 2 2 2 2 2 2 2 2 2 2 2 2 2 2 2 2 2 2 2 2 2 2
left_child=24 2 3 13 5 -5 8 10 9 -4 -8 18 -10 14 -2 -6 -9 25 28 -15 26 -22 23 -20 33 30 -19 -27 -3 -30 -13 -26 48 34 37 -36 -24 38 -1 40 43 -42 -37 -35 -39 47 -47 -41 49 -33
right_child=1 11 6 4 15 -7 7 16 12 -11 -12 17 -14 19 -16 -17 -18 20 22 -21 21 -23 36 -25 31 27 -28 -29 29 -31 -32 32 -34 39 35 42 -38 44 -40 45 41 -43 -44 -45 -46 46 -48 -49 -50 -51
leaf_value=0.33540729582854489 -0.1129831404638473 0.25650741419567541 0.14404465441525502 0.36238625584662931 0.12717757399976659 0.089189342403857313 0.45765614441447733 0.11788837021451533 0.076464529268752829 0.074924883435240355 0.19989063247573952 0.32382186436874261 0.1836731178086137 0.059555514393088593 0.16897469240942431 0.21429902939833481 -0.039663213896228039 0.24307628535346215 0.23264888072206166 0.23160927832545269 0.23253438455739395 0.13037493797079552 -0.082951801034927608 0.096625389045689222 0.34746331378003509 0.22098281492713767 0.1982675772562503 0.07253523078806938 -0.084766302445675248 0.064056303938337195 0.25432505175283171 -0.11839967821043935 0.25756861052218011 0.13822500931427489 0.25730077836326243 0.18071078884270406 0.055731077710391146 0.23129865567803015 -0.040404289586111947 0.24802961692872902 -0.068318083750410527 0.2006754311054571 -0.12148998989306672 0.29065253982251243 0.34185363837960558 0.17704892970267624 0.25710307435349455 0.32688001121766191 -0.11954392490003568 -0.11260724198529658
leaf_weight=7.7189698219299343 95.68026177585125 16.067620247602463 14688.878308683634 248.11531661450863 901.2572560235858 15090.067006714642 209.01804762333632 271.52435328066349 930.89576767385006 3512.8258629068732 7147.4240002781153 293.0409265384078 11670.141051359475 118.95887538045645 189.02737362682819 1915.5906841754913 337.52022837102413 1078.113173738122 283.77589708566666 2444.6266862824559 482.97905068844557 1258.4863002225757 58.662808626890182 582.09570556133986 5.7158147245645514 272.93993570655584 4267.6437390223145 81.729086816310883 143.16362042725086 69.298895724117756 738.76347757130861 2.6250603795051601 7.0478790551424018 10.368392005562781 6.9842439144849804 3.0496271103620556 31.390603244304657 61.720596373081207 11.689296402037142 56.846718870103359 16.141136601567268 59.758562184870243 16.320719912648201 68.811768189072609 22.929041713476181 44.758445985615253 11221.536271199584 78.900267615914345 1.9250864982605005 22.361365333199501
leaf_count=4 515 28 57706 745 3289 79185 237 1050 4938 18709 21700 327 36506 619 632 4625 1758 1754 900 4689 961 3898 542 2785 5 733 10041 336 1193 368 1300 20 13 37 13 13 193 96 83 85 98 123 116 85 14 139 5141 57 15 225
internal_value=0 0.151826 0.145421 0.121663 0.108009 0.0936087 0.158292 0.193709 0.149134 0.130705 0.207215 0.191463 0.175753 0.208691 0.0742185 0.186424 0.0305765 0.204587 0.0975754 0.223625 0.195363 0.158708 0.124642 0.141205 0.255011 0.251734 0.207304 0.186775 -0.0156433 -0.0362248 0.274063 0.0187109 -0.0366225 0.255813 0.188604 0.0138628 -0.0346101 0.23286 0.109062 0.256572 0.208427 0.14347 -0.0739121 0.270693 0.261245 0.257226 0.256785 0.29386 -0.113668 -0.113216
internal_weight=0 69429.7 59771.6 21003.3 18155 15338.2 38768.2 7965.49 30802.7 18201.7 7356.44 9658.15 12601 2848.29 284.708 2816.85 609.045 8473.7 1184.46 2563.59 7087.22 1741.47 955.925 865.872 11727.2 1386.47 5345.76 354.669 228.53 212.463 1031.8 39.6752 33.9594 11687.5 130.412 26.3546 90.0534 104.058 19.4083 11557.1 155.08 75.8997 19.3703 79.1802 84.6496 11402 11266.3 135.747 26.9115 24.9864
internal_count=268644 262262 236903 94299 87844 79930 142604 24745 117859 76415 21937 25359 41444 6455 1147 7914 2808 19350 6009 5308 16654 4859 4420 3685 6382 2696 11795 1069 1589 1561 1627 278 273 6104 339 142 735 197 87 5765 343 221 129 122 110 5422 5280 142 260 245
is_linear=0
shrinkage=0.1


Tree=4
num_leaves=51
num_cat=0
split_feature=45 128 31 74 30 74 40 107 130 90 97 74 74 126 118 74 122 87 75 53 56 77 132 77 53 75 105 72 113 77 124 125 32 22 74 105 87 107 102 87 115 34 68 80 63 34 102 73 102 100
split_gain=9300.35 1248.44 1224.64 2019.47 1594.32 1131.92 1099.52 962.658 833.31 827.168 794.4 1249.22 483.311 438.597 422.706 345.435 568.917 286.721 323.819 417.999 218.173 242.152 161.945 134.39 121.303 156.132 154.283 109.826 108.383 114.002 103.6 64.127 122.787 56.0765 64.2471 51.2769 50.0642 49.7771 30.4858 25.0223 20.9091 1.71208 9.00757 0.201242 0.127243 0.111965 0.00715883 0.00512915 0.00181487 0.000590782
threshold=0.73864436149597179 1.0000000180025095e-35 0.98416626453399669 -0.47076518833637232 1.0833618044853213 -1.0377732515335081 1.0701104998588564 -0.98365026712417591 1.0000000180025095e-35 -1.2256749272346494 -0.9834311008453368 -1.005217909812927 -1.0152146220207212 -2.9877364635467525 -0.90763184428215016 -1.0631884336471555 -1.0417491197586057 -1.2906704545021055 -1.0948356986045835 1.0614525079727175 0.97961047291755687 -1.2720783948898313 1.0000000180025095e-35 -1.295381963253021 1.0670693516731264 -1.1200592517852781 -0.76312884688377369 -0.5366661250591277 -0.87298747897148121 -1.3176625370979307 -1.0322400927543638 -0.38822916150093073 0.80617162585258495 1.7349842786788943 -1.0006492733955381 -0.94655862450599659 -1.4021529555320738 -0.82419452071189869 -0.90604889392852772 -0.9972565472126006 -0.93653860688209523 0.74019896984100353 -0.011411216109991072 -0.96873873472213734 0.41006787121295935 0.73466980457305919 -1.0072869062423704 -0.84667193889617909 -0.95074477791786183 -0.98717579245567311
decision_type=2 2 2 2 2 2 2 2 2 2 2 2 2 2 2 2 2 2 2 2 2 2 2 2 2 2 2 2 2 2 2 2 2 2 2 2 2 2 2 2 2 2 2 2 2 2 2 2 2 2
left_child=22 2 3 4 8 15 7 -5 -2 24 14 -12 -6 -8 -7 36 -17 18 19 -11 23 -22 31 -19 28 26 -26 -20 29 -3 -30 32 33 -1 -35 39 -4 -27 43 40 49 44 -43 46 45 -33 -37 48 -34 -24
right_child=1 9 5 6 12 10 13 -9 -10 17 11 -13 -14 -15 -16 16 -18 20 27 -21 21 -23 35 -25 25 37 -28 -29 30 -31 -32 41 47 34 -36 38 -38 -39 -40 -41 -42 42 -44 -45 -46 -47 -48 -49 -50 -51
leaf_value=0.40659633719756683 0.057086445731120886 0.16183389050827202 0.49573679282628724 0.25991914446332021 0.08735593973835086 0.16462499993036556 0.17998409782760746 0.14648101618278506 0.14600595945557812 0.073007560475976133 0.038698462888791314 0.13101465888762323 0.1726625713186424 -0.048830578305700235 0.27266457434778757 -0.064665889661329051 0.11227048480166431 -0.058844170886024186 0.067349589809334295 0.20025722495181572 0.2502798476856482 0.13154506932865659 -0.11351765878360054 0.18077016784106797 0.20847758338881009 0.20509789236397225 -0.083831400321362493 -0.12699376558127518 -0.066296622266150365 -0.024341633073478627 0.25046728784639372 0.22156579411180999 -0.11806676219705477 0.10864485271572251 0.20457826230408327 -0.11791566148634852 -0.082791674920819416 -0.12036039820097132 0.27925374499029332 0.26404244620127171 0.25254562205241282 0.13706627015500258 0.22507095006550243 -0.14668023074511991 0.21629081906816972 0.2181899670782233 -0.11208900489646095 -0.1249085786547999 -0.12113389860998124 -0.11125022678810351
leaf_weight=11.985214695334433 10881.9727101475 64.828710056841373 1.5054572522640217 1059.7922277972102 964.07420119643211 3061.5588999018073 113.55455683171749 2543.5201412290335 1166.9530420824885 407.30358455330133 1522.2801627591252 39527.770432248712 2134.7611241042614 319.4010703638196 410.71849633008242 262.5053882598877 590.53787016123533 23.493174076080322 434.75673443078995 704.90435461699963 189.14568795263767 1869.1390524655581 2.4280028417706481 6369.1571527570486 101.98443597555161 5.4807762503623954 21.941289499402046 31.162246569991112 191.41760585457087 66.760849125683308 10.913667261600493 11484.892842516303 2.6806018874049178 84.817301511764526 394.52741251140833 2.4152135476470056 233.57090554386377 32.960726842284203 2.152263946831229 8.9977134987711889 2.3798814415931702 14.952002882957457 52.354420185089111 1.9347082376480091 46.419326663017273 99.094887673854828 16.612334407866001 3.1829655617475501 6.8824575245380393 2.1815774142742157
leaf_count=11 57621 294 4 1533 3684 9161 287 5852 4849 1687 7060 131853 5312 1962 859 1984 3130 104 1683 1562 298 4706 24 11966 254 16 149 189 1762 426 8 5033 21 253 603 22 1752 255 2 13 6 21 23 10 24 47 177 20 48 24
internal_value=0 0.125286 0.120097 0.0988992 0.0821512 0.129013 0.161753 0.179845 0.0656984 0.15723 0.131476 0.127591 0.146123 0.0111824 0.177404 0.0282445 0.0578222 0.163466 0.124338 0.153657 0.170772 0.142456 0.219268 0.17989 0.0312089 0.102108 0.156724 0.0543512 -0.00326547 0.0673793 -0.0492105 0.219919 0.184996 0.192945 0.187603 0.0160831 -0.0790867 -0.0739584 -0.079154 0.153779 0.011833 0.221424 0.205521 -0.115953 0.221516 0.221537 -0.112829 -0.121431 -0.120274 -0.112445
internal_weight=0 75319.8 64794.5 19184 15147.8 45610.4 4036.27 3603.31 12048.9 10525.4 44522.3 41050.1 3098.84 432.956 3472.28 1088.12 853.043 10029.1 1578.13 1112.21 8450.94 2058.28 12240.9 6392.65 496.288 162.367 123.926 465.919 333.921 131.59 202.331 12201.8 504.076 491.33 479.345 39.1017 235.076 38.4415 23.1145 15.9872 6.98946 11697.7 67.3064 20.9623 11630.4 11584 19.0275 12.746 9.56306 4.60958
internal_count=268644 262262 236903 81100 71466 155803 9634 7385 62470 25359 148933 138913 8996 2249 10020 6870 5114 22195 5121 3249 17074 5004 6382 12070 3164 674 403 1872 2490 720 1770 6104 956 867 856 278 1756 271 211 67 54 5148 44 209 5104 5080 199 89 69 48
is_linear=0
shrinkage=0.1


Tree=5
num_leaves=42
num_cat=0
split_feature=115 35 131 31 80 45 21 90 53 31 74 76 136 71 69 58 72 37 5 70 130 104 113 109 32 96 57 44 64 2 33 75 68 101 32 15 24 56 125 33 128
split_gain=8561.62 1027.69 985.727 1336.2 1092.69 1177.83 520.131 519.305 609.643 568.899 686.605 373.963 357.402 324.853 306.79 378.955 505.897 1074.34 448.281 287.523 287.197 262.118 230.968 158.451 155.972 149.328 244.494 81.2183 63.4136 42.3926 32.0311 83.423 71.8083 25.9864 1.50417 2.59697 1.00623 0.77259 0.530119 0.46948 0.0178987
threshold=-0.82528632879257191 0.92566183209419262 1.0000000180025095e-35 1.002862870693207 -0.28585286438465113 1.2053608894348147 1.2598964571952822 -1.2362375259399412 1.0226984024047854 1.0111461877822878 -1.0260921716690061 -1.2798094153404234 1.0000000180025095e-35 -0.44214001297950739 -0.11556001007556914 0.88357907533645641 -0.58584377169609059 0.97239112854003917 0.56233397126197826 -0.23702283203601834 1.0000000180025095e-35 -0.77436283230781544 -1.0896355509757993 -1.0876502990722654 0.93375736474990856 -0.91962277889251698 0.90575104951858532 1.1148744821548464 0.3620776236057282 0.4770058542490006 0.77533692121505748 -1.3277330398559568 0.0030427973251789813 -0.8269827365875243 0.82607001066207897 1.2028676271438601 1.4959387183189394 0.70430999994277965 -0.38822916150093073 0.76996779441833507 1.0000000180025095e-35
decision_type=2 2 2 2 2 2 2 2 2 2 2 2 2 2 2 2 2 2 2 2 2 2 2 2 2 2 2 2 2 2 2 2 2 2 2 2 2 2 2 2 2
left_child=1 2 3 4 5 -1 19 8 24 13 -11 -10 -8 -9 25 18 20 -18 22 -5 -17 -20 -16 -6 -4 27 28 29 -27 -3 34 -32 38 -28 36 -36 37 39 40 -2 -33
right_child=30 14 7 6 23 -7 12 9 11 10 -12 -13 -14 -15 15 16 17 -19 21 -21 -22 -23 -24 -25 -26 26 33 -29 -30 -31 31 32 -34 -35 35 -37 -38 -39 -40 -41 -42
leaf_value=0.09588098789644374 0.19739717331821177 -0.13637149320726125 0.22305475272446201 0.094886767937684302 0.19515553587265616 0.0052509274608519372 0.12833881375140915 0.01812943990845714 -0.075121153288213782 -0.075224030640567874 0.14775301505988067 0.24185278979368113 0.16708976096908479 0.1292889539027357 0.060830999042959993 0.2003359921686137 0.033656166485567969 0.12784213799818542 0.12211606641698068 -0.060313256458686827 0.094943525843691839 -0.02620521204864722 0.17892358397722921 0.11127413381447884 -0.068115454049589422 0.29963558396182977 -0.017407844875942685 0.29003327058804745 0.06421767585913396 0.11587255288173122 0.21093270671946696 -0.11873968621168894 0.24038998844823034 -0.13823224978797025 0.19890759136830624 0.15604071542343656 0.21235348689495162 0.20952706095526907 -0.16138659789962745 0.18827901968589195 -0.11017245253542073
leaf_weight=42686.750784434378 11588.56294003129 7.7986399158835402 21.527291037142277 2173.299329444766 1221.4885442405939 1483.8112331181765 9489.0789573565125 3166.9562954977155 41.314769573509693 164.38277420401573 863.64470149576664 375.57977388054132 3176.9301665872335 286.7022705078125 174.02677969634533 1068.3082157298923 1499.4978154152632 6296.335067987442 1562.0871882215142 126.30563563853502 341.11990025639534 128.98727885633707 3427.4773767963052 276.10099104046822 126.52910958975554 12.65952907502651 22.213000357151031 27.709843054413795 118.97575930505991 45.740462899208069 45.741719126701355 11.418110057711603 7.6991727948188773 89.61400631070137 34.577754020690918 23.901789307594299 45.217531204223633 52.360992789268494 3.2864372730255136 56.744664520025253 3.1008519232273111
leaf_count=154282 5060 41 93 6177 1567 7309 27148 14738 292 1182 2482 1136 7160 794 584 1821 5563 16506 3778 533 1026 641 5805 610 934 16 86 36 356 112 20 87 38 454 15 33 20 28 14 30 37
internal_value=0 0.106016 0.100648 0.104183 0.0956847 0.0928365 0.130115 0.0581848 0.148534 0.0467956 0.112099 0.21044 0.138058 0.0273572 0.1298 0.131953 0.119694 0.109726 0.153275 0.0863624 0.174828 0.110803 0.173217 0.179691 -0.0257795 0.033669 -0.00550654 0.151058 0.0868581 0.0791301 0.196982 0.130132 -0.0147814 -0.114232 0.197385 0.181387 0.197465 0.197407 -0.125119 0.197353 -0.11691
internal_weight=0 80503 65680.4 60633.8 45668.2 44170.6 14965.6 5046.64 564.951 4481.69 1028.03 416.895 12666 3453.66 14822.6 14497.8 9205.26 7795.83 5292.58 2299.6 1409.43 1691.07 3601.5 1497.59 148.056 324.711 243.462 81.2489 131.635 53.5391 11872.6 71.2463 25.5046 111.827 11801.4 58.4795 11742.9 11697.7 17.8054 11645.3 14.519
internal_count=268644 263262 226437 204786 163768 161591 41018 21651 2455 19196 3664 1428 34308 15532 36825 35724 24916 22069 10808 6710 2847 4419 6389 2177 1027 1101 912 189 372 153 5382 196 176 540 5186 48 5138 5118 138 5090 124
is_linear=0
shrinkage=0.1


Tree=6
num_leaves=51
num_cat=0
split_feature=45 128 73 30 97 4 34 92 129 1 76 112 74 0 132 103 5 30 133 69 30 35 3 114 124 83 53 76 70 71 99 29 110 114 112 15 113 67 118 29 106 85 125 82 32 30 31 4 31 45
split_gain=8122 907.765 935.786 1655.41 1063.76 1069.13 982.674 969.27 1061.28 686.138 684.984 612.133 470.728 400.967 343.374 340.341 332.617 250.94 240.315 222.631 250.711 236.052 187.09 150.417 139.709 139.052 134.85 131.122 113.276 110.912 135.535 510.351 134.788 106.897 98.3535 90.7922 48.6234 39.4457 37.2014 33.2589 32.1626 74.2765 25.701 23.7028 22.7092 16.9956 11.3204 6.89444 0.511365 0.193158
threshold=0.79750594496727001 1.0000000180025095e-35 -0.84667193889617909 1.0838431119918825 -0.94511541724205006 0.65064716339111339 0.824784815311432 -1.1634788513183592 1.0000000180025095e-35 0.51525002717971813 -1.2623063325881956 -0.88366368412971485 -1.0246914625167844 0.48644474148750311 1.0000000180025095e-35 -0.8420719802379607 0.64533206820487987 1.07010954618454 1.0000000180025095e-35 -0.073290694504976259 1.0434082150459292 0.93216291069984447 0.57720878720283519 -0.95845475792884816 -1.4127129912376402 -1.4389445781707761 1.0835101008415224 -1.2232685089111326 -0.21159861981868741 -0.69379699230194081 -0.97272413969039906 1.2419087290763857 -0.91330090165138234 -0.88096755743026722 -1.0617896318435667 1.4094761013984682 -0.89658570289611805 -0.25985595583915705 -0.91169086098670948 1.250386714935303 -0.84839829802513111 -1.3527803421020506 -0.38822916150093073 -1.1030962467193601 0.81032329797744762 1.1063037514686587 0.96270373463630687 0.61736041307449352 0.93775728344917308 0.73864436149597179
decision_type=2 2 2 2 2 2 2 2 2 2 2 2 2 2 2 2 2 2 2 2 2 2 2 2 2 2 2 2 2 2 2 2 2 2 2 2 2 2 2 2 2 2 2 2 2 2 2 2 2 2
left_child=14 2 3 7 13 6 -6 10 -9 24 -2 19 -11 16 18 -15 -4 -7 29 20 25 28 27 -23 -5 -3 -22 33 -21 30 38 -32 37 -13 -16 45 -29 -31 -1 44 41 -24 -34 -41 49 -20 48 -42 -37 -36
right_child=1 11 4 9 5 17 -8 8 -10 12 -12 22 -14 15 34 -17 -18 -19 35 21 26 23 40 -25 -26 -27 -28 36 -30 32 31 -33 42 -35 39 46 -38 -39 -40 43 47 -43 -44 -45 -46 -47 -48 -49 -50 -51
leaf_value=0.23093294024473121 0.0012989283645761572 -0.057114740617309569 0.11678982068984906 0.10996770127374578 0.14500441522979288 -0.066916951874587779 0.085864480164280041 0.0046797065110293842 0.14709720530417478 0.048289794693326955 0.14704284651778851 0.097883271173038536 0.11860939707893202 0.17300474949348388 0.23943051968652618 -0.04130385920040866 -0.061901043606486884 0.032200591260766513 0.0065295937882681541 0.05321265125402061 0.12291198813092857 0.12196624913623882 0.32381082239760434 0.075539536418565104 -0.10303869321233748 0.16320169395484715 0.028688371148180122 0.064958813083121278 -0.091511810018998718 0.22400314649576117 -0.021246871927146943 0.16674708992893533 0.13026151866307131 0.0078048662689225281 -0.1148296713059009 -0.12753214354096531 -0.12558053758655824 0.335343278481116 0.17264284160664678 -0.12404824713744222 -0.060976536841945941 -0.12039415750608827 0.17987071510445002 0.16370657894798721 0.14960839691242905 0.15833540301919635 0.020676166378626723 -0.11530424592494221 -0.15305342484170045 -0.12705233282931566
leaf_weight=132.67457731813192 455.52168620377779 29.012778386473656 2923.5493247956038 36.596789762377739 2987.9766135662794 475.33874270319939 47069.453778482974 6095.1157230734825 572.38132677972317 1155.8686047419906 1104.1120313405991 393.05124790221453 5396.1544051766396 2216.6094603538513 11.685998447239397 76.665917932987213 108.0182258784771 552.11267518997192 10.843385815620421 263.84616226702929 4045.2504378184676 3051.9919943511486 6.1835747435688964 904.71692387759686 194.13155460357666 2273.7219185084105 157.81605362892151 18.00441038608551 68.025505170226097 60.317954853177071 186.52231954783201 639.50854050368071 105.42012171447277 198.16210225224495 21.465723164379597 16.247237198054794 52.289779737591743 67.348067387938499 626.51836159080267 4.2405890151858321 33.339196719229221 9.6214438155293447 11118.754696369171 8.8088909685611707 3.2596109211444846 23.056567177176476 5.1055697351694098 78.032671317458153 15.192241854965685 32.513419553637505
leaf_count=121 2590 206 8002 96 8797 2622 152213 28572 1775 4984 3663 1414 12818 4831 19 326 470 1981 31 805 8018 5494 18 2675 1029 3166 463 65 362 110 824 896 357 1237 216 102 344 110 449 35 284 71 4904 26 10 32 14 730 72 195
internal_value=0 0.0900625 0.0858509 0.0636604 0.0917556 0.087322 0.0893946 0.0335065 0.0169058 0.100236 0.104475 0.11603 0.106204 0.13429 0.174818 0.16584 0.110423 -0.013655 0.176104 0.122244 0.133904 0.104556 0.0309836 0.111351 -0.0692529 0.160426 0.119374 0.0523391 0.0235477 0.177107 0.152329 0.124297 0.180567 0.0676909 -0.0292058 -0.00809472 -0.0767778 0.282739 0.182829 -0.0738688 -0.0800968 0.0533971 0.179405 0.0701971 -0.106713 0.109778 -0.117436 -0.0990412 -0.139865 -0.122192
internal_weight=0 83002.7 71419.6 15009.9 56409.7 51084.9 50057.4 8227.13 6667.5 6782.75 1559.63 11583.1 6552.02 5324.84 13089.5 2293.28 3031.57 1027.45 13007.5 10794.4 6505.8 4288.58 788.684 3956.71 230.728 2302.73 4203.07 661.508 331.872 12937.1 1585.22 826.031 11351.8 591.213 81.9742 70.445 70.2942 127.666 759.193 70.2882 127.177 15.805 11224.2 13.0495 57.2388 33.9 36.545 111.372 31.4395 53.9791
internal_count=268644 260121 234769 55527 179242 165613 161010 36600 30347 18927 6253 25352 17802 13629 8523 5157 8472 4603 8022 21189 11853 9336 4163 8169 1125 3372 8481 3060 1167 7771 2290 1720 5481 2651 501 251 409 220 570 482 1103 89 5261 61 421 63 188 1014 174 411
is_linear=0
shrinkage=0.1


Tree=7
num_leaves=48
num_cat=0
split_feature=115 35 78 54 109 132 126 115 125 133 123 108 71 119 83 69 113 121 117 110 116 74 91 55 76 32 70 38 41 125 17 68 63 127 26 36 79 50 114 31 14 32 31 54 33 128 98
split_gain=7770.45 773.885 732.551 1290.57 853.398 2635.04 988.457 743.023 521.723 436.123 263.433 263.096 460.302 316.579 297.832 290.848 272.436 170.588 330.726 152.84 151.004 129.426 111.955 98.41 94.2321 165.889 92.2904 72.0172 61.3675 39.5223 83.5989 51.3377 64.4626 1.68177 41.3842 0.685321 0.366616 0.974144 0.584844 0.0965359 0.0549674 0.024269 0.0179283 0.0127767 0.00915707 0.00908084 0.00628682
threshold=-0.82528632879257191 0.92115551233291637 -0.36952285468578333 1.0829283595085146 -1.1221381425857542 1.0000000180025095e-35 -2.7802634239196773 -1.4585812687873838 -2.5865045785903926 1.0000000180025095e-35 -2.2256593704223628 -0.88693052530288685 -0.43605603277683253 -1.4491524100303648 -1.2689340710639951 -0.012667387723922728 -1.0139181613922117 -1.8911145925521848 -1.527893543243408 -1.0678210854530332 -1.0928305983543394 -0.42465353012084955 -0.23282187432050702 1.0651303529739382 -0.90827378630638111 0.96938279271125805 -0.17977225780487058 0.97864797711372387 1.0863729119300845 -0.38822916150093073 1.4402992725372317 0.0030427973251789813 0.52492776513099682 1.0000000180025095e-35 1.1084135174751284 0.71067124605178844 -0.67418998479843129 0.8438343107700349 1.5781386494636538 1.0001861453056338 1.2697635889053347 0.95112317800521862 0.88774073123931896 1.0528643727302553 0.77533692121505748 1.0000000180025095e-35 -1.114104628562927
decision_type=2 2 2 2 2 2 2 2 2 2 2 2 2 2 2 2 2 2 2 2 2 2 2 2 2 2 2 2 2 2 2 2 2 2 2 2 2 2 2 2 2 2 2 2 2 2 2
left_child=1 2 3 4 6 -6 -1 22 -9 11 17 12 20 -14 15 -13 -16 18 -4 39 -3 23 -5 -12 25 -21 -26 -19 -23 30 31 40 -33 34 -31 36 37 -35 -38 41 45 -11 46 -41 -42 -2 -36
right_child=29 9 10 7 5 -7 -8 8 -10 19 21 14 13 -15 16 -17 -18 27 -20 24 -22 28 -24 -25 26 -27 -28 -29 -30 33 -32 32 -34 35 42 -37 38 -39 -40 43 44 -43 -44 -45 -46 -47 -48
leaf_value=0.18827288184090055 -0.11548915123350784 -0.057536381209609716 0.12937582101884135 -0.11935413403881852 0.077235253684821842 -0.02416471397522154 0.050305404993095916 0.090415364083224176 -0.00027889503365077361 -0.12554216787354996 0.22326479388307702 0.099107331860825945 -0.055180103372523118 0.12181643243072571 0.14160535861781598 0.049229107819477813 0.0001767441303589715 0.16880412334592643 -0.06662569788675958 -0.1186946790613302 0.057550914036980316 0.095633194570199698 0.091743469859354582 -0.14975196307832303 0.30281046936887251 0.12589105601360348 -0.049837925183644709 0.106915331175856 -0.13277043691529308 -0.072886168258499195 0.26323679760713831 0.39647617335837881 -0.1227156289237489 0.16682889811810173 0.16707924977503003 0.17868091113268578 0.15222590581664575 0.1808583128466914 0.16677712421693128 -0.13603693270536552 -0.12660988972279516 -0.12919407466826599 0.16575484932214063 -0.13185306161869956 -0.12080605997743091 -0.10846606290308898 0.16864112372128495
leaf_weight=1371.6128847226501 5.9853407815098816 155.86465109884739 493.83287565410137 432.71864040941 57731.954370491207 2681.8345755189657 835.65760216116905 951.04201440513134 1904.3442932516336 37.746270477771759 29.521768815815449 9281.3218709751964 102.53257922828197 7006.3910689800978 172.800382822752 1337.5580280274153 643.12296585738659 1182.7688234746456 104.26581826806068 64.16694737970829 424.52957932651043 14.478743828833101 26.671846866607666 9.300913028419016 21.27911502122879 48.834557592868805 11.395353570580481 223.56328125298023 62.724535435438156 7.4959134757518759 15.10782331228256 5.3028335794806463 4.3556476384401321 10965.247334718704 57.615443706512451 49.03614068031311 44.410502374172211 49.717435210943222 73.062259197235107 15.728381201624872 6.0223283022642118 35.137252375483513 75.557581827044487 13.61913840472698 4.9553263336420059 2.6589498892426491 46.628350734710693
leaf_count=2075 52 622 700 2662 180504 13727 3840 2987 8799 234 46 21554 489 14180 333 3887 2000 1234 369 339 1107 36 77 47 38 130 56 436 396 23 10 12 30 4952 26 22 31 26 33 81 37 202 35 75 35 37 21
internal_value=0 0.0786267 0.0736071 0.0717466 0.0749654 0.072734 0.136039 0.0109383 0.0299286 0.096261 0.131461 0.0979693 0.112273 0.119264 0.0883511 0.0928247 0.0301292 0.139941 0.0952071 -0.0355232 0.0266443 -0.0150395 -0.107098 0.1339 0.0302533 -0.0129949 0.179823 0.158966 -0.0899355 0.16636 0.0721837 -0.026394 0.162338 0.166728 0.15733 0.166885 0.166833 0.166892 0.161276 -0.129253 -0.119293 -0.127303 0.166928 -0.134095 -0.12399 -0.113329 0.167778
internal_weight=0 87428.3 68056.3 65935.8 62621.1 60413.8 2207.27 3314.78 2855.39 19372 2120.46 19124.1 7689.32 7108.92 11434.8 10618.9 815.923 2004.43 598.099 247.907 580.394 116.026 459.39 38.8227 145.676 113.002 32.6745 1406.33 77.2033 11413.2 44.3882 29.2804 9.65848 11368.8 187.297 11181.5 11132.4 11015 117.473 102.231 19.6219 72.8835 179.801 29.3475 10.9777 8.64429 104.244
internal_count=268644 263262 217935 214671 200146 194231 5915 14525 11786 45327 3264 44172 16398 14669 27774 25441 2333 2739 1069 1155 1729 525 2739 93 563 469 94 1670 432 5382 213 203 42 5169 105 5064 5042 4978 64 592 161 436 82 156 72 89 47
is_linear=0
shrinkage=0.1


Tree=8
num_leaves=48
num_cat=0
split_feature=115 128 74 97 96 32 124 75 74 89 30 129 36 31 129 54 114 112 52 107 75 111 75 85 31 94 71 82 48 45 125 22 68 48 74 90 127 26 36 79 116 49 14 57 18 128 33
split_gain=7466.59 696.398 690.857 1248.99 830.452 761.074 1200.85 984.71 617.905 479.116 429.585 385.373 413.916 211.969 197.994 191.183 180.424 167.68 161.526 165.665 146.125 234.942 125.639 122.375 119.99 65.9433 65.268 57.1099 70.3124 56.0865 38.1955 64.6178 41.1776 40.8217 20.8087 16.0243 1.51615 35.3891 0.445905 0.385485 0.916438 0.538944 0.0465429 0.0191814 0.0154179 0.00642804 0.0058959
threshold=-0.82528632879257191 1.0000000180025095e-35 -1.0141428112983701 -0.98235121369361866 -1.0172004699707029 0.93478441238403331 -2.3804231882095332 -1.0242709517478941 -1.0631884336471555 -1.2362749576568601 1.0979956984519961 1.0000000180025095e-35 0.92055305838584911 0.98058217763900768 1.0000000180025095e-35 1.0122433900833132 -0.96558731794357289 -0.86766758561134327 1.1214607954025271 -0.87759938836097706 -1.1296777129173277 -0.84900498390197743 -1.0934162735939024 -1.330608546733856 0.99050989747047435 -1.0495095849037168 -0.36401605606079096 -1.3804247379302976 1.0639258623123171 1.0259138941764834 -0.38822916150093073 1.3261462450027468 0.0030427973251789813 1.1094354391098025 -1.0707649588584898 -1.1957177519798277 1.0000000180025095e-35 1.1084135174751284 0.71067124605178844 -0.67418998479843129 1.5705018639564516 0.85827550292015087 1.2697635889053347 0.49711219966411596 1.3057280182838442 1.0000000180025095e-35 0.71925202012062084
decision_type=2 2 2 2 2 2 2 2 2 2 2 2 2 2 2 2 2 2 2 2 2 2 2 2 2 2 2 2 2 2 2 2 2 2 2 2 2 2 2 2 2 2 2 2 2 2 2
left_child=1 2 4 14 8 6 -5 -7 34 15 -10 12 -6 22 16 27 -4 -13 24 -20 21 -17 25 -24 -15 -11 -22 35 -29 -16 31 32 42 -34 -1 -3 37 -32 39 41 -41 -38 45 -39 -44 -2 -45
right_child=30 9 3 5 11 7 -8 -9 10 13 -12 17 -14 18 29 20 -18 -19 19 -21 26 -23 23 -25 -26 -27 -28 28 -30 -31 36 -33 33 -35 -36 -37 38 43 -40 40 -42 -43 44 46 -46 -47 -48
leaf_value=-0.10815235417418355 -0.11379722075548876 -0.087898106932155162 0.063000743699683101 0.099383745888470293 -0.033732636534127107 0.061140909558809867 0.040979071580442006 0.092504899317714939 0.055765892910153908 0.078695694519140214 0.14049980046613117 0.16873074480274508 0.14526000284561932 0.12713915198383566 -0.079568555750447856 0.14183561231658387 0.13493620266317533 -0.078342845398757563 0.12897410054652139 0.019939838501343038 0.029229149595169097 0.0078471235293396044 0.030684740634600995 0.12559693121649557 0.09131271780942421 0.19253394386649214 -0.10268208873350229 -0.10339415244564919 0.075874665693204668 0.055305675930229482 -0.065966343589516668 0.22553867951310727 0.28371461176981783 -0.12092915459599761 -0.053350993345512771 0.13609298089196417 0.15656151369945862 0.15464589065870435 0.16625639977753881 0.13716236363368939 0.15669905525196492 0.16737216107566319 -0.11976466206860195 0.15666593727031977 -0.12850159012951209 -0.10759601997485349 0.15809378369959706
leaf_weight=143.14089760929346 5.3833078444004121 143.8388958349824 389.12373346835375 4245.4453316554427 2149.0617117956281 26539.825930371881 20613.56654842943 16072.472865626216 2915.8858934044838 58.985827691853046 752.78963246941566 156.41227556765079 137.45735701918602 1076.4743031412363 51.546819746494293 344.82509159296751 3353.368034414947 33.319531738758087 186.00121074914932 555.59074686467648 607.5743799880147 210.90783263742924 153.31694269180298 1192.1819244250655 7105.3872634023428 370.54623022675514 39.977127462625504 32.960256688296795 65.075097024440765 76.721728950738907 7.4560488164424887 15.872266218066214 6.587026081979273 4.0114219859242439 134.29517977684736 3.2663942277431479 10539.836095571518 40.741442188620567 47.506832599639893 34.534880757331848 78.788501262664795 46.317443281412125 7.5083403140306455 89.422124147415161 2.763082817196846 2.4243766516447067 42.742082118988037
leaf_count=1028 51 1145 951 8566 10042 76722 79408 40082 11102 114 1480 380 370 1696 202 703 6388 164 298 1556 2220 1189 430 1862 13104 292 255 192 224 211 23 11 13 29 879 7 4953 20 22 27 37 25 55 42 17 37 20
internal_value=0 0.0686782 0.0651999 0.0680279 0.0337855 0.0648587 0.0509535 0.0729708 0.0622709 0.0909461 0.0731528 -0.0116084 -0.0229722 0.0982537 0.12327 0.0369701 0.127457 0.125341 0.0919758 0.0472871 0.0533685 0.0909852 0.129814 0.114782 0.0960263 0.176901 0.0210855 -0.0435219 0.0156031 0.00110425 0.15606 0.0636545 -0.0259442 0.13056 -0.0816253 -0.0829245 0.156437 0.147345 0.15659 0.156547 0.150745 0.156609 -0.117691 0.156543 -0.122115 -0.111872 0.157128
internal_weight=0 89911.3 77764.4 71342.1 6422.36 67471.3 24859 42612.3 3946.11 12146.9 3668.68 2476.25 2286.52 10698.5 3870.76 1448.43 3742.49 189.732 8923.45 741.592 1203.28 555.733 1775.03 1345.5 8181.86 429.532 647.552 245.141 98.0354 128.269 10971.9 44.5498 28.6776 10.5984 277.436 147.105 10927.3 180.362 10747 10699.5 113.323 10586.2 18.0791 172.906 10.2714 7.80768 132.164
internal_count=268644 263262 237975 212530 25445 204778 87974 116804 14489 25287 12582 10956 10412 19352 7752 5935 7339 544 16654 1854 4367 1892 2698 2292 14800 406 2475 1568 416 413 5382 213 202 42 1907 1152 5169 105 5064 5042 64 4978 160 82 72 88 62
is_linear=0
shrinkage=0.1


Tree=9
num_leaves=54
num_cat=0
split_feature=45 128 31 30 105 106 131 73 70 103 108 103 112 116 129 75 69 36 30 61 68 114 114 3 76 104 48 108 124 127 105 104 114 2 69 19 2 82 32 31 107 106 75 99 62 79 33 59 60 108 31 115 53
split_gain=7171.93 594.652 615.776 882.271 1137.51 989.052 608.409 566.658 477.267 615.84 451.828 402.978 387.814 382.26 242.11 229.004 173.514 232.471 199.173 140.628 137.164 123.476 122.399 112.467 97.1266 85.1755 81.2347 73.761 56.5462 52.0767 45.9662 68.6118 44.0998 37.8352 60.9771 34.2425 32.0113 23.8349 22.3916 19.7217 19.3556 17.4076 17.1022 13.2987 46.4167 13.0342 8.81466 28.9024 21.0686 4.792 13.4671 3.74059 0.489025
threshold=0.73864436149597179 1.0000000180025095e-35 0.99899426102638256 1.0922745466232302 -0.86180344223976124 -0.99465098977088917 1.0000000180025095e-35 -0.77439776062965382 -0.32523709535598749 -0.85579648613929737 -0.82449564337730397 -0.84335216879844654 -0.88550603389739979 -0.94101539254188526 1.0000000180025095e-35 -1.1238545775413511 -0.090771287679672227 0.93882799148559581 1.0465688705444338 0.68163114786148082 0.14110178500413897 -1.2466305494308469 -0.93745723366737355 0.57720878720283519 -1.2177500724792478 -0.78973492980003346 1.1310314536094668 -0.90632545948028553 -1.0322400927543638 -1.1633887887001035 -0.97448721528053273 -0.90229311585426319 -0.91504657268524159 0.74562102556228649 -0.6769406497478484 1.1617712974548342 0.72371399402618419 -1.2383583784103391 0.95692703127861034 0.9721590280532838 -0.90242394804954518 -0.92572936415672291 -1.0597956776618955 -0.95026689767837513 1.0000000180025095e-35 -1.1658385396003721 0.77533692121505748 0.54122799634933483 0.45240643620491033 -0.90135586261749256 0.91058346629142772 -0.92022162675857533 0.68059650063514721
decision_type=2 2 2 2 2 2 2 2 2 2 2 2 2 2 2 2 2 2 2 2 2 2 2 2 2 2 2 2 2 2 2 2 2 2 2 2 2 2 2 2 2 2 2 2 2 2 2 2 2 2 2 2 2
left_child=22 2 3 4 5 -2 10 -6 9 -8 13 -10 16 -4 15 -5 18 19 21 -18 -19 -3 27 24 26 -20 -14 33 38 32 -29 41 36 43 -35 -12 42 -16 -25 -26 -38 -32 -24 -1 -45 -34 49 48 -48 51 -51 -31 -36
right_child=1 12 6 14 7 -7 8 -9 11 -11 35 -13 23 -15 37 -17 17 20 25 -21 -22 -23 29 28 39 -27 -28 30 -30 46 31 -33 45 34 52 -37 40 -39 -40 -41 -42 -43 -44 44 -46 -47 47 -49 -50 50 -52 -53 -54
leaf_value=0.18343543296598061 0.17854291342479953 -0.14084172166858908 0.069448576025548395 -0.066928099179327058 0.035131002579326671 0.023139771932883742 0.031225540698960788 0.069515293201143649 0.13743093845988411 -0.088567616745818381 -0.020647756998705954 0.042836131851653275 0.017294489936093876 0.1036882025383364 0.019499932051387364 0.10143410176566464 0.067745429040214092 0.083026219929390549 0.084601572531592395 -0.055970712604375111 0.020176744223071974 0.12443793832639101 0.058706573802659062 -0.11444552115056109 0.15860098490200822 -0.16796760791644408 0.0867130811701535 0.18781127329651834 0.15048371094288138 0.19602538128058339 0.087721606335218708 0.11561686749664855 0.050469450939527087 0.20184766498377368 -0.16456831359014243 -0.11360285623746286 0.05955690713316282 -0.14359991912354991 -0.021980725069140773 -0.11134880478786505 -0.15786521713344254 -0.13147802637830988 0.13870650950729799 0.19375959003724164 0.00965453807785536 -0.16012189292707024 -0.13429750421428407 0.15143936588266027 0.14447932410175143 0.14828284871553382 0.09698569291763337 0.14965213542383179 -0.11880979364322403
leaf_weight=43.339840292930603 419.05595144629478 17.69383992254734 24160.654520079494 82.551371701061726 6681.7844476476312 18041.037954583764 1764.7077801302075 16954.832400731742 587.04050476849079 567.03874569386244 58.242197275161743 1934.0331784784794 471.73530656844378 3769.3136557340622 11.184542149305342 3785.296025365591 160.8570908755064 4887.4801531583071 3644.6416159123182 214.26439224928617 373.80220839381218 2098.6061756685376 33.664124742150307 85.079918000847101 2.8579624518752089 13.401333399116991 262.30945698916912 9.9289394319057447 11.019228726625441 37.144163191318512 3.9807829335331908 18.94779434800148 4.5987487882375708 9.1894509792327899 2.938362628221511 124.00812202692032 11.283596485853197 45.047922179102898 37.837055996060371 51.003030702471733 6.4264601767063132 40.299812480807304 129.58696761727333 29.891240358352661 25.27296981215477 8.1433935612440091 7.3655136451125127 33.07226824760437 4.2899123430252075 10435.994378358126 51.43082794547081 32.713673427700996 11.384146906435488
leaf_count=29 902 110 60798 396 23015 73185 7163 45033 1246 2800 208 5523 2230 8662 38 7075 331 8868 6887 799 1112 2785 86 851 5 58 721 10 11 19 17 37 14 4 16 641 23 218 278 313 31 299 150 13 81 39 49 16 3 5242 76 25 103
internal_value=0 0.0601571 0.0569684 0.0494956 0.0452682 0.0266675 0.0674009 0.0597953 0.0347029 0.002094 0.0730453 0.0648629 0.0805791 0.0740694 0.0948458 0.0978408 0.0856194 0.0731381 0.0978026 -0.00291958 0.0785609 0.12222 0.14566 0.0181894 0.0325905 0.0836763 0.0421011 0.0671744 -0.0665278 0.147079 -0.0122187 -0.04363 0.0956955 0.114776 0.000797879 -0.083897 0.108357 -0.11116 -0.0859824 -0.0970248 -0.0193392 -0.111772 0.12221 0.141982 0.109414 -0.0841177 0.148017 0.103718 -0.0316905 0.148205 0.148031 0.174309 -0.128197
internal_weight=0 91318.4 78985.8 46020.8 42096.7 18460.1 32965 23636.6 4852.82 2331.75 28112.2 2521.07 12332.6 27930 3924.08 3867.85 11410.7 5636.4 5774.34 375.121 5261.28 2116.3 10990.9 921.842 787.906 3658.04 734.045 195.173 133.936 10795.7 73.1573 63.2284 193.703 122.016 23.512 182.25 180.961 56.2325 122.917 53.861 17.7101 44.2806 163.251 98.5041 55.1642 12.7421 10602 44.7277 11.6554 10557.3 10487.4 69.8578 14.3225
internal_count=268644 262262 236903 149862 142135 74087 87041 68048 16732 9963 70309 6769 25359 69460 7727 7471 20950 11110 9840 1130 9980 2895 6382 4409 3269 6945 2951 609 1140 5773 363 353 343 246 123 849 290 256 1129 318 54 316 236 123 94 53 5430 68 52 5362 5318 44 119
is_linear=0
shrinkage=0.1


Tree=10
num_leaves=45
num_cat=0
split_feature=115 114 34 83 133 114 74 58 132 134 75 47 70 68 40 110 127 108 124 106 36 98 25 32 90 101 136 30 70 105 27 125 16 46 31 127 24 52 36 33 20 14 27 92
split_gain=6878.76 536.261 1045.73 1086.46 907.172 1289.73 901.569 1022.1 893.298 948.626 1010.68 778.689 893.342 761.177 606.187 586.85 419.877 415.393 298.45 295.308 266.86 239.709 202.152 163.635 171.683 156.578 155.248 106.162 99.3312 78.1716 50.6944 35.6424 46.8474 34.0189 13.0857 1.37099 30.0981 0.636637 0.339486 0.0545399 0.047736 0.0234991 0.00607467 0.00514667
threshold=-0.82528632879257191 -1.1056965589523313 0.83144021034240734 -0.95342376828193653 1.0000000180025095e-35 -1.1836572289466856 -0.89627599716186512 0.88877776265144359 1.0000000180025095e-35 1.0000000180025095e-35 -1.0481014251708982 1.2201053500175478 -0.13520231097936627 -0.075587596744298921 1.0673023462295534 -0.83461314439773548 -3.3036631345748897 -1.0841019153594968 -1.6170691251754759 -0.949632167816162 0.79642117023468029 -1.0123755931854246 1.4544938206672671 0.96981516480445873 -1.1126202344894407 -0.86973825097084034 1.0000000180025095e-35 1.1107277870178225 -0.2804404348134994 -0.92709755897521962 1.2817396521568301 -0.38822916150093073 1.4372372627258303 1.0854002833366396 0.99333229660987865 1.0000000180025095e-35 1.1449391245841982 0.82830533385276806 0.71067124605178844 0.77533692121505748 1.72884076833725 1.3093994259834292 1.2667781114578249 -1.2271191477775572
decision_type=2 2 2 2 2 2 2 2 2 2 2 2 2 2 2 2 2 2 2 2 2 2 2 2 2 2 2 2 2 2 2 2 2 2 2 2 2 2 2 2 2 2 2 2
left_child=1 2 3 22 11 19 8 23 9 15 -11 12 -4 -7 18 -3 -13 30 -9 -6 -19 -10 29 24 -8 -24 -16 -23 -25 -1 -5 32 33 39 -35 36 -33 38 40 -2 -37 -38 -43 -41
right_child=31 6 4 17 5 13 7 14 21 10 -12 16 -14 -15 26 -17 -18 20 -20 -21 -22 27 25 28 -26 -27 -28 -29 -30 -31 -32 35 -34 34 -36 37 41 -39 -40 43 -42 42 -44 -45
leaf_value=-0.098353737566929333 -0.1245996224400014 0.059384110603527766 0.032942103917169126 0.16662942156349178 -0.09237170101838868 -0.044786921918322155 0.0050167064423800589 0.060570294661423808 0.29617359140333244 -0.016934386503782085 0.056435487756858499 0.052281350661634855 0.10126458908925509 0.081819001060568788 0.098932701778488563 -0.02800767167322489 -0.053149545599577741 0.16310142966009883 -0.0021033378847454677 -0.02073365181225191 0.08838676509251242 -0.10070938087436687 0.015168687000176918 -0.10159652130571968 0.11286885053899509 0.22248126288664496 -0.12769363198636527 0.24949927859661797 0.069153536215604494 -0.018072836121002196 0.3336777010799703 -0.067459055428939776 0.1875298014481819 0.013715815023667567 0.23185306088598256 0.14169296104320386 0.13947548838367702 0.12933341311429283 0.15058140697784472 -0.11380438329001336 0.14363951329477562 0.14339917380133704 0.14187496501687827 -0.10879734578071605
leaf_weight=252.84890144318342 5.7182949781417909 52741.803307652473 6084.6273287534714 22.940496489405632 1369.1594212800264 680.79597637057304 151.01566176116467 1214.9781747758389 16.259084105491638 3713.4893816187978 3797.3896089792252 558.7170222401619 2791.8966309204698 1569.9677297919989 1685.5308962762356 779.75742902606726 1166.1133901327848 580.51311757415533 2028.115269869566 992.57777133584023 2708.3729255050421 469.95661190897226 353.79732313379645 35.796819359064102 6514.8891934454441 40.613836586475372 30.779679760336876 8.8183724880218488 705.99614208936691 233.11212863773108 87.300139978528023 7.1982442736625663 16.066521286964417 6.3394391015171987 4.8569576144218445 9462.3365875482559 36.684241220355034 41.412701547145844 43.417874455451965 8.3638940081000346 127.683589220047 38.708885908126831 80.577504873275757 2.7206598669290498
leaf_count=1331 37 138206 22469 41 7347 2903 402 3252 9 15512 10064 1377 5470 4642 3183 3998 5901 1409 5960 4832 6735 2701 1192 146 11634 74 125 4 1249 1040 54 23 10 34 10 4941 20 35 22 82 66 20 42 40
internal_value=0 0.0534155 0.0386616 0.0823321 0.0263775 -0.0106426 0.0573075 0.0819449 0.0523554 0.0534406 0.0201603 0.0424845 0.0544313 0.0435241 0.04681 0.0581109 -0.0189978 0.107975 0.0213764 -0.0622641 0.101574 -0.0814355 -0.0166738 0.105467 0.110425 0.0365164 0.0948685 -0.094259 0.0609136 -0.0598435 0.298916 0.14115 0.0514154 -0.0266898 0.108343 0.141552 0.132462 0.141706 0.141759 -0.116667 0.141719 0.141689 0.14237 -0.112575
internal_weight=0 93387.9 19493.4 4279.5 15213.9 4612.5 73894.6 12367.1 61527.5 61032.4 7510.88 10601.4 8876.52 2250.76 4959.4 53521.6 1724.83 3399.13 3243.09 2361.74 3288.89 495.034 880.372 7407.7 6665.9 394.411 1716.31 478.775 741.793 485.961 110.241 9882.09 44.0658 27.9992 11.1964 9838.02 163.169 9674.85 9633.44 16.8028 9590.02 155.971 119.286 11.0846
internal_count=268644 263262 66817 11876 54941 19724 196445 25951 170494 167780 25576 35217 27939 7545 12520 142204 7278 8239 9212 12179 8144 2714 3637 13431 12036 1266 3308 2705 1395 2371 95 5382 213 203 44 5169 105 5064 5029 159 5007 82 62 122
is_linear=0
shrinkage=0.1


Tree=11
num_leaves=46
num_cat=0
split_feature=115 128 74 97 97 36 74 95 115 129 74 84 87 51 125 69 117 30 69 3 77 56 40 75 78 37 95 74 74 16 107 125 22 68 45 46 127 27 52 54 33 51 57 33 33
split_gain=6583.16 482.525 534.274 1063.08 748.069 571.46 540.453 571.622 525.172 463.361 452.099 460.286 319.828 284.034 250.856 247.768 213.091 167.268 144.833 193.189 128.868 128.514 157.456 179.366 125.538 93.8836 93.3263 164.197 142.881 68.0657 38.6483 33.762 38.5903 28.6651 23.4496 10.4074 1.3012 27.5401 0.90506 0.256471 0.0579793 0.0387159 0.0245717 0.0227506 0.01071
threshold=-0.82528632879257191 1.0000000180025095e-35 -1.0070961713790891 -0.97508120536804188 -0.99026903510093678 0.917344629764557 -0.98778274655342091 -0.99787989258766163 -0.93077898025512684 1.0000000180025095e-35 -1.0631884336471555 -1.3496289253234861 -1.2906704545021055 1.1018765568733218 -1.3536848425865171 -0.048630787059664719 -0.99464467167854298 1.0499561429023745 -0.1241399012506008 0.57720878720283519 -1.2930151820182798 0.97098946571350109 1.0099511146545412 -1.0905491709709165 -1.1774258017539976 0.96685421466827404 -0.99787989258766163 -0.97312018275260914 -0.99444913864135731 1.0561767816543581 -0.89395499229431141 -0.38822916150093073 1.3261462450027468 0.0030427973251789813 1.0531955957412722 1.0875615477561953 1.0000000180025095e-35 1.0787219405174258 0.82830533385276806 0.75121134519577037 0.74924543499946605 0.79196885228157055 0.49711219966411596 0.77533692121505748 0.71925202012062084
decision_type=2 2 2 2 2 2 2 2 2 2 2 2 2 2 2 2 2 2 2 2 2 2 2 2 2 2 2 2 2 2 2 2 2 2 2 2 2 2 2 2 2 2 2 2 2
left_child=1 2 4 16 10 9 8 -8 -5 -6 34 -12 13 18 -7 20 24 -18 19 -3 -15 26 30 -24 -4 -17 28 -28 -14 -20 -23 32 33 40 -1 -35 37 -33 39 41 -2 -38 -39 -42 -44
right_child=31 12 3 6 5 14 7 -9 -10 -11 11 -13 21 15 -16 25 17 -19 29 -21 -22 22 23 -25 -26 -27 27 -29 -30 -31 -32 36 -34 35 -36 -37 38 42 -40 -41 43 -43 44 -45 -46
leaf_value=-0.090916632519702348 -0.13581535737235972 0.092082374751531346 -0.10822735989402153 -0.014122800777227679 -0.039073934945311528 -0.033133760446486402 0.077633690241200023 0.043805981509837791 0.061175467713659518 0.083771239318802593 0.11945583567788959 0.038903491955450238 0.083194443280054306 0.11495676117246678 0.14370503595179526 -0.11521139547444299 -0.11348660212116662 0.10277884039703788 -0.048188934558435655 -0.043193047913595843 0.039275717526771933 0.0077080295749168666 0.13786220280950839 0.054666278317297125 0.048370081980341671 0.018946909577422302 0.12654744605225546 0.079771670244548745 0.010812899281346064 0.14976103659628842 -0.1628464970857825 -0.065705453951350037 0.17067592081884442 0.20234181196284076 0.003144965418774718 0.011373593273494537 0.13619182509408823 0.13386513675204334 0.12114257655526382 0.14472554873536284 -0.11967520818880231 0.13877541770739824 0.13623592396806497 -0.11084382673199289 0.13832063851023862
leaf_weight=239.4625840485096 1.2593474537134195 251.63211262226105 67.267808526754379 2902.4587217345834 2980.922018121928 108.37723751366138 5457.9177587032318 58937.470913652331 1360.3979148045182 342.3041830509901 853.04300393164158 4211.7289001345634 745.68201971799135 667.23726750910282 308.73236927390099 59.38335707038641 36.079846248030663 4077.423242777586 537.64776014536619 181.87598533183336 339.46126322820783 20.314370051026344 281.45949073135853 3268.0119717717171 214.21765340864658 428.94523273408413 908.4512285515666 4314.952012360096 429.97779054939747 17.950679823756218 38.403605833649635 7.0819823741912833 15.925673231482504 4.965372681617735 29.802602231502533 6.7105542197823524 8957.2504009008408 34.544484063982964 39.871996238827705 35.495417714118958 4.1194711476564398 58.379796266555786 75.618415355682373 9.993080195039509 36.556491136550903
leaf_count=1661 7 645 257 11021 13155 413 12844 169751 3503 911 2053 13119 1288 1076 676 348 175 7787 2565 1235 811 52 285 6407 458 1422 1109 6832 1006 34 172 23 11 6 191 36 4978 20 35 19 30 32 42 123 20
internal_value=0 0.0473848 0.0445998 0.0474424 0.0217149 -0.0125726 0.0443904 0.0466731 0.009907 -0.0264204 0.0457579 0.0524707 0.0656957 0.0335796 0.0977572 0.0610836 0.0951219 0.100882 -0.00799232 0.0353283 0.0894369 0.073668 0.0585766 0.0612634 0.0109473 0.00263255 0.0821775 0.0879069 0.0567221 -0.0417934 -0.103841 0.13561 0.047179 -0.0255356 -0.0805058 0.0925859 0.136021 0.1269 0.136176 0.136242 -0.115256 0.136209 0.136197 -0.113422 0.136915
internal_weight=0 94619 82127.6 73053.2 9074.37 3740.34 68658.2 64395.4 4262.86 3323.23 5334.04 5064.77 12491.4 2484.13 417.11 1495.03 4394.99 4113.5 989.107 433.508 1006.7 10007.3 3608.19 3549.47 281.485 488.329 6399.06 5223.4 1175.66 555.598 58.718 9287.77 42.9735 27.0478 269.265 11.6759 9244.8 153.801 9091 9051.13 15.3719 9015.63 146.719 14.1126 112.175
internal_count=268644 263262 237975 205796 32179 15155 197119 182595 14524 14066 17024 15172 25287 8136 1089 3657 8677 7962 4479 1880 1887 17151 6916 6692 715 1770 10235 7941 2294 2599 224 5382 213 202 1852 42 5169 105 5064 5029 160 5010 82 153 62
is_linear=0
shrinkage=0.1


Tree=12
num_leaves=45
num_cat=0
split_feature=115 35 80 55 115 42 72 107 78 69 27 35 4 69 104 38 39 47 120 136 125 122 118 30 105 59 36 72 127 125 83 30 38 51 42 52 34 68 109 33 47 69 24 74
split_gain=6283.69 451.095 489.776 847.305 806.008 769.032 858.891 737.498 580.943 234.227 419.516 352.593 259.973 252.315 236.201 179.838 131.424 131.36 120.526 117.471 102.357 86.8362 93.6207 76.5526 69.0897 62.7392 102.523 53.1409 51.5109 31.8017 32.6989 26.4489 14.2072 9.25543 3.27713 1.39594 1.24169 4.87525 1.22478 0.142268 0.100448 0.0265132 0.00911821 0.00285907
threshold=-0.82528632879257191 0.92685246467590343 -0.28585286438465113 1.0371776819229128 -1.4585812687873838 1.1132148504257204 -0.54087841510772694 -0.97321444749832142 -0.48070991039276117 -0.009744700510054825 1.1351583600044253 0.95569619536399852 0.44630458950996404 -0.036900827661156647 -0.92027550935745228 1.0041067004203799 1.0014152526855471 1.1527963876724245 -1.4741234779357908 1.0000000180025095e-35 -2.7018734216690059 -2.0917445421218868 -1.5837900042533872 0.78126016259193432 -0.97448721528053273 0.86597332358360302 0.98061406612396251 -0.32713121175765986 -1.9827288985252378 -0.38822916150093073 -1.4940018057823179 1.0430977940559389 0.94558817148208629 1.1729001402854922 1.1173301935195925 0.82830533385276806 0.74019896984100353 -0.0082256817258894426 -0.86601248383522023 0.76996779441833507 0.76880142092704784 -0.14039663970470426 1.1879149079322817 -1.057322025299072
decision_type=2 2 2 2 2 2 2 2 2 2 2 2 2 2 2 2 2 2 2 2 2 2 2 2 2 2 2 2 2 2 2 2 2 2 2 2 2 2 2 2 2 2 2 2
left_child=1 2 3 5 24 6 -1 -7 -6 10 17 14 19 -14 33 -16 21 38 -19 -12 23 22 -4 -18 -5 28 -27 -22 -13 30 42 -32 41 -11 -23 36 39 -38 -3 40 -31 -33 -2 -44
right_child=29 9 16 4 8 7 -8 -9 -10 11 12 25 13 -15 15 -17 20 18 -20 -21 27 34 -24 -25 -26 26 -28 -29 -30 35 31 32 -34 -35 -36 -37 37 -39 -40 -41 -42 -43 43 -45
leaf_value=0.041517890909126803 -0.112694896767756 -0.20485939210510679 0.088136783606745983 0.11922493378462212 -0.010747734541079457 0.13338343821677245 -0.01272287958742448 -0.1127219415498745 0.065787855575283924 0.20903960907331742 0.027962909080134459 0.10519295289736448 0.068281696128268329 0.030843496613325441 -0.131052512033666 -0.0076594876537150859 0.01001413616688843 -0.097417297927515231 0.12624076242416371 -0.050186561907588058 0.23932137141075535 0.079580728858677674 -0.15208351251591251 0.11020214802955959 -0.11011679714837828 -0.0001410530826880285 0.085088480526242904 -0.14234589705589601 0.012773901191761776 0.13158278349818456 0.15403580847652379 -0.1090202767152344 0.16406811928006421 0.13044445916671005 0.13745150935024883 0.11238840236079001 0.065684041354819117 0.13394733449930246 -0.14338619220305845 0.12644232020749277 0.13697242422511011 -0.12334907966745588 -0.11691147080482128 -0.1213019282274473
leaf_weight=67958.195274438709 3.79113971441984 4.3775018006563213 24.000797972083092 13.412833563983439 3096.6932269372046 1368.6423884183168 3050.3915024548769 133.65483651310205 1459.037443831563 36.943264096975327 932.58764515817165 448.79781550168991 9497.882859505713 2221.1520534455776 135.40648133307695 924.83731139451265 80.649938374757767 24.593354731798172 1187.1718707308173 242.32205703854561 4.2856068462133434 18.749332278966904 50.068652898073196 1402.9017946124077 635.29534863680601 268.7257985919714 297.26270586252213 24.52132573723793 69.670241951942444 8462.5489104092121 21.933035142719749 5.7486392632126808 2.4844969511032104 25.206167727708817 20.467142105102539 38.485785111784935 14.055403143167494 40.924290180206299 12.484484791755674 53.718764126300812 34.72170090675354 1.6654662601649741 3.1655682250857353 2.7908819988369942
leaf_count=191393 39 18 31 38 12302 2313 13070 518 3284 24 2503 708 18352 5436 620 2818 170 126 1724 826 3 28 193 1602 3442 726 571 134 178 5032 29 84 2 29 17 36 22 24 65 35 20 13 26 20
internal_value=0 0.0421399 0.0390247 0.0378884 -0.0010862 0.0406857 0.0391878 0.111488 0.0137639 0.0572758 0.0620102 0.0269785 0.0566899 0.0611859 -0.0123117 -0.0234183 0.0933486 0.117844 0.121702 0.0118448 0.10113 -0.0105392 -0.0742447 0.104756 -0.105375 0.0676431 0.0446223 -0.0855653 0.0927739 0.130971 0.0437256 0.0927991 -0.0428874 0.177163 0.109784 0.131391 0.131476 0.116496 -0.159345 0.131572 0.131605 -0.112239 -0.116529 -0.118969
internal_weight=0 95670.4 79341 77715.3 5204.44 72510.9 71008.6 1502.3 4555.73 16329.4 14122.6 2206.85 12893.9 11719 1122.39 1060.24 1625.64 1228.63 1211.77 1174.91 1512.36 113.286 74.0695 1483.55 648.708 1084.46 565.989 28.8069 518.468 8686.03 41.5792 31.8316 9.8986 62.1494 39.2165 8644.45 8605.97 54.9797 16.862 8550.99 8497.27 7.41411 9.74759 5.95645
internal_count=268644 263262 228538 226360 19066 207294 204463 2831 15586 34724 29050 5674 27117 23788 3491 3438 2178 1933 1850 3329 1909 269 224 1772 3480 2183 1297 137 886 5382 213 128 99 53 45 5169 5133 46 83 5087 5052 97 85 46
is_linear=0
shrinkage=0.1


Tree=13
num_leaves=43
num_cat=0
split_feature=115 112 128 29 73 30 97 111 72 2 52 77 54 73 123 43 112 7 125 22 56 33 126 69 30 32 38 52 34 68 74 128 51 70 74 33 38 72 69 0 33 52
split_gain=5974.96 389.886 412.646 439.134 546.646 744.944 658.619 218.291 255.272 207.856 194.595 116.035 113.203 69.9212 62.6147 178.116 132.944 59.0864 30.0474 28.6812 28.1005 25.5077 24.8412 21.0689 20.1767 14.153 13.8562 1.74999 1.37515 4.88966 0.823403 0.727096 0.309977 0.403811 0.197747 0.161764 0.0826132 0.0736836 0.0189236 0.014934 0.00338079 0.0026035
threshold=-0.82528632879257191 -0.84129965305328358 1.0000000180025095e-35 1.2356659770011904 -0.85548511147499073 1.0864570140838625 -0.94785329699516285 -0.90002787113189686 -0.56395244598388661 0.57565325498580944 1.088630259037018 -1.2782977819442747 1.0540560483932497 -0.73295912146568287 -1.1283372640609739 1.0602936148643496 -0.83074340224266041 0.82180598378181469 -0.38822916150093073 1.239442050457001 0.96817389130592357 0.87188479304313671 -1.3958645462989805 -0.10663133114576338 1.0430977940559389 0.96127182245254528 0.94558817148208629 0.82830533385276806 0.74019896984100353 -0.0082256817258894426 -1.0184912681579588 1.0000000180025095e-35 1.1018765568733218 -0.214923121035099 -1.0275888442993162 0.76996779441833507 0.92032366991043102 -0.55056947469711293 -0.14039663970470426 1.0685464739799502 0.77533692121505748 1.079902231693268
decision_type=2 2 2 2 2 2 2 2 2 2 2 2 2 2 2 2 2 2 2 2 2 2 2 2 2 2 2 2 2 2 2 2 2 2 2 2 2 2 2 2 2 2
left_child=1 2 3 4 5 -1 -6 11 10 30 -9 20 -13 -10 31 21 22 -11 19 39 -4 -16 -17 -18 -21 -23 38 28 35 -30 -5 34 41 -34 -3 37 -36 -20 -26 -2 -41 -33
right_child=18 14 7 9 6 -7 -8 8 13 17 -12 12 -14 -15 15 16 23 -19 27 24 -22 25 -24 -25 26 -27 -28 -29 29 -31 -32 32 33 -35 36 -37 -38 -39 -40 40 -42 -43
leaf_value=-0.0022485346764514586 -0.12081664274168874 -0.12701620385315285 0.091716842392829651 -0.12423940522635091 0.066625794434997151 0.044611978214144005 0.034674790733846883 0.017509813909374131 -0.0195420401872301 0.12666341378659285 0.068920992183857235 0.06851743267400498 0.043523946005622483 -0.11855730420151762 0.22100243621019772 0.14372340147477386 0.18151083662894441 0.080264755710130378 0.12772435443992378 0.1379346769238852 0.17956714140858474 -0.10191658900607306 0.30814978845124469 -0.096156713281042069 -0.10810284069652001 0.084572885580811538 0.17501379731730318 0.10573572731781081 0.06031298411457893 0.1297909201539735 -0.15445287235556274 -0.11447691583381364 -0.14673344315737022 -0.11881499590856757 -0.15966214670160928 0.12201474702568012 -0.14523937038573045 0.12292020860310877 -0.12071710450164473 -0.11567556137968596 -0.11039979318847692 -0.11714387335308557
leaf_weight=8495.4665766134858 4.0473636016249639 5.8356433510780326 56.916229203343391 14.064566500484942 7220.3980802297592 5647.645071901381 60588.974671460688 1499.9092404842377 267.56082104146481 339.42838111519814 1446.0238638073206 6417.5873465389013 2525.2854189798236 97.237833172082901 2.5491570681333533 18.566927418112755 3.0750080943107632 1433.8800587803125 7879.1598633527756 22.002570971846584 101.06216046214104 174.67064818739891 18.189677312970161 24.547775380313396 5.2434698231518269 4.1665739417076102 2.2585048675537109 36.899971857666969 13.790690556168554 38.153842687606812 25.14909240603447 8.8396437242627126 11.700613319873812 9.2975457906723005 4.3181657195091239 50.278926134109497 49.46612736582756 32.05544313788414 1.5381343960762004 2.1082442104816437 2.8656477853655815 6.2472846657037726
leaf_count=33652 30 36 84 94 16116 13654 170294 4857 948 436 2780 10112 5059 442 5 41 17 2449 5030 33 53 1329 11 145 84 17 1 36 22 24 114 83 56 73 19 35 235 22 13 18 34 51
internal_value=0 0.0375665 0.0379452 0.0354238 0.034347 0.0164639 0.038077 0.0549617 0.0329739 0.0841101 0.0427452 0.0629606 0.0614598 -0.0459348 -0.0690986 -0.0423766 0.100519 0.0891459 0.127033 0.0406462 0.147917 -0.0930946 0.225093 -0.0652464 0.0862578 -0.0975717 -0.0395176 0.127463 0.127563 0.111345 -0.143616 -0.137719 -0.126516 -0.134372 -0.1445 0.127669 -0.146397 0.127705 -0.110964 -0.116306 -0.112636 -0.115581
internal_weight=0 96518.1 96176.6 83765 81952.5 14143.1 67809.4 12411.6 3310.73 1812.52 2945.93 9100.85 8942.87 364.799 341.471 245.766 64.3794 1773.31 8090.4 40.0639 157.978 181.386 36.7566 27.6228 31.0427 178.837 9.04011 8050.34 8013.44 51.9445 39.2137 95.705 36.0851 20.9982 59.6199 7961.49 53.7843 7911.22 6.7816 9.02126 4.97389 15.0869
internal_count=268644 263262 261144 236809 233716 47306 186410 24335 9027 3093 7637 15308 15171 1390 2118 1565 214 2885 5382 213 137 1351 52 162 131 1346 98 5169 5133 46 208 553 263 129 290 5087 254 5052 97 82 52 134
is_linear=0
shrinkage=0.1


Tree=14
num_leaves=44
num_cat=0
split_feature=115 0 114 74 57 134 55 132 40 125 44 108 34 135 91 127 91 107 54 38 51 109 36 50 35 125 83 32 30 38 40 117 113 39 51 127 27 41 57 20 69 25 33
split_gain=5660.23 393.815 506.495 736.075 874.527 850.188 829.089 677.032 509.473 472.541 870.53 897.922 676.467 991.195 632.332 426.085 262.899 198.888 135.032 124.397 105.925 90.3694 36.7773 47.0488 31.3559 28.4706 25.2698 18.2578 17.846 10.6368 9.83314 7.57014 2.47911 2.44864 2.18587 1.55505 25.8614 0.137724 0.0266891 0.0156969 0.0135599 0.00813079 0.00229472
threshold=-0.82528632879257191 -0.39345228672027582 -1.1093562841415403 -0.90864792466163624 0.93856975436210643 1.0000000180025095e-35 1.0000308156013491 1.0000000180025095e-35 1.0660876631736758 -2.5489307641983028 1.1890588998794558 -1.048632740974426 0.82177913188934337 1.0000000180025095e-35 -0.91623681783676136 -3.3036631345748897 -1.0973615646362302 -0.91306564211845387 1.1121321320533755 0.97247552871704113 1.1793664097785952 -1.0544726848602293 0.89703041315078746 1.2246613502502444 0.8463997244834901 -0.38822916150093073 -1.4940018057823179 0.80617162585258495 1.0430977940559389 0.94558817148208629 1.0472273826599123 -1.5432493090629575 -1.3197845220565794 1.0256718993186953 0.86847817897796642 1.0000000180025095e-35 1.0787219405174258 0.7014639973640443 0.49711219966411596 1.72884076833725 -0.14039663970470426 1.1906061172485354 0.77533692121505748
decision_type=2 2 2 2 2 2 2 2 2 2 2 2 2 2 2 2 2 2 2 2 2 2 2 2 2 2 2 2 2 2 2 2 2 2 2 2 2 2 2 2 2 2 2
left_child=1 17 9 5 16 7 -7 -4 -6 10 11 -3 14 -14 -11 -12 -5 20 31 21 24 -20 27 -24 30 26 41 -22 -28 40 -1 -19 -33 -21 35 36 -27 39 -38 -37 -30 42 -2
right_child=25 2 3 4 8 6 -8 -9 -10 12 15 -13 13 -15 -16 -17 -18 18 19 33 22 -23 23 -25 -26 34 28 -29 29 -31 -32 32 -34 -35 -36 37 38 -39 -40 -41 -42 -43 -44
leaf_value=-0.062739814425402302 -0.11396333434292825 0.11481314487153763 0.036418140385072691 -0.038371400584154725 0.0024166579388677618 0.0076527274431514069 -0.12275479625873849 -0.085969664534858825 0.064552271375471676 -0.038520364563135734 0.030398584185301683 0.011723950314995381 -0.012050308417959963 0.07081454778935925 0.087040071243855627 -0.079006907804300294 0.0708539446563477 -0.04472780604271645 0.109958835901191 -0.22137822772657587 0.14865363979821045 -0.12698019857689138 0.13060693853415337 -0.12152339493578915 0.056904396341598051 -0.076467457405681005 0.129895808273506 0.22601897907155802 -0.10728420795282062 0.13894888208193854 -0.23251416871356922 -0.20280211884464627 -0.14496066362541235 -0.14798024482635724 0.097386793461401208 0.12436208637569227 0.12134361115709935 0.13137861115592256 0.12487545483378687 0.12562946582554499 -0.11842181563678467 -0.11753179822757794 -0.10948697465190019
leaf_weight=5.9033779054880169 1.934804193675516 2041.1663438379765 51701.912305422127 224.36191038787365 4067.9073512032628 5977.6754214167595 530.81579780578613 455.98030327633023 1953.1927393972874 517.34512298926711 765.03896732628345 1441.6777551919222 10251.013195298612 1680.0878624171019 1784.8450943604112 665.74541664868593 12368.015693508089 5.2598867118358603 153.55082325637341 10.168019801378252 456.9606616050005 17.982232630252838 21.711104691028595 11.229028701782225 12.543773233890532 6.8008393496274939 21.413784407079223 32.68585766851902 4.7788395434617996 2.3782536834478378 8.0821292847394925 15.357411757111549 14.318829849362373 8.2194550335407239 30.489888042211533 7187.66194242239 27.995160207152367 28.221469283103943 90.764886260032654 99.070783495903015 1.417345467954872 3.7794403433799744 2.8061239793896675
leaf_count=16 18 2977 133391 653 11420 20375 2315 2489 3761 2185 1686 3591 41341 4405 4931 3723 23098 13 176 42 298 72 23 41 19 22 29 19 84 2 33 62 68 39 32 4948 20 18 62 67 13 31 36
internal_value=0 0.0335557 0.0329855 0.036593 0.0539194 0.0310957 -0.00298297 0.0353482 0.0225729 0.0184251 0.0451627 0.0721407 0.00919475 -0.000381625 0.0588243 -0.0205079 0.0689078 0.104603 0.0253857 0.0586223 0.137042 0.0851199 0.146937 0.0446577 -0.0578904 0.123665 0.0379017 0.153818 0.0810811 -0.0408287 -0.160851 -0.155296 -0.174894 -0.188568 0.124107 0.124217 0.113183 0.124406 0.124043 0.124379 -0.109832 -0.114072 -0.111314
internal_weight=0 97200.8 96426.8 77279.9 18613.5 58666.4 6508.49 52157.9 6021.1 19146.9 4913.63 3482.84 14233.3 11931.1 2302.19 1430.78 12592.4 773.973 224.857 189.921 549.116 171.533 522.587 32.9401 26.5293 7509.51 38.5086 489.647 29.9882 8.57444 13.9855 34.9361 29.6762 18.3875 7471 7440.52 125.561 7314.95 118.76 7286.73 6.19619 8.52037 4.74093
internal_count=268644 263262 262341 197502 38932 158570 22690 135880 15181 64839 11977 6568 52862 45746 7116 5409 23751 921 472 329 449 248 381 64 68 5382 213 317 128 99 49 143 130 81 5169 5137 104 5033 82 5015 97 85 54
is_linear=0
shrinkage=0.1


Tree=15
num_leaves=44
num_cat=0
split_feature=115 78 113 135 33 73 132 35 60 76 134 53 109 38 122 47 118 98 82 82 45 73 33 116 76 61 59 107 67 51 125 22 30 38 54 33 65 72 48 81 18 69 24
split_gain=5340.64 348.849 578.751 719.409 941.979 699.772 683.332 654.909 540.264 485.418 1030.38 536.754 221.053 164.364 168.991 245.8 198.629 160.29 182.228 123.99 108.604 129.452 90.1032 62.5232 60.9745 91.2623 50.7285 36.6946 35.7248 34.2566 26.9844 22.4423 13.6045 10.676 2.66376 1.56799 6.87279 0.0851715 0.038242 0.0211558 0.0206481 0.00975043 0.00277872
threshold=-0.82528632879257191 -0.36952285468578333 -1.1476036906242368 1.0000000180025095e-35 0.86729365587234508 -0.45593066513538355 1.0000000180025095e-35 0.86951974034309398 0.82360762357711803 -1.1286821365356443 1.0000000180025095e-35 1.0873316526412966 -1.0593315362930296 0.98107856512069713 -2.0917445421218868 1.2201053500175478 -1.58892285823822 -1.0123755931854246 -1.0974723100662229 -0.17863976955413816 1.1958215236663821 -0.38855017721652979 0.88060045242309581 -1.5220362544059751 -0.39169041812419886 0.79775038361549389 0.85068255662918102 -1.0058782696723936 0.32491846382617956 1.2118071317672732 -0.38822916150093073 1.239442050457001 1.0430977940559389 0.94558817148208629 0.77038505673408519 0.76996779441833507 0.15557780116796496 -0.55056947469711293 0.81377333402633678 -1.4979355335235593 1.1270641684532168 -0.14039663970470426 1.1879149079322817
decision_type=2 2 2 2 2 2 2 2 2 2 2 2 2 2 2 2 2 2 2 2 2 2 2 2 2 2 2 2 2 2 2 2 2 2 2 2 2 2 2 2 2 2 2
left_child=1 2 3 4 8 -6 9 22 -1 10 -4 -11 -9 14 15 16 -3 -8 -19 -17 26 28 -5 -23 25 -16 27 -15 -22 -26 31 39 -33 41 35 37 -37 38 -32 42 -38 -34 -2
right_child=30 13 6 7 5 -7 17 12 -10 11 -12 -13 -14 20 24 19 -18 18 -20 -21 21 23 -24 -25 29 -27 -28 -29 -30 -31 34 32 33 -35 -36 36 40 -39 -40 -41 -42 -43 -44
leaf_value=0.044582948924915253 -0.10909920848947147 0.026607380850797203 0.031071906757699642 -0.10570615241303093 -0.04345254324051756 0.071376427776427845 0.24254009430217494 0.14623172080365557 -0.023986004061616713 0.048428862987485499 -0.021510350626923653 0.017111255103697817 0.038394099850510649 -0.18222251499240449 0.11024110978600335 -0.19161314147629749 -0.18465144087239471 -0.099741565853197933 -0.0030596245670296502 0.091226863672960193 -0.010396106411560482 -0.13668268828164962 0.051178305440707464 -0.018335623668759491 0.12800871152623844 0.023667045361865688 0.15356151978157087 0.11968351571830452 0.16675252344412775 0.024888404182227399 0.12153531460737617 0.11743544166740101 -0.1065526746192883 0.15480106295111598 0.092408020229276244 0.054171803761944554 0.12172563914883933 0.11599293949226064 0.12529272924671175 -0.1232687434826658 0.12536869178003773 -0.11641203789588793 -0.11345700179112789
leaf_weight=4664.9096059091389 2.8199512362480164 112.32663540542126 43761.065484821796 174.52129276096821 4572.4906837046146 600.38969850540161 17.484992191195488 721.72875899076462 1524.6377366408706 27447.97556052357 4073.5648359134793 6835.5498059019446 258.05463220179081 8.9741814583539981 321.28625001013279 16.105144649744034 73.710714936256409 518.69028831273317 312.34659953415394 411.86906510591507 16.95656755566597 80.502283312380314 46.325886368751526 100.20722465217113 651.43414504826069 196.07171811163425 56.551367044448853 7.3012263104319564 34.639673516154289 33.890813395380974 6744.2593204975128 21.264179907739166 4.3522426374256629 2.1089463233947754 31.920210048556328 18.597763791680336 33.785641431808472 27.689347267150879 27.196335911750793 2.001226268708705 28.836721777915955 1.3034677579998941 3.041308656334877
leaf_count=14285 38 198 112528 742 21753 1654 9 1371 6054 61835 15979 18566 709 37 334 68 301 2975 1399 503 51 490 131 255 518 368 36 8 25 80 5018 33 84 1 35 30 25 22 19 14 20 13 30
internal_value=0 0.0300424 0.0291516 0.00914929 0.00137055 -0.0301249 0.0321805 0.0827651 0.0276927 0.033103 0.026594 0.0421847 0.11783 0.0701469 0.0815534 0.0388682 -0.0570964 -0.0570991 -0.0634035 0.0805833 0.00223507 -0.0311687 -0.0727974 -0.0710568 0.103346 0.0774307 0.108788 -0.046786 0.108534 0.122909 0.120774 0.0354759 0.0760676 -0.0372219 0.121229 0.121363 0.107551 0.121528 0.12155 -0.114391 0.123403 -0.108825 -0.11136
internal_weight=0 97651.6 95529.7 12563.1 11362.4 5172.88 82966.7 1200.63 6189.55 82118.2 47834.6 34283.5 979.783 2121.83 1816.69 614.012 186.037 848.522 831.037 427.974 305.133 232.306 220.847 180.71 1202.68 517.358 72.8268 16.2754 51.5962 685.325 6949.18 36.8913 29.0288 7.76466 6912.29 6880.37 81.2201 6799.15 6771.46 7.86249 62.6224 5.65571 5.86126
internal_count=268644 263262 259990 46699 43746 23407 213291 2953 20339 208908 128507 80401 2080 3272 2370 1070 499 4383 4374 571 902 821 873 745 1300 702 81 45 76 598 5382 213 131 98 5169 5134 75 5059 5037 82 45 97 68
is_linear=0
shrinkage=0.1


Tree=16
num_leaves=45
num_cat=0
split_feature=115 37 107 35 106 35 133 131 31 71 73 132 136 129 0 111 8 101 117 133 76 123 107 103 4 14 114 44 33 99 125 106 83 30 46 38 53 34 68 33 72 25 69 33
split_gain=5022.29 348.254 389.914 510.709 491.286 531.335 506.124 373.204 480.882 343.247 314.123 293.825 240.415 233.875 260.279 220.576 207.203 198.942 180.731 158.128 120.042 117.778 97.8942 57.0447 55.3353 53.2448 51.923 38.6738 35.5263 34.0828 25.655 23.9519 19.9624 12.3727 9.7302 8.15654 3.93275 1.8083 5.21579 0.195817 0.0958832 0.00898954 0.00703285 0.00118122
threshold=-0.82528632879257191 0.97417074441909801 -1.0354503989219663 0.85122808814048778 -0.96003276109695423 0.77722808718681347 1.0000000180025095e-35 1.0000000180025095e-35 1.0000755190849306 -0.44380283355712885 -0.74557894468307484 1.0000000180025095e-35 1.0000000180025095e-35 1.0000000180025095e-35 0.30487211048603063 -0.90714749693870533 0.53700292110443126 -0.90197134017944325 -1.440311014652252 1.0000000180025095e-35 -1.1666525602340696 -1.3968697786331175 -0.79822218418121327 -0.80436307191848744 0.51623752713203441 1.1360815763473513 -0.96965563297271717 1.0957159996032717 0.8554191291332246 -0.81514814496040333 -0.38822916150093073 -0.90216973423957814 -1.4940018057823179 1.0430977940559389 1.155635714530945 0.94558817148208629 0.80568543076515209 0.74019896984100353 -0.0082256817258894426 0.76996779441833507 -0.55056947469711293 1.1906061172485354 -0.14039663970470426 0.77533692121505748
decision_type=2 2 2 2 2 2 2 2 2 2 2 2 2 2 2 2 2 2 2 2 2 2 2 2 2 2 2 2 2 2 2 2 2 2 2 2 2 2 2 2 2 2 2 2
left_child=1 2 3 11 5 17 -7 8 -6 -9 13 25 27 16 29 18 23 -4 31 -20 22 -18 -17 -3 -16 -1 -22 -5 -13 -15 32 -12 41 -34 -14 42 37 39 -39 40 -32 43 -35 -2
right_child=30 10 4 12 7 6 -8 9 -10 -11 15 28 34 14 24 20 21 -19 19 -21 26 -23 -24 -25 -26 -27 -28 -29 -30 -31 36 -33 33 35 -36 -37 -38 38 -40 -41 -42 -43 -44 -45
leaf_value=-0.15266627392692259 -0.11113644201876412 0.12856292968634628 0.026225572048540403 -0.015378869606473842 0.022032047191534905 0.035698114950983288 -0.058443143942228305 -0.005249783980318657 0.038254686568862696 0.05574463122075473 -0.13149583082041558 0.22529973904112191 0.24890530566335395 0.10542042963629801 0.090256962915306355 0.021907150516687374 -0.023028246894735555 0.12947643931978611 0.04467180639365375 -0.071382896074881838 0.1008324736282626 0.075725345343071918 -0.10078726972771782 -0.1472459579868928 -0.03258048410180666 0.20434825475567028 -0.13629218510166177 -0.13408171979490818 0.30988868972285516 0.21784854926857267 0.11909221910750001 0.13694421259653422 0.11197863248481206 -0.10589813549505722 0.15049358065809415 0.1221167594144586 0.080112609727945427 0.04322840784793839 0.12057377600510369 0.11211330782101991 0.11297042054096221 -0.1160325375243634 -0.11464599687975169 -0.10762302594657028
leaf_weight=22.454932123422626 1.6225977167487138 8.5680769011378271 675.56279549002647 44.905101791024208 48391.73623392731 791.62510292232037 2049.8310068398714 5979.6720117926598 29357.693849332631 1090.9561620205641 67.243331901729107 115.66215014457703 18.384243130683899 30.424127772450447 361.79701226949692 347.11504582315683 134.81851591169834 257.83304576575756 6262.7149469256401 119.64681535959244 10.11384856700897 1158.98940525949 80.020175598561764 60.09525828063488 40.808998838067055 5.1321554630994788 106.19141887128353 70.598262667655945 86.994868233799934 237.09460784494877 6244.3980097770691 3.4967323690652838 20.517063185572628 3.9611695948988217 22.153426095843315 2.1981382817029953 26.270785510540009 12.235590651631354 30.33301055431366 40.758388340473175 25.690205723047256 3.4809251353144646 1.1966601666063041 2.3324538357555866
leaf_count=104 18 13 1474 190 139964 2679 9072 21109 66593 2186 388 69 16 58 655 894 324 448 12710 541 18 2022 361 232 124 6 434 342 55 142 5034 13 29 84 26 2 32 22 24 35 22 31 13 36
internal_value=0 0.0269223 0.0250234 0.125274 0.0245863 -0.0107127 -0.0322155 0.0261573 0.0281576 0.00416129 0.045635 0.219932 -0.0143978 0.0802403 0.128608 0.0355817 0.0564511 0.0547467 0.0407343 0.0424962 -0.0256035 0.0654349 -0.00107861 -0.112829 0.0778059 -0.0862492 -0.115672 -0.0879327 0.261611 0.205062 0.118254 -0.118227 0.0332486 0.0720851 0.195124 -0.039185 0.118724 0.118884 0.0983422 0.119022 0.119067 -0.112326 -0.107928 -0.109064
internal_weight=0 98010.3 88981.2 386.285 88594.9 3774.85 2841.46 84820.1 77749.4 7070.63 9029.14 230.244 156.041 2032.6 670.125 6996.54 1362.47 933.396 6453.1 6382.36 543.44 1293.81 427.135 68.6633 402.606 27.5871 116.305 115.503 202.657 267.519 6414.99 70.7401 35.309 27.873 40.5377 7.35597 6379.69 6353.42 42.5686 6310.85 6270.09 7.43598 5.15783 3.95505
internal_count=268644 263262 244333 808 243525 13673 11751 229852 206557 23295 18929 234 574 3570 979 15359 2591 1922 13652 13251 1707 2346 1255 245 779 110 452 532 124 200 5382 401 213 128 42 99 5169 5137 46 5091 5056 85 97 54
is_linear=0
shrinkage=0.1


Tree=17
num_leaves=45
num_cat=0
split_feature=115 111 128 90 74 97 30 31 129 130 87 77 91 74 52 75 123 36 100 38 112 124 0 38 68 42 125 22 113 54 22 38 4 50 32 53 127 21 72 41 83 51 19 24
split_gain=4710.66 329.103 319.694 387.108 458.514 734.586 456.234 187.788 138.59 128.582 127.602 151.557 124.74 150.935 112.023 89.9013 86.1071 215.479 123.572 148.682 115.568 135.291 76.6048 53.3479 61.0819 51.9782 24.4069 17.8767 17.4628 11.2852 18.8583 10.5853 9.53643 63.6522 6.86447 4.38098 1.98756 25.6926 1.09062 0.062521 0.0289079 0.020138 0.0073295 0.00161629
threshold=-0.82528632879257191 -0.84498450160026539 1.0000000180025095e-35 -1.2520842552185056 -1.0131271481513975 -0.97508120536804188 1.0957111120224001 0.98058217763900768 1.0000000180025095e-35 1.0000000180025095e-35 -1.2906704545021055 -1.2909960746765134 -1.1636865139007566 -0.98115214705467213 1.1214607954025271 -1.1038982868194578 -1.1663505434989927 0.92094010114669811 -0.90683835744857777 0.92032366991043102 -0.83074340224266041 -1.1945586800575254 0.41957850754261022 0.99050405621528637 0.10219459608197214 1.0369701385498049 -0.38822916150093073 1.239442050457001 -0.8608109951019286 1.0351840853691103 1.3854856491088869 0.94558817148208629 0.55844956636428844 1.1166481971740725 0.95448178052902233 0.80568543076515209 1.0000000180025095e-35 1.2132794260978701 -0.59839335083961476 0.7014639973640443 -1.4940018057823179 0.82130116224288952 1.5140756368637087 1.1879149079322817
decision_type=2 2 2 2 2 2 2 2 2 2 2 2 2 2 2 2 2 2 2 2 2 2 2 2 2 2 2 2 2 2 2 2 2 2 2 2 2 2 2 2 2 2 2 2
left_child=1 2 3 8 6 -6 -5 12 9 -1 11 -9 13 -4 -12 -14 23 18 19 -18 21 -19 -20 32 -25 -10 27 40 -26 30 31 -29 38 -34 -22 36 37 -28 -3 41 43 -38 -39 -2
right_child=26 16 7 4 5 -7 -8 10 25 -11 14 -13 15 -15 -16 -17 17 20 22 -21 34 -23 -24 24 28 -27 35 29 -30 -31 -32 -33 33 -35 -36 -37 39 42 -40 -41 -42 -43 -44 -45
leaf_value=0.14791066938626449 -0.10732231680859675 -0.1575867258254004 0.051965676987118931 -0.01623224675942362 0.058249806839597233 0.021388974301014899 0.04873328416569743 0.031253945587627271 -0.12423140223561871 -0.016990110696151802 0.043615544520748832 -0.026579878630869854 0.14147183259413418 -0.10408087196673871 0.0026765397225171498 0.070892562703552681 -0.082486962566797328 0.048035809133638439 0.10257226849260333 0.12681530613952027 -0.039837603220861606 0.26548737395989302 -0.10649623345061941 0.2460784450113597 -0.13630434975592393 0.14195363958821147 -0.071400644098262397 -0.12075744037146233 0.10233113701831534 0.17675747505774897 0.12550285311597281 0.14154560145362405 -0.13908046008281297 0.14762749328694014 -0.13627283407516197 0.075017291645788589 0.1169281493267858 0.11697270402483664 -0.13476207441520846 0.12219850962867743 -0.12400822424217153 0.11961484523279678 0.11904446167617069 -0.11090025598795945
leaf_weight=389.90564355254173 2.406885951757431 44.360945709049702 243.7076483592391 5349.4317640922964 5843.6808299086988 72259.056820631027 1354.7526722028852 1366.9119950085878 31.984140455722809 53.812180712819099 7532.5682877898216 677.80450616031885 207.58779059350491 83.126469984650612 733.47538375854492 1381.6680152788758 70.145955584943295 166.6037257835269 18.579525463283062 65.755364671349525 10.330648675560949 34.54416435956955 309.03014734387398 8.7404460310935992 12.884768426418306 9.5192632079124433 7.8105754107236853 7.8706309571862274 4.0242596045136443 7.0382604300975791 10.061355933547018 1.9123030900955198 49.570614621043205 9.176984637975691 25.854916647076607 25.30131895840168 5699.0267666578293 69.769750237464905 39.642281197011471 22.710910439491272 1.7821727842092503 28.035709381103516 22.610369324684143 2.6555889509618282
leaf_count=678 39 198 470 20801 11719 198821 3003 3861 143 190 12902 2060 148 335 1733 2102 478 500 53 198 58 27 1987 5 73 21 24 117 18 6 7 1 273 16 161 32 4992 61 230 18 12 23 19 31
internal_value=0 0.024124 0.0246701 0.0225022 0.0219926 0.0241469 -0.00310429 0.0397924 0.111567 0.127912 0.03445 0.0120826 0.0685408 0.012277 0.0399829 0.0801116 -0.0371347 -0.0217067 -0.061384 0.0187832 0.0557828 0.0853799 -0.0946395 -0.101343 0.0314389 -0.0631789 0.116052 0.0312274 -0.0795104 0.0679636 0.0293772 -0.0694842 -0.125201 -0.0942937 -0.108741 0.116539 0.116719 0.102755 -0.146815 0.116962 -0.113055 0.116941 0.11748 -0.109199
internal_weight=0 98388.2 97519 85292.1 84806.9 78102.7 6704.18 12226.9 485.221 443.718 10310.8 2044.72 1916.09 326.834 8266.04 1589.26 869.245 700.844 463.511 135.901 237.333 201.148 327.61 168.4 25.6495 41.5034 5908.99 33.7272 16.909 26.8826 19.8443 9.78293 142.751 58.7476 36.1856 5875.27 5849.96 100.191 84.0032 5749.77 6.84465 5727.06 92.3801 5.06247
internal_count=268644 263262 258987 235376 234344 210540 23804 23611 1032 868 20556 5921 3055 805 14635 2250 4275 3462 2716 676 746 527 2040 813 96 164 5382 213 91 131 125 118 717 289 219 5169 5137 104 428 5033 82 5015 80 70
is_linear=0
shrinkage=0.1


Tree=18
num_leaves=41
num_cat=0
split_feature=115 92 46 109 132 106 70 106 47 116 45 130 78 77 111 48 38 126 72 25 116 55 110 72 52 3 91 1 127 33 95 32 7 22 105 98 54 51 33 69
split_gain=4404.58 320.149 617.777 428.681 969.26 646.514 557.108 421.979 415.766 395.217 275.586 179.809 215.716 140.906 118.124 355.82 185.899 127.071 89.5886 75.5278 48.9355 60.3494 48.4468 24.4958 22.8409 23.1595 20.7365 12.6836 6.22087 31.9239 18.4017 5.74346 5.61773 1.40976 0.774866 0.076225 0.0613921 0.0151924 0.0122024 0.00461211
threshold=-0.82528632879257191 -0.24295102059841153 1.2134501934051516 -1.1269463300704954 1.0000000180025095e-35 -0.99465098977088917 -0.12411282211542128 -0.96161100268363942 1.2001218795776369 -1.4857902526855467 1.1958215236663821 1.0000000180025095e-35 -0.48070991039276117 -0.42902366816997523 -1.2340580224990843 1.2201709151268008 0.97247552871704113 -2.9877364635467525 -0.5094507336616515 0.9691416621208192 -1.5013184547424314 1.0533581376075747 -1.2008441686630247 -0.32713121175765986 0.90564018487930309 0.54640996456146251 -0.23282187432050702 0.48584012687206274 1.0000000180025095e-35 0.76413661241531383 -1.2585632801055906 0.95565843582153331 0.6314058005809785 1.3590058088302615 -0.78424140810966481 -1.114104628562927 0.75121134519577037 0.82130116224288952 0.77533692121505748 -0.14039663970470426
decision_type=2 2 2 2 2 2 2 2 2 2 2 2 2 2 2 2 2 2 2 2 2 2 2 2 2 2 2 2 2 2 2 2 2 2 2 2 2 2 2 2
left_child=1 2 3 6 7 -6 8 -5 -1 20 -8 12 -11 -3 17 19 -17 22 -13 -16 26 -22 -15 -19 28 32 -4 -27 29 33 -31 39 -26 -2 -32 -35 37 38 -30 -29
right_child=24 13 9 4 5 -7 10 -9 -10 11 -12 18 -14 14 15 16 -18 23 -20 -21 21 -23 -24 -25 25 27 -28 31 36 30 34 -33 -34 35 -36 -37 -38 -39 -40 -41
leaf_value=0.042997682006217446 0.089803181384970052 0.24318194045508812 -0.12365463131794337 -0.013154057023519423 0.22281915480743134 -0.034700796522599602 0.13606821616950077 0.024297949625338756 -0.11590771601859001 -0.05402699360110863 -0.0078536498717634972 0.017551454857020251 0.042461607286690413 0.12875048747741633 -0.17039314435596153 0.090794333820749862 -0.021262397339933407 0.020939710702679536 0.16142655603305919 -0.014994956240485663 0.025728102432142852 -0.094283436664971562 0.074255414081509347 -0.13621822491190269 -0.039623519809753205 0.13314116763689984 0.11064228882591097 -0.1047298874798849 0.11505118082826689 0.12296138847380976 -0.109979361506024 0.096050647068465236 -0.20585857952475353 0.11520626172838122 -0.17009163216524356 0.12209907365370638 0.1195464525395082 0.11760155770907919 0.11742331883274526 -0.11281927823334115
leaf_weight=1086.4110722988844 24.591141745448112 41.389314875006676 407.54204359650612 3118.2844997793436 100.06767685711384 3783.281919144094 948.27765767276287 85397.604381509125 194.06586316227913 642.12547685205936 154.75970876961946 84.649217158555984 362.50755772739649 197.14572604000568 92.222978517413139 492.34049962460995 211.70933140814304 14.535289719700812 88.556662291288376 47.326412290334702 56.856402188539505 159.29993672668934 945.67330501973629 31.220912836492062 4.3580052219331282 14.448855310678484 3.8128142431378356 3.2070861291140345 5218.6321516036987 3.8041573762893668 4.1259138621389857 2.1227326672524214 3.8103093653917313 46.439024090766907 4.46495597064495 24.512106895446777 30.850175380706787 23.644826173782349 21.775721788406372 0.90332036837935081
leaf_count=3315 36 31 2697 11022 81 16504 762 218891 873 2936 444 294 1017 172 378 578 521 41 179 107 197 785 1227 194 28 12 16 83 4977 3 60 5 17 44 20 20 26 21 19 11
internal_value=0 0.0216443 0.0208097 0.0219135 0.0208333 -0.0280649 0.0637858 0.0229786 0.0189144 -0.0371382 0.115876 -0.00298712 -0.0192105 0.0605224 0.0568022 0.0281845 0.0570986 0.0771137 0.0911119 -0.117692 -0.10124 -0.0627164 0.0836563 -0.0862941 0.11414 0.0253991 -0.121483 0.0817057 0.114614 0.0908479 -0.0601413 -0.0375252 -0.117168 0.110436 -0.141222 0.117588 0.115099 0.115072 0.115061 -0.106508
internal_weight=0 98661.7 96588.1 94782.8 92399.2 3883.35 2383.51 88515.9 1280.48 1805.35 1103.04 1177.84 1004.63 2073.56 2032.17 843.599 704.05 1188.58 173.206 139.549 627.511 216.156 1142.82 45.7562 5431.69 28.8503 411.355 20.682 5402.84 107.937 12.395 6.23314 8.16831 95.5423 8.59087 70.9511 5294.9 5264.05 5240.41 4.11041
internal_count=268644 263262 260013 251892 246498 16585 5394 229913 4188 8121 1206 4426 3953 3249 3218 1584 1099 1634 473 485 3695 982 1399 235 5382 156 2713 111 5226 183 83 99 45 100 80 64 5043 5017 4996 94
is_linear=0
shrinkage=0.1


Tree=19
num_leaves=47
num_cat=0
split_feature=115 29 73 1 98 73 4 52 122 128 35 83 85 104 0 0 105 133 75 5 82 95 11 107 53 104 112 3 54 127 33 11 30 50 92 23 76 5 105 8 22 75 54 51 32 32
split_gain=4106.29 310.987 335.799 523.233 382.806 609.26 478.781 347.095 328.424 322.794 240.915 217.984 188.852 297.36 194.942 152.096 134.392 98.6329 112.506 97.0262 88.4469 107.744 84.9851 30.7035 24.2081 20.0065 12.159 11.1726 6.1203 6.03091 28.1748 16.1037 2.91181 2.55112 2.06153 1.5653 1.44552 0.533997 0.528087 0.203315 0.0986132 0.0590702 0.0486861 0.0111046 0.00879933 0.00010427
threshold=-0.82528632879257191 1.2419087290763857 -0.90718090534210194 0.63543611764907848 -0.96004825830459584 -0.85548511147499073 0.69374915957450878 0.91758501529693615 -1.0034298300743101 1.0000000180025095e-35 0.70155879855155956 -1.289847135543823 -1.3482884168624876 -0.84136512875556935 0.50369012355804454 0.56735214591026317 -0.91139701008796681 1.0000000180025095e-35 -0.95505332946777333 0.63717100024223339 -1.042241036891937 -0.97228002548217762 1.0783874392509463 -0.97206380963325489 0.91409096121788036 -0.80985143780708302 -1.0967944264411924 0.54640996456146251 1.0351840853691103 1.0000000180025095e-35 0.76413661241531383 1.2248883247375491 1.08881151676178 1.0852563977241518 -0.66745623946189869 1.2837508320808413 -1.1135338544845579 0.67863339185714733 -0.78424140810966481 0.89890986680984508 1.3854856491088869 -1.087135314941406 0.75121134519577037 0.82130116224288952 0.82947698235511791 0.94995117187500011
decision_type=2 2 2 2 2 2 2 2 2 2 2 2 2 2 2 2 2 2 2 2 2 2 2 2 2 2 2 2 2 2 2 2 2 2 2 2 2 2 2 2 2 2 2 2 2 2
left_child=1 2 3 9 12 7 -7 -6 10 11 -5 -1 13 -4 -14 23 -10 20 22 -11 21 -17 -19 -3 29 34 -20 -27 33 30 35 -32 -22 -29 39 -2 41 -38 -33 45 -37 -25 43 44 -31 -26
right_child=24 15 4 8 5 6 -8 -9 16 19 -12 -13 14 -15 -16 17 -18 18 26 -21 32 -23 -24 36 25 27 -28 28 -30 42 31 38 -34 -35 -36 40 37 -39 -40 -41 -42 -43 -44 -45 -46 -47
leaf_value=-0.011922537897530963 0.075218527829508552 0.08043867180816601 0.12274774223622409 0.0072330541909905489 0.046919400067405997 0.021529238475532231 -0.071377662340359208 -0.019421251961980062 0.0066440541567760816 -0.1657993998336284 0.077826367502159932 -0.078331539058791699 -0.02272319520485332 -0.020643818554237969 0.04383645830068339 0.078469650094032103 -0.091443169145518532 0.085589648028361359 -0.016009589057090171 0.078852454955617449 0.18126170553112239 -0.14052433001385942 -0.19523245025327063 -0.12529060220282867 -0.10443218660790335 -0.061808216166523391 -0.18118615013805975 0.10846803885768297 0.15940732724440002 0.113415599137938 0.12041101013887508 -0.10899234978153992 0.14931566249770109 -0.021010356759735477 -0.26229443477100473 0.10743406254848326 -0.16032577029656969 -0.19818679415192106 -0.16035955086340636 -0.15667567541805283 0.11549153418684917 -0.13994543651156841 0.11742591114288348 0.11568983961367425 0.11556633030735873 -0.10587139433200815
leaf_weight=789.8240654990077 12.617357790470122 6.724094182252883 623.12812386453152 912.85332384333014 912.19899725168943 79399.546630345285 558.58075688779354 5823.3165595307946 279.42459416761994 17.331228818744421 1027.6725565493107 1320.9104505702853 485.756695702672 188.33263585716486 4674.6578652709723 965.41688884794712 279.31462391465902 83.445199728012085 5.2032326012849799 250.64550894498825 40.05671751499176 23.00142490491271 12.37469060719013 11.850179754197594 1.4724507387727506 5.6017341651022461 31.05684968829155 2.50586306862533 8.5057741701602918 4787.5289413928986 3.5112853646278355 3.7653603926300994 99.166120991110802 3.8746811654418707 1.531674057245257 21.012711495161057 16.467214927077297 4.8143432140350333 4.2721980363130578 1.1490040272474287 54.807662904262543 3.581817865371705 30.752136886119843 21.730056881904602 19.098806858062744 0.76490824297070492
leaf_count=3845 23 12 1041 2633 2540 205015 2384 20130 923 98 2123 5725 1602 796 10649 1352 1249 108 15 445 22 108 57 77 39 34 138 13 5 4978 3 60 64 33 7 23 73 20 20 5 54 18 28 21 18 18
internal_value=0 0.0194361 0.0187878 -0.00678505 0.020134 0.0184471 0.0208802 -0.0104367 0.0251665 -0.0403559 0.0446182 -0.0534817 0.0446229 0.0894679 0.0375711 0.067964 -0.0423899 0.0743079 -0.00745206 0.0630297 0.0838844 0.0733735 0.0493228 -0.116014 0.112461 0.0150957 -0.157484 0.058573 0.103873 0.112959 0.0886487 -0.058247 0.158507 0.0298403 -0.166026 0.107831 -0.151994 -0.168891 -0.136296 -0.122484 0.113259 -0.128692 0.11346 0.113434 0.113424 -0.104924
internal_weight=0 98846.7 97543.5 4877.98 92665.5 86693.6 79958.1 6735.52 2499.27 2378.71 1940.53 2110.73 5971.88 811.461 5160.41 1303.16 558.739 1259.72 132.08 267.977 1127.64 988.418 95.8199 43.4376 4984.5 25.4061 36.2601 20.4881 14.8863 4959.1 99.9866 11.5488 139.223 6.38054 4.91804 88.4377 36.7136 21.2816 8.03756 3.38636 75.8204 15.432 4859.11 4828.36 4806.63 2.23736
internal_count=268644 263262 261198 17041 244157 230069 207399 22670 6928 10113 4756 9570 14088 1837 12251 2064 2172 1864 318 543 1546 1460 165 200 5382 154 153 85 51 5228 183 83 86 46 69 100 188 93 80 62 77 95 5045 5017 4996 57
is_linear=0
shrinkage=0.1


Tree=20
num_leaves=47
num_cat=0
split_feature=115 0 45 126 132 106 109 116 107 116 48 107 130 84 102 42 52 38 50 109 11 36 50 121 113 52 104 45 58 33 3 127 73 128 54 39 53 92 113 37 0 54 98 51 33 32
split_gain=3818.85 277.315 299.354 415.425 809.229 1128.74 671.272 397.338 364.846 315.454 215.397 167.858 134.074 149.311 120.684 170.236 107.347 114.113 93.1918 89.602 82.582 31.8843 36.6924 30.0828 29.9437 23.3468 16.9065 15.8993 13.8798 10.9502 9.32314 5.84496 25.3679 23.7528 5.40005 2.14647 1.74113 1.27912 0.535926 0.384854 0.138051 0.0353292 0.0290139 0.00814026 0.00632641 7.75235e-05
threshold=-0.82528632879257191 -0.39345228672027582 1.2077378034591677 -2.8043600320816036 1.0000000180025095e-35 -0.99465098977088917 -1.1037486195564268 -1.4955214262008665 -0.99951964616775502 -1.490602374076843 1.2155035734176638 -0.91218787431716908 1.0000000180025095e-35 -0.33817601203918451 -0.55842131376266468 1.1397862434387209 1.1745035648345949 0.97100207209587108 1.1971976757049563 -1.0544726848602293 0.37156678736209875 0.89703041315078746 1.2246613502502444 -1.8911145925521848 -1.3462695479393003 0.95923882722854625 -0.80985143780708302 1.2122725248336794 0.93847355246543895 0.81119295954704296 0.54640996456146251 1.0000000180025095e-35 -0.93996345996856678 1.0000000180025095e-35 1.0351840853691103 1.0256718993186953 1.0241164565086367 -0.66745623946189869 -0.60016384720802296 0.59546151757240307 0.46989785134792333 0.75121134519577037 -1.114104628562927 0.82130116224288952 0.77533692121505748 0.94995117187500011
decision_type=2 2 2 2 2 2 2 2 2 2 2 2 2 2 2 2 2 2 2 2 2 2 2 2 2 2 2 2 2 2 2 2 2 2 2 2 2 2 2 2 2 2 2 2 2 2
left_child=1 11 3 6 8 -6 7 -3 -5 14 -8 18 13 -11 28 -16 23 19 24 -18 -14 29 -23 27 -1 31 37 -13 -4 -20 -28 32 39 38 36 -19 -32 40 -34 42 -27 43 -2 44 -33 -42
right_child=25 2 9 4 5 -7 10 -9 -10 12 -12 16 20 -15 15 -17 17 35 21 -21 -22 22 -24 -25 -26 26 30 -29 -30 -31 34 41 33 -35 -36 -37 -38 -39 -40 -41 45 -43 -44 -45 -46 -47
leaf_value=-0.23979704400224594 0.11209220366170231 0.024195409686086695 -0.089934835880614239 -0.020008551659038379 0.18934051827078344 -0.043666252205774581 -0.13236901000972875 0.098191333925474328 0.01948154265948325 -0.045887764878759202 0.018408714113742904 -0.11080918277977406 -0.14449417661183112 0.024772082746859738 -0.17200682817729804 0.07757696381647218 0.11059883557750178 -0.21229797956086857 0.1216028671942045 -0.13140747989446491 0.11763988696923998 0.10080966796968301 -0.12475823482296343 0.052472813745965886 -0.0031211616077392746 -0.14849582915546866 -0.05642980237115347 -0.23848194866123623 -0.1245478809069395 0.17483903754605259 0.092912442143631369 0.1119769964916104 -0.11546158922980734 0.11723023111151082 0.15008123309568383 -0.14366788672669603 -0.014628885859265221 -0.23057010225940369 -0.16510018910202501 0.097331512906869352 -0.10399425693598199 0.11554114799911015 0.11689488565089219 0.11400997169803853 0.11383610110066976 -0.10529574039940306
leaf_weight=7.9957554340362575 39.89508581161499 1221.5915449112654 245.09580267965794 2404.2800794541836 221.28916558623314 3436.5832040011883 232.4429292678833 1787.5741888582706 86905.721425421536 532.02209849283099 159.94093401730061 30.332274541258812 13.187031164765356 682.92482440173626 39.048888757824898 91.05199259519577 115.60180161893368 11.15174622833729 410.79116100072861 17.6325878277421 135.58926664292812 20.982229962944988 10.987874098122118 8.5888268798589689 16.128249540925026 1.093889966607094 5.5262268073856857 14.377309262752531 219.6989486888051 42.648910671472549 2.4578004069626322 4383.8665101528168 4.5385507196187946 6.1651318669319144 8.1492010802030546 7.7064097747206679 3.8855710476636887 1.5658813118934656 4.1766065508127221 19.356594938784838 1.3376529626548292 28.256225764751434 18.3710897564888 19.93698263168335 18.380910694599152 0.69570836052298535
leaf_count=33 45 2499 1603 9520 151 16883 930 2697 221483 2455 406 123 65 1582 142 159 106 46 306 72 308 24 41 13 36 5 34 60 1458 23 8 4977 66 6 5 38 38 7 20 28 39 28 18 21 19 18
internal_value=0 0.0174508 0.0169996 0.0177862 0.0165303 -0.0295701 0.0521107 0.0681522 0.0184184 -0.0217038 -0.07091 0.0795067 0.0048026 -0.00616968 -0.0824663 0.0026661 0.00318695 0.0459833 0.110271 0.0785711 0.0944052 0.119805 0.0232837 -0.118937 -0.081566 0.110972 0.0140365 -0.151865 -0.106296 0.12661 0.054085 0.111499 0.0866196 -0.0329864 0.0962259 -0.184252 0.027039 -0.156792 -0.13925 0.109548 -0.11985 0.112016 0.113606 0.111994 0.111985 -0.10444
internal_weight=0 99043 98328 96369.4 92967.9 3657.87 3401.55 3009.17 89310 1958.62 392.384 714.925 1363.72 1214.95 594.896 130.101 205.391 152.093 509.534 133.234 148.776 485.41 31.9701 53.2984 24.124 4567.66 24.7119 44.7096 464.795 453.44 20.0188 4542.94 92.5031 14.8803 14.4926 18.8582 6.34337 4.69313 8.71516 77.6228 3.12725 4450.44 58.2662 4422.18 4402.25 2.03336
internal_count=268644 263262 262341 254569 248037 17034 6532 5196 231003 7772 1336 921 4410 4037 3362 301 458 262 463 178 373 394 65 196 69 5382 154 183 3061 329 85 5228 183 92 51 84 46 69 86 91 62 5045 63 5017 4996 57
is_linear=0
shrinkage=0.1


Tree=21
num_leaves=49
num_cat=0
split_feature=115 37 40 70 107 5 71 45 131 40 102 70 35 27 127 57 0 32 118 72 130 121 56 34 61 36 65 75 43 103 126 52 104 46 127 73 128 102 34 92 17 113 8 54 98 51 32 32
split_gain=3541.81 265.928 290.682 355.673 731.16 704.348 564.402 365.7 286.831 268.201 244.972 239.696 221.516 209.931 298.014 254.357 248.281 208.318 125.566 102.854 102.344 73.6816 105.456 63.0311 55.0252 122.009 49.0058 48.6135 45.5078 43.87 27.7887 22.4534 14.3951 8.95522 5.54852 23.3678 16.7717 4.30405 1.206 0.823076 0.715618 0.314843 0.0948601 0.0257126 0.0183448 0.00598107 0.00457195 5.76253e-05
threshold=-0.82528632879257191 0.97617343068122875 1.0716055631637575 -0.12946534156799314 -0.97903844714164723 0.076103273779153838 -0.38141351938247675 1.2030857205390932 1.0000000180025095e-35 1.0360282063484194 -0.55842131376266468 -0.16489088535308835 0.95569619536399852 1.1286452412605288 -1.9964981675148008 0.94459128379821788 0.29784403741359716 0.95936524868011486 -0.97865903377532948 -0.52370551228523243 1.0000000180025095e-35 -1.8290650844573972 1.0516147017478945 0.899501532316208 0.75367975234985363 0.98061406612396251 0.47545655071735388 -1.0703670382499693 1.1842573881149294 -0.76107415556907643 -2.8854383230209346 0.95923882722854625 -0.80985143780708302 1.1008365750312807 1.0000000180025095e-35 -0.91742506623268116 1.0000000180025095e-35 -0.81495606899261464 0.67287856340408336 -0.66745623946189869 1.0869080424308779 -0.60016384720802296 0.89890986680984508 0.75121134519577037 -1.114104628562927 0.82130116224288952 0.82947698235511791 0.94995117187500011
decision_type=2 2 2 2 2 2 2 2 2 2 2 2 2 2 2 2 2 2 2 2 2 2 2 2 2 2 2 2 2 2 2 2 2 2 2 2 2 2 2 2 2 2 2 2 2 2 2 2
left_child=1 2 3 6 7 -6 8 -5 -1 -8 23 13 17 18 15 -15 -16 20 26 -19 -13 22 -12 30 29 -26 -3 -20 -25 -14 -4 34 39 37 35 38 41 40 44 42 -34 -37 47 45 -2 46 -36 -33
right_child=31 11 10 4 5 -7 9 -9 -10 -11 21 12 24 14 16 -17 -18 19 27 -21 -22 -23 -24 28 25 -27 -28 -29 -30 -31 -32 32 33 -35 43 36 -38 -39 -40 -41 -42 -43 -44 -45 -46 -47 -48 -49
leaf_value=0.017046815809221984 0.11084066420802685 0.10892306933187137 -0.065456323838337993 0.11485532376746735 0.034322323012854351 -0.098145767435154851 -0.053488779057287043 -0.048248986303428137 -0.003861010436271432 -0.0037603523487403367 0.084119456175390558 -0.0052248462644355117 -0.015227155607707685 0.044704008850841213 0.12261024728044179 -0.01935322546137596 0.044404600263458965 -0.01957707902073931 0.077093825647284231 -0.12009908448180213 0.13701401489156367 0.17907971997945232 -0.14655283483783177 -0.015684346083239566 -0.045187624077196037 0.052435737488286421 -0.059919294501527255 -0.12429899688428461 0.28606723686078667 0.06900230497712094 -0.11923196567546075 -0.10360102075280504 0.071840782148181015 -0.058856829829761217 0.11070836859261851 -0.11528875267471538 0.11714694510854216 0.13983051815525441 0.080711875080051246 -0.20767963402054829 0.0006605531400361523 -0.15666429668318932 -0.1418339567006251 0.11388295311477954 0.11460508254258782 0.1125288017716037 0.11239843177052927 -0.10477810618495748
leaf_weight=73635.950062736869 39.014607548713684 658.58319968730211 146.72689937055111 1366.8410471826792 2541.1370012462139 476.68327057361603 1575.5122825205326 152.83669953793287 7203.4733640775084 3480.3688522577286 66.624139256775379 348.97604568302631 72.321451112627983 1151.8576972186565 483.75051951408386 1342.1895980685949 2523.948935367167 159.45259334892035 18.257858768105507 281.4683546051383 59.161158487200737 38.802698984742165 28.211047455668449 21.805687919259075 225.0617681145668 296.91519233584404 17.651093274354935 34.890890341252089 6.4840319752693167 426.4880598783493 278.4676224142313 1.2147183008491995 2.2889791429042843 5.4377204217016688 4010.5831826925278 3.424980241805315 3.9767729640007019 8.0850721001625043 15.500782072544096 1.5644263923168207 3.6882502436637878 3.9718892425298673 1.0338292717933653 25.920427203178406 19.373949527740479 18.264983713626862 16.070618391036987 0.63245427794754494
leaf_count=192175 48 906 939 1516 5099 1937 6703 760 23309 11796 99 1086 165 2001 603 3573 4658 500 41 1048 105 39 119 86 642 561 64 173 7 680 1872 39 5 33 4978 55 4 6 35 7 41 20 5 28 21 21 18 18
internal_value=0 0.0156879 0.0141426 0.014598 0.0418839 0.0133982 0.0131566 0.0984516 0.0151838 -0.0192567 -0.0559932 0.0330498 0.00164892 0.0424727 0.0357895 0.0102311 0.056983 -0.0360908 0.0928839 -0.0837468 0.0153933 0.0629968 0.0155003 -0.0910585 0.0330396 0.0103433 0.104516 -0.0551158 0.0534774 0.05679 -0.100675 0.109658 0.0131017 0.0501215 0.110215 0.0849678 -0.0484672 0.0922621 0.105507 -0.149287 0.027919 -0.137506 -0.117579 0.110743 0.11209 0.110723 0.110715 -0.104004
internal_weight=0 99120.9 91019.9 90432.8 4537.5 3017.82 85895.3 1519.68 80839.4 5055.88 587.122 8100.97 1869.84 6231.13 5501.75 2494.05 3007.7 849.058 729.383 440.921 408.137 133.638 94.8352 453.484 1020.79 521.977 676.234 53.1487 28.2897 498.81 425.195 4180.05 23.9455 19.5 4156.1 85.263 11.3736 14.0623 73.8893 4.44543 5.97723 7.39687 2.881 4070.84 58.3886 4044.92 4026.65 1.84717
