tree
version=v4
num_class=1
num_tree_per_iteration=1
label_index=0
max_feature_idx=136
objective=binary sigmoid:1
feature_names=Column_0 Column_1 Column_2 Column_3 Column_4 Column_5 Column_6 Column_7 Column_8 Column_9 Column_10 Column_11 Column_12 Column_13 Column_14 Column_15 Column_16 Column_17 Column_18 Column_19 Column_20 Column_21 Column_22 Column_23 Column_24 Column_25 Column_26 Column_27 Column_28 Column_29 Column_30 Column_31 Column_32 Column_33 Column_34 Column_35 Column_36 Column_37 Column_38 Column_39 Column_40 Column_41 Column_42 Column_43 Column_44 Column_45 Column_46 Column_47 Column_48 Column_49 Column_50 Column_51 Column_52 Column_53 Column_54 Column_55 Column_56 Column_57 Column_58 Column_59 Column_60 Column_61 Column_62 Column_63 Column_64 Column_65 Column_66 Column_67 Column_68 Column_69 Column_70 Column_71 Column_72 Column_73 Column_74 Column_75 Column_76 Column_77 Column_78 Column_79 Column_80 Column_81 Column_82 Column_83 Column_84 Column_85 Column_86 Column_87 Column_88 Column_89 Column_90 Column_91 Column_92 Column_93 Column_94 Column_95 Column_96 Column_97 Column_98 Column_99 Column_100 Column_101 Column_102 Column_103 Column_104 Column_105 Column_106 Column_107 Column_108 Column_109 Column_110 Column_111 Column_112 Column_113 Column_114 Column_115 Column_116 Column_117 Column_118 Column_119 Column_120 Column_121 Column_122 Column_123 Column_124 Column_125 Column_126 Column_127 Column_128 Column_129 Column_130 Column_131 Column_132 Column_133 Column_134 Column_135 Column_136
feature_infos=[-1.7844352722167969:2.1475074291229248] [-1.6962581872940063:2.0597634315490723] [-1.6161398887634277:1.9801409244537354] [-1.5440802574157715:1.9086390733718872] [-1.4800789356231689:1.8452587127685547] [-1.4241359233856201:1.7899996042251587] [-1.3852788209915161:1.7536556720733643] [-1.3575865030288696:1.77842116355896] [-1.3260828256607056:2.0758624076843262] [-1.2853907346725464:2.0974209308624268] [-1.2320997714996338:1.9997674226760864] [-1.1626077890396118:2.073509693145752] [-1.0779223442077637:2.1457490921020508] [-0.97803342342376709:2.2142360210418701] [-0.86829191446304321:2.2825961112976074] [-0.75375783443450928:2.3805651664733887] [-0.63882678747177124:2.4481546878814697] [-0.65620064735412598:2.4658794403076172] [-0.66012513637542725:2.4600694179534912] [-0.66667592525482178:2.4321010112762451] [-0.8555336594581604:2.3619022369384766] [-0.86833834648132324:2.2960772514343262] [-0.86565589904785156:2.1994528770446777] [-0.7797551155090332:2.1030042171478271] [-1.0841877460479736:2.0889520645141602] [-1.4308524131774902:1.9925726652145386] [-1.6366665363311768:1.8694267272949219] [-1.8254417181015015:1.7314887046813965] [-1.9202775955200195:1.5598906278610229] [-2.2033448219299316:1.3462176322937012] [-2.6534385681152344:1.1459542512893677] [-2.9375624656677246:1.0691677331924438] [-2.8964071273803711:1.0156075954437256] [-2.6209216117858887:0.98794400691986084] [-1.9672813415527344:0.99330562353134155] [-1.2877312898635864:1.0987448692321777] [-0.66328972578048706:1.3781088590621948] [-0.67050886154174805:1.4172744750976562] [-0.67336314916610718:1.4686216115951538] [-0.67729061841964722:1.427788257598877] [-0.67391806840896606:1.3506048917770386] [-0.77278417348861694:1.3033223152160645] [-0.78214722871780396:1.4334096908569336] [-0.67822211980819702:1.6771683692932129] [-0.67593681812286377:1.8418123722076416] [-0.67998087406158447:1.9795904159545898] [-0.67735743522644043:1.8671952486038208] [-0.68056988716125488:1.7601110935211182] [-0.67851173877716064:1.6386531591415405] [-0.68057990074157715:1.6658937931060791] [-0.67868822813034058:1.8198304176330566] [-0.68411111831665039:1.9837290048599243] [-0.68785721063613892:2.3278176784515381] [-0.6967010498046875:2.41339111328125] [-0.68777680397033691:2.0181429386138916] [-0.66555494070053101:1.7058380842208862] [-0.63047897815704346:1.5109990835189819] [-0.79989981651306152:1.3603483438491821] [-0.9627259373664856:1.3460699319839478] [-0.83332031965255737:1.3262704610824585] [-0.62303602695465088:1.3006186485290527] [-0.62908732891082764:1.6912268400192261] [-0.65896600484848022:1.8743280172348022] [-0.67422842979431152:1.7138135433197021] [-0.93073725700378418:1.3433690071105957] [-1.1747497320175171:1.0613176822662354] [-1.3727543354034424:0.98026233911514282] [-1.6710461378097534:0.87500208616256714] [-1.8910553455352783:0.74292320013046265] [-2.0949718952178955:0.59156680107116699] [-1.9126988649368286:0.44254273176193237] [-1.7446892261505127:0.31167539954185486] [-1.674402117729187:0.20973041653633118] [-1.5101885795593262:0.13722024857997894] [-1.4517455101013184:0.2961885929107666] [-1.6804615259170532:0.9557119607925415] [-1.8599822521209717:1.3625956773757935] [-1.985605001449585:1.0853415727615356] [-2.0616223812103271:1.1285310983657837] [-2.1171634197235107:0.92254304885864258] [-2.168381929397583:0.73609095811843872] [-2.1978850364685059:0.27998179197311401] [-2.2107267379760742:0.32789856195449829] [-2.208972692489624:0.37759476900100708] [-2.1915850639343262:0.5232703685760498] [-2.1574652194976807:0.46151745319366455] [-2.1063995361328125:0.49370381236076355] [-2.0390708446502686:0.51996833086013794] [-1.9571486711502075:0.59374678134918213] [-1.8642418384552002:0.55988889932632446] [-1.767259955406189:0.65060514211654663] [-1.8478662967681885:1.0689502954483032] [-1.6520191431045532:1.4172115325927734] [-1.5958865880966187:1.6290324926376343] [-1.5394163131713867:1.6649528741836548] [-1.4922878742218018:1.6182941198348999] [-1.4547033309936523:1.5608183145523071] [-1.4384253025054932:1.5597559213638306] [-1.4264529943466187:1.5645072460174561] [-1.5388252735137939:1.5648646354675293] [-1.8966314792633057:1.5687597990036011] [-2.4585905075073242:1.5680602788925171] [-2.604130744934082:1.5700795650482178] [-2.5047333240509033:1.5659784078598022] [-2.1062953472137451:1.5655828714370728] [-1.4165751934051514:1.5610309839248657] [-1.1201972961425781:1.5632989406585693] [-1.1215335130691528:1.560712456703186] [-1.168958306312561:1.5697338581085205] [-1.225764274597168:1.5734660625457764] [-1.369315505027771:1.5835809707641602] [-1.6010570526123047:1.5861003398895264] [-1.9974493980407715:1.5904401540756226] [-2.3280599117279053:1.5879726409912109] [-2.4821960926055908:1.5883719921112061] [-1.9469403028488159:1.5865405797958374] [-1.6131480932235718:1.5868538618087769] [-1.6319060325622559:1.7016431093215942] [-1.6864286661148071:2.5795986652374268] [-1.7459897994995117:2.8008601665496826] [-1.8207311630249023:2.5472877025604248] [-1.9280952215194702:1.7180403470993042] [-2.15055251121521:1.6308574676513672] [-2.3795907497406006:1.6220458745956421] [-2.6431498527526855:1.8138364553451538] [-2.9497678279876709:2.1341862678527832] [-3.3342947959899902:2.7791450023651123] [-3.8750591278076172:3.7871904373168945] [0:1] [0:1] [0:1] [0:1] [0:1] [0:1] [0:1] [0:1] [0:1]
tree_sizes=4779 5341 5116 5328 5042 4481 5975 4924 4924 5049 4622 4848 4633 3764 4701 4400 4872 4723 4511 4516 4706 4612 4765 4592 4390 4591 4827 4767 4854 4634 4981 4599 4697 4557 4510 4671 4673 4651 4397 4684 4632 4696 4426 4310 4810 4753 4342 4686 4297 4422 4618 4504 4189 4572 4476 4997 4972 4574 4989 4704 5105 5643 4477 4448 4828 5606 6083 6038 4981 6897 3882 6627 6787 6745 6126 6439 6699 6837 5258 6104 4828 6404 4918 6865 6694 5909 5228 6225 6907 5465 6952 5568 5590 6516 6471 6580 6283 6951 6173 6595 5692 6375 6346 6684 6342 5891 6585 6095 5385 6424 6582 6433 6813 6199 6137 6944 6743 6245 4906 6187 6203 6615 5915 6832 6114 6118 6096 4745 6930 6933 6595 5847 5452 5459 6226 6702 6819 5950 6920 5863 5652 6575 6875 6071 6386 6226 5537 5874 6878 5807 6340 6956 6824 5620 6324 6598 6945 6937 6494 6554 6086 5939 6825 5255 6465 6582 6811 5699 6920 6837 5793 5342 6865 4946 6921 6700 5470 6234 6926 6502 6754 5446 6808 6788 6129 5904 5032 6818 5634 6252 5616 6681 6329 6834 6326 6436 6905 6826 6908 5248

Tree=0
num_leaves=44
num_cat=0
split_feature=125 33 77 114 74 30 76 47 135 107 38 128 87 109 111 83 136 52 116 68 50 111 51 73 117 52 69 3 72 0 69 36 73 47 81 33 127 19 22 29 6 73 105
split_gain=147907 14540.7 10276.5 10842.9 7837.66 7477.38 4022.53 6985.72 3672.87 2792.68 2340.05 2058.67 2154.21 1745.43 1938.67 1719.28 1381.67 1103.85 963.504 798.027 768.094 763.755 1714.29 671.08 503.707 476.485 378.846 363.028 325.966 465.864 312.778 295.382 128.28 119.819 34.8457 11.1141 0.678761 2.56308 0.0608552 0.0474919 5.82077e-11 8.88178e-16 8.88178e-16
threshold=-0.38824124634265894 0.93122798204422008 -0.41122366487979883 -1.1367742419242857 -1.0272841453552244 1.0907220244407656 -0.51746255159378041 1.2100548744201662 1.0000000180025095e-35 -0.80348983407020558 0.98989874124526989 1.0000000180025095e-35 -1.2912771701812742 -0.90725550055503834 -1.0195255279541013 -1.2688916325569151 1.0000000180025095e-35 1.0889405608177187 -1.5221815109252927 0.14098588377237323 1.1308034658432009 -1.2228863835334776 1.1886363029479983 -0.74143505096435536 -1.5771659612655637 0.85466253757476818 -0.046888465061783784 0.59037882089614879 -0.61788812279701222 0.39878879487514501 0.073543291538953795 0.96659106016159069 -0.396276906132698 1.1284849643707278 -0.99995768070220936 0.7756788730621339 1.0000000180025095e-35 1.3176857233047488 1.6683177351951601 1.0945399403572085 1.0108522176742556 -0.88319459557533253 -0.93970605731010426
decision_type=2 2 2 2 2 2 2 2 2 2 2 2 2 2 2 2 2 2 2 2 2 2 2 2 2 2 2 2 2 2 2 2 2 2 2 2 2 2 2 2 2 2 2
left_child=1 2 3 6 16 -6 8 -8 -1 11 21 13 17 14 -3 -15 -5 -13 32 -14 28 24 -23 26 -4 35 -22 34 29 -11 -20 -25 -12 -30 41 36 37 -2 40 -39 -38 42 -27
right_child=25 9 10 4 5 -7 7 -9 -10 20 18 12 19 15 -16 -17 -18 -19 30 -21 23 22 -24 31 -26 27 -28 -29 33 -31 -32 -33 -34 -35 -36 -37 38 39 -40 -41 -42 -43 -44
leaf_value=-2.0537880505083548 -1.253398071110754 -1.8799057078047541 -1.8120601392212392 -2.0505014761465499 -1.8422158894428222 -1.6476209566239823 -1.5616464405981094 -2.0633599769527864 -1.7915570596034656 -1.3682824897072341 -1.5421718397926552 -2.0061214256811621 -1.5665074410675874 -1.7751652470981623 -1.6514793215926242 -2.1850257899804535 -1.5245192110175625 -1.6771605742743625 -1.5249961317271179 -1.8294726788094169 -1.5192877828095024 -2.3324757308058275 -1.5071915953137482 -2.3324757308058275 -1.4347444933563884 -2.3324757308058275 -1.838422465834328 -1.2898391659723418 -2.3324757308058275 -2.0777441624453306 -2.2166541976804734 -1.9035984675210651 -2.2990604891896109 -2.1309540901684545 -1.8400853108479405 -1.2742304633252721 -1.1993950738053165 -1.205824808320265 -1.2055050551674016 -1.1993950738053165 -1.1993950738053165 -2.3324757308058275 -2.3324757308058275
leaf_weight=4642.8285718560219 11.110494762659071 429.97125175595284 37.214461863040924 1802.1249090135098 18275.07772141695 2213.8392025381327 551.55073121190071 558.58752283453941 603.55108860135078 12.434319362044333 2.3338805437088004 194.98557911813259 1905.9560075849295 2733.7297452092171 2734.2249694317579 106.32785844802856 51.364997580647469 213.91248026490211 36.547793939709663 122.84201470017433 48.766352117061615 33.448634877800941 101.69056110084057 34.4194395840168 718.08124956488609 2.4711392521858206 156.80079504847527 8.84524357318878 44.657016485929489 36.20428529381752 7.962573215365409 30.104939639568329 55.198609545826912 86.951015561819077 1.8729800581932083 20.043993309140205 1786.5552312135696 15.552742168307303 16.366662546992302 43.951700448989868 2285.4884233474731 1.765099465847016 1.9416094124317167
leaf_count=41071 19 3137 249 15889 127191 11567 2459 4989 3928 34 10 1642 8580 17392 14380 1065 212 1174 151 841 199 379 404 390 2389 28 1086 18 506 328 82 226 609 829 13 38 2195 20 21 54 2808 20 22
internal_value=-2.22163 -1.82725 -1.86085 -1.87179 -1.839 -1.82119 -1.98703 -1.81409 -2.02362 -1.71508 -1.54449 -1.70213 -1.62463 -1.7336 -1.68252 -1.79051 -2.03593 -1.83403 -1.99808 -1.58243 -1.95771 -1.49251 -1.71146 -1.85103 -1.45334 -1.20209 -1.76271 -1.73206 -2.11758 -1.89637 -1.64873 -2.13238 -2.26836 -2.19933 -2.21792 -1.19995 -1.19959 -1.20931 -1.19942 -1.20108 -1.1994 -2.33248 -2.33248
internal_weight=0 38583.7 29691.4 28698.9 22342.4 20488.9 6356.52 1110.14 5246.38 8892.29 992.478 8441.95 2437.7 6004.25 3164.2 2840.06 1853.49 408.898 102.043 2028.8 450.338 890.435 135.139 270.092 755.296 4195.97 205.567 16.8961 180.247 48.6386 44.5104 64.5244 57.5325 131.608 8.05083 4179.07 4159.03 70.6149 4088.41 59.5044 4072.04 6.17785 4.41275
internal_count=268644 263388 211579 207306 154859 138758 52447 7448 44999 51809 4273 48211 12237 35974 17517 18457 16101 2816 852 9421 3598 3421 783 1901 2638 5256 1285 101 1697 362 233 616 619 1335 83 5155 5117 93 5024 74 5003 70 50
is_linear=0
shrinkage=1


Tree=1
num_leaves=49
num_cat=0
split_feature=45 128 32 30 124 89 75 134 54 136 73 69 35 54 48 73 30 51 132 53 75 106 108 114 75 73 108 54 56 86 83 107 53 30 112 91 29 84 125 100 73 72 82 127 30 76 31 75
split_gain=23008.5 6255.55 5146.26 5130.16 6505.43 3909.82 3599.64 3389.46 3086.77 2936.14 2465.43 1685.16 1450.79 1296.69 1258.27 1354.01 1246.82 833.574 823.653 745.877 647.605 630.4 606.953 604.744 653.784 603.427 419.36 319.707 314.479 310.948 202.917 190.378 169.28 111.493 89.8115 267.002 123.678 332.638 145.941 175.089 102.524 24.7734 13.8386 1.72216 0.00292907 0.000116565 9.05782e-06 3.52655e-06
threshold=0.74059888720512401 1.0000000180025095e-35 0.94470122456550609 1.0864360332489016 -2.4089335203170772 -1.2403098344802854 -1.0375674366950987 1.0000000180025095e-35 1.0546465516090395 1.0000000180025095e-35 -0.88319459557533253 -0.087444465607404695 0.95356997847557079 1.0159018039703371 0.93951910734176647 -0.92113715410232533 1.0431098937988283 1.1022575497627261 1.0000000180025095e-35 1.145179331302643 -1.1241758465766905 -0.90026471018791188 -1.04899126291275 -0.96717151999473561 -1.0900558233261106 -0.7796475589275359 -0.78704312443733204 1.085678815841675 0.97883424162864696 -1.3731628060340879 -1.4944682717323301 -0.80806216597557057 1.0413824915885928 1.0853600502014162 -1.0084396004676817 -0.87346693873405445 1.2414810061454775 -1.1543649435043333 -0.38824124634265894 -1.0405669808387754 -0.92310413718223561 -0.81510466337203968 -1.0551806092262266 1.0000000180025095e-35 1.0907220244407656 -0.90815919637680043 0.92591795325279247 -1.0365953445434568
decision_type=2 2 2 2 2 2 2 2 2 2 2 2 2 2 2 2 2 2 2 2 2 2 2 2 2 2 2 2 2 2 2 2 2 2 2 2 2 2 2 2 2 2 2 2 2 2 2 2
left_child=18 2 3 4 22 17 7 10 25 -6 -4 16 -10 -9 21 -16 19 29 34 -7 26 -5 -2 28 -25 -8 -19 -18 -13 30 -3 -22 -31 42 35 44 38 41 39 -36 -39 -38 45 -40 -1 47 -46 -20
right_child=1 5 6 14 9 11 8 13 12 -11 -12 23 -14 -15 15 -17 27 20 33 -21 31 -23 -24 24 -26 -27 -28 -29 -30 32 -32 -33 -34 -35 36 -37 37 40 43 -41 -42 -43 -44 -45 46 -47 -48 -49
leaf_value=-0.11577705153725226 0.43547801274759346 0.36666941947934195 0.021327400949464767 0.38979163309828646 0.1476236231173543 0.5524883983520581 0.27331551649530295 0.16171829040910765 0.20237681476649727 0.27871874539759295 0.27308182897558403 0.39153615293327348 0.37907157404109215 -0.040978170126570637 0.01022951746092386 0.27922152820719109 0.38933943981812519 0.44777178818943453 -0.11571823171007899 0.0888242946883957 0.24932993882098012 0.2160950718625505 0.31612970833990772 0.38334408090832284 0.21285690533250873 0.37267599291278458 -0.063086975672096909 -0.11650838714393107 0.31185920314755666 0.034136300191249885 -0.071288829121873384 0.032464570095363431 0.18586556930899334 0.58672875896570009 0.78119438075422842 0.62998768934465832 -0.11701613876702832 0.44026934374201504 0.42092982378823773 0.21999026944683009 0.58644010308307581 0.23561915013904722 0.061738851989053302 0.43196014520905079 -0.11900851016671372 -0.11508688888937409 -0.11925073077086074 -0.11584659732365349
leaf_weight=4.3475800678133982 589.85847137868404 11.260082855820654 404.09472192823887 1574.0876710116863 14354.540091328323 787.1542686894536 684.27457066625357 1594.4466999918222 2320.7851436883211 1939.2669354826212 10406.832379706204 1065.9570348113775 581.01824314892292 393.49352905154228 200.91932234168053 2726.6733233183622 2022.3128885775805 156.55507662147284 2.344488903880122 36.294176541268826 68.01467789709568 240.92676375806332 1534.957089163363 316.08056262880564 780.00577436387539 5725.0129595026374 17.906838625669479 12.571973189711569 925.42611578851938 130.24529827386141 174.9585237801075 99.989020645618439 168.86184043437243 2.6283724755048743 6.1846719086170188 8.6397501900792104 8.2743799835443479 74.404329106211662 144.00859409570694 54.976615369319916 135.13966962695122 2.6239753663539878 5.1701785624027243 8277.5873320400715 2.6727957129478455 2.2548104003071812 3.6550133675336838 24.560241222381592
leaf_count=37 1323 28 3437 5120 95339 1864 3345 9522 12196 9565 50583 2666 2006 3053 1701 11797 7168 484 20 267 337 1265 5108 1023 3528 21462 156 104 3261 1010 1635 772 1083 7 10 12 67 221 107 310 271 14 35 5050 20 20 27 208
internal_value=0 0.254922 0.241511 0.208569 0.184688 0.34455 0.27602 0.241604 0.323326 0.163226 0.263672 0.372898 0.237756 0.121596 0.301317 0.260761 0.428228 0.140933 0.430101 0.532052 0.260392 0.366735 0.349261 0.321675 0.262021 0.362068 0.395337 0.386214 0.354509 0.0566379 -0.0448068 0.12026 0.119796 -0.0409836 0.432097 0.216702 0.432575 0.506524 0.430654 0.27674 0.534538 -0.0321128 -0.0890429 0.431772 -0.117775 -0.115778 -0.119148 -0.115835
internal_weight=0 52044.8 45271.2 23161.2 18418.6 6773.59 22110 12798.9 9311.09 16293.8 10810.9 5945.8 2901.8 1987.94 4742.61 2927.59 2858.33 827.791 8759.47 823.448 342.466 1815.01 2124.82 3087.47 1096.09 6409.29 174.462 2034.88 1991.38 485.326 186.219 168.004 299.107 36.9581 8722.51 19.3151 8703.2 220.442 8482.76 61.1613 209.544 10.8984 34.3297 8421.6 10.6754 29.1595 6.32781 26.9047
internal_count=268644 262208 236822 131218 111335 25386 105604 66595 39009 104904 54020 19881 14202 12575 19883 13498 9403 5505 6436 2131 1749 6385 6431 10478 4551 24807 640 7272 5927 3756 1663 1109 2093 290 6146 96 6050 573 5477 320 492 81 283 5157 84 248 47 228
is_linear=0
shrinkage=0.1


Tree=2
num_leaves=47
num_cat=0
split_feature=45 128 31 123 30 111 74 106 136 54 73 40 106 127 109 70 113 53 132 72 31 82 74 35 102 76 90 97 112 39 126 102 72 30 70 69 114 118 102 110 31 122 97 118 82 30
split_gain=13686.9 2808.71 2589.15 3586.41 3115.55 1837.89 1834.06 1547.48 1498.35 1963.46 1576.24 920.085 1138.52 934.947 579.85 515.155 520.637 513.653 449.278 411.78 406.927 452.53 334.569 306.348 296.743 263.464 186.649 168.805 171.517 165.491 71.28 138.963 94.4934 69.4553 62.8711 54.5517 33.6861 120.18 75.7506 34.0917 38.2543 23.2601 13.8923 13.8234 0.00506936 0.000299397
threshold=0.74059888720512401 1.0000000180025095e-35 0.98483383655548107 -2.1615198850631709 1.0930706262588503 -0.87472760677337635 -1.0374608039855955 -0.99476626515388478 1.0000000180025095e-35 1.0564402937889101 -0.7787823975086211 1.0673162937164309 -0.90350604057312001 -3.3039604425430293 -0.94197800755500782 -0.22686830908060071 -0.93901798129081715 1.0678791999816897 1.0000000180025095e-35 -0.61305075883865345 0.9979446828365327 -1.4383157491683958 -1.0631984472274778 0.93271979689598095 -0.93464365601539601 -1.1781947612762449 -1.1088069081306455 -1.0594071745872495 -0.8607855737209319 1.0076978206634524 -1.1833067536354063 -0.90918058156967152 -0.84029513597488392 1.0887315869331362 -0.59087833762168873 -0.089709643274545656 -0.95421960949897755 -0.93539974093437184 -1.0679779052734373 -0.91618245840072621 0.92591795325279247 -1.0887218117713926 -0.96888008713722218 -0.92755138874053944 -1.0551806092262266 1.071861267089844
decision_type=2 2 2 2 2 2 2 2 2 2 2 2 2 2 2 2 2 2 2 2 2 2 2 2 2 2 2 2 2 2 2 2 2 2 2 2 2 2 2 2 2 2 2 2 2 2
left_child=18 2 3 11 7 15 14 -5 10 -10 -8 12 -2 -13 -4 20 23 27 30 35 21 -3 -16 -17 -6 -18 -22 -7 -29 -21 31 32 -1 42 -34 -19 37 -32 -39 43 -41 -33 -20 -38 45 -44
right_child=1 5 6 4 24 17 8 -9 9 -11 -12 13 -14 -15 22 16 25 19 33 29 26 -23 -24 -25 -26 -27 -28 28 -30 -31 36 41 34 -35 -36 -37 39 38 -40 40 -42 -43 44 -45 -46 -47
leaf_value=0.36985229904512867 0.36991662104700479 -0.084186120723878599 0.60150131387568562 0.38117787086703636 0.30867769312565441 0.39516471421001859 0.16976835470612259 0.10374452935712485 0.25412449957907707 0.044328879625186064 0.21713477791898106 0.26047414302541166 0.2257155639364414 -0.030125341518309229 -0.068055764119973286 0.086652278112289483 0.17201926235618942 0.3713865988116099 0.064402767501481703 -0.076660326110354088 0.23491905748449349 0.31565314119617871 0.078568261067946357 0.25545065346098855 0.21649040441340475 -0.0086507266324878998 0.29680017375698042 0.0688207499279751 -0.059948317064235535 0.14389999010117754 0.38178399362286364 0.47202655554790207 -0.12272023830713817 0.37082931652129336 0.29841826425252871 0.25060207795351136 0.34507444463557896 0.30786099989745624 -0.1219279791364693 0.31548318712361612 0.23436251650417628 0.28202890855716473 -0.11403553279375925 0.4665091599331132 -0.11790634282382678 -0.1152820804651298
leaf_weight=7.3210323899984386 734.83794283121824 28.672552175819874 19.204140394926071 204.63934358209372 757.96162759512663 12.14862424880266 16382.780006706715 11466.9939930439 6911.198930233717 476.87912816554308 12300.51014033705 210.76990308612585 2147.9329623505473 233.21567974239588 199.69366943836212 112.88735023885965 495.4111593067646 79.773192271590233 5.1486303061246863 43.730166055262089 1799.0333297476172 2213.5375330373645 705.17400477081537 2260.2663762196898 647.42013070732355 96.423918515443802 668.56696556508541 257.95148453861475 172.68695569783449 153.18650370836258 21.555446162819862 12.304387137293817 18.636696107685573 3.7060041576623908 4.3775253295898393 70.384288810193539 17.454402327537537 6.3691739737987545 11.514805629849432 10458.473434977233 58.457129217684269 13.527064755558966 20.801953472197059 20.249090164899826 4.2630481421947506 2.1234552860260001
leaf_count=6 1161 236 21 681 1662 13 74350 68711 23327 2543 47039 548 6166 1785 1761 499 1943 151 38 330 5442 5024 5125 5461 1942 545 1424 1722 1623 784 20 9 132 6 13 189 24 16 80 5629 163 34 193 20 34 19
internal_value=0 0.190682 0.182198 0.14913 0.125546 0.2442 0.196861 0.108609 0.200425 0.240583 0.190081 0.241835 0.262473 0.107829 0.0577502 0.259148 0.226495 0.0989505 0.313239 0.190035 0.279704 0.31054 0.0462101 0.247421 0.26621 0.142584 0.251685 0.0275546 0.0171841 0.0949192 0.314432 0.202076 0.0569283 -0.039223 -0.0426157 0.31477 0.315028 0.222781 0.0311364 0.315373 0.315032 0.372531 -0.0862172 0.410292 -0.11474 -0.114151
internal_weight=0 61863.9 53399.2 16403.8 13077 8464.66 36995.4 11671.6 36071.4 7388.08 28683.3 3326.76 2882.77 443.986 924.072 7674.8 2964.99 789.861 10686.3 347.074 4709.81 2242.21 904.868 2373.15 1405.38 591.835 2467.6 442.787 430.638 196.917 10650.2 56.1667 30.3353 36.0431 23.0142 150.157 10594.1 39.4394 17.884 10554.6 10516.9 25.8315 32.3371 37.7035 27.1885 22.9254
internal_count=268644 262208 236822 82656 72996 25386 154166 69392 147259 25870 121389 9660 7327 2333 6907 20574 8448 4812 6436 1454 12126 5260 6886 5960 3604 2488 6866 3358 3345 1114 6146 194 151 290 145 340 5952 116 96 5836 5792 43 284 44 246 212
is_linear=0
shrinkage=0.1


Tree=3
num_leaves=49
num_cat=0
split_feature=45 32 127 30 128 72 110 131 71 102 5 102 132 74 96 30 85 69 90 38 109 116 40 133 52 127 116 31 121 122 116 50 35 125 74 30 98 53 31 52 109 114 96 31 82 36 33 31
split_gain=10694.6 1803.86 1745.09 2340.17 2703.92 1490.2 1458.91 1178.62 1595.94 1221.26 1169.31 637.162 596.376 573.983 660.905 634.423 470.393 304.007 294.372 292.749 320.625 282.996 272.947 202.975 189.721 239.712 216.735 148.369 133.5 130.205 126.656 109.266 105.824 81.757 455.303 288.025 217.778 57.7214 43.6504 97.355 31.1954 25.9637 22.5373 18.7127 16.8465 1.49167 2.66562 0.167808
threshold=0.796281397342682 0.93711817264556896 -3.3039604425430293 1.0818566679954531 1.0000000180025095e-35 -0.7267552614212035 -0.83444678783416737 1.0000000180025095e-35 -0.44407214224338526 -0.86866995692253102 0.66092398762702953 -0.84269654750823964 1.0000000180025095e-35 -1.0258764028549192 -1.0122805833816526 1.095781743526459 -1.349079370498657 -0.070757523179054246 -1.2309161424636839 0.97658872604370128 -1.1060401797294614 -1.4770886301994322 1.0440983176231386 1.0000000180025095e-35 1.0685089230537417 -1.5361552834510801 -0.85358816385269154 0.96160486340522777 -1.8364767432212827 -2.0924258232116695 -1.0564073324203489 1.1906015276908877 0.92050859332084667 -0.38824124634265894 -1.0099726915359495 1.0571349859237673 -0.98175898194313038 0.80473744869232189 1.0043495893478396 1.0504024624824526 -0.82467433810234059 -0.93043527007102955 -0.97165310382843006 0.93579238653182995 -1.0551806092262266 0.71066269278526317 0.77023261785507213 0.93579238653182995
decision_type=2 2 2 2 2 2 2 2 2 2 2 2 2 2 2 2 2 2 2 2 2 2 2 2 2 2 2 2 2 2 2 2 2 2 2 2 2 2 2 2 2 2 2 2 2 2 2 2
left_child=12 2 19 4 5 -4 7 9 11 16 -11 -9 23 15 -15 -5 -3 -10 -6 22 28 -22 29 33 38 32 -27 37 -21 -2 -14 -24 -26 34 36 -36 -1 47 40 -40 -8 43 -29 44 -32 46 -35 -25
right_child=1 6 3 13 18 -7 24 8 17 10 -12 -13 30 14 -16 -17 -18 -19 -20 20 21 -23 31 27 25 26 -28 42 -30 -31 41 -33 -34 45 35 -37 -38 -39 39 -41 -42 -43 -44 -45 -46 -47 -48 -49
leaf_value=0.18243273033803348 -0.030929813374948902 0.35066940493194926 0.015452147180132034 0.023037462292817907 -0.047139313796300569 0.10313506127880455 -9.0336289722505871e-05 0.11013429510625031 0.19276395444501948 0.169054409393708 0.036446219903839637 0.011506363501842524 0.46223750401458352 0.23775206845224545 0.16268892146584235 0.19706402192975558 0.21918908074962801 0.31751983773264114 0.23858602548079438 0.1994081893526328 -0.072813867042562791 0.15071068131493767 0.19043213601586376 -0.11899950007230278 -0.065562998460865871 0.26168024146025565 -0.079598830115872543 0.1395808635475296 0.41685231463489325 0.17414917766274604 -0.1175782858452354 0.26640766875730976 0.056763042368136479 0.25717227096543671 0.046311732696609112 0.27531292547431313 -0.028903726715513323 0.24639511060547356 -0.1175009316144893 0.3324558740101764 -0.10987167150583442 0.23926051401034198 0.31527848435151867 0.1353754923978204 0.08060356880858105 0.27316025045480086 0.24044827905171121 -0.13463816714330126
leaf_weight=113.65147721767426 45.46961797773838 301.41511546075344 2275.0855637565255 513.03989205509424 36.978744626045227 13092.396728776395 31.616213358938694 2209.9122045636177 687.22136369347572 33913.305710025132 678.24937299638987 930.94198064506054 4.6896434798836699 1545.5478904694319 4865.7060371935368 354.04496890306473 2798.4461315795779 272.88922746479511 1447.8188954591751 347.28456813097 88.391478359699249 157.6835578083992 226.10820980370045 12.082610331475736 131.68278761208057 76.947253793478012 24.543963126838207 13.255880728363993 30.733507081866264 97.011166989803314 54.303529985249043 1162.6148209869862 152.76056636124849 11112.301751226187 58.96837206184864 800.61818043142557 85.399145148694515 4.832733526825904 11.767731510102751 8.1311701983213407 142.76818359643221 2.5133175626397124 16.251402303576469 3.5215686708688727 4.6571073159575453 57.617521643638611 96.130116522312164 15.878268443047999
leaf_count=298 231 617 13866 3314 253 67656 237 10540 1989 111482 3594 4560 6 3628 16628 1438 8827 514 3053 688 428 542 464 97 902 296 199 33 55 219 452 1681 864 5080 292 1524 471 9 98 25 1254 8 15 14 30 27 61 85
internal_value=0 0.151351 0.130771 0.123071 0.102605 0.090154 0.164117 0.166303 0.115392 0.171843 0.166454 0.0809012 0.252063 0.170457 0.180784 0.0940954 0.231974 0.228223 0.23147 0.216985 0.159257 0.0704195 0.240514 0.253705 0.00663723 0.0472089 0.179148 0.0736603 0.217087 0.108703 -0.0396603 0.254038 0.000132315 0.254615 0.228045 0.259603 0.0917626 -0.072724 -0.0739564 0.0663622 -0.0899681 -0.0758739 0.236348 -0.08855 -0.101925 0.257111 0.257029 -0.12788
internal_weight=0 68658.5 26285.9 24130.6 16852.3 15367.5 42372.6 41792.4 4100.96 37691.4 34591.6 3140.85 12456.7 7278.34 6411.25 867.085 3099.86 960.111 1484.8 2155.3 624.093 246.075 1531.2 12387 580.218 385.935 101.491 62.3009 378.018 142.481 69.6852 1388.72 284.443 12324.7 1058.64 859.587 199.051 32.7936 194.283 19.8989 174.384 64.9955 29.5073 62.4822 58.9606 11266 11208.4 27.9609
internal_count=268644 260142 114144 109836 84828 81522 145998 142123 17603 124520 115076 15100 8502 25008 20256 4752 9444 2503 3306 4308 1713 970 2595 7992 3875 2261 495 239 743 450 510 2145 1766 7753 2585 1816 769 191 1614 123 1491 504 48 496 482 5168 5141 182
is_linear=0
shrinkage=0.1


Tree=4
num_leaves=46
num_cat=0
split_feature=125 128 31 30 8 134 70 131 71 89 0 102 106 103 51 70 29 64 72 99 74 130 75 82 70 2 111 108 43 36 108 49 113 127 25 44 33 17 52 3 125 36 79 105 24
split_gain=9320.73 1382.26 1239.01 1577.02 1901.68 1718.55 1638.78 1365.76 1005.69 926.745 653.832 638.233 597.349 515.555 330.539 266.531 284.024 414.975 264.937 225.339 250.96 192.996 180.256 166.861 143.617 290.972 141.781 138.349 104.491 69.3419 57.8976 11.4416 95.0694 1.24354 79.6338 1.1027 0.227235 0.10783 0.107313 0.0936833 0.0411049 0.0194101 0.00991313 0.00889935 0.000294468
threshold=-0.38824124634265894 1.0000000180025095e-35 1.0008086562156679 1.095781743526459 0.63016358017921459 1.0000000180025095e-35 -0.40168349444866175 1.0000000180025095e-35 -0.50903502106666554 -1.2403098344802854 0.31601472198963171 -0.85782206058502186 -0.84486228227615345 -0.86042046546936024 1.1022575497627261 -0.15792057663202283 1.0628703236579897 0.50975310802459728 -0.57684281468391407 -0.97252118587493885 -1.0162120461463926 1.0000000180025095e-35 -1.126923620700836 -1.4383157491683958 -0.28679990768432612 0.54984727501869213 -0.90056645870208729 -0.78704312443733204 1.1640850305557253 0.92535117268562328 -0.83271151781082142 0.85646069049835216 -1.0442069768905637 1.0000000180025095e-35 1.1369547843933108 0.71673908829689037 0.77023261785507213 1.3323515653610232 0.78030186891555797 0.49822223186492925 1.0000000180025095e-35 0.96659106016159069 -0.38647267222404474 -0.89938953518867482 1.0293199419975283
decision_type=2 2 2 2 2 2 2 2 2 2 2 2 2 2 2 2 2 2 2 2 2 2 2 2 2 2 2 2 2 2 2 2 2 2 2 2 2 2 2 2 2 2 2 2 2
left_child=1 2 3 4 6 -6 -1 10 13 14 21 -10 -12 -9 24 16 23 -18 27 22 -21 -4 -5 -11 25 -3 28 -16 -17 -26 -20 33 39 34 -2 36 38 -36 -35 42 -38 -28 44 -39 -33
right_child=31 9 7 19 5 -7 -8 8 11 15 12 -13 -14 -15 18 26 17 -19 30 20 -22 -23 -24 -25 29 -27 41 -29 -30 -31 -32 32 -34 35 37 -37 40 43 -40 -41 -42 -43 -44 -45 -46
leaf_value=0.33014962980267587 -0.17484722088921831 0.16914540185265867 0.04323292341798321 -0.0062975247553784296 0.088891821607165952 -0.022820207916022964 0.11933918694410589 0.05050783963461225 0.23603801659013565 -0.044289425463200624 0.16301309867308275 0.099520996118110605 0.11529640745405861 -0.092785460557923916 0.17597026600207674 0.072819570839348507 0.17022805914291328 0.056291723917981873 0.31977958001552009 0.059711006100737089 0.17837725981344194 0.15648919397068106 0.23624281371795233 0.2224889749547462 -0.093236394050699112 -0.030970828544331048 -0.11982830449467313 -0.07623015610281933 0.24584924487078896 0.0081538440942031179 -0.067084717613516406 -0.1137593512225617 0.23839435628899636 0.22150575854728813 0.22826321575269889 0.23652981503976001 0.2280418982403386 0.22139255540209604 0.21749181279969104 -0.13954260776446475 0.22429358146395703 -0.12479786698099869 -0.12105172884134273 0.22308296503410935 -0.11215666392905804
leaf_weight=374.3993633762002 5.1410841494798651 145.00967640429735 711.71360911428928 31.818921528756618 14012.508144132793 1527.1752488389611 24458.792576834559 1106.4515159800649 422.63272792845964 23.913998149335384 14576.945123434067 1805.1972291395068 3199.3519644141197 324.79080887883902 393.22055195271969 222.01369968056679 7551.2221197932959 333.79741893708706 4.1006062328815451 201.11026118695736 1565.5980701372027 190.79604284465313 828.62535486370325 1195.8070466518402 110.04471281170845 145.62535810470581 13.779428884387015 23.024919994175434 41.410799026489258 174.28141884505749 68.346106514334679 2.211699537932871 40.612200386822224 11270.850341796875 43.130441188812256 49.207387141883373 49.946271896362305 43.525322914123535 67.001174010336399 2.1455775424838066 70.62647819519043 18.293734848499298 2.2328700497746468 109.48342752456665 2.3801313377916813
leaf_count=1170 21 628 2747 190 60668 8182 90918 5807 1098 160 42115 6504 10721 2063 1080 757 15631 1087 7 692 3238 532 1369 1935 880 1046 105 193 84 1199 466 21 27 4935 19 24 22 20 34 12 31 116 17 48 25
internal_value=0 0.125564 0.12016 0.110234 0.105349 0.0779132 0.122517 0.139265 0.0833985 0.159307 0.150209 0.125419 0.154425 0.0179904 0.0708358 0.169318 0.172351 0.165405 0.131302 0.185308 0.164869 0.067176 0.227274 0.217258 0.0194421 0.0688753 0.0758502 0.16202 0.10002 -0.0310879 -0.0451875 0.221253 0.173317 0.221456 0.213664 0.221592 0.221528 0.223847 0.221482 -0.121316 0.225846 -0.122663 -0.115586 0.222602 -0.112929
internal_weight=0 75801.8 65337.9 43000 40372.9 15539.7 24833.2 22337.9 3659.07 10463.9 18678.8 2227.83 17776.3 1431.24 1063.65 9400.24 9104.74 7885.02 488.692 2627.15 1766.71 902.51 860.444 1219.72 574.961 290.635 295.498 416.245 263.424 284.326 72.4467 11758.5 49.5825 11708.9 201.28 11507.6 11458.4 196.139 11337.9 8.97028 120.573 32.0732 6.8247 153.009 4.59183
internal_count=268644 263388 238014 166427 160938 68850 92088 71587 15472 25374 56115 7602 52836 7870 5499 19875 18813 16718 1746 5489 3930 3279 1559 2095 3753 1674 1062 1273 841 2079 473 5256 102 5154 108 5046 5022 87 4969 75 53 221 63 68 46
is_linear=0
shrinkage=0.1


Tree=5
num_leaves=41
num_cat=0
split_feature=125 35 81 54 125 132 108 116 80 133 107 124 6 127 126 110 122 48 38 125 73 5 76 27 38 63 53 49 114 112 33 62 38 32 104 34 3 32 54 79
split_gain=8613.41 1092.87 1002.1 1367.47 1211.84 2456.79 1696.06 978.517 693.528 617.06 292.854 367.278 452.038 164.535 162.529 156.498 155.056 212.399 148.549 232.949 207.015 135.541 132.978 171.596 91.6769 62.0105 19.6659 9.52905 53.9476 20.0089 1.12973 0.229265 0.228759 0.178996 0.170107 0.0902297 0.0651691 0.0183631 0.0144923 0.00681691
threshold=-0.38824124634265894 0.92155161499977123 -0.25721926987171168 1.082919239997864 -2.5278264284133907 1.0000000180025095e-35 -1.04899126291275 -1.5012218356132505 -0.42766986787319178 1.0000000180025095e-35 -0.80348983407020558 -1.3039096593856809 0.59930261969566356 -3.3039604425430293 -2.988221168518066 -1.0680766105651853 -2.0924258232116695 1.218083441257477 0.99052420258522045 -1.4053457379341123 -0.74143505096435536 0.5506066381931306 -0.90815919637680043 1.2255542278289797 0.98042294383049022 0.58972930908203136 1.0934532880783083 0.85646069049835216 -0.9582918882369994 -0.80770617723464955 0.7756788730621339 0.46457272768020635 0.98989874124526989 0.9513261914253236 -1.0055792927742002 0.73463749885559093 0.49822223186492925 0.94470122456550609 1.0540184378623965 -0.38647267222404474
decision_type=2 2 2 2 2 2 2 2 2 2 2 2 2 2 2 2 2 2 2 2 2 2 2 2 2 2 2 2 2 2 2 2 2 2 2 2 2 2 2 2
left_child=1 2 3 4 6 -6 -1 13 -9 10 11 12 -3 -5 16 33 17 -4 19 -12 -20 -13 23 -17 -18 -24 -16 30 29 36 31 34 -28 37 -2 -36 39 -11 -35 -29
right_child=27 9 14 7 5 -7 -8 8 -10 15 18 21 -14 -15 26 22 24 -19 20 -21 -22 -23 25 -25 -26 -27 32 28 -30 -31 -32 -33 -34 38 35 -37 -38 -39 -40 -41
leaf_value=0.22336344995259313 0.19100261613756575 0.13429302651265354 0.04675669357666444 0.057949870420346744 0.10326010771658976 0.0046815642541945457 -0.020146710216187694 0.023386417364985077 0.12935595924836063 -0.12206576909458003 -0.054535067511364665 -0.13449832850710716 0.050359393966145742 -0.11882781797457682 0.1319085445062137 -0.07087438749751454 0.21969297368183552 0.1824577568313929 0.1365502826778893 0.12288896283582069 -0.011256699115712322 0.24650801142451481 0.35360647707349224 0.33597199316497078 0.11660169966049812 0.088841792505742201 -0.14350176933778641 -0.11172938762648693 0.20849952744073966 0.19495926859107882 0.18317563697382608 0.20423102521952116 -0.12080895154513167 -0.13440188191837851 0.19738616128962364 0.19480415582907495 -0.13471871253258441 -0.1268467376686841 -0.13131690193656323 -0.11874605786090205
leaf_weight=1578.4941148683429 42.296254113316536 15542.046122439206 163.88499629497528 60.182274684309959 53547.294156506658 2653.433308750391 349.32520002126694 1912.4617935791612 912.15583616495132 23.282067403197289 182.61641957610846 9.6080403625965101 669.28839401900768 420.71092311292887 3.3971166312694576 88.589643910527229 837.3026734739542 389.39869304001331 431.6510733217001 124.4182492941618 121.40892854332924 330.96642811596394 15.253613501787184 11.740730613470076 96.168904379010201 21.058093264698982 7.3057376891374615 4.2332925684750053 39.213944688439369 2.6865858808159819 56.409526646137238 48.380449242889881 11.333612747490404 26.037692248821259 11535.629005461931 136.94966727495193 2.0072852447628975 12.266246780753134 36.678263485431671 2.0575903579592714
leaf_count=2806 22 36999 495 152 182166 15033 1477 9697 2522 158 1017 51 2176 2883 9 430 765 553 1315 502 681 649 21 12 210 79 35 46 22 5 38 25 81 137 5006 63 12 74 203 17
internal_value=0 0.105866 0.0996997 0.0977223 0.10128 0.0986059 0.179239 0.0351576 0.0576072 0.127859 0.130031 0.132987 0.130828 -0.0967046 0.180214 -0.0331342 0.18421 0.142263 0.0731385 0.0173617 0.104103 0.235759 0.0360828 -0.0232649 0.209072 0.200063 -0.0893736 0.197109 0.153632 -0.0422365 0.197294 0.197361 -0.129703 -0.129384 0.197333 0.197356 -0.11903 -0.123715 -0.132598 -0.114024
internal_weight=0 80589.8 62942.8 61434.1 58128.5 56200.7 1927.82 3305.51 2824.62 17646.9 17412 16551.9 16211.3 480.893 1508.79 234.906 1486.76 553.284 860.095 307.035 553.06 340.574 136.642 100.33 933.472 36.3117 22.0365 11869.9 50.1987 10.9848 11819.7 11763.3 18.6394 98.2643 11714.9 11672.6 8.29817 35.5483 62.716 6.29088
internal_count=268644 263388 218884 216736 201482 197199 4283 15254 12219 44504 43390 39875 39175 3035 2148 1114 2023 1048 3515 1519 1996 700 542 442 975 100 125 5256 102 80 5154 5116 116 572 5091 5069 75 232 340 63
is_linear=0
shrinkage=0.1


Tree=6
num_leaves=55
num_cat=0
split_feature=45 128 136 34 124 30 30 125 55 88 133 30 92 74 116 130 54 76 54 31 113 69 119 114 109 69 86 74 75 4 28 101 135 136 81 105 62 31 113 93 99 104 33 54 74 74 109 127 81 108 71 74 5 84
split_gain=8171.7 1022.45 917.051 1073.56 1200.14 1546.05 864.182 1618.2 924.611 673.481 565.214 523.023 480.25 774.681 381.171 372.678 319.225 320.299 224.322 233.306 214.749 201.363 191.283 145.74 163.322 139.388 134.637 101.159 96.746 70.283 70.0015 63.9722 61.0817 104.373 52.295 49.0149 42.9485 38.0278 51.1176 38.3771 29.6749 27.5442 21.6136 83.2798 18.0284 17.2504 12.0404 18.3646 11.7952 24.8307 9.98154 1.80425 0.415251 0.15357
threshold=0.74059888720512401 1.0000000180025095e-35 1.0000000180025095e-35 0.91101965308189403 -2.3804067373275752 1.0838062167167666 1.0591322779655459 -1.5185131430625913 1.0035306215286257 -1.2653477191925047 1.0000000180025095e-35 1.0521594285964968 -1.1757939457893369 -1.0043616890907285 -1.5332841277122495 1.0000000180025095e-35 1.035543739795685 -1.2119846343994138 1.0803330540657046 0.98100605607032787 -1.1640834212303159 -0.066454298794269548 -1.203693628311157 -0.93717741966247547 -0.90862402319908131 -0.0098822331055998785 -1.3731628060340879 -0.74923628568649281 -1.1332807540893552 0.8673824965953828 1.1006028056144717 -0.70463094115257252 1.0000000180025095e-35 1.0000000180025095e-35 -1.3912810087203977 -0.97435203194618214 1.0000000180025095e-35 0.92869511246681224 -0.91777321696281422 -1.0523087978363035 -0.97252118587493885 -0.89846891164779652 0.7756788730621339 0.6586376726627351 -1.0272841453552244 -1.0052692294120786 -0.90553626418113697 -1.1646346449851988 -1.1184380650520322 -0.9326881170272826 -0.42547696828842158 -0.99104294180870045 0.83026859164237987 -1.1543649435043333
decision_type=2 2 2 2 2 2 2 2 2 2 2 2 2 2 2 2 2 2 2 2 2 2 2 2 2 2 2 2 2 2 2 2 2 2 2 2 2 2 2 2 2 2 2 2 2 2 2 2 2 2 2 2 2 2
left_child=23 2 3 4 14 -6 7 8 -4 16 15 -9 44 -14 -2 -5 26 21 19 27 -12 -18 31 24 32 -21 29 -11 -28 -3 -24 -20 33 36 -19 -26 -1 42 39 -39 -40 52 46 50 -8 -41 51 -48 -34 -50 -44 -25 -37 -42
right_child=1 9 6 10 5 -7 12 11 -10 18 20 -13 13 -15 -16 -17 17 34 22 25 -22 -23 30 37 35 -27 28 -29 -30 -31 -32 -33 48 -35 -36 41 -38 38 40 45 53 -43 43 -45 -46 -47 47 -49 49 -51 -52 -53 -54 -55
leaf_value=0.19603674416170971 -0.019663740340525204 -0.076860288778075908 0.1735399558377014 0.11626775873653286 0.057855324307176242 0.10447806675913306 0.24577961663780568 -0.054582536775504925 0.078790071743833789 0.17240598368654936 -0.12053998516975305 0.050737828118940877 -0.0047417251055387024 0.14599000122427527 0.13153999693408294 0.080438109311634254 0.17636163471742253 0.012820474588409486 0.16678809528558769 0.12822771323484611 0.036739200199610376 0.064566536910943592 0.053528565329156855 0.21180615657528215 0.24945461847535905 0.071458458235873518 0.086059611182942461 -0.085695418232045698 0.0050957491974916239 0.17977135290544818 -0.043286993050659403 -0.035643633910025133 0.23971279271008303 0.22096263463379509 -0.14680248741811949 -0.13699402545423608 -0.12038404259057656 0.2463484702244701 0.13070125539817404 0.14361778455374841 -0.1307129437888109 0.071787826069752828 -0.1482078304953991 0.18677680355177811 0.30221978730617471 -0.056579309939689598 0.14138395819390454 0.1800000564965597 0.21721621567724636 0.077073690075438711 0.035011483168286638 0.25098170368155182 -0.1162091476750983 -0.15447252772592512
leaf_weight=5.2161604762077358 174.1697795689106 172.15209095180035 1933.8496693819761 11129.49850615114 32119.796683385968 9135.5433752685785 92.535099074244499 706.58625959604979 2203.3694729655981 1362.1057974547148 127.91723477840424 1417.3012207597494 367.75128021836281 4681.721369817853 3899.3461704999208 3927.446721367538 430.09009632468224 199.34629478305578 154.57316096127033 7511.9633020684123 270.17225597798824 257.6196304410696 187.41868904232979 25.033160135149956 4.6453512012958518 458.93716005980968 241.25537815690041 15.356584966182707 380.13542871177197 11.376855611801146 124.15524127334356 17.36489462852478 36.899964824318886 22.807951211929321 22.880050547420979 20.028852880001068 24.149006433784962 22.631699278950691 6.2813732177019146 9.0465276539325732 6.849735453724862 8.5087052471935731 9.8370298445224744 43.582953929901123 145.71775068342686 8.2104130387306196 124.45283676683903 11793.233326226473 34.985277950763702 19.797344513237476 4.2615359872579566 22.165891259908676 18.481467112898827 4.5125109106302235
leaf_count=10 847 1583 3466 28183 131674 25276 56 3122 6182 1838 763 4635 1391 10991 7724 11439 729 780 279 13822 985 1042 647 27 7 1247 1030 65 1658 5 484 69 30 10 108 111 199 16 11 14 39 26 48 19 88 26 225 5331 20 51 11 14 171 20
internal_value=0 0.0903717 0.0859605 0.0810525 0.0732924 0.0681794 0.111792 0.0866536 0.123079 0.118005 0.103812 0.0156993 0.141559 0.135012 0.125075 0.106922 0.060177 0.100756 0.128091 0.131526 -0.013799 0.134483 0.0616737 0.177728 0.0920816 0.124959 0.0143033 0.169529 0.03653 -0.0609518 0.0149497 0.146343 0.146854 0.0604738 -0.00361404 -0.060427 -0.0641779 0.179114 0.098007 0.160697 -0.0437226 -0.0910425 0.179502 0.118436 0.280299 0.0483691 0.179796 0.179597 0.196009 0.166572 -0.0928266 0.230204 -0.127019 -0.140149
internal_weight=0 83879.5 72332.7 60783.9 45328.9 41255.3 11548.8 6261.11 4137.22 11546.7 15455 2123.89 5287.73 5049.47 4073.52 15056.9 1714.86 909.936 9831.87 9348.36 398.089 687.71 483.512 12275.6 195.52 7970.9 804.92 1377.46 621.391 183.529 311.574 171.938 143.856 52.1731 222.226 51.6644 29.3652 12080.1 57.5323 39.8886 17.6436 47.019 12022.6 57.6815 238.253 17.2569 11964.9 11917.7 91.6826 54.7826 14.0986 47.1991 38.5103 11.3622
internal_count=268644 262208 236822 206891 165521 156950 29931 17405 9648 25386 41370 7757 12526 12382 8571 39622 6935 2659 18451 16972 1748 1771 1479 6436 635 15069 4276 1903 2688 1588 1131 348 320 219 888 315 209 5801 126 56 70 308 5675 78 144 40 5597 5556 101 71 59 41 282 59
is_linear=0
shrinkage=0.1


Tree=7
num_leaves=45
num_cat=0
split_feature=125 74 97 32 74 107 75 134 53 40 134 96 74 128 129 117 32 114 107 73 35 30 73 30 105 99 33 53 76 104 127 25 74 33 75 31 112 53 25 17 74 27 5 33
split_gain=7787.95 840.528 1380.53 903.559 1087.45 915.197 906.429 1698.45 1057.21 675.184 585.668 499.291 667.504 580.087 456.921 285.749 247.449 215.913 179.837 316.514 122.883 107.92 148.999 68.2674 90.7118 62.5039 38.2722 7.09506 45.1417 18.6341 1.22859 57.6743 0.389801 0.336111 0.100744 0.091243 0.0405955 0.0337294 0.113963 0.0298366 0.012571 0.0101272 0.00853453 0.0042166
threshold=-0.38824124634265894 -1.0141087770462034 -0.9812970459461211 0.93414363265037548 -0.47069552540779108 -1.0361042022705076 -1.0385385155677793 1.0000000180025095e-35 1.087256193161011 1.0714907646179201 1.0000000180025095e-35 -1.0170792341232298 -1.0572903752326963 1.0000000180025095e-35 1.0000000180025095e-35 -0.89659297466278065 0.94370132684707653 -0.96543067693710316 -0.90366113185882557 -0.85437491536140431 0.6132892668247224 1.110683858394623 -0.90705710649490345 1.0842967033386233 -0.88757809996604908 -0.96743491291999806 0.82421329617500316 0.78601980209350597 -0.53268912434577931 -0.78765663504600514 1.0000000180025095e-35 1.1369547843933108 -1.0272841453552244 0.7756788730621339 -1.1204289793968198 1.00091028213501 -0.9986167550086974 0.75796130299568187 1.0245268344879153 1.3323515653610232 -1.0374608039855955 1.3160989284515383 0.63932916522026073 0.77023261785507213
decision_type=2 2 2 2 2 2 2 2 2 2 2 2 2 2 2 2 2 2 2 2 2 2 2 2 2 2 2 2 2 2 2 2 2 2 2 2 2 2 2 2 2 2 2 2
left_child=1 10 17 4 5 -4 7 -5 -8 -6 11 12 20 14 -13 -14 -15 21 25 -20 -1 22 -3 32 34 -19 -23 30 -29 36 31 -2 40 37 -25 -34 42 43 -39 -33 -12 -41 -30 -32
right_child=27 2 3 6 9 -7 8 -9 -10 -11 23 13 15 16 -16 -17 -18 18 19 -21 -22 26 -24 24 -26 -27 -28 28 29 -31 33 39 35 -35 -36 -37 -38 38 -40 41 -42 -43 -44 -45
leaf_value=0.26906312224016099 -0.17365508226898538 -0.11110901742712194 0.23253390337996566 0.083717000589195234 0.11959874419775325 0.050651359671383282 0.11389833452885467 0.011763180674582778 0.065503093044439312 -0.015373345967873342 -0.11899033038772965 -0.016205327811006622 0.073740555473466016 0.17235127154807503 0.1486843172222975 0.14310081500903976 0.024549833069006138 0.20148892775850857 0.10308315976938549 0.17648224167883278 -0.044037393476205687 0.18232835471713577 0.072997629253407623 -0.12108434110403195 0.33207948579262242 0.15609899595527676 0.016567959123678724 0.17824946310177225 -0.11290473909310189 0.18097933637260735 0.16675444911958692 0.1700064345354145 -0.12710825510470539 0.1748621201370594 -0.14245365388577133 -0.13430595692320393 -0.13012630895845834 0.1724032402507365 0.16572186506682199 0.16753994834264874 -0.12117897225046895 0.1657395373315107 -0.12127821578903751 0.16748369364874771
leaf_weight=12.874112367630003 5.0820369571447364 51.187433652579784 280.47704200446606 24471.691307462752 4096.0968262255192 20281.904515191913 16725.754496395588 3788.3807068914175 6182.5026545599103 407.49598643928766 54.661238931119442 2097.2300341650844 2685.5262141823769 304.85516320168972 182.69614187628031 762.64522363990545 180.24723964929581 553.17231342196465 1606.5092799067497 926.23176761716604 475.88695634156466 97.494520142674446 311.2814966738224 5.6375209987163553 7.8832908719778052 671.84653785824776 16.250834569334984 41.104721009731293 3.6494783163070652 2.6935445070266715 10919.196808576584 42.435272216796875 92.457483842968941 51.653043985366821 3.6246191114187249 21.756490871310234 3.0283081755042085 44.444494724273682 59.983594909310341 104.29496908187866 50.478603690862656 44.603805899620056 1.8263697028160093 79.869453907012939
leaf_count=6 21 239 644 65579 7603 79098 38009 15559 18181 1999 408 9530 9273 452 541 2538 938 552 4229 1650 3140 105 836 40 8 1147 47 31 38 5 4932 19 553 23 18 115 20 20 28 47 351 21 15 36
internal_value=0 0.078642 0.0815216 0.0784348 0.0628801 0.0531323 0.0860546 0.0740713 0.100837 0.107386 0.0452468 0.0507045 0.0735787 0.0181354 -0.00299231 0.0890812 0.117433 0.137101 0.14514 0.129925 -0.0357902 0.0736658 0.0469983 -0.109414 0.0827581 0.176595 0.158646 0.166507 0.12976 -0.0482357 0.166676 0.158836 -0.124435 0.166814 -0.129447 -0.128479 -0.120836 0.166777 0.168565 0.167667 -0.120041 0.167001 -0.115698 0.16676
internal_weight=0 87406.7 80468.3 76234.3 25066 20562.4 51168.3 28260.1 22908.3 4503.59 6938.46 6701.96 3936.93 2765.03 2279.93 3448.17 485.102 4233.97 3757.76 2532.74 488.761 476.214 362.469 236.499 17.1454 1225.02 113.745 11403.9 52.3024 11.1977 11351.6 196.416 219.354 11155.1 9.26214 114.214 8.50416 11103.5 104.428 191.334 105.14 148.899 5.47585 10999.1
internal_count=268644 263388 235477 226672 89344 79742 137328 81138 56190 9602 27911 26418 14957 11461 10071 11811 1390 8805 7578 5879 3146 1227 1075 1493 66 1699 152 5256 109 78 5147 108 1427 5039 58 668 73 5016 48 87 759 68 53 4968
is_linear=0
shrinkage=0.1


Tree=8
num_leaves=45
num_cat=0
split_feature=125 128 81 113 132 34 133 76 82 89 81 71 113 30 54 75 76 34 75 107 112 49 51 112 126 51 66 5 31 115 36 40 53 76 91 127 25 33 111 17 56 48 105 4
split_gain=7482.91 802.176 632.904 926.563 1002.87 1002.6 1742.84 993.484 779.673 522.055 364.195 200.988 276.452 207.383 162.598 226.114 162.315 144.855 139.974 128.566 119.063 175.572 120.038 280.218 136.825 104.292 100.029 99.6432 78.5032 40.9014 38.5035 12.6722 6.7301 37.1299 17.3512 1.10416 48.7221 0.206873 0.0276185 0.0196845 0.0194941 0.0143049 0.0107024 0.00698097
threshold=-0.38824124634265894 1.0000000180025095e-35 -0.25721926987171168 -1.1359307765960691 1.0000000180025095e-35 0.82464969158172619 1.0000000180025095e-35 -1.1296141147613523 -0.92378237843513478 -1.2351750731468198 -1.0682509541511533 -0.40240773558616633 -0.93172940611839283 1.0431098937988283 1.0360416769981386 -1.1065050959587095 -1.1854124665260313 0.9267505705356599 -1.1001948118209837 -0.81968823075294484 -1.26893675327301 1.2239670753479006 1.1752820611000063 -1.2926829457283018 -3.0312336683273311 1.151572644710541 0.33330063521862036 0.65004780888557445 1.000053942203522 -0.93621578812599171 0.8751959800720216 1.0557590126991274 0.78601980209350597 -0.53268912434577931 -0.48143044114112848 1.0000000180025095e-35 1.1369547843933108 0.7756788730621339 -0.55005446076393116 1.3323515653610232 0.70357882976531994 0.78090336918830883 -0.89938953518867482 0.54090422391891491
decision_type=2 2 2 2 2 2 2 2 2 2 2 2 2 2 2 2 2 2 2 2 2 2 2 2 2 2 2 2 2 2 2 2 2 2 2 2 2 2 2 2 2 2 2 2
left_child=1 2 3 5 7 8 -7 -5 -1 14 -6 13 17 18 19 26 -14 -13 -11 27 22 31 23 -4 -24 -15 -16 -3 -21 -17 -23 -22 35 -34 38 36 -2 40 43 -38 41 -37 -41 -35
right_child=32 9 20 4 10 6 -8 -9 -10 11 -12 12 16 25 15 29 -18 -19 -20 28 21 30 24 -25 -26 -27 -28 -29 -30 -31 -32 -33 33 34 -36 37 39 -39 -40 42 -42 -43 -44 -45
leaf_value=-0.048852567418516062 -0.16206663881903394 0.068271856599254013 0.11974334053779095 0.058637161130694983 -0.077344930559268332 0.053703416353098603 -0.033970802302343908 0.083936162864301944 0.14910608262985336 0.17725226505357414 0.095206195124448875 0.015474651315152386 0.042658033749496033 0.099329103113154127 0.11520784865297347 0.033893206443972736 -0.099146479150240288 0.098043099666293154 0.12103966205050556 -0.078275703533507948 -0.14475851757864419 0.1534585691926883 0.15516357068053085 -0.14137931480374319 -0.084200426234456366 -0.13712949746166467 -0.12738407673189805 -0.033963335992545744 0.025763922765065273 -0.059684179546801344 -0.0035286124372553938 0.035326778798579421 0.1638616413873491 -0.11124403995877437 0.17821024039185707 0.15650110968458944 0.15906398730586702 0.16296805232424838 -0.12605476247806013 0.15520667400965615 0.15859963064398525 0.15808197843839883 0.15712201962407402 -0.11916916529773697
leaf_weight=237.73144613951445 4.909542888402938 339.22357971966267 283.0526750087738 34619.287794157863 631.16276402026415 7920.6914286762476 3176.6521615162492 28138.802734151483 1219.9109690189362 603.89547448605299 151.7245085760951 225.88705489039421 417.67265491932631 4026.9156921356916 496.08610865473747 80.555111765861511 100.05666907131672 3578.1297955811024 1662.3922875970602 210.74604567885399 39.743903890252113 67.929891958832741 1132.3581578284502 48.076978102326393 24.39515146613121 18.73952417075634 17.600022338330746 132.59871146827936 110.57985208928585 111.16660219430923 20.289692640304565 4.3335349410772315 40.282523207366467 3.1068885885179016 2.6031908690929404 10567.706649005413 40.89667820930481 49.965050220489502 3.1995206549763688 40.79194164276123 44.818348169326782 57.550833463668823 102.42644166946411 1.7306073680520055
leaf_count=1314 21 1144 429 108274 3527 28881 15976 73301 3983 556 610 662 1194 7474 1130 267 461 6276 2482 1620 203 68 1068 214 107 101 112 710 623 562 49 10 31 36 4 4968 19 23 23 20 21 27 48 15
internal_value=0 0.0687224 0.0649891 0.0636723 0.0685773 0.0388481 0.0286064 0.0699805 0.11682 0.0926371 -0.0439043 0.100424 0.0838095 0.1118 0.0373793 0.0723077 0.0152528 0.0931401 0.136019 0.00631484 0.126835 0.0359241 0.134919 0.0818307 0.150116 0.0982338 0.106896 0.0395402 -0.0424719 -0.0203661 0.117353 -0.127053 0.156246 0.119976 -0.0461699 0.156415 0.148839 0.156549 -0.118847 0.157129 0.156518 0.15651 0.156576 -0.114079
internal_weight=0 89848.4 77716.1 76096 63541 12555 11097.3 62758.1 1457.64 12132.2 782.887 10633.7 4321.75 6311.94 1498.56 705.408 517.729 3804.02 2266.29 793.148 1620.18 132.297 1487.88 331.13 1156.75 4045.66 513.686 471.822 321.326 191.722 88.2196 44.0774 10960 50.9227 10.6402 10909.1 189.025 10720 8.03702 184.115 10670.1 10625.3 143.218 4.8375
internal_count=268644 263388 238014 235866 185712 50154 44857 181575 5297 25374 4137 19206 8593 10613 6168 2071 1655 6938 3038 4097 2148 330 1818 643 1175 7575 1242 1854 2243 829 117 213 5256 109 78 5147 108 5039 74 87 5016 4995 68 51
is_linear=0
shrinkage=0.1


Tree=9
num_leaves=46
num_cat=0
split_feature=125 128 74 97 96 74 129 95 129 74 91 93 37 121 71 30 95 117 30 113 70 78 74 54 6 62 74 127 105 52 88 90 122 62 127 25 83 36 112 66 33 26 39 2 62
split_gain=7193.87 667.847 597.544 1317.5 910.092 731.172 773.585 727.231 578.859 555.056 437.168 414.423 380.273 212.462 211.78 288.278 283.936 204.765 211.231 196.859 138.443 113.274 90.9215 107.231 82.5296 81.3347 79.2504 78.4607 62.2062 8.32795 33.604 15.6918 4.45798 16.5543 0.994486 41.5962 0.642764 0.188615 0.0201289 0.0182111 0.0159784 0.0117767 0.00671105 0.00297948 0.00101174
threshold=-0.38824124634265894 1.0000000180025095e-35 -1.0080782175064085 -0.97489935159683216 -1.013381242752075 -0.98518553376197804 1.0000000180025095e-35 -0.99709537625312794 1.0000000180025095e-35 -1.0374608039855955 -1.1806778907775877 -1.1345183253288267 0.93819826841354381 -0.98556411266326893 -0.44320160150527949 1.0467974543571474 -0.97610947489738453 -0.99668219685554493 1.0555950999259951 -0.87265801429748524 -0.15379263460636136 -1.1724399924278257 -0.96854072809219349 1.035543739795685 0.75706022977828991 0.64703428745269786 -0.85953772068023671 -1.7505731582641599 -0.76284208893775929 0.82732814550399791 -1.0141684412956236 -0.13544815778732297 -1.1370393633842466 0.62516134977340709 1.0000000180025095e-35 1.1369547843933108 -1.3777341842651365 0.71066269278526317 -0.9986167550086974 -0.22573649138212201 0.77023261785507213 1.4026331901550295 0.60636991262435924 0.33560259640216833 0.39129069447517401
decision_type=2 2 2 2 2 2 2 2 2 2 2 2 2 2 2 2 2 2 2 2 2 2 2 2 2 2 2 2 2 2 2 2 2 2 2 2 2 2 2 2 2 2 2 2 2
left_child=1 2 4 17 9 6 -5 -7 12 13 22 -11 -6 -1 15 25 27 21 -19 -10 -18 -4 23 24 -3 -12 -17 -16 -25 34 -31 38 33 -24 35 -2 -34 40 43 -37 41 -36 -41 -32 -42
right_child=29 10 3 5 8 7 -8 -9 19 11 14 -13 -14 -15 16 26 20 18 -20 -21 -22 -23 32 28 -26 -27 -28 -29 -30 30 31 -33 36 -35 37 39 -38 -39 -40 42 44 -43 -44 -45 -46
leaf_value=-0.060808801720764194 -0.1528991075005387 -0.022459869307696056 -0.093337907882851068 0.0028175978635439241 -0.031552178994369358 0.096312362902846671 0.11158959872366177 0.056295035208977641 0.15206021531667474 0.15461488053272199 0.14746592815558948 0.064581573913810308 0.11347873309085997 0.028232408002037791 -0.10061997620797065 0.084929167553541074 0.084804868881218284 -0.035435144626161028 0.12054245252198395 -0.065827465450931391 0.010474489660008149 0.062809281060992761 0.12481884605294656 0.086115827377276327 0.16285660085942755 -0.042063078529739104 0.19032096581876112 0.019143393614120239 -0.087541069354532153 0.15700452283563426 -0.11081236992301298 0.16624840313649211 -0.1261553587180396 -0.12575846886081141 0.14832361164297178 0.14681483118560018 -0.17128097519732924 0.15415732408107752 -0.12275751293711196 0.14880774730482793 0.15001321530265505 0.14662010371269638 0.15033629813660501 -0.11614001517727995 0.14932584253771364
leaf_weight=342.12565935403109 4.6944963783025733 414.53033137321472 61.831152632832527 4213.3740659952164 2823.0359628498554 4937.8479917347431 773.9470289349556 56541.784010626376 272.50652661919594 617.77923673391342 1266.8332405164838 2964.9894122332335 193.16020351648331 1236.4893128201365 62.349219962954521 2913.8776766508818 6511.3929351344705 88.654714554548264 4201.8261381685734 48.907771572470665 260.60443123430014 186.85699762403965 3.471744790673255 226.959577485919 25.510471321642399 23.05457691848278 73.139927610754967 446.00380811095238 22.689841717481613 30.192855332046747 2.8934710398316357 2.5702617615461341 39.072683792561293 10.958588004112242 10033.055916786194 38.900079697370529 3.4339068233966819 55.816784858703613 3.5996857210993776 95.538133144378662 45.072076797485352 40.746850550174713 41.070787668228149 1.6473446711897848 40.794252872467041
leaf_count=2008 21 2578 246 15546 12348 12052 1942 167871 623 1138 1391 8526 538 5997 257 5686 11855 369 8185 209 835 416 10 581 44 82 80 1461 149 23 35 3 273 77 4953 20 15 27 28 47 22 21 20 16 20
internal_value=0 0.0604374 0.0570822 0.0600815 0.0320239 0.0565218 0.0196972 0.0595091 -0.00866951 0.0583383 0.082118 0.0801061 -0.0222643 0.00893493 0.0869091 0.104571 0.0765337 0.112206 0.117319 0.118905 0.0819444 0.0239865 0.00795656 0.0179831 -0.0117165 0.144078 0.0875098 0.00445448 0.0703327 0.148053 0.10302 -0.04916 -0.113497 -0.0654729 0.14823 0.140866 -0.129801 0.14836 -0.117173 0.148724 0.148328 0.148317 0.149267 -0.112745 0.149687
internal_weight=0 91809 79505.1 71006.1 8498.99 66467 4987.32 61479.6 3337.61 5161.38 12303.9 3582.77 3016.2 1578.61 11557.3 4276.91 7280.35 4539.17 4290.48 321.414 6772 248.688 746.627 689.69 440.041 1289.89 2987.02 508.353 249.649 10436.6 40.9036 10.7108 56.9369 14.4303 10395.7 180.203 42.5066 10215.5 8.1405 175.509 10159.7 10073.8 136.609 4.54082 85.8663
internal_count=268644 263388 238014 206627 31387 197411 17488 179923 13718 17669 25374 9664 12886 8005 21647 7239 14408 9216 8554 832 12690 662 3727 3352 2622 1473 5766 1718 730 5256 105 82 375 87 5151 108 288 5043 79 87 5016 4974 67 51 42
is_linear=0
shrinkage=0.1


Tree=10
num_leaves=42
num_cat=0
split_feature=125 128 77 114 74 134 58 34 76 91 85 54 123 69 117 109 52 57 69 28 28 92 74 112 75 2 13 37 57 55 52 88 92 38 33 33 67 72 24 112 4
split_gain=6911.88 560.671 577.527 826.842 1159.62 815.091 799.818 653.636 684.311 668.636 364.105 228.858 195.645 176.893 147.677 124.426 300.184 114.981 167.825 503.168 192.371 149.429 221.029 105.452 104.896 96.3023 86.4126 83.8705 66.8423 51.2108 7.72453 28.2949 14.5559 1.04828 0.89716 0.0875709 0.128697 0.0596905 0.0592899 0.0141784 0.0023748
threshold=-0.38824124634265894 1.0000000180025095e-35 -0.39350825548171992 -1.1059777736663816 -0.89868214726448048 1.0000000180025095e-35 0.88781410455703746 0.82165390253067028 -0.54905393719673146 -0.9161018133163451 -1.3560073375701902 1.031494200229645 -2.2259196043014522 -0.04314641281962394 -1.5771659612655637 -1.0881425738334654 1.1745100617408755 0.93632489442825328 -0.050512449815869324 1.1076691746711733 1.1207168698310854 -1.0544459223747251 -0.95975202322006214 -0.95108786225318898 -1.0859173536300657 -0.24567886441946027 0.97913247346878063 0.97610288858413707 0.90904316306114208 1.0262811183929446 0.82732814550399791 -1.0141684412956236 -0.16158860921859738 0.98989874124526989 0.7756788730621339 0.77023261785507213 0.052692620083689697 -0.55246347188949574 1.4913871288299563 -1.036172568798065 0.47016578912734991
decision_type=2 2 2 2 2 2 2 2 2 2 2 2 2 2 2 2 2 2 2 2 2 2 2 2 2 2 2 2 2 2 2 2 2 2 2 2 2 2 2 2 2
left_child=1 2 3 7 5 -5 -6 9 -9 -1 11 26 15 23 33 25 -17 21 20 -20 -19 22 -12 -13 -23 -4 28 -15 -3 -16 34 -32 39 -14 35 37 -37 38 -2 40 -33
right_child=30 10 12 4 6 -7 -8 8 -10 -11 17 13 14 27 29 16 -18 18 19 -21 -22 24 -24 -25 -26 -27 -28 -29 -30 -31 31 32 -34 -35 -36 36 -38 -39 -40 -41 -42
leaf_value=-0.025622665636576444 0.14168936217663647 -0.011264109421030752 0.15431163973794029 0.05306856092397038 0.10474301510228182 0.016953237540556648 0.048966447243720741 0.0089045000292350285 0.058925001508192756 0.10906309386999982 0.09038857533597848 -0.13426172345395168 -0.15252155781727245 -0.06324535318293989 0.18897168526153579 -0.094826710975711978 0.11491184561663621 0.14360270874409767 0.071657811234801361 -0.060073199521405711 0.044732640627282605 -0.17971831181974357 0.044893571469875146 0.083751803301946995 0.10256701877371005 0.10347054097237039 0.24553504463861031 0.035433902468501963 -0.096204861694712637 0.018651001740817522 0.14706965810669592 -0.10962645334073902 0.16536187607671379 -0.12479624872041864 0.12799415103955333 0.13338942077253713 0.14190680405480391 0.13773469410861047 0.13777435102553268 -0.12013271759261163 -0.11460817016983418
leaf_weight=469.3300444856286 9627.989328622818 363.8413266018033 546.53483548760414 43895.083317123353 6837.7389596626163 7286.5398424863815 4119.9819718152285 10857.170912608504 3655.9628102853894 1717.2445435971022 2984.6594311669469 22.783237278461456 21.815711617469788 147.95761759579182 26.121922120451927 97.321590721607208 228.35009403526783 442.65010653436184 1399.2567070499063 365.75156384706497 354.31536355614662 13.213905483484266 1662.820078253746 847.03402329236269 3474.1089835315943 1170.4726416841149 11.407362595200537 206.11807093769312 124.2930260412395 54.452889859676361 29.067202169448137 2.5652280226349813 2.4345983117818832 36.376267768442631 48.474607676267624 31.691125690937042 40.298463344573975 38.625919044017792 38.838568463921547 3.5328428745269775 1.5262352116405962
leaf_count=2039 5028 2125 415 123788 13016 24930 10778 44642 10549 5058 5201 146 99 742 17 416 267 507 2773 1133 756 54 3488 1959 4915 1596 14 682 879 164 23 34 2 240 38 20 21 22 22 30 16
internal_value=0 0.0533761 0.0503433 0.0489389 0.0542478 0.047927 0.0837716 0.0291842 0.021505 0.0801539 0.0731603 0.0305046 0.101099 0.0537855 -0.0138007 0.108905 0.052235 0.0800329 0.0615584 0.04436 0.099647 0.0858513 0.0741109 0.0780413 0.101497 0.119654 -0.0265344 -0.0058012 -0.0328925 0.0738681 0.141388 0.0970438 -0.0475157 -0.13519 0.141565 0.141632 0.138157 0.141658 0.141674 -0.115492 -0.111485
internal_weight=0 93440.7 81020.5 78839.1 62139.3 51181.6 10957.7 16699.7 14513.1 2186.57 12420.2 1723.43 2181.45 1223.89 138.767 2042.68 325.672 10696.8 2561.97 1765.01 796.965 8134.8 4647.48 869.817 3487.32 1717.01 499.542 354.076 488.134 80.5748 9865.04 39.1261 10.0589 58.192 9825.92 9777.44 71.9896 9705.45 9666.83 7.62431 4.09146
internal_count=268644 263388 238014 234800 172512 148718 23794 62288 55191 7097 25374 6547 3214 3529 520 2694 683 18827 5169 3906 1263 13658 8689 2105 4969 2011 3018 1424 3004 181 5256 105 82 339 5151 5113 41 5072 5050 80 50
is_linear=0
shrinkage=0.1


Tree=11
num_leaves=44
num_cat=0
split_feature=125 35 131 31 30 106 68 72 120 31 75 105 59 38 72 126 73 35 69 4 99 127 58 104 130 61 58 0 72 103 83 57 52 88 91 33 127 30 67 27 112 4 33
split_gain=6612.56 491.2 665.466 978.509 904.117 799.657 442.134 380.933 485.295 437.585 334.574 260.368 203.817 346.411 634.646 350.717 305.121 283.38 275.408 264.138 195.467 180.27 186.366 175.979 175.733 158.768 140.98 118.371 83.9579 83.0647 73.6254 51.1134 7.19908 23.976 13.8701 1.09743 0.110183 0.763113 0.0349265 0.0141047 0.0115542 0.00172785 0.000744879
threshold=-0.38824124634265894 0.92606890201568615 1.0000000180025095e-35 1.0028464794158938 1.095781743526459 -0.93942442536354054 0.053343852981925018 -0.74565178155899037 -0.94818577170371998 1.0111637115478518 -1.1656377315521238 -0.82947519421577443 0.83083853125572216 0.99881595373153698 -0.58597496151924122 -1.8950515389442442 -0.74862435460090626 0.95560511946678173 -0.11567332968115805 0.54303359985351574 -0.85729846358299244 -1.7915583848953245 0.85258221626281749 -0.90697073936462391 1.0000000180025095e-35 0.73915675282478344 0.87908172607421886 0.59290185570716869 -0.7832854390144347 -0.78287026286125172 -1.3152607083320615 0.90120393037796032 0.82732814550399791 -1.0141684412956236 -0.20019312202930448 0.7756788730621339 1.0000000180025095e-35 0.95967850089073192 0.19291680306196216 1.338098466396332 -1.036172568798065 0.47016578912734991 0.71903938055038463
decision_type=2 2 2 2 2 2 2 2 2 2 2 2 2 2 2 2 2 2 2 2 2 2 2 2 2 2 2 2 2 2 2 2 2 2 2 2 2 2 2 2 2 2 2
left_child=1 2 3 4 5 -1 11 27 9 -9 -10 -5 18 14 24 -16 25 -18 21 26 -21 22 -3 -6 -14 -15 -20 30 -29 -8 -4 -23 35 -34 40 36 37 -2 39 -38 41 -35 -39
right_child=32 12 7 6 23 -7 29 8 10 -11 -12 -13 13 16 15 -17 17 -19 19 20 -22 31 -24 -25 -26 -27 -28 28 -30 -31 -32 -33 33 34 -36 -37 38 42 -40 -41 -42 -43 -44
leaf_value=0.0043978568434698689 0.11828263932859102 0.031095180823123399 -0.022974825551107154 0.073087286354415831 0.099080841603891856 0.041583192124501331 -0.081784816769741212 -0.0052213569011385456 0.024557359424024816 0.067744010705453384 0.18325538928888244 0.034122325092270686 0.11213538321054446 0.089142572701583739 0.088024986752417309 -0.020428739290692988 0.043690919760934276 0.092645448510583039 0.1038269919070989 0.10361713639083281 0.01558095054160577 -0.0024165928285468019 -0.13828467349275347 0.025229973091997371 0.017758769340231875 0.16906356786216969 0.067076163184145873 -0.018018605768014326 0.13992358472632746 0.21571631999075486 -0.088864330547333448 0.19385767871606496 0.13861342621532849 -0.10863934274216563 0.17102968338735103 0.12069882410092377 0.13616219759176523 0.1365327250137742 0.13924652807522159 0.13418628354690193 -0.11834633806711688 -0.11308162732679511 0.1370656458306565
leaf_weight=6655.0319184139371 27.256109565496445 135.89341858029366 265.27981396764517 15675.360107377172 2914.2763125225902 44139.462370328605 224.81851060688496 3486.25025536865 239.90679325163364 1075.4718640893698 297.68790033459663 1925.5633422359824 837.02830255031586 832.43500325083733 354.80947753787041 1867.9372206628323 4220.2365439161658 1642.7148766815662 3316.8385062515736 352.06822978705168 889.13598627224565 18.687081530690193 124.44770857691765 362.83702620863914 258.14775063097477 354.38547694683075 1523.1462796926498 110.52074058353901 48.39303395152092 9.7939582765102369 470.13743468374014 45.754024416208267 27.821076795458794 2.3411246463656412 2.2394411563873291 46.37371601164341 8955.8128150701523 93.983622670173645 36.67408013343811 36.273043483495712 3.4147159606218338 1.3986804671585558 36.380220890045166
leaf_count=27184 21 334 1503 35333 4814 131283 787 12467 1150 2845 690 5122 1347 1540 778 5809 10453 2934 4981 731 2411 64 495 905 723 482 2951 546 123 9 2543 51 23 34 1 38 4979 52 20 21 31 16 20
internal_value=0 0.0473694 0.044027 0.0466954 0.0399957 0.0367112 0.0670067 0.0120135 0.0225713 0.011981 0.112435 0.0688245 0.0628921 0.0542273 0.0275827 -0.00311664 0.0667674 0.0574073 0.0769156 0.0817074 0.0405525 -0.0128054 -0.0498714 0.0909042 0.0898895 0.113007 0.0922615 -0.048185 0.0300786 -0.0693656 -0.0650967 0.136941 0.135867 0.0919726 -0.0461585 0.136044 0.136121 0.1335 0.136167 0.136154 -0.114141 -0.110301 0.136681
internal_weight=0 94674.5 77900.8 71907.1 54071.6 50794.5 17835.5 5993.65 5099.32 4561.72 537.595 17600.9 16773.7 10367.7 3317.92 2222.75 7049.77 5862.95 6405.97 6081.19 1241.2 324.782 260.341 3277.11 1095.18 1186.82 4839.98 894.331 158.914 234.612 735.417 64.4411 9269.97 37.215 9.39396 9232.75 9186.38 157.62 9028.76 8992.09 7.15452 3.73981 130.364
internal_count=268644 263388 227304 205437 164186 158467 41251 21867 17152 15312 1840 40455 36084 24066 8657 6587 15409 13387 12018 11074 3142 944 829 5719 2070 2022 7932 4715 669 796 4046 115 5256 105 82 5151 5113 93 5020 5000 81 50 72
is_linear=0
shrinkage=0.1


Tree=12
num_leaves=42
num_cat=0
split_feature=125 74 97 74 106 133 42 134 81 96 74 128 129 128 30 31 130 112 107 73 37 80 99 30 106 32 52 4 91 33 74 75 127 30 31 74 67 27 2 80 33
split_gain=6311.86 474.271 841.808 493.76 499.654 1189.93 451.441 401.29 396.851 285.22 411.405 330.912 258.689 250.816 228.781 208.468 171.458 146.449 165.693 194.749 87.864 86.913 53.4686 52.9426 61.0492 51.9743 6.73185 20.4709 12.1601 1.32243 0.348835 0.132751 0.129816 0.816362 0.129602 0.0253301 0.0245795 0.0156277 0.014196 0.00623798 0.000493681
threshold=-0.38824124634265894 -1.0141087770462034 -0.9812970459461211 -1.000731289386749 -0.95744988322257985 1.0000000180025095e-35 1.019361197948456 1.0000000180025095e-35 -0.25721926987171168 -1.0183596014976499 -1.0572903752326963 1.0000000180025095e-35 1.0000000180025095e-35 1.0000000180025095e-35 1.0994152426719668 1.00091028213501 1.0000000180025095e-35 -0.95108786225318898 -0.90366113185882557 -0.85437491536140431 0.92066383361816417 -1.0631967186927793 -0.96743491291999806 1.0842967033386233 -0.8855493664741515 0.83549377322196972 0.82732814550399791 0.72903150320053112 -0.20019312202930448 0.7756788730621339 -1.0272841453552244 -1.1191987991333006 1.0000000180025095e-35 0.95967850089073192 1.00091028213501 -1.0374608039855955 0.19291680306196216 1.338098466396332 0.38881769776344305 -0.61756855249404896 0.71903938055038463
decision_type=2 2 2 2 2 2 2 2 2 2 2 2 2 2 2 2 2 2 2 2 2 2 2 2 2 2 2 2 2 2 2 2 2 2 2 2 2 2 2 2 2
left_child=1 7 17 6 5 -5 13 9 -6 10 20 12 -11 -4 -12 -13 -8 21 22 -20 -1 25 -19 30 31 -3 29 28 38 32 35 -25 33 -2 -32 -9 37 -34 39 -28 -35
right_child=26 2 3 4 8 -7 16 23 -10 11 14 15 -14 -15 -16 -17 -18 18 19 -21 -22 -23 -24 24 -26 -27 27 -29 -30 -31 34 -33 36 40 -36 -37 -38 -39 -40 -41 -42
leaf_value=-0.048814637527794108 0.11243974379145952 -0.14303248909751792 -0.041635584066243903 0.081082510891793858 0.044211918781845543 -0.025326780515223957 0.083694967604976744 -0.11845782715762634 0.094532486839744301 -0.024706543782051293 0.039472855404563183 0.09790809933571086 0.08664034937055376 0.06485300699958442 0.10474000301184981 -0.081483254868833649 -0.012087491720718152 0.14558463967145455 0.058800606298043415 0.11303960292672002 0.33168269515796434 0.17417401321706338 0.10404865954407311 -0.12115599089229641 0.22935884767525253 0.031392938167402004 -0.10895837665510891 0.13119139201303032 0.15986358369917686 0.11417463465540159 -0.12633272195714162 -0.14551729049454362 0.13155900335494133 0.13187035632092012 -0.13490755601638307 -0.12157182135326235 0.13423041478402079 0.12940977467577916 -0.12226617162014007 -0.11665978396371279 0.13231892312114762
leaf_weight=509.71141589432955 25.877175569534302 17.707588724792004 1638.3364866524935 1606.7531865462661 74418.108313284814 3037.7507730275393 683.25873789936304 53.55366412550211 1600.9599478170276 2394.3473908752203 3017.8764532282948 448.72896225750446 228.57019775360823 255.70277731120586 653.33975847065449 75.708866126835346 257.25650976598263 551.97958076000214 1804.359595656395 1045.6106630414724 6.1419952884316436 42.500462755560875 706.72730346024036 5.6195010915398598 9.4858607500791532 484.48020754754543 3.4527784921228863 26.552344541996717 2.1602616310119629 44.233223542571068 90.897007659077644 3.7160269916057604 8372.2696583271027 87.889297485351562 21.866435974836349 50.995724275708199 34.359216928482056 33.969376564025879 1.5502383299171922 1.5124169476330283 34.037286162376404
leaf_count=3107 21 100 6573 4604 198121 12154 1722 408 2148 10101 10049 1091 571 480 1135 339 870 512 4261 1657 25 25 1098 40 8 1152 51 24 1 38 553 18 4979 52 115 351 20 21 15 14 20
internal_value=0 0.0421289 0.0441917 0.0418848 0.0433263 0.0114852 0.000862827 0.0181097 0.0452717 0.0222408 0.039338 -0.000504376 -0.0150034 -0.0272592 0.051088 0.0720108 0.0574959 0.0855866 0.0920458 0.0787001 -0.0442843 0.0368632 0.122263 -0.110203 0.0506915 0.0252425 0.131243 0.0876176 -0.0457418 0.131421 -0.124138 -0.130853 0.13151 0.128572 -0.127996 -0.119977 0.131561 0.13155 -0.113912 -0.111304 0.131996
internal_weight=0 95722.1 88151.5 83498.1 80663.6 4644.5 2834.55 7570.56 76019.1 7334.43 4187.07 3147.36 2622.92 1894.04 3671.22 524.438 940.515 4653.37 4108.68 2849.97 515.853 544.688 1258.71 236.134 18.8214 502.188 8667.86 35.228 8.6757 8632.64 217.313 9.33553 8588.4 147.804 112.763 104.549 8440.6 8406.24 6.51543 4.9652 121.927
internal_count=268644 263388 235477 226672 217027 16758 9645 27911 200269 26418 14316 12102 10672 7053 11184 1430 2592 8805 7528 5918 3132 1277 1610 1493 66 1252 5256 105 81 5151 1427 58 5113 93 668 759 5020 5000 80 65 72
is_linear=0
shrinkage=0.1


Tree=13
num_leaves=34
num_cat=0
split_feature=125 111 128 90 74 96 30 87 75 52 83 54 129 28 30 73 136 38 125 113 122 136 52 113 90 33 127 30 3 23 61 73 33
split_gain=6004.4 424.278 452.961 471.46 487.739 885.859 659.847 222.232 220.59 226.433 138.596 138.033 136.121 121.292 116.99 100.305 94.6664 98.4088 223.075 93.0905 68.0974 49.5998 6.36564 17.763 12.4667 1.57194 0.151722 0.88232 0.0304453 0.017979 0.0174351 0.00381165 0.000332025
threshold=-0.38824124634265894 -0.84470808506011952 1.0000000180025095e-35 -1.2523918747901914 -1.0080782175064085 -0.98834994435310353 1.0914584398269656 -1.2799662947654722 -1.0900558233261106 1.0889405608177187 -1.3777341842651365 1.059713661670685 1.0000000180025095e-35 1.1864820122718813 1.0252270102500918 -0.98320654034614552 1.0000000180025095e-35 0.95651161670684826 -1.3142472505569456 -0.93172940611839283 -1.0416079163551328 1.0000000180025095e-35 0.82732814550399791 -1.0442069768905637 -1.5062527060508726 0.7756788730621339 1.0000000180025095e-35 0.95967850089073192 0.54261356592178356 1.5469309091567995 0.51985356211662304 -0.80632922053337086 0.71903938055038463
decision_type=2 2 2 2 2 2 2 2 2 2 2 2 2 2 2 2 2 2 2 2 2 2 2 2 2 2 2 2 2 2 2 2 2
left_child=1 2 3 10 6 -6 -5 8 9 -4 12 14 -1 -13 -9 -3 17 20 -19 -10 -17 -12 25 24 -24 26 27 -2 31 30 -28 -26 -29
right_child=22 15 7 4 5 -7 -8 11 19 -11 21 13 -14 -15 -16 16 -18 18 -20 -21 -22 -23 23 -25 28 -27 29 32 -30 -31 -32 -33 -34
leaf_value=0.16354573718215371 0.10712090419508791 0.19525524604976863 0.01821690728268309 -0.0075889822862798542 0.069892067244599801 0.033821374110557738 0.054771437449875594 0.10677619467227246 0.026875456085626987 0.080634612893001736 -0.12536262994477504 0.043194287107958196 -0.031720249997319754 -0.16536747829259002 0.065878753169002643 -0.13070724769447054 0.17773757697571682 -0.048814783707753384 0.12544971397574642 -0.040725455835596648 -0.04721306283496627 0.16405535349577455 0.15859999401639038 0.1265922281300795 -0.10829500911635342 0.10823833427456248 0.12766890589559329 0.12793293070818998 -0.12674228761959958 0.12529118463756117 0.13000600585205249 -0.11438883264225173 0.12831408173672962
leaf_weight=423.33772936463356 24.516905263066292 19.1379114985466 1178.8614452183247 5548.5062627568841 7574.432295165956 67337.173027664423 2444.2497812956572 784.57080136239529 362.35778103023767 1146.3802509084344 26.711497895419598 1884.5269880220294 38.988285824656487 28.303308799862862 6447.122150555253 139.0733820348978 20.20605742931366 283.55830631405115 99.139448940753937 465.25231514126062 328.21641579270363 7.6080206334590903 2.2940917611122114 24.73766166716814 3.3036069795489289 42.104794457554817 7794.3610686063766 81.845558047294617 1.4462772086262701 31.674471631646156 32.051733374595642 1.489108718931677 31.709352970123291
leaf_count=691 21 16 3861 22858 16312 189459 5640 910 854 1984 180 3802 144 129 10492 788 17 1367 271 1667 1940 6 2 23 53 38 4979 52 11 21 20 16 20
internal_value=0 0.0375479 0.0381869 0.0355451 0.0349631 0.0374685 0.0114813 0.0561035 0.0332093 0.0489898 0.132686 0.063997 0.147079 0.0401083 0.0703157 -0.031204 -0.0361844 -0.0412698 -0.00367084 -0.0111273 -0.0720624 -0.0612039 0.127329 0.0836781 -0.0407312 0.12751 0.127611 0.124325 -0.114026 0.127669 0.127678 -0.110188 0.128039
internal_weight=0 96587.7 95698.4 83401 82904.4 74911.6 7992.76 12297.4 3152.85 2325.24 496.646 9144.52 462.326 1912.83 7231.69 889.332 870.194 849.988 382.698 827.61 467.29 34.3195 8071.53 33.2707 8.53308 8038.26 7996.16 138.072 6.23899 7858.09 7826.41 4.79272 113.555
internal_count=268644 263388 258989 235290 234269 205771 28498 23699 8366 5845 1021 15333 835 3931 11402 4399 4383 4366 1638 2521 2728 186 5256 105 82 5151 5113 93 80 5020 4999 69 72
is_linear=0
shrinkage=0.1


Tree=14
num_leaves=43
num_cat=0
split_feature=125 77 47 109 132 70 68 106 115 106 45 130 80 91 125 79 112 53 91 96 38 122 117 54 36 116 54 87 105 53 88 91 51 33 38 127 30 21 67 3 111 33
split_gain=5689.96 414.903 778.481 546.23 1746.22 822.385 917.953 568.432 515.649 469.516 301.259 218.001 271.942 185.529 155.41 123.721 114.839 129.457 96.4897 86.6049 150.206 79.0533 42.1206 38.2126 36.868 22.716 16.7551 15.1041 6.86782 6.34328 16.4902 9.73406 3.69325 1.84535 1.61661 0.176081 0.959126 0.0206294 0.0129185 0.0122186 0.00532835 0.00022605
threshold=-0.38824124634265894 -0.39350825548171992 1.2177343964576723 -1.1223862171173093 1.0000000180025095e-35 -0.12935652583837506 -0.070247497409582124 -0.96166801452636708 -1.4350074529647825 -0.99476626515388478 1.1961141824722292 1.0000000180025095e-35 -0.44411313533782953 -0.23246841132640836 -2.6765122413635249 -0.84947112202644337 -1.26893675327301 1.1597162485122683 -0.2799448668956756 -0.34805917739868159 0.98140123486518871 -2.0353295803070064 -1.5433493852615354 1.1358013749122622 0.87177959084510814 -1.5332841277122495 1.0386421680450442 -0.35887268185615534 -0.8619205355644225 0.80473744869232189 -1.0141684412956236 -0.20019312202930448 1.1528043746948244 0.7756788730621339 0.98989874124526989 1.0000000180025095e-35 0.95967850089073192 1.7847955822944643 0.19291680306196216 0.49822223186492925 -0.46779429912567133 0.71903938055038463
decision_type=2 2 2 2 2 2 2 2 2 2 2 2 2 2 2 2 2 2 2 2 2 2 2 2 2 2 2 2 2 2 2 2 2 2 2 2 2 2 2 2 2 2
left_child=1 2 3 5 7 6 -1 -5 13 -6 -7 12 -10 22 16 -13 19 24 25 32 -21 -15 -4 -19 -18 28 -20 -27 -16 33 -31 39 -3 35 -28 36 -2 38 -37 40 -32 -38
right_child=29 14 8 4 9 10 -8 -9 11 -11 -12 15 -14 21 18 -17 17 23 26 20 -22 -23 -24 -25 -26 27 34 -29 -30 30 31 -33 -34 -35 -36 37 41 -39 -40 -41 -42 -43
leaf_value=0.23661438141851901 0.1022081741015874 0.17299680342631463 -0.12821887390698514 -0.0076457235229823884 0.24377537170143471 0.16009776591533756 -0.0028919872748392095 0.036875424542020321 -0.046940473327424848 -0.042501699373340369 0.029604718671768501 0.13888391274244116 0.052472049457154217 -0.12176785231501011 -0.14377338766252368 -0.1384908020499315 -0.012974823634979031 0.13669840271110997 0.12135638688694812 0.093173994753233624 -0.0045255473192468872 0.085386334666909591 -0.07940152024370084 -0.029770932794342255 -0.15891805521422792 0.033055344151865833 -0.16176372427033667 0.17140273066612619 0.027818087410858224 0.1221967081624807 -0.10639811849940602 0.1449527778561531 0.13724597860908225 0.10275626194601387 -0.12602095898139976 0.12435296393188607 0.12457854522391143 0.12170853984194384 0.12643890114208653 -0.11950862452449336 -0.11367448280050085 0.12490498389643477
leaf_weight=183.00377808511257 23.194928154349327 107.26380543410778 409.06390057504177 2969.2411788627505 58.286348551511765 1034.5714103579521 1274.4064374864101 83926.599791388959 648.61098977178335 3350.7162916883826 213.40904615819454 167.56906379759312 477.91554892063141 24.082544714212418 5.0602351129055023 17.78793166577816 29.501292020082474 51.794933572411537 2.6010999530553809 1573.0997762084007 174.85358086973429 78.372351989150047 311.20919214189053 18.792140409350395 41.88432265818119 13.812820494174952 19.235623076558113 18.408165857195858 4.3271428942680341 22.032590970396999 2.5837488658726233 1.9730867147445641 39.550440549850464 40.025112107396126 36.983433030545712 7232.4140458106995 75.947379112243652 29.428749665617943 29.812381267547607 1.5923721008002756 1.6484753265976912 29.434215188026428
leaf_count=171 21 56 2391 10740 58 996 4978 218946 2775 15210 618 414 1130 85 26 92 84 40 3 1877 463 140 1430 44 203 35 85 12 14 22 49 1 33 38 239 4980 52 21 20 14 18 20
internal_value=0 0.0335347 0.0325559 0.0339263 0.0325999 0.0782017 0.0271823 0.0353541 -0.0271527 -0.037607 0.137783 0.0117696 -0.00476589 -0.0892163 0.077109 0.112265 0.083097 -0.00364946 -0.0443301 0.0895968 0.0834008 0.0366937 -0.107126 0.0923799 -0.0986046 0.0722125 -0.12677 0.112095 -0.0646777 0.123987 0.077965 -0.0470131 0.163366 0.124171 -0.138251 0.124286 0.120618 0.124351 0.124362 -0.112042 -0.109232 0.12467
internal_weight=0 97282 95144.8 93010.2 90304.8 2705.39 1457.41 86895.8 2134.61 3409 1247.98 1311.88 1126.53 822.728 2137.17 185.357 2036.74 141.973 100.429 1894.77 1747.95 102.455 720.273 70.5871 71.3856 41.6084 58.8202 32.221 9.38738 7490.09 29.8303 7.79768 146.814 7460.26 56.2191 7420.23 128.577 7291.66 7262.23 5.8246 4.23222 105.382
internal_count=268644 263388 260174 251717 244954 6763 5149 229686 8457 15268 1614 4411 3905 4046 3214 506 2800 371 414 2429 2340 225 3821 84 287 87 327 47 40 5256 104 82 89 5152 324 5114 93 5021 5000 81 67 72
is_linear=0
shrinkage=0.1


Tree=15
num_leaves=40
num_cat=0
split_feature=125 29 73 134 5 99 70 30 1 128 104 30 73 2 35 55 103 135 30 108 32 94 53 4 91 33 74 108 127 30 101 31 74 26 2 53 111 96 33
split_gain=5372.42 404.868 467.305 671.026 452.041 499.914 616.065 430.383 438.114 377.552 250.983 239.537 306.119 200.132 136.333 75.869 67.6323 59.1178 166.841 67.7763 46.8711 45.7818 5.99673 13.8933 8.60482 2.14156 1.84757 0.568762 0.203026 1.04533 0.17607 0.0812562 0.0503793 0.0239396 0.0114615 0.0098191 0.00264442 0.000621139 0.000155507
threshold=-0.38824124634265894 1.2414810061454775 -0.84672492742538441 1.0000000180025095e-35 0.72235733270645153 -0.9093339443206786 -0.45196540653705591 1.0887315869331362 0.49182046949863439 1.0000000180025095e-35 -0.93028923869132985 1.0773211717605593 -0.8739539086818694 0.57377862930297863 0.70754334330558788 0.92791181802749645 -0.98875525593757618 1.0000000180025095e-35 1.1061137318611147 -0.9072740077972411 0.94029209017753612 -0.92278847098350514 0.80473744869232189 0.71456721425056469 -0.20019312202930448 0.7756788730621339 -1.0162120461463926 -0.93686237931251515 1.0000000180025095e-35 0.95967850089073192 -0.92150476574897755 0.95566892623901378 -1.0272841453552244 1.4026331901550295 0.39735433459281927 0.75796130299568187 -0.46779429912567133 -1.0038977265357969 0.71903938055038463
decision_type=2 2 2 2 2 2 2 2 2 2 2 2 2 2 2 2 2 2 2 2 2 2 2 2 2 2 2 2 2 2 2 2 2 2 2 2 2 2 2
left_child=1 2 3 7 5 10 -7 9 -9 -1 -4 15 -13 26 21 -5 27 18 -18 -19 -16 -6 25 24 34 28 32 -15 29 -2 -28 -32 37 35 36 -30 -24 -3 -31
right_child=22 13 4 11 14 6 -8 8 -10 -11 -12 12 -14 16 20 -17 17 19 -20 -21 -22 -23 23 -25 -26 -27 30 -29 33 38 31 -33 -34 -35 -36 -37 -38 -39 -40
leaf_value=0.0026722724469775551 0.097612344528883163 -0.12711755179924808 -0.019467852594120913 -0.067757587827985646 -0.08112890822870944 0.1221410975938873 0.030303799393978283 -0.15411733588915252 0.046016244432470432 0.054069219066188202 0.070556062403211869 -0.092607545894434595 0.17398631763862879 -0.17453485812126893 -0.092201164312354089 -0.13661789495005069 -0.084310814442072002 0.12806530154475795 0.10257163092859674 0.07774691993334866 0.027329832638264592 0.12151829288243471 -0.10699822991683104 0.11597237876507052 0.13888698028253607 0.097629708785164554 -0.19169664121960187 -0.1269905814626924 0.1215007179570355 0.12169964389466886 -0.16086703318157136 -0.17748117562092541 -0.13908707436605289 0.1185431823281885 -0.11990893572086687 0.12268171519277352 -0.11236765828415177 -0.12541979500660388 0.12198111086017223
leaf_weight=11299.984506316483 21.9247837215662 3.4822102785110465 332.43675192445517 324.14549572765827 14.467786885797976 738.04809784889221 70913.569385387003 111.55793872475624 5608.8376625627279 1636.1729193478823 4526.1498102620244 93.045854762196541 80.193578988313675 6.9625405669212341 397.79868850111961 315.96853628754616 68.279534697532654 528.67963188886642 159.04593826830387 542.23344478011131 35.753847241401672 48.590589806437492 2.5709356516599682 20.907244868576527 1.8591907024383543 38.0195292532444 6.5905707776546469 3.9399718120694143 6646.0818185806274 70.261425614356995 4.5575885772705105 8.3133193701505643 4.4045142978429785 27.248913541436195 1.2429080605506895 71.153892159461975 1.4259543195366862 5.6537640988826743 27.238486766815186
leaf_count=40422 21 21 1033 1682 69 1435 186691 517 12309 3712 9175 478 142 30 1781 1670 312 518 206 840 83 97 49 23 1 38 27 27 4948 52 20 34 22 21 14 52 17 35 20
internal_value=0 0.0299967 0.0292379 0.0153968 0.0327374 0.0333547 0.0312498 0.019273 0.0421133 0.00917299 0.0643964 -0.0735159 0.0308004 0.084542 -0.0623616 -0.101748 0.0906731 0.092756 0.0464396 0.102588 -0.0823438 0.075024 0.12111 0.0749307 -0.0459411 0.121298 -0.158668 -0.157353 0.121429 0.117342 -0.178404 -0.171598 -0.130302 0.121501 -0.111522 0.121513 -0.108914 -0.126067 0.121778
internal_weight=0 97818.9 96476.7 19469.9 77006.8 76510.2 71651.6 18656.6 5720.4 12936.2 4858.59 813.353 173.239 1342.14 496.611 640.114 1309.14 1298.24 227.325 1070.91 433.553 63.0584 6929.94 28.0062 7.09899 6901.93 33.002 10.9025 6863.91 119.425 19.4615 12.8709 13.5405 6744.48 5.2398 6717.24 3.99689 9.13597 97.4999
internal_count=268644 263388 261296 60932 200364 198334 188126 56960 12826 44134 10208 3972 620 2092 2030 3352 1933 1876 518 1358 1864 166 5256 104 81 5152 159 57 5114 93 81 54 78 5021 80 5000 66 56 72
is_linear=0
shrinkage=0.1


Tree=16
num_leaves=44
num_cat=0
split_feature=125 36 31 30 105 107 75 131 69 102 54 101 127 69 36 124 58 129 101 38 72 136 104 125 129 57 133 104 71 24 113 41 53 88 91 33 127 30 27 3 53 111 33
split_gain=5056.82 384.268 404.495 570.427 543.496 646.617 552.288 523.172 413.85 309.635 286.971 339.517 271.018 234.395 358.757 258.416 450.402 311.726 223.748 205.304 196.104 184.445 183.804 172.775 140.717 140.565 128.811 107.537 102.677 94.4048 48.6316 15.3783 5.73314 13.1034 7.75004 2.45918 0.232759 1.13969 0.0268615 0.0149797 0.0071155 0.00301682 0.000107938
threshold=-0.38824124634265894 0.94954705238342296 1.0028464794158938 1.095781743526459 -0.9200632870197295 -1.0361042022705076 -1.0356383323669431 1.0000000180025095e-35 -0.1224968023598194 -0.83815050125122059 1.0324349999427798 -0.86315146088600148 -1.8560895323753355 -0.018078089691698548 0.97277566790580761 -1.5200614333152769 0.90897619724273693 1.0000000180025095e-35 -0.79781073331832875 1.0022328495979311 -0.54903909564018238 1.0000000180025095e-35 -0.81233248114585865 -1.6464170217514036 1.0000000180025095e-35 0.93777471780776989 1.0000000180025095e-35 -0.90697073936462391 -0.32519505918025965 1.4710064530372622 -0.94199898838996876 1.0659700632095339 0.80473744869232189 -1.0141684412956236 -0.20019312202930448 0.7756788730621339 1.0000000180025095e-35 0.95967850089073192 1.338098466396332 0.52755936980247509 0.75796130299568187 -0.46779429912567133 0.71903938055038463
decision_type=2 2 2 2 2 2 2 2 2 2 2 2 2 2 2 2 2 2 2 2 2 2 2 2 2 2 2 2 2 2 2 2 2 2 2 2 2 2 2 2 2 2 2
left_child=1 2 3 4 5 -1 -6 10 9 -9 12 -12 -4 15 18 20 21 -18 31 -20 25 -17 -10 28 27 -3 -22 -5 -16 -26 -25 -15 35 -34 39 36 37 -2 40 41 -38 -35 -39
right_child=32 13 7 24 6 -7 -8 8 22 -11 11 -13 -14 14 23 16 17 -19 19 -21 26 -23 -24 30 29 -27 -28 -29 -30 -31 -32 -33 33 34 -36 -37 38 42 -40 -41 -42 -43 -44
leaf_value=0.11427231923996568 0.093265302075713097 0.040310044427184444 0.070410520507978233 0.069654913331061538 0.011490628671309287 -0.023776558857415166 0.031535386387319821 0.00046356551358377993 0.090720846053594595 -0.08827811184819119 -0.14303464405234143 0.021348596760040597 0.040483494534904199 0.063410239196868404 0.099185718729430272 0.058598695392635028 0.045906836207213163 0.19054740137613879 -0.11857520581286576 -0.0039139774618902126 0.058836903291946477 -0.18059212353366946 -0.071875234514930608 -0.17039909886421811 0.12528086007817718 -0.023084314951200082 -0.070822778405146267 0.013281993883558203 0.042562390635990044 -0.16616586876041844 0.020363771316909852 0.16683422382834007 0.11357802457135542 -0.10548710900030774 0.13384436914477113 0.092785268048982808 0.11904088111388617 0.11921317786850993 0.11578048876920806 -0.12041096472074674 0.12008711410984291 -0.11126728287419232 0.11945727433399506
leaf_weight=366.45916852355003 20.715380877256393 635.88116183876991 3944.1190552413464 2937.7677465081215 28774.201750576496 4577.7805614322424 26317.786745592952 2931.6032213419676 628.00666376948357 454.08384150266647 131.16739711165428 2984.4541820287704 12999.570637397468 17.961822003126144 589.10295039415359 3395.2872473523021 217.72772717475891 472.05047473311424 173.85227402672172 1534.3064237609506 1978.822704449296 32.547756940126419 78.17885747551918 39.405975669622421 14.859767153859137 777.34187152981758 79.706637054681778 382.44090697169304 701.70145717263222 44.092275977134705 20.221643507480621 72.034965395927429 19.525605209171776 2.2850561626255539 1.742324233055111 36.104849517345428 6131.4779506921768 64.832618117332458 25.200138807296753 1.2471312098205087 65.701814532279968 1.4928840957581999 25.140192985534668
leaf_count=660 21 1177 7425 4825 85510 18247 73539 10021 1090 1737 528 6744 29515 34 819 6347 430 382 734 4157 3703 135 264 152 20 2146 358 909 1485 172 55 68 22 51 1 38 4948 52 21 11 52 19 20
internal_value=0 0.0268496 0.0246602 0.0204659 0.0182158 -0.0135446 0.0210661 0.0356734 0.00308599 -0.0114384 0.0423209 0.0144281 0.0474498 0.0447037 0.0217656 0.05422 0.0711637 0.144892 -0.00748709 -0.0155839 0.0341242 0.0563275 0.0727205 0.0607167 0.0604424 0.00544004 0.0538165 0.0631616 0.0684044 -0.0927022 -0.105705 0.146193 0.118617 0.0720176 -0.0478945 0.11881 0.118958 0.114412 0.119039 -0.110908 0.119052 -0.107771 0.119281
internal_weight=0 98304.5 87566.6 63415.4 60036.2 4944.24 55092 24151.2 4091.87 3385.69 20059.3 3115.62 16943.7 10738 3148.59 7589.37 4117.61 689.778 1798.16 1708.16 3471.75 3427.84 706.186 1350.43 3379.16 1413.22 2058.53 3320.21 1290.8 58.952 59.6276 89.9968 6395.47 26.293 6.7674 6369.17 6333.07 110.688 6222.38 5.02507 6197.18 3.77794 89.9728
internal_count=268644 263388 241206 183882 177956 18907 159049 57324 13112 11758 44212 7272 36940 22182 7504 14678 7294 812 4993 4891 7384 6482 1354 2511 5926 3323 4061 5734 2304 192 207 102 5256 104 82 5152 5114 93 5021 81 5000 70 72
is_linear=0
shrinkage=0.1


Tree=17
num_leaves=43
num_cat=0
split_feature=125 77 47 126 132 106 108 115 106 115 116 130 80 98 38 122 76 44 116 108 30 79 107 124 85 77 61 34 52 112 90 53 113 90 33 127 30 3 21 66 92 33
split_gain=4742.1 358.426 631.823 496.93 1197.96 1344.01 965.807 498.045 491.078 431.823 256.291 164.217 215.959 160.657 132.201 139.268 166.484 137.182 131.595 108.946 105.145 94.8526 73.9575 72.043 69.5283 54.0961 145.396 30.3409 19.9834 10.9559 6.0071 5.4637 11.4294 8.35499 2.79644 0.265468 1.24107 0.0376985 0.0309546 0.00528032 0.00162777 7.54914e-05
threshold=-0.38824124634265894 -0.39350825548171992 1.2177343964576723 -2.7804992198944087 1.0000000180025095e-35 -0.99476626515388478 -1.0445176362991331 -1.4641861319541929 -0.96166801452636708 -1.4350074529647825 -1.4859721660614011 1.0000000180025095e-35 -0.44411313533782953 -0.36284285783767695 0.98140123486518871 -2.0924258232116695 -0.35794763267040247 1.1822959780693056 -1.5221815109252927 -1.0372369289398191 0.78188148140907299 -0.84947112202644337 -1.0073949694633482 -2.4284473657608028 -0.12344093248248099 -0.36664266884326929 0.79798436164855968 0.82464969158172619 1.1239315271377566 -1.3260382413864134 -0.27092780172824854 0.80473744869232189 -1.0442069768905637 -1.5062527060508726 0.7756788730621339 1.0000000180025095e-35 0.95967850089073192 0.5612376630306245 1.7847955822944643 0.24875371903181079 -1.0980948805809019 0.71903938055038463
decision_type=2 2 2 2 2 2 2 2 2 2 2 2 2 2 2 2 2 2 2 2 2 2 2 2 2 2 2 2 2 2 2 2 2 2 2 2 2 2 2 2 2 2
left_child=1 2 3 6 8 -6 7 -1 -5 13 -8 12 -11 23 15 16 24 22 28 -20 -18 -13 30 -4 -3 26 -17 -27 -19 -24 -16 34 33 -33 35 36 -2 40 39 -37 -35 -38
right_child=31 14 9 4 5 -7 10 -9 -10 11 -12 21 -14 -15 17 25 20 18 19 -21 -22 -23 29 -25 -26 27 -28 -29 -30 -31 -32 32 -34 37 -36 38 41 -39 -40 -41 -42 -43
leaf_value=-0.0036758680051646158 0.089114885992135476 -0.18257389738622171 -0.036707702024453351 -0.012659543338836739 0.20034703262926726 -0.051072560586286675 -0.1656298020092396 0.12516211528569493 0.026933592907039734 -0.047938626584368475 -0.0086283700969764024 0.10992593167858539 0.040023778329615567 0.15454125279526279 -0.0077110246125091072 0.1089874782350152 -0.044597749210777866 0.11367052143855208 0.092727111796893288 -0.085936461192809246 0.078341521221468244 -0.13598878147588836 0.16663276471207294 -0.11195627173964467 0.0045907002305736657 0.13095960290659778 -0.011164009018435228 0.089555862766417166 -0.14049846190067164 0.092257385433484607 -0.14627279768622278 0.13232318303403662 0.1112517034414585 -0.11040412459656435 0.088168301977412475 0.11690785299311145 0.11705397762448932 -0.1286138375862457 0.11325528987386785 0.11840779106021687 -0.10610067631542471 0.11726671212977174
leaf_weight=370.61043065786362 19.572121694684029 43.880200862884521 160.0953097641468 3252.1165327131748 227.60292187333107 3229.9135089665651 148.90133938193321 1575.7274739742279 85271.712918993086 651.18019324541092 344.60148286819458 180.31922371685505 488.48977760970592 26.351592138409615 4.5381918400526038 301.26070566475391 83.779316008090973 3.2103884220123282 88.648497015237808 55.496485248208046 410.11554764211178 17.179144352674484 55.405037105083466 619.80840159952641 36.239885449409485 406.67177049815655 151.29472668468952 313.37687519192696 84.822286210954189 30.824696987867355 10.074613377451895 1.9588266238570238 17.879419188946486 1.5061551071703458 34.291471660137177 5681.1860877275467 59.689251661300659 1.1594898160547016 23.2177944034338 23.567373514175415 2.1106353551149346 23.150789260864258
leaf_count=953 21 195 482 11615 149 15865 619 2380 218966 2775 1170 414 1130 26 15 298 218 7 121 169 565 92 30 3538 81 285 319 341 486 34 50 2 22 23 38 4980 52 10 21 20 47 20
internal_value=0 0.0240711 0.0231864 0.0244052 0.0232237 -0.034522 0.0689484 0.10063 0.0254791 -0.0305006 -0.0559994 0.00435256 -0.0102358 -0.0883042 0.0651462 0.0761555 0.0357964 0.00740477 -0.0348937 0.0239408 0.0574874 0.0885354 0.104792 -0.0965096 -0.0979157 0.0959121 0.0688194 0.11294 -0.131229 0.140046 -0.103241 0.116444 0.069429 -0.041596 0.116642 0.116809 0.111763 -0.112923 0.116899 0.116914 -0.107893 0.117113
internal_weight=0 98644.2 96564.6 94421.2 91981.3 3457.52 2439.84 1946.34 88523.8 2143.42 493.503 1337.17 1139.67 806.255 2079.64 1746.62 574.015 333.02 232.178 144.145 493.895 197.498 100.843 779.904 80.1201 1172.6 452.555 720.049 88.0327 86.2297 14.6128 5889.29 24.6145 6.73511 5864.67 5830.38 102.412 4.77628 5727.97 5704.75 3.61679 82.84
internal_count=268644 263388 260174 251717 246595 16014 5122 3333 230581 8457 1789 4411 3905 4046 3214 2302 1059 912 783 290 783 506 129 4020 276 1243 617 626 493 64 65 5256 104 82 5152 5114 93 80 5021 5000 70 72
is_linear=0
shrinkage=0.1


Tree=18
num_leaves=41
num_cat=0
split_feature=125 29 73 29 57 110 101 129 133 103 11 30 0 128 29 3 56 49 118 41 135 28 108 112 82 52 88 91 31 33 75 103 127 30 74 23 114 61 64 33
split_gain=4432.56 330.834 390.605 402.63 665.969 342.862 305.651 264.377 180.681 179.584 163.238 158.081 191.588 151.227 78.9187 80.6646 57.0468 56.6379 101.449 62.7908 54.1734 41.5756 32.6408 12.7312 32.2779 5.71489 10.0177 6.31509 5.1376 3.15127 1.86144 0.488642 0.30133 1.34838 0.0393541 0.0348895 0.0128107 0.00397432 0.00135808 5.31473e-05
threshold=-0.38824124634265894 1.2414810061454775 -0.9156886339187621 1.1972250342369082 0.77189746499061596 -0.83444678783416737 -0.94400185346603382 1.0000000180025095e-35 1.0000000180025095e-35 -0.94598516821861256 0.98677954077720653 1.0948085188865664 0.60149997472763073 1.0000000180025095e-35 1.1124980449676516 0.67905467748641979 0.8552033305168153 0.72541305422782909 -0.90763401985168446 0.64261779189109813 1.0000000180025095e-35 1.2887597084045412 -0.98421522974967945 -0.92105966806411732 -1.0551806092262266 0.84201532602310192 -1.0141684412956236 -0.20019312202930448 0.89528673887252819 0.7756788730621339 -1.0832899808883665 -0.92522248625755299 1.0000000180025095e-35 0.95967850089073192 -1.0272841453552244 1.5469309091567995 -1.0829597711563108 0.51985356211662304 0.065375644713640227 0.71903938055038463
decision_type=2 2 2 2 2 2 2 2 2 2 2 2 2 2 2 2 2 2 2 2 2 2 2 2 2 2 2 2 2 2 2 2 2 2 2 2 2 2 2 2
left_child=1 2 6 4 8 -6 11 9 -4 -5 22 13 -13 -1 16 -16 -8 23 20 -20 -19 -9 -3 24 -12 29 -27 36 -25 32 34 -32 33 -2 -24 37 38 -34 -28 -35
right_child=25 10 3 7 5 -7 14 21 -10 -11 17 12 -14 -15 15 -17 -18 18 19 -21 -22 -23 30 28 -26 26 27 -29 -30 -31 31 -33 35 39 -36 -37 -38 -39 -40 -41
leaf_value=-0.027740433743408656 0.08512122143425338 0.089397729482713545 -0.012829183567248843 -0.026825942690415685 0.022938630591945827 -0.043036786822665443 -0.14410049399011912 0.055314467665487678 -0.074917117401534047 0.060329787270873327 -0.050370516319824914 -0.092061359646545299 0.061809231005119696 0.079611675646113975 -0.086906528438627367 -0.034698701251192364 0.14526435122396736 0.03291271708188697 0.041190450640074386 -0.097419313421410789 0.092931264091438426 -0.15546893798444988 -0.12540103992342541 0.16700309922616099 0.14617049313017935 0.10551034202352477 -0.10884026543507626 0.12648759859215475 0.11914567403550472 0.08373838676791534 -0.19759182285767984 -0.16498650736532827 0.11504221221642304 0.11517015715724983 -0.13651382424828357 0.1109997320984219 -0.11978582205108633 0.11639831180676551 -0.10478847748270902 0.11535635378071132
leaf_weight=960.24083406478167 18.497772499918938 6.3444493860006324 2719.9705357328057 251.19559817761183 85929.722063705325 794.97580590099096 8.6230235025286657 10.800057232379912 566.28389335423708 4018.0837906897068 11.931977413594721 90.998271413147449 730.65156598389149 151.99295201897621 506.35972442477942 712.18911318480968 32.457936137914658 185.3917049318552 90.332998380064964 51.209152162075043 796.52285774052143 70.064226314425468 10.192866787314413 78.255639582872391 27.881600826978683 15.111219577491285 1.7790867555886514 1.5268255472183208 31.445328086614609 32.585019275546074 6.5633827596902838 15.336706250905992 5221.6478627920151 54.846979975700378 4.6361935734748831 21.377672851085663 1.0161418840289118 21.701035857200623 1.5461803153157232 21.276732325553894
leaf_count=4280 21 9 9767 751 223799 3905 48 19 2370 8341 43 393 1372 245 2850 2819 47 412 198 181 968 290 64 45 26 20 31 1 30 38 27 65 4982 52 24 21 10 20 40 20
internal_value=0 0.0216033 0.0209314 0.0220955 0.0206595 0.0223339 -0.0134645 0.0518089 -0.0235281 0.0552017 0.0714068 0.0115035 0.044768 -0.0130702 -0.0517974 -0.0563933 0.0845258 0.0778852 0.0701903 -0.00895778 0.0815994 -0.127317 -0.120054 0.135706 0.0872679 0.11454 0.0624486 -0.0484393 0.153285 0.114742 -0.156233 -0.174758 0.114931 0.109338 -0.128875 0.115031 -0.109959 0.115048 -0.106956 0.115222
internal_weight=0 98870.7 97554.6 94361.1 90011 86724.7 3193.51 4350.14 3286.25 4269.28 1316.04 1933.88 821.65 1112.23 1259.63 1218.55 41.081 1272.97 1123.46 141.542 981.915 80.8643 43.0736 149.515 39.8136 5412.91 20.9795 5.86823 109.701 5391.93 36.7291 21.9001 5359.35 94.6215 14.8291 5264.73 4.34141 5243.35 3.32527 76.1237
internal_count=268644 263388 261296 249242 239841 227704 12054 9401 12137 9092 2092 6290 1765 4525 5764 5669 95 1903 1759 379 1380 309 189 144 69 5256 102 82 75 5154 180 92 5116 93 88 5023 81 5002 71 72
is_linear=0
shrinkage=0.1


Tree=19
num_leaves=41
num_cat=0
split_feature=125 128 77 49 70 107 31 115 91 70 35 29 66 106 112 38 122 48 45 116 91 71 63 12 42 69 106 1 17 52 76 91 33 127 30 27 3 34 82 18
split_gain=4132.81 332.418 346.572 511.029 367.493 907.097 538.022 281.867 264.577 180.932 263.705 204.231 169.433 148.268 132.334 111.65 140.26 165.27 123.86 171.397 97.4048 82.6944 77.7008 65.106 67.2571 124.465 57.2627 54.3784 42.1032 5.47102 9.05833 5.74582 3.94943 0.690563 3.37428 0.0392376 0.0205468 0.0103368 0.000785613 0.000451388
threshold=-0.38824124634265894 1.0000000180025095e-35 -0.39350825548171992 1.2086863517761233 -0.1240415722131729 -0.97584390640258778 0.96893769502639782 -1.448103606700897 -1.1806778907775877 -0.22686830908060071 0.93123731017112743 1.0890645980834963 0.28038331866264349 -0.89783605933189381 -0.92373111844062794 0.97848302125930797 -2.0924258232116695 1.218083441257477 1.1961141824722292 -1.5221815109252927 -0.23246841132640836 -0.42834995687007899 0.53676369786262523 1.1189075708389284 1.0445104837417605 -0.094163168221712099 -0.92794585227966297 -0.31958125531673426 1.0720490813255312 0.84201532602310192 -0.53268912434577931 -0.20019312202930448 0.78057309985160839 1.0000000180025095e-35 0.95405837893486034 1.338098466396332 0.50160333514213573 0.74007901549339306 -1.3963048458099363 1.3570386171340945
decision_type=2 2 2 2 2 2 2 2 2 2 2 2 2 2 2 2 2 2 2 2 2 2 2 2 2 2 2 2 2 2 2 2 2 2 2 2 2 2 2 2
left_child=1 2 3 4 6 -6 -1 20 23 11 22 21 -13 -9 -12 16 17 -4 26 -20 -5 -10 -11 24 28 -26 -17 -18 -3 32 -31 36 33 34 -2 37 38 -35 -32 -36
right_child=29 8 15 7 5 -7 -8 13 9 10 14 12 -14 -15 -16 18 27 -19 19 -21 -22 -23 -24 -25 25 -27 -28 -29 -30 30 31 -33 -34 35 39 -37 -38 -39 -40 -41
leaf_value=-0.0035439549918178542 0.062851125014731862 0.08574627764928483 -0.052058903219547231 -0.11371179143257158 0.11059143820907291 -0.034709053655989794 0.019772698935924888 -0.072640335975858922 0.10012640235584053 0.079826618532631594 0.039574621390385756 0.040650118115967582 -0.095078559971274762 0.0031944086138766328 -0.00020025885875550698 -0.09632748711453798 0.12977922577508538 0.066312743541717942 -0.1326034734086807 0.028157218107901394 0.019982130273855495 0.058061359374894872 -0.089976109357119902 0.16805986810964929 0.10949052949304867 -0.031580622229895362 0.12992057585893454 0.078162178723196044 -0.05284243241967318 0.10209411768765653 -0.10471868320828007 0.12334048108659337 0.067092274491810572 0.11341122312400904 0.11408020370940229 0.10894603746614512 -0.12287451600823024 0.11536846156537715 -0.10807341054718621 0.11352028462495266
leaf_weight=11553.156568281353 15.95274645090103 22.956241503357887 170.79384659230709 444.19512741267681 1254.6110610291362 653.42771011590958 69000.405390389264 321.57424732297659 832.68995002657175 30.240561783313751 3158.255294367671 5133.5435222685337 93.649595871567726 1300.3587613850832 1137.8351189419627 12.618252128362654 279.62603291869164 381.22563692927361 93.085886307060719 230.64553125202656 62.115537606179714 1065.1436499282718 247.55442537367344 17.899472624063492 92.414170950651169 193.48279885575175 98.603426098823547 755.63722652196884 486.06468533724546 14.225124021992089 1.155548749491573 1.4149503707885722 18.611803337931633 4793.7770690917969 19.874741554260254 19.663039728999138 1.0827968399971721 27.13616669178009 1.7632093317806723 52.24829375743866
leaf_count=41946 22 96 495 2702 1811 2001 180549 1526 930 52 5368 9243 289 4125 3152 55 185 545 537 426 140 1720 893 9 244 946 75 896 2432 24 34 1 25 4986 20 21 11 26 32 54
internal_value=0 0.0193864 0.0171854 0.0162073 0.017456 0.0608318 0.0164286 -0.0321741 0.0346229 0.0384559 0.0229343 0.0484199 0.0382184 -0.011841 0.0290401 0.0580974 0.0703975 0.0296888 0.0132105 -0.018068 -0.0973099 0.0765177 -0.0714915 -0.0205459 -0.0247928 0.0140196 0.104252 0.092104 -0.0465922 0.112862 0.060189 -0.0498645 0.113071 0.113244 0.104469 0.113404 -0.11111 0.113422 -0.106745 0.113675
internal_weight=0 99123.8 86612.1 84589.8 82461.6 1908.04 80553.6 2128.24 12511.7 11698.9 4573.89 7125.03 5227.19 1621.93 4296.09 2022.24 1587.28 552.019 434.953 323.731 506.311 1897.83 277.795 812.817 794.918 285.897 111.222 1035.26 509.021 4966.91 19.6416 5.41651 4947.26 4928.65 88.0758 4840.58 4.00155 4820.91 2.91876 72.123
internal_count=268644 263388 238014 234800 226307 3812 222495 8493 25374 21647 9465 12182 9532 5651 8520 3214 2121 1040 1093 963 2842 2650 945 3727 3718 1190 130 1081 2528 5256 102 78 5154 5129 96 5033 77 5012 66 74
is_linear=0
shrinkage=0.1


Tree=20
num_leaves=43
num_cat=0
split_feature=125 37 40 109 115 54 123 99 107 69 80 73 35 59 32 80 129 8 0 94 121 56 109 33 88 71 40 36 102 60 45 52 5 91 33 127 21 87 22 28 35 111
split_gain=3840.42 300.784 351.269 391.461 444.395 436.143 500.519 336.282 330.566 306.082 273.039 182.813 186.924 305.256 259.33 175.222 151.697 186.338 170.491 109.092 93.4752 134.052 93.4542 90.7115 59.859 59.597 48.029 41.7705 40.3219 33.4017 16.0867 5.26924 8.41571 5.27607 4.25489 0.763746 3.54646 0.0461505 0.0443843 0.0417597 0.00747126 0.000577824
threshold=-0.38824124634265894 0.97714388370513927 1.0714907646179201 -1.1297262310981748 -1.4531320333480833 1.0746514201164248 -2.0894106626510616 -0.42308971285820002 -0.99263972043991078 0.010107589419931175 -0.28509381413459772 -0.73805910348892201 0.95560511946678173 0.84340238571167003 0.95588222146034252 -1.221002399921417 1.0000000180025095e-35 0.535060614347458 0.30296152830123907 -0.90004372596740712 -1.8291113376617429 1.0518434047698977 -0.86853918433189381 0.89850518107414257 -1.2748597860336301 -0.32983078062534327 1.0749186873435976 0.94469887018203746 -0.78686413168907154 0.80957075953483593 1.2032784223556521 0.84201532602310192 0.83026859164237987 -0.20019312202930448 0.78057309985160839 1.0000000180025095e-35 1.2829833626747134 -1.1261844038963316 1.6683177351951601 1.2302035093307497 0.71971586346626293 -0.46779429912567133
decision_type=2 2 2 2 2 2 2 2 2 2 2 2 2 2 2 2 2 2 2 2 2 2 2 2 2 2 2 2 2 2 2 2 2 2 2 2 2 2 2 2 2 2
left_child=1 2 3 5 10 6 -1 23 -6 -7 -5 16 13 15 -15 -13 17 26 28 -19 21 -9 25 30 -20 -14 -3 -25 -18 -24 -4 34 33 37 35 36 -2 -33 40 -38 -37 -39
right_child=31 11 7 4 8 9 -8 20 -10 -11 -12 12 22 14 -16 -17 18 19 24 -21 -22 -23 29 27 -26 -27 -28 -29 -30 -31 -32 32 -34 -35 -36 38 39 41 -40 -41 -42 -43
leaf_value=0.1149581449161528 0.053174573188254852 -0.13287249858732628 -0.043043484186077459 -0.12208076134057265 -0.011267843313127905 -0.13097387500460297 -0.0035361832317762996 0.09007777489244595 0.017233525276405159 0.030965928134682009 0.041846547262001856 0.076401054851756231 0.075860038987750705 0.048835140282652942 -0.023452983603706002 -0.00596287452719238 0.033594564914975325 0.05613779414733059 0.1362098942067794 -0.19689058214507496 0.22101232758898176 -0.15355558511567469 0.018970444668038992 0.11055031339970463 0.03605281648949455 0.038375491540849307 0.10936128180840124 -0.14614549646121708 0.17374480504134351 -0.11012029357016651 -0.11354946442470537 -0.13129142365532828 0.099483472384665941 0.12063211464018125 0.062930772147923308 0.11197306401926249 0.11258759270625614 -0.10504168549260276 0.10701232977954672 0.10706405150228943 0.11362622303278416 -0.1080771297308135
leaf_weight=1254.2803408056498 12.496249780058859 70.403415262699127 34.969892978668213 373.51375140249729 4277.222230270505 174.02593071758747 498.00747585296631 93.845488511025906 83737.954587478191 354.41731496155262 139.57483793795109 960.70117165148258 938.52340438961983 667.84200628101826 1931.7529529333115 353.27509626746178 22.354416728019714 1293.9400579109788 75.786211416125298 17.266732804477215 32.947060614824295 29.741150587797165 36.900614902377129 28.917520686984062 280.62832489609718 773.90351937711239 9.2621309459209424 8.1189676374196988 251.29696783423424 43.876660227775574 433.6827415600419 0.99310762435197908 13.365273583680391 1.307556629180908 17.896519884467125 4387.8634384870529 50.062867283821106 1.7607841007411491 18.034586325287819 18.83779039978981 27.509267330169678 0.97403181716799681
leaf_count=1652 19 258 144 1678 16979 923 1858 143 220032 924 213 1372 1324 1660 5279 863 56 2277 96 77 22 122 88 75 595 1536 14 39 181 160 2748 9 25 1 25 4983 55 50 21 22 29 17
internal_value=0 0.0174327 0.0158322 0.0163613 0.0153075 0.057267 0.0812816 -0.056735 0.0158485 -0.0223638 -0.0774878 0.0363775 0.0272246 0.0149737 -0.004882 0.0542567 0.0622237 0.0437837 0.10293 0.0528058 0.0713468 0.0314474 0.0539613 -0.0963821 0.0573497 0.0589195 -0.10471 0.0542786 0.162296 -0.0511492 -0.108288 0.111377 0.0579729 -0.0522054 0.111594 0.111787 0.102188 -0.112828 0.111963 0.111077 0.111983 -0.106123
internal_weight=0 99198.9 91471.2 90809 88528.3 2280.73 1752.29 662.223 88015.2 528.443 513.089 7727.71 5706.78 3913.57 2599.59 1313.98 2020.94 1390.87 630.066 1311.21 156.534 123.587 1793.2 505.689 356.415 1712.43 79.6655 37.0365 273.651 80.7773 468.653 4551.1 18.4008 5.03548 4532.7 4514.8 81.3969 3.72792 4433.41 68.9007 4415.37 2.73482
internal_count=268644 263388 247552 244259 238902 5357 3510 3293 237011 1847 1891 15836 12282 9174 6939 2235 3554 2626 928 2354 287 265 3108 3006 691 2860 272 114 237 248 2892 5256 102 77 5154 5129 96 76 5033 77 5012 67
is_linear=0
shrinkage=0.1


Tree=21
num_leaves=42
num_cat=0
split_feature=125 29 32 5 99 39 80 117 136 107 124 2 72 112 70 41 73 122 49 118 135 41 112 80 52 3 74 91 33 74 127 30 62 21 74 104 35 78 111 9 18
split_gain=3561.57 301.045 312.566 377.004 341.077 332.202 328.487 380.191 348.915 287.685 145.798 137.816 128.727 113.495 105.548 98.1165 93.2936 54.9465 50.2438 81.8172 56.765 51.8077 10.751 27.2601 5.09869 7.71525 4.6506 4.63595 4.5629 0.855197 0.844759 3.80623 0.104086 0.0524431 0.0277484 0.0147672 0.00540222 0.00536465 0.000636973 0.000560174 0.000496101
threshold=-0.38824124634265894 1.2414810061454775 0.95765092968940746 0.62371718883514415 -0.90107321739196766 0.95599734783172619 -0.31704485416412348 -1.56537389755249 1.0000000180025095e-35 -0.86292201280593861 -2.4488373994827266 0.57377862930297863 -0.59689384698867787 -1.2896603941917417 -0.37809021770954127 1.0874184966087344 -0.87695804238319386 -2.0235409736633296 0.72541305422782909 -0.90763401985168446 1.0000000180025095e-35 0.64261779189109813 -0.92105966806411732 -1.0506424307823179 0.84201532602310192 0.59037882089614879 -0.98600280284881581 -0.20019312202930448 0.78057309985160839 -1.0162120461463926 1.0000000180025095e-35 0.95405837893486034 0.25393581390380865 1.7847955822944643 -1.0272841453552244 -0.90532964468002308 0.71971586346626293 -0.78433761000633229 -0.46779429912567133 0.80059945583343517 1.3570386171340945
decision_type=2 2 2 2 2 2 2 2 2 2 2 2 2 2 2 2 2 2 2 2 2 2 2 2 2 2 2 2 2 2 2 2 2 2 2 2 2 2 2 2 2
left_child=1 2 6 5 16 14 7 17 -9 -7 13 29 -6 -8 -4 -12 -5 -1 22 20 -20 -21 23 -13 28 27 -24 37 30 34 31 -2 -31 36 39 -34 -32 -26 -39 -3 -33
right_child=24 11 3 4 12 9 10 8 -10 -11 15 18 -14 -15 -16 -17 -18 -19 19 21 -22 -23 26 -25 25 -27 -28 -29 -30 32 33 40 35 -35 -36 -37 -38 38 -40 -41 -42
leaf_value=-0.01920414259104249 0.053939294970239894 -0.12144724897030711 -0.15785937941229444 -0.064492649130214491 -0.076526414596182077 0.035694155063553001 0.077544680302121055 0.0076778652925036566 0.0293641266138314 0.015347780481921942 0.12146491837363496 -0.049147030363408103 0.080899601740681476 0.027552073504038911 0.12234139888971732 -0.11704988393618272 0.024833704429468598 -0.13562237667736163 0.023106068159847115 0.035765064198981296 0.083682646139864439 -0.090455512233177479 0.10798328776105484 0.13344836449119732 -0.11468489218796177 0.097463423326122067 0.15368962972710321 0.11828746999409745 0.05893517220659851 -0.17212330276896637 0.11070496138784486 0.1114456774976656 -0.15750008090826512 0.10492715043201262 -0.1322692336622093 -0.15061268395810207 0.1121737831018097 -0.10464753580453481 -0.10780304904279468 -0.12312692218147375 0.11080761655196852
leaf_weight=50.697893023490906 14.487329661846159 4.9213641136884672 13.888328805565832 130.33264894038439 794.72837344557047 13412.920347228646 1133.5209108293056 56870.546599790454 8532.1530576720834 14420.878637894988 22.012835711240768 11.660504698753355 55.574059203267097 757.64060914516449 419.6709750443697 79.659975007176399 1136.2266087457538 202.36842381209135 192.7190795391798 90.184821799397469 784.00326487421989 50.856647029519081 31.581040248274803 27.361376762390137 0.93430810607969839 12.426965586841105 75.438145101070404 1.2053661346435562 17.234293922781944 4.8409341275692013 4014.3088556528091 16.877242207527161 8.7256816476583499 15.720712944865225 4.0057393908500698 4.8397378623485521 25.197158992290497 1.6295642461627733 1.0531236864626401 3.3283256590366364 43.834746420383453
leaf_count=165 22 34 71 586 2729 26631 1381 170992 19089 33093 19 39 90 1385 564 444 2773 1284 437 198 972 182 32 30 12 19 43 1 25 21 4984 20 38 20 22 22 29 51 19 22 54
internal_value=0 0.0156645 0.0150319 0.0234573 -0.0172475 0.0265056 0.0112476 0.0100336 0.010507 0.0251526 0.0512449 0.063574 -0.0662374 0.0575166 0.113366 -0.0654099 0.0156418 -0.1123 0.0686563 0.0614492 0.0717302 -0.00974747 0.123818 0.0788853 0.110057 0.0558018 0.140202 -0.051558 0.110283 -0.145908 0.110497 0.099995 -0.159535 0.110692 -0.125441 -0.155043 0.110714 -0.108159 -0.105886 -0.122125 0.110985
internal_weight=0 99327.3 98032.8 30384.2 2116.86 28267.4 67648.6 65655.8 65402.7 27833.8 1992.83 1294.47 850.302 1891.16 433.559 101.673 1266.56 253.066 1263.8 1117.76 976.722 141.041 146.041 39.0219 4164.91 17.2493 107.019 4.82236 4147.66 30.6618 4130.43 75.1993 18.4064 4055.23 12.2554 13.5654 4039.51 3.617 2.68269 8.24969 60.712
internal_count=268644 263388 261296 66537 6178 60359 194759 191530 190081 59724 3229 2092 2819 2766 635 463 3359 1449 1933 1789 1409 380 144 69 5256 102 75 83 5154 159 5129 96 81 5033 78 60 5013 82 70 56 74
is_linear=0
shrinkage=0.1


Tree=22
num_leaves=43
num_cat=0
split_feature=125 128 30 72 100 6 92 74 129 129 117 76 70 88 108 131 71 29 65 106 53 54 76 110 105 43 17 52 117 102 53 88 33 91 87 127 30 26 4 35 111 18
split_gain=3294.86 264.368 334.533 938.251 449.939 645.978 402.959 388.315 417.848 352.907 252.812 242.656 220.092 215.131 169.873 137.733 130.621 161.222 192.521 129.615 126.359 113.985 157.097 122.926 90.858 76.3818 101.655 59.6638 43.7321 33.6723 5.16047 6.70238 4.8709 4.21887 1.35896 0.931596 3.94026 0.0558156 0.015011 0.0039163 0.000694424 0.000357638
threshold=-0.38824124634265894 1.0000000180025095e-35 1.0777558684349062 -0.69216731190681446 -0.8953113555908202 0.64538311958312999 -1.1632999777793882 -1.0258764028549192 1.0000000180025095e-35 1.0000000180025095e-35 -0.94855457544326771 -1.262755751609802 -0.36853951215744013 -1.2653477191925047 -0.94675442576408375 1.0000000180025095e-35 -0.33432254195213312 1.0587223768234255 0.43516509234905248 -0.90026471018791188 1.1305100321769717 1.035543739795685 -1.2119846343994138 -0.86056026816368092 -0.78247061371803273 1.1640850305557253 0.96763101220130932 1.0585744976997378 -0.97162926197051991 -0.73096749186515797 0.81936132907867443 -1.0141684412956236 0.78057309985160839 -0.20019312202930448 -1.3246524333953855 1.0000000180025095e-35 0.95405837893486034 1.4026331901550295 0.73280441761016857 0.71971586346626293 -0.46779429912567133 1.3570386171340945
decision_type=2 2 2 2 2 2 2 2 2 2 2 2 2 2 2 2 2 2 2 2 2 2 2 2 2 2 2 2 2 2 2 2 2 2 2 2 2 2 2 2 2 2
left_child=1 2 3 6 10 -6 11 14 12 -8 -5 -1 -9 21 -4 -16 17 20 -19 -10 -15 24 23 -23 27 26 -18 -3 -24 -27 32 -32 35 38 -26 36 -2 39 40 -37 -33 -38
right_child=30 13 7 4 5 -7 9 8 19 -11 -12 -13 -14 16 15 -17 25 18 -20 -21 -22 22 28 -25 34 29 -28 -29 -30 -31 31 33 -34 -35 -36 37 41 -39 -40 -41 -42 -43
leaf_value=-0.046616033184738705 0.050421573337035508 -0.057222320370937552 0.16570028754482338 0.01548644855066534 0.014022683259678965 -0.024462801912210438 -0.043173046718959322 0.029853230651776252 -0.10414288833949144 0.050004869440844493 0.071987390424920555 0.059282757215001342 0.070998898786481371 0.090938984031193659 -0.0069051564231152234 -0.07054981503094522 -0.16570059766319181 0.034199648784693649 -0.060024653907399021 -0.0086332372338822749 -0.025065992325464383 0.10403990926155285 0.015311036320131142 0.01697388251195554 -0.1174468624554602 0.13689678399137234 -0.015783471803438236 3.0947425047967675e-05 -0.07511750836776751 -0.018982061319063711 0.093167092955340314 -0.10334267846185259 0.055101120795846864 0.11624733239369077 -0.14878074455691803 0.10958350482050216 0.11024065994006077 0.10350606628868392 -0.11959980697025248 0.11089108176075083 -0.10683463784381964 0.10967401999157987
leaf_weight=298.37647103518248 13.975700721144674 262.73641658574343 48.711599126458168 1333.784530133009 56031.23777449131 4729.5145177543163 5402.4552445560694 12198.085137188435 265.70435875654221 439.54690650105476 1949.3497518524528 787.33211817592382 1455.1242075562477 770.02718740701675 1295.071202263236 461.08902048319578 52.484880074858665 8877.140076264739 222.27600581943989 305.41073441505432 106.93760498613119 230.50692315399647 76.59905843436718 546.91197604686022 72.427599910646677 40.505121484398842 327.21957752108574 592.445506721735 177.1899422109127 21.064791187644005 10.890215296298264 1.4234319850802415 16.6229198127985 1.108814477920532 17.111480340361595 3667.6778200864792 15.429525315761564 15.133000820875166 0.95273994654417027 23.049527049064636 0.94928219914436374 40.052265048027039
leaf_count=1628 22 1356 27 3399 148561 15442 21844 28411 924 1221 3534 2526 2595 932 4569 2514 210 15410 625 819 356 259 216 1512 651 40 816 2186 671 54 19 53 25 1 80 4984 20 21 9 29 19 54
internal_value=0 0.0140873 0.0121408 0.00919382 0.0129754 0.011027 -0.0257653 0.0251888 0.030733 -0.0361624 0.0490337 0.0301795 0.0342384 0.0277516 -0.018506 -0.0236154 0.0334895 0.0358445 0.031898 -0.0530679 0.0767933 -0.0025003 0.0204885 0.0427892 -0.0275937 -0.0197525 -0.0365059 -0.0175589 -0.0478242 0.0835663 0.10888 0.0509669 0.109114 -0.0526735 -0.123435 0.109352 0.0978776 0.109567 -0.108997 0.109592 -0.10474 0.109832
internal_weight=0 99394.4 87000.8 70971.6 64043.9 60760.8 6927.71 16029.2 14224.3 5842 3283.13 1085.71 13653.2 12393.6 1804.87 1756.16 10417.7 9976.38 9099.42 571.115 876.965 1975.93 1031.21 777.419 944.721 441.274 379.704 855.182 253.789 61.5699 3807.27 15.3245 3791.94 4.43427 89.5391 3775.32 69.4575 3705.86 3.32545 3690.73 2.37271 55.4818
internal_count=268644 263388 238014 198155 170936 164003 27219 39859 32749 23065 6933 4154 31006 25374 7110 7083 18443 17323 16035 1743 1288 6931 2658 1771 4273 1120 1026 3542 887 94 5256 101 5155 82 731 5130 96 5034 81 5013 72 74
is_linear=0
shrinkage=0.1


Tree=23
num_leaves=42
num_cat=0
split_feature=125 0 45 123 115 109 108 116 116 135 107 50 130 37 52 84 127 42 26 50 112 52 116 37 24 118 114 33 53 113 90 38 106 127 97 80 106 86 23 29 35
split_gain=3041.31 247.014 314.791 439.522 876.779 603.922 461.799 435.085 279.555 190.299 172.773 153.435 134.976 111.363 129.982 103.19 101.98 194.765 86.7241 53.503 52.2806 39.8425 28.3076 23.7034 73.4089 21.4949 15.0959 5.13184 5.01284 6.31839 5.07582 2.98499 2.74508 1.02549 4.40553 0.595213 0.485443 0.0685445 0.0618605 0.0062195 0.00284731
threshold=-0.38824124634265894 -0.39303924143314356 1.2078197002410891 -2.1068980693817134 -1.3240459561347959 -1.1040708422660825 -1.0797240138053892 -1.4814172387123106 -1.4906377792358396 1.0000000180025095e-35 -0.91313755512237538 1.192879378795624 1.0000000180025095e-35 0.92446517944335949 1.1745100617408755 -0.33922649919986719 -3.3039604425430293 1.1399257779121401 1.1540349125862124 1.1995757818222048 -1.2524126172065733 1.1548123955726626 -1.4814172387123106 0.93214887380599987 0.95257818698883068 -1.5740440487861631 -1.3908948898315427 0.78057309985160839 0.81936132907867443 -1.0442069768905637 -1.5062527060508726 0.98092585802078258 -0.82303807139396656 1.0000000180025095e-35 -1.1402024030685423 -0.31704485416412348 -0.81093755364418019 -1.2108708024024961 1.5469309091567995 1.0850252509117129 0.71971586346626293
decision_type=2 2 2 2 2 2 2 2 2 2 2 2 2 2 2 2 2 2 2 2 2 2 2 2 2 2 2 2 2 2 2 2 2 2 2 2 2 2 2 2 2
