tree
version=v4
num_class=1
num_tree_per_iteration=1
label_index=0
max_feature_idx=136
objective=binary sigmoid:1
feature_names=Column_0 Column_1 Column_2 Column_3 Column_4 Column_5 Column_6 Column_7 Column_8 Column_9 Column_10 Column_11 Column_12 Column_13 Column_14 Column_15 Column_16 Column_17 Column_18 Column_19 Column_20 Column_21 Column_22 Column_23 Column_24 Column_25 Column_26 Column_27 Column_28 Column_29 Column_30 Column_31 Column_32 Column_33 Column_34 Column_35 Column_36 Column_37 Column_38 Column_39 Column_40 Column_41 Column_42 Column_43 Column_44 Column_45 Column_46 Column_47 Column_48 Column_49 Column_50 Column_51 Column_52 Column_53 Column_54 Column_55 Column_56 Column_57 Column_58 Column_59 Column_60 Column_61 Column_62 Column_63 Column_64 Column_65 Column_66 Column_67 Column_68 Column_69 Column_70 Column_71 Column_72 Column_73 Column_74 Column_75 Column_76 Column_77 Column_78 Column_79 Column_80 Column_81 Column_82 Column_83 Column_84 Column_85 Column_86 Column_87 Column_88 Column_89 Column_90 Column_91 Column_92 Column_93 Column_94 Column_95 Column_96 Column_97 Column_98 Column_99 Column_100 Column_101 Column_102 Column_103 Column_104 Column_105 Column_106 Column_107 Column_108 Column_109 Column_110 Column_111 Column_112 Column_113 Column_114 Column_115 Column_116 Column_117 Column_118 Column_119 Column_120 Column_121 Column_122 Column_123 Column_124 Column_125 Column_126 Column_127 Column_128 Column_129 Column_130 Column_131 Column_132 Column_133 Column_134 Column_135 Column_136
feature_infos=[-1.8014661073684692:2.1873281002044678] [-1.7160434722900391:2.0962586402893066] [-1.6382262706756592:2.0136351585388184] [-1.5680137872695923:1.9394575357437134] [-1.5054070949554443:1.8737261295318604] [-1.4504051208496094:1.8164401054382324] [-1.4123568534851074:1.7937201261520386] [-1.3844102621078491:1.9274762868881226] [-1.3517893552780151:1.9831451177597046] [-1.3099035024642944:2.0549979209899902] [-1.2559221982955933:2.0165181159973145] [-1.1870334148406982:2.073509693145752] [-1.1039742231369019:2.1457490921020508] [-1.0067610740661621:2.2142360210418701] [-0.90047705173492432:2.2759943008422852] [-0.78966546058654785:2.3805651664733887] [-0.67814630270004272:2.4481546878814697] [-0.65591526031494141:2.4998569488525391] [-0.65910369157791138:2.5653238296508789] [-0.66439425945281982:2.5221147537231445] [-0.6652991771697998:2.4413206577301025] [-0.67332524061203003:2.3840618133544922] [-0.67701548337936401:2.2409591674804688] [-0.68310725688934326:2.1797337532043457] [-0.68053698539733887:2.1614029407501221] [-0.92955285310745239:2.0620582103729248] [-1.274228572845459:1.9191513061523438] [-1.700652003288269:1.7314887046813965] [-1.9454965591430664:1.5598906278610229] [-2.1668190956115723:1.3473584651947021] [-2.5042393207550049:1.1458766460418701] [-2.6850478649139404:1.0652625560760498] [-2.6397361755371094:1.0182701349258423] [-2.1005656719207764:1.0153312683105469] [-1.5155016183853149:1.0222163200378418] [-0.8696785569190979:1.0386093854904175] [-0.66409575939178467:1.2123075723648071] [-0.66973656415939331:1.4357191324234009] [-0.67192721366882324:1.5244829654693604] [-0.67710685729980469:1.427788257598877] [-0.67391806840896606:1.3506048917770386] [-0.67713803052902222:1.3033223152160645] [-0.67526406049728394:1.4334096908569336] [-0.67822211980819702:1.6771683692932129] [-0.67593681812286377:1.8418123722076416] [-0.67998087406158447:1.9795904159545898] [-0.67735743522644043:1.8671952486038208] [-0.68056988716125488:1.8940913677215576] [-0.67851173877716064:2.0411467552185059] [-0.68057990074157715:2.1347439289093018] [-0.67622542381286621:2.3221406936645508] [-0.68116158246994019:2.3866791725158691] [-0.68698889017105103:2.3278176784515381] [-0.69497156143188477:2.41339111328125] [-0.68557995557785034:2.0181429386138916] [-0.66425126791000366:1.7058380842208862] [-0.63047897815704346:1.5109990835189819] [-0.6819922924041748:1.3468891382217407] [-0.83747786283493042:1.3156778812408447] [-0.69688475131988525:1.3004671335220337] [-0.62303602695465088:1.2808957099914551] [-0.62908732891082764:1.5017008781433105] [-0.65896600484848022:1.6471337080001831] [-0.67422842979431152:1.5433529615402222] [-0.93073725700378418:1.1429597139358521] [-1.1747497320175171:1.0751444101333618] [-1.3727543354034424:0.99085426330566406] [-1.6713657379150391:0.88485002517700195] [-1.7223098278045654:0.75389385223388672] [-1.8329139947891235:0.60495084524154663] [-1.6504355669021606:0.45876148343086243] [-1.7446892261505127:0.33052113652229309] [-1.674402117729187:0.23037496209144592] [-1.5674382448196411:0.15855956077575684] [-1.4517455101013184:0.2961885929107666] [-1.6804615259170532:0.9557119607925415] [-1.8599822521209717:1.4404212236404419] [-2.0371255874633789:1.2026444673538208] [-2.1728529930114746:1.1271375417709351] [-2.2573421001434326:0.5285990834236145] [-2.3058340549468994:0.2406151294708252] [-2.3315773010253906:0.28676301240921021] [-2.3403120040893555:0.33890664577484131] [-2.3343968391418457:0.39074629545211792] [-2.3124566078186035:0.43792322278022766] [-2.2730567455291748:0.47703936696052551] [-2.2140905857086182:0.50853937864303589] [-2.1362462043762207:0.53271615505218506] [-2.0426793098449707:0.67684948444366455] [-1.9374580383300781:0.56802195310592651] [-1.8240519762039185:0.65018975734710693] [-1.8478662967681885:1.0688302516937256] [-1.6385469436645508:1.4172115325927734] [-1.5750191211700439:1.6278220415115356] [-1.5245249271392822:1.6652539968490601] [-1.4843816757202148:1.6182962656021118] [-1.4547033309936523:1.5608183145523071] [-1.4384253025054932:1.5595740079879761] [-1.4264529943466187:1.5645072460174561] [-1.5819015502929688:1.5648646354675293] [-2.0638625621795654:1.5687597990036011] [-2.4619696140289307:1.5680602788925171] [-2.648137092590332:1.5700795650482178] [-2.4631106853485107:1.5659784078598022] [-2.0341367721557617:1.5671930313110352] [-1.4475361108779907:1.5610309839248657] [-1.2213733196258545:1.5632989406585693] [-1.117332935333252:1.561995267868042] [-1.168958306312561:1.5723429918289185] [-1.2179133892059326:1.5757462978363037] [-1.3317182064056396:1.5835809707641602] [-1.6010570526123047:1.5861003398895264] [-2.1418814659118652:1.5904537439346313] [-2.4733853340148926:1.5896482467651367] [-2.5047738552093506:1.5896980762481689] [-2.0072333812713623:1.5865405797958374] [-1.6131480932235718:1.5868538618087769] [-1.6282110214233398:1.611059308052063] [-1.6828017234802246:2.4495923519134521] [-1.7428308725357056:2.6529664993286133] [-1.8188323974609375:2.5047237873077393] [-1.9280952215194702:1.7488086223602295] [-2.15055251121521:1.6308574676513672] [-2.3790585994720459:1.6220458745956421] [-2.6580204963684082:1.8138364553451538] [-2.9761693477630615:2.1341862678527832] [-3.3320021629333496:2.598928689956665] [-3.8293700218200684:3.4483489990234375] [0:1] [0:1] [0:1] [0:1] [0:1] [0:1] [0:1] [0:1] [0:1]
tree_sizes=4462 5647 5359 5756 4598 6392 4613 4632 4620 4917 4938 3861 4826 4277 4932 4381 5058 4548 4687 4729 4652 4623 4861 4054 4724 4697 4607 4848 4625 4611 4507 4956 3815 4170 4285 4645 4766 4445 4466 4453 5025 4207 4958 5029 4768 4076 4228 4847 3983 4675 4778 4784 3672 4824 4466 5401 4590 3907 5174 4430 4660 5327 4913 5544 5218 6933 4074 6954 6945 5884 5602 6528 6529 6756 6266 6621 5028 6436 5267 6440 6843 5905 6383 5646 6126 6805 6631 6647 5476 6607 6213 6291 6668 6428 6178 6505 6426 6112 6956 5467 5058 6151 6702 6445 6463 6167 6701 6562 6556 6508 6375 6969 4199 5687 5127 5464 6823 6789 5885 5605 6818 6965 6944 6816 6852 6493 6491 6491 6005 5120 6143 6345 6463 6938 6587 6967 5768 6971 5971 6938 6131 5993 6557 6237 6384 6955 6966 6690 6479 6690 5977 5971 5765 6685 6461 5055 6160 6490 6122 5712 6648 6525 6658 6182 6695 4394 6672 6485 6918 6219 6621 6713 6838 5495 6014 6074 5842 6612 6101 6983 6509 5859 5697 6371 6187 4684 6911 5906 6163 4746 6924 6664 6797 6001 6460 6736 6265 5117 6155 6980

Tree=0
num_leaves=41
num_cat=0
split_feature=125 33 77 114 74 30 75 46 135 107 128 111 123 134 109 83 133 68 113 46 53 118 45 71 37 52 88 39 39 55 103 31 108 80 127 20 0 20 6 0
split_gain=146446 14366.8 10305.7 10430.8 8355.54 7465.63 5744.43 7503.58 4262.86 2421.57 1790.05 2088.89 1624.25 1345.91 1210.15 972.838 969.914 887.448 675.643 837.507 637.717 572.627 526.284 720.611 594.706 439.461 417.658 389.186 359.776 303.245 213.124 209.397 73.7808 35.069 0.93342 5.16204 5.82077e-11 1.81899e-12 7.10543e-15 1.77636e-15
threshold=-0.32783754169940943 0.93160536885261547 -0.39282597601413721 -1.1364948153495786 -1.0274160504341123 1.0887670516967776 -0.52721264958381642 1.2088463902473452 1.0000000180025095e-35 -0.80370742082595814 1.0000000180025095e-35 -0.90902501344680775 -2.2266904115676875 1.0000000180025095e-35 -0.94647037982940663 -1.1105037331581114 1.0000000180025095e-35 0.13803483545780185 -1.320224344730377 1.2256966233253481 1.06144654750824 -1.6231027245521543 1.116598427295685 -0.39303566515445704 0.97422397136688244 0.84221789240837108 -1.0534406900405882 1.0118340253829958 1.0257138013839724 1.0414685010910036 -0.79148429632186879 0.9973704218864442 -0.81230756640434254 -0.50192025303840626 1.0000000180025095e-35 1.3006768822669985 0.6596246361732484 1.4591903090476992 0.069683946669101729 0.12853471189737323
decision_type=2 2 2 2 2 2 2 2 2 2 2 2 2 2 2 2 2 2 2 2 2 2 2 2 2 2 2 2 2 2 2 2 2 2 2 2 2 2 2 2
left_child=1 2 3 6 14 -6 8 -8 -1 10 13 17 18 16 -5 -15 -3 -12 28 -20 -13 38 30 27 -25 34 -27 -24 -4 -23 31 -11 -32 39 35 -2 -36 -37 -14 -28
right_child=25 9 12 4 5 -7 7 -9 -10 22 11 20 21 15 -16 -17 -18 -19 19 -21 -22 29 23 24 -26 26 33 -29 -30 -31 32 -33 -34 -35 36 37 -38 -39 -40 -41
leaf_value=-2.0634378176997363 -1.2757785427391402 -1.7406364511473267 -1.4195162520270554 -1.2648257779533976 -1.8417397521791585 -1.6616232379128304 -1.5854874411284703 -2.0434063019532465 -1.7820971668380052 -1.446439647501895 -1.5418390190202356 -1.9018761927754215 -2.3324340046262488 -1.5424343754285008 -2.0495264816128698 -1.961141854462535 -2.0374043158424731 -1.8171597367554442 -2.3324340046262488 -1.4877464196145769 -1.7040762620813594 -1.3102354971265422 -1.8268363596783184 -2.1829262093416384 -1.8673987250670925 -1.2423744892337341 -2.3324340046262488 -1.4410407915356713 -1.6961590357726402 -1.9538093788914224 -2.0752112673615968 -2.2053524432072114 -2.3131278814870062 -1.8400720477737651 -1.1993918496106797 -1.1993918496106797 -1.1993918496106797 -1.1993918496106797 -2.3324340046262488 -2.3324340046262488
leaf_weight=4508.2091634869576 10.473028182983397 5164.2084870934486 641.45545279979706 19.867368757724762 18083.346746325493 2636.7746014595032 751.88632744550705 682.80820447206497 611.6299010515213 7.2860393524169904 1488.4047500491142 231.32187861204147 17.65159368515015 521.80118870735168 1822.1819488406181 62.093861639499664 112.52815753221512 127.0703781247139 19.505011022090912 29.477597296237946 551.82999438047409 11.728231728076937 65.663176298141479 92.523456811904907 168.56113719940186 9.3060826063156146 3.61857670545578 43.451462209224701 50.72798764705658 19.485230982303619 17.926069557666779 7.2567453980445862 47.767152905464172 1.8730093240737895 1022.2756109237671 31.742634415626526 3046.4789901971817 25.231324791908264 10.767472147941588 2.7359970211982727
leaf_count=40268 20 31265 2047 36 125780 14106 3512 5977 3929 25 6373 1733 200 2237 16050 498 979 856 221 112 3161 26 448 925 1211 15 41 147 287 155 162 74 533 13 1256 39 3743 31 122 31
internal_value=-2.22159 -1.82658 -1.85949 -1.86922 -1.83696 -1.81882 -1.98027 -1.80342 -2.02983 -1.71355 -1.70124 -1.62847 -1.50559 -1.73102 -2.04106 -1.58696 -1.74697 -1.5635 -1.46519 -1.8241 -1.7625 -2.00768 -1.93934 -1.88902 -1.97922 -1.2017 -1.70128 -1.67321 -1.43979 -1.71199 -2.17152 -1.82513 -2.24821 -2.22035 -1.19959 -1.21125 -1.19939 -1.19939 -2.33243 -2.33243
internal_weight=0 38627.2 29917.5 29116.7 22562.2 20720.1 6554.53 1434.69 5119.84 8709.69 8259.26 2398.63 800.799 5860.63 1842.05 583.895 5276.74 1615.48 741.166 48.9826 783.152 59.6325 450.435 370.199 261.085 4153.74 17.5337 109.115 692.183 31.2135 80.236 14.5428 65.6932 8.22758 4136.2 67.447 4068.75 56.974 28.4191 6.35457
internal_count=268644 263455 212828 209658 155972 139886 53686 9489 44197 50627 47102 12123 3170 34979 16086 2735 32244 7229 2667 333 4894 503 3525 2731 2136 5189 100 595 2334 181 794 99 695 85 5089 90 4999 70 322 72
is_linear=0
shrinkage=1


Tree=1
num_leaves=52
num_cat=0
split_feature=45 128 32 30 123 89 136 75 134 54 74 70 35 49 73 54 31 51 113 81 30 73 132 75 53 35 75 109 85 54 36 86 31 115 114 109 28 75 110 63 104 70 73 71 82 38 33 101 91 30 98
split_gain=22703.7 6346.98 5344.57 5180.67 6456.96 3847.99 3452.76 3093.52 3541.51 3365.35 2381.62 2052.32 1494.36 1331.55 1386.78 1128.97 973.227 836.6 778.382 693.857 658.206 656.482 653.406 649.185 584.084 434.508 423.139 388.204 337.734 278.675 246.568 191.555 187.096 181.452 76.8051 344.382 148.037 227.831 149.431 166.562 128.481 183.065 84.2343 68.4259 65.3089 41.5376 34.6701 29.1502 3.90802e-05 6.27318e-05 2.89743e-05
threshold=0.74091297388076793 1.0000000180025095e-35 0.9464729130268098 1.0864132642745974 -2.1968320608139034 -1.2403246760368345 1.0000000180025095e-35 -1.0366253256797788 1.0000000180025095e-35 1.056559205055237 -1.0375587940216062 -0.2265287712216377 0.95361247658729564 0.94366961717605602 -0.92114719748496998 1.0150333642959597 0.99047425389289867 1.1018652319908144 -0.9356933832168578 -0.38640493154525751 1.0980469584465029 -0.78190287947654713 1.0000000180025095e-35 -1.1178984045982359 1.145396411418915 0.9328925907611848 -1.0899500846862791 -0.79916924238204945 -1.3607026338577268 1.085829019546509 0.89911466836929332 -0.9279387593269347 0.91061982512474071 -0.91644811630249012 -0.93988901376724232 -0.90865573287010182 1.3932257294654848 -1.0604990124702451 -0.84674501419067372 0.050590138882398612 -0.93921545147895802 -0.67918914556503285 -0.96680989861488331 -0.72930550575256337 -1.0554770231246946 0.55750232934951793 0.77579969167709362 -0.90641680359840382 -1.0724161267280576 1.0786499977111819 -0.95674741268157948
decision_type=2 2 2 2 2 2 2 2 2 2 2 2 2 2 2 2 2 2 2 2 2 2 2 2 2 2 2 2 2 2 2 2 2 2 2 2 2 2 2 2 2 2 2 2 2 2 2 2 2 2 2
left_child=22 2 3 4 19 17 -6 8 10 21 -4 16 -11 20 -15 -10 24 28 25 -2 -5 -9 34 27 -7 -13 -20 -19 32 -18 -30 44 -3 -25 35 40 38 43 39 -36 41 -1 -37 -38 48 -39 -40 -42 -24 -50 -44
right_child=1 5 7 13 6 11 -8 9 15 12 -12 18 -14 14 -16 -17 29 23 26 -21 -22 -23 31 33 -26 -27 -28 -29 30 -31 -32 -33 -34 -35 36 42 37 45 46 -41 47 -43 50 -45 -46 -47 -48 -49 49 -51 -52
leaf_value=0.53669507341755418 -0.022209396076056351 0.45865976193562141 -0.0068168116875806182 0.30650666391715264 0.149413626453267 0.51993278185631242 0.28678761088211724 0.25068537649281886 0.1612941894870612 0.18526504710270064 0.27703569535444639 0.11884638258589895 0.37218680232975787 0.012986727540948706 0.27882931234016278 -0.025440941667108904 0.39154213057252091 0.42084987781620975 0.33259676786250675 0.36106249499503118 0.42471459569260689 0.37332779305526842 -0.11547050147743446 0.16010313488697059 0.11287731200673741 0.33979495915502766 0.11427297531103811 -0.062911722757321945 0.042666344884734905 -0.11667588645387404 0.34400222526437285 0.58613213417351362 0.0078564243504564979 -0.1141150383766022 -0.004675171054832828 0.4320585990231911 0.0032919580851645865 0.63204498979193524 0.43202788199699599 0.46075328858223652 0.49043468368722271 -0.034873824999634137 -0.11620459685735091 0.35723220305496972 0.29201163692589704 0.52482459130809989 0.33112495111402634 0.66417887655173913 -0.11584206460978906 -0.1163763435675719 -0.11582887943135667
leaf_weight=11.255790069699289 48.35229966044426 9.4369122087955457 304.28582888841629 915.06308741122484 15084.495247796178 984.87121199071407 2082.1525384113193 472.61528561264277 1450.0293028354645 1946.6923439279199 10340.954259373248 93.352261878550053 548.11938089132309 211.0017626285553 2802.3955838680267 416.83896836638451 2459.4734961614013 188.52738285809755 127.04488606750965 2042.5878920257092 970.79043505340815 5704.8396947532892 2.4272219389677039 113.32386034727097 36.559293456375599 1911.4046500772238 294.6857243180275 18.188471898436546 47.046289652585983 10.836966052651404 64.220727235078812 5.25962010025978 376.93737829476595 30.659118190407753 16.565731301903725 3.3691054657101658 7.6024782210588482 66.561873197555542 8324.0702899545431 14.349154666066172 30.351897478103638 11.159077458083628 2.3943203985691115 19.401206016540527 4.5228417441248885 79.032435104250908 34.192279100418091 14.162268295884131 24.906056016683586 2.4102913290262213 14.378784172236916
leaf_count=19 353 9 2721 3768 99642 2813 10239 2410 8633 10548 49421 538 1954 1776 11940 3157 8133 641 510 6023 2734 21528 21 665 267 5797 1750 169 371 89 290 14 3050 291 123 13 51 114 5116 42 79 81 20 68 22 189 74 15 211 20 122
internal_value=0 0.255276 0.241794 0.209643 0.186285 0.345619 0.166076 0.278456 0.246642 0.324357 0.268922 0.37417 0.226332 0.301457 0.260215 0.1196 0.423261 0.146441 0.303529 0.352199 0.367357 0.363945 0.429885 0.264735 0.505363 0.329506 0.180042 0.378285 0.0630757 0.389313 0.21659 0.0242274 0.018867 0.101712 0.431739 0.338293 0.43269 0.524363 0.430803 0.211354 0.447394 0.252144 -0.0242306 0.257586 -0.0620205 0.573843 0.431615 0.545712 -0.115855 -0.115889 -0.115883
internal_weight=0 52107.8 45341.2 24156.8 19257.6 6766.57 17166.6 21184.4 12512.1 8672.27 10645.2 5918.23 2494.81 4899.25 3013.4 1866.87 3491.74 848.34 2426.49 2090.94 1885.85 6177.45 8688.37 350.699 1021.43 2004.76 421.731 206.716 497.641 2470.31 111.267 39.526 386.374 143.983 8648.85 87.0712 8561.78 172.598 8389.18 30.9149 66.929 22.4149 20.1422 27.0037 34.2664 145.594 8358.26 44.5142 29.7436 27.3163 16.7731
internal_count=268644 262230 236847 136475 116257 25383 109881 100372 63932 36440 52142 19897 12502 20218 13716 11790 11302 5486 8595 6376 6502 23938 6414 1766 3080 6335 2260 810 3720 8222 661 288 3059 956 6126 349 5777 422 5355 165 194 100 155 119 274 303 5190 94 252 231 142
is_linear=0
shrinkage=0.1


Tree=2
num_leaves=49
num_cat=0
split_feature=46 128 31 123 30 136 74 134 54 112 92 106 113 115 106 44 70 132 30 83 1 129 125 69 36 88 107 133 113 75 53 103 79 27 31 87 109 114 92 125 41 101 98 102 45 83 30 29
split_gain=13527.9 2856.31 2922.85 3814.01 3290.17 1996.67 2353.03 3198.07 2169.5 1807.32 1627.26 1495.21 1277.01 977.437 1420.66 1138.03 630.285 549.262 464.815 566.038 429.969 416.672 378.113 326.961 385.301 254.024 239.026 238.46 190.035 363.832 165.491 138.013 129.951 122.624 119.933 118.626 82.4131 140.251 144.265 49.5843 42.5919 32.5657 29.5116 0.0251706 0.0184913 0.00927637 0.00117824 5.86315e-05
threshold=0.79093182086944591 1.0000000180025095e-35 0.98594921827316295 -2.162351012229919 1.0907384753227236 1.0000000180025095e-35 -0.93114507198333729 1.0000000180025095e-35 1.0522739887237551 -0.8886103332042693 -1.1688585281372068 -0.99460124969482411 -1.1475952267646787 -1.4782051444053648 -0.90281593799591053 1.1802881360054018 -0.24302329123020169 1.0000000180025095e-35 1.0431194901466372 -1.4388082623481748 0.50349631905555736 1.0000000180025095e-35 -1.7197279334068296 1.0000000180025095e-35 0.9420490860939027 -1.2478879094123838 -0.81184151768684376 1.0000000180025095e-35 -0.87245380878448475 -1.1300384998321531 1.0679917931556704 -0.86507275700569142 -1.0303431153297422 1.5147117376327517 0.96353715658187877 -1.3163087368011472 -0.96270269155502308 -0.97756913304328907 -0.99006709456443776 -0.32783754169940943 0.94848114252090465 -0.93535137176513661 -0.87178048491477955 -0.92590579390525807 0.74091297388076793 -1.0396869182586668 1.080007076263428 1.2503564357757571
decision_type=2 2 2 2 2 2 2 2 2 2 2 2 2 2 2 2 2 2 2 2 2 2 2 2 2 2 2 2 2 2 2 2 2 2 2 2 2 2 2 2 2 2 2 2 2 2 2 2
left_child=17 2 3 13 11 6 7 -4 10 16 -7 -5 -8 15 -15 -2 18 27 19 -3 28 -6 -10 24 -18 -20 -25 36 29 -11 -30 35 41 45 42 -22 -1 38 -38 -39 -33 44 43 -29 47 -34 -46 -19
right_child=1 9 5 4 21 8 12 -9 22 20 -12 -13 -14 14 -16 -17 23 32 25 -21 31 -23 -24 26 -26 -27 -28 34 30 -31 -32 40 33 -35 -36 -37 37 39 -40 -41 -42 -43 -44 -45 46 -47 -48 -49
leaf_value=0.44663263679219584 0.28540249916035421 -0.11719082457308588 0.17975283729776559 0.37321610658110305 0.25964416605718293 0.54607405610029536 0.10919915978592594 0.057883858064981433 0.15650536589142985 0.28283407849052478 0.25298536665175564 0.10013294990085292 0.22409659942837187 0.39503139757438366 0.22610803091049694 -0.080281394982529647 0.12840170677033902 -0.11409266753359587 0.19788841567616577 0.34845656580314982 0.32717603182432353 -0.12510194954158357 0.00082054784093629437 0.1729732250927013 0.24809546528946186 0.27808077010830207 -0.057185255988802308 -0.1209074690955238 -0.028351085824825869 0.10184318575109358 0.17303599362293867 0.39392905983461213 -0.11582992080488488 0.41815282149424693 0.33316655417056795 -0.11479216100397815 -0.071944547631731831 0.28557487840864459 0.3197161031057314 0.31549375400274071 -0.093611419474100802 0.2615141841480168 0.23538146675235147 -0.12875942018801595 -0.11827431258037663 -0.12344231720332084 -0.12056541517768873 -0.114477020201462
leaf_weight=46.479676693677902 154.70808947831392 26.68781404197216 12469.217279702425 204.04506472498178 1684.8908243328333 195.16751996427774 1044.9013764485717 2602.7480024173856 275.01693977415562 179.86462024599314 6449.3114250823855 11535.399673901498 13030.048530079424 634.06207206100225 2317.7400747910142 189.15202268213034 294.46227180212736 18.506037354469303 476.93881540000439 1196.3620446845889 16.504593171179298 28.626112587749958 360.48350955545902 199.42195593565702 3102.9899690821767 2299.5113592371345 58.317527644336224 14.591030530631544 106.96412850916386 290.37721361964941 65.97160342335701 1.8167266845703114 3.8862941488623628 11.912821114063263 9.9722249656915647 9.6083519309759122 19.143363371491432 585.86213204264641 18.486582286655903 10162.655427902937 130.93954207748175 2.4322277903556815 2.5899711698293713 5.6687564104795447 11.743253044784067 2.7220073938369751 2.7750467136502257 5.0524974688887587
leaf_count=38 292 220 54846 677 4614 245 6320 15959 1199 631 22132 69545 48427 1060 6797 1426 1216 171 1798 2264 69 181 2058 791 7974 5882 387 106 922 1627 334 9 34 22 16 87 134 1608 35 5098 1164 11 11 33 90 18 20 46
internal_value=0 0.190553 0.181968 0.147392 0.123773 0.197865 0.186165 0.158708 0.244712 0.244536 0.261594 0.104879 0.215567 0.243806 0.262394 0.0842456 0.2595 0.311293 0.286932 0.338296 0.101718 0.253217 0.0681942 0.229484 0.237721 0.264305 0.120896 0.312945 0.138108 0.171071 0.0484742 -0.0456025 0.00708085 0.22651 0.0438113 0.164552 0.313761 0.313188 0.120468 0.313863 -0.0869396 -0.0932442 -0.0824709 -0.123104 -0.115905 -0.118966 -0.118712 -0.114175
internal_weight=0 61632.3 53175.5 16748.6 13453 36426.9 29146.9 15072 7279.98 8456.74 6644.48 11739.4 14074.9 3295.66 2951.8 343.86 7654.69 10924.5 3999.5 1223.05 802.047 1713.52 635.5 3655.19 3397.45 2776.45 257.739 10865.4 643.178 470.242 172.936 158.869 59.0302 18.5211 32.822 26.1129 10832.6 10786.1 37.6299 10748.5 132.756 40.5091 22.8498 20.2598 38.0768 6.6083 14.5183 23.5585
internal_count=268644 261153 235778 84592 75017 151186 125552 70805 25634 25375 22377 70222 54747 9575 7857 1718 20532 7491 10164 2484 4843 4795 3257 10368 9190 7680 1178 7079 3514 2258 1256 1329 412 74 166 156 6913 6875 169 6706 1173 338 150 139 327 52 110 217
is_linear=0
shrinkage=0.1


Tree=3
num_leaves=53
num_cat=0
split_feature=45 74 97 32 124 48 75 134 0 30 82 76 0 91 128 30 80 36 75 99 114 132 28 104 73 135 106 30 79 113 109 130 27 75 104 135 96 95 127 76 97 117 125 74 92 6 21 74 83 90 91 30
split_gain=10535.9 1886.95 1729.6 2240.51 1988.34 1765.15 1059.05 1900.18 1418.18 922.514 867.494 925.731 671.589 615.646 577.281 488.341 394.587 374.005 329.321 427.31 277.257 236.949 207.362 202.187 249.11 156.004 122.577 113.902 77.9201 76.156 116.49 72.9421 64.7675 64.6807 48.6426 34.1678 34.0084 65.323 33.4081 102.425 47.1121 24.4841 38.5707 24.9156 23.7866 20.8802 19.0535 0.255284 0.00598433 0.000650122 2.15893e-05 3.00378e-05
threshold=0.74091297388076793 -1.0141100883483884 -0.98350563645362843 0.93477177619934093 -2.4097081422805782 1.2086564898490908 -1.0220704078674314 1.0000000180025095e-35 0.29522557556629186 1.09585577249527 -1.3427042961120603 -1.2622865438461301 0.56729334592819225 -1.2177133560180662 1.0000000180025095e-35 1.0864132642745974 -0.37884145975112909 0.92017981410026561 -1.1285455226898191 -0.97266691923141468 -0.96554797887802113 1.0000000180025095e-35 1.245536804199219 -0.91898387670516957 -0.85434520244598378 1.0000000180025095e-35 -0.94130685925483693 1.0818751454353335 -1.0303431153297422 -0.92889973521232594 -0.90817478299140919 1.0000000180025095e-35 1.5147117376327517 -1.0804584026336668 -0.90155276656150807 1.0000000180025095e-35 -0.97346618771553028 -0.95664429664611805 -1.1618565320968626 -1.0976201295852659 -0.98138242959976185 -0.90170499682426442 -0.32783754169940943 -1.0025285482406614 -1.0541291832923887 0.82384103536605846 1.7864102125167849 -1.0274160504341123 -1.0466198325157163 -1.0027983784675596 -1.0724161267280576 1.0777757763862612
decision_type=2 2 2 2 2 2 2 2 2 2 2 2 2 2 2 2 2 2 2 2 2 2 2 2 2 2 2 2 2 2 2 2 2 2 2 2 2 2 2 2 2 2 2 2 2 2 2 2 2 2 2 2
left_child=21 9 20 4 16 -6 7 -5 -8 10 11 17 35 -13 15 -12 -4 -2 31 -20 25 29 -16 27 -25 26 -3 -22 49 30 36 -14 48 -27 44 47 46 -38 39 40 -31 43 -43 -40 -32 -41 -1 -11 -30 50 -23 -52
right_child=1 2 3 6 5 -7 8 -9 -10 12 14 13 18 -15 22 -17 -18 -19 19 -21 23 28 -24 24 -26 33 -28 -29 32 38 34 -33 -34 -35 -36 -37 37 -39 41 45 -42 42 -44 -45 -46 -47 -48 -49 -50 -51 51 -53
leaf_value=0.22725420747886452 0.0015177183967785698 0.18227945630306092 0.09442347275252938 0.16656506392625972 0.12220218302438005 -0.0065277215876878517 0.14456734697352866 0.091429271933269468 0.21286996646046852 -0.11680650970012137 -0.0071567830629989809 0.3055569175112739 -0.051283189677480849 0.14016332554040889 0.26765579946823531 0.085543895236439016 0.21606882958674445 0.19380515019866884 0.27136886551475853 0.1172663158096333 0.084965459172269275 -0.11229948341155978 -0.031816015214060508 0.20892642188001923 0.28499818530365806 0.020783779518252984 0.023910574726238684 0.31690754490606327 -0.11413620704691177 0.1352326983986272 0.08087951513011167 0.4285027507709302 0.2870789138675654 0.26365891958099424 0.20174123734987948 0.093766172388320621 -0.043268245227248009 0.23014194779268254 0.19442592641702069 0.29782772392131235 -0.12756084774050122 0.17982032796242711 0.25715070665178874 0.32706276619054919 -0.12270918930503594 0.20091346387529813 0.35674067303932705 -0.1296691566973151 -0.12063738737526895 -0.11447797780551638 -0.11259674592685068 -0.11300513050833386
leaf_weight=20.068778410553932 596.83837766945362 85.037154853343964 297.35632421821356 22879.036937914789 16518.058425612748 1138.6045277863741 4592.3029085993767 3946.4972849860787 8992.489853516221 45.758526235818863 1526.7132385373116 283.02696369588375 53.956713952124119 1098.807578317821 141.13630536198616 905.21212417632341 2582.7888031378388 121.79378685355186 591.95899354666471 258.52132408320904 22.288365229964256 2.0398331806063714 27.651512764394283 1479.1933858320117 607.16760266572237 12.281813889741896 114.92182708531618 422.93505860865116 3.0453715175390252 41.371893301606178 8.9677628576755506 3.3664138987660399 13.054617211222649 102.26883866637945 11.170783177018164 8.2856723740696889 10.241676762700079 59.538481779396534 16.916640192270279 69.926680132746696 8.1688309311866742 64.875208713114262 11140.68782825768 86.992741778492928 15.938631273806097 32.592898234724998 26.199018701910973 23.279895335435867 2.6462003365159035 2.0486280173063269 15.996778331696989 2.0295766815543166
leaf_count=36 4116 229 1218 74904 76173 7778 17697 19609 24612 377 9814 833 373 5025 301 4157 5170 469 1249 852 111 21 130 4193 1352 54 526 541 29 130 44 9 19 192 35 32 50 112 45 84 50 178 5091 70 114 66 21 134 19 19 161 20
internal_value=0 0.152001 0.156921 0.153363 0.126468 0.113901 0.167032 0.155511 0.18978 0.0968032 0.0783652 0.126164 0.184792 0.174039 0.0397603 0.0273483 0.20351 0.0341066 0.208889 0.224526 0.233118 0.254746 0.218595 0.24412 0.231065 0.144567 0.0912606 0.305296 0.0143598 0.255592 0.185303 -0.0231068 0.164347 0.237618 0.0283586 -0.0981151 0.234094 0.190013 0.256525 0.209965 0.0919003 0.257151 0.256703 0.305469 -0.0494053 0.267017 0.300576 -0.121144 -0.117159 -0.112781 -0.112608 -0.112643
internal_weight=0 69479.5 63793.2 60947.1 20536.8 17656.7 40410.3 26825.5 13584.8 5686.31 4701.18 2100.47 985.128 1381.83 2600.71 2431.93 2880.15 718.632 907.803 850.48 2846.09 11654.5 168.788 2531.58 2086.36 314.51 199.959 445.223 40.861 11613.7 152.125 57.3231 18.7462 114.551 36.0772 77.3241 116.048 69.7802 11461.5 152.06 49.5407 11309.5 11205.6 103.909 24.9064 102.52 46.2678 69.0384 5.69157 22.1148 20.0662 18.0264
internal_count=268644 262230 234359 227161 90339 83951 136822 94513 42309 27871 24845 10443 3026 5858 14402 13971 6388 4585 2483 2101 7198 6414 431 6197 5545 1001 755 652 288 6126 412 382 67 246 193 543 219 162 5714 330 180 5384 5269 115 158 150 57 511 48 221 202 181
is_linear=0
shrinkage=0.1


Tree=4
num_leaves=42
num_cat=0
split_feature=125 128 31 131 30 8 70 30 88 70 106 0 103 51 31 69 108 57 69 28 129 28 105 51 30 110 74 78 38 91 111 32 52 96 85 36 72 56 33 65 123
split_gain=9237.97 1571.36 1474.22 1784.29 1650.87 2066.95 1859.44 1160.25 1041.73 970.683 664.495 677.944 628.93 479.259 432.519 389.5 357.47 341.792 353.331 419.584 285.205 283.883 195.304 183.509 251.516 180.89 176.661 173.913 153.925 96.457 92.2649 49.8678 14.8011 61.4082 23.6961 1.80057 0.324251 0.0580463 0.075354 0.00882169 0.00229114
threshold=-0.32783754169940943 1.0000000180025095e-35 1.0005226135253908 1.0000000180025095e-35 1.0938884019851687 0.62866386771202099 -0.40190459787845606 1.0795532464981081 -1.2654018402099607 -0.32074068486690516 -0.8459465205669402 0.31349167227745062 -0.85951972007751454 1.1018652319908144 1.0103539824485781 -0.060193929821252816 -0.85549685359001149 0.93638813495635997 -0.054048383608460419 1.103429973125458 1.0000000180025095e-35 1.1206324696540835 -0.90437147021293629 1.1617439985275271 1.0251512527465823 -0.84154528379440297 -0.98600021004676808 -1.3278094530105589 0.98870122432708751 -1.1640363335609434 -0.80252361297607411 0.90916076302528392 0.8282020390033723 -0.69741603732109059 -0.4823326170444488 0.71079644560813915 -0.55668723583221424 0.70425170660018932 0.7703070640563966 -0.01000793185085058 0.08864800259470941
decision_type=2 2 2 2 2 2 2 2 2 2 2 2 2 2 2 2 2 2 2 2 2 2 2 2 2 2 2 2 2 2 2 2 2 2 2 2 2 2 2 2 2
left_child=1 2 4 10 5 6 -1 -7 13 12 11 -4 -5 25 -11 27 -12 23 21 -20 22 -19 -6 24 -10 26 -3 -15 -17 -25 -27 -22 35 -34 39 36 37 38 -2 40 -35
right_child=32 8 3 9 20 7 -8 -9 17 14 16 -13 -14 15 -16 28 -18 18 19 -21 31 -23 -24 29 -26 30 -28 -29 -30 -31 -32 -33 33 34 -36 -37 -38 -39 -40 -41 -42
leaf_value=0.3454534805634657 0.22152005687212628 0.10468433305856542 0.072538522739272915 0.070139738897541368 0.1913174460442835 0.056049980516305366 0.11780051070883964 0.11745484072627327 0.24236882211046065 0.1048395185239695 0.091010348207092515 0.16676472451510704 -0.04751401194745334 0.20930433522461858 0.22028199162136805 -0.054856061030538833 0.15391767157892333 0.2693637996177986 0.15497889467346257 0.047787346331747596 -0.12851437601579155 0.13228777864205396 0.11814604382516672 -0.12288765606295063 0.18095206053635354 -0.076978852433804215 -0.010298069762804509 -0.060001879473593311 0.096436997191843066 0.13244369715303247 0.22567454888202798 0.19013870924332721 0.22662269771407875 -0.11355063050010379 0.2291984591672781 0.23985702166447642 0.21335744916325786 0.22499234324095246 0.21831670337549838 -0.12195240163080484 -0.11758501625307805
leaf_weight=364.26500813663006 11366.131954193115 316.38880383968353 805.46773129701614 1368.3694425821304 2719.8940321877599 10580.579257048666 23854.874232634902 4339.027981646359 752.75122690200806 1436.9151213541627 2343.1375540345907 14680.527529411018 680.20412663370371 468.3567361459136 419.23316375911236 89.74292203783989 1470.0258641093969 324.66266196966171 998.61081685870886 575.69097419083118 35.245352074503899 282.58562564849854 421.27670512348413 28.149126455187798 5839.2933405414224 170.61577772349119 231.31356661766768 25.273422159254551 268.2662458717823 31.187952406704426 10.704663023352621 5.7062852978706351 38.908320739865303 3.6404594331979725 2.5533866286277762 53.559461355209351 48.947137713432312 47.773960590362549 73.911414936184883 2.7612897902727136 2.2951051890850067
leaf_count=1110 4977 1410 3065 6369 5424 50022 89235 16496 1051 4776 7975 43062 3635 986 907 520 4510 395 2486 1865 210 702 1275 204 11669 1517 1231 126 1049 100 58 15 23 35 7 24 25 21 36 22 19
internal_value=0 0.12566 0.119926 0.140183 0.108819 0.103188 0.121224 0.0739082 0.161744 0.0785339 0.152656 0.161864 0.0310742 0.086977 0.130914 0.137923 0.115262 0.175124 0.140776 0.115781 0.178086 0.205575 0.181504 0.186389 0.187965 0.0274626 0.0561233 0.195516 0.058512 0.0113162 -0.059111 -0.0841126 0.22133 0.167125 -0.0386445 0.221564 0.221479 0.221514 0.221499 -0.117283 -0.115111
internal_weight=0 75938.3 65524.7 23203.9 42320.9 39138.7 24219.1 14919.6 10413.6 3904.72 19299.2 15486 2048.57 1580.66 1856.15 851.639 3813.16 8832.93 2181.55 1574.3 3182.12 607.248 3141.17 6651.38 6592.04 729.023 547.702 493.63 358.009 59.3371 181.32 40.9516 11640.5 50.1586 11.2502 11590.3 11536.8 11487.8 11440 8.69685 5.93556
internal_count=268644 263455 238086 74299 163787 156863 90345 66518 25369 15687 58612 46127 10004 6897 5683 2681 12485 18472 5448 4351 6924 1097 6699 13024 12720 4216 2641 1112 1569 304 1575 225 5189 106 83 5083 5059 5034 5013 76 54
is_linear=0
shrinkage=0.1


Tree=5
num_leaves=59
num_cat=0
split_feature=45 128 31 76 132 106 30 39 131 71 106 91 134 76 105 116 102 69 29 65 111 114 71 127 93 51 5 36 118 86 63 114 8 104 70 105 105 31 109 68 86 5 74 124 32 11 14 29 108 98 109 69 99 79 73 114 132 83
split_gain=8545.62 1195.11 1083.04 1506.25 2010.51 2812.13 1197.43 1069.09 1024.39 1098.67 772.693 743.532 674.654 1912.58 826.75 498.312 417.947 365.187 400.594 427.009 286.952 150.448 138.092 114.775 147.07 109.657 106.331 104.325 95.9675 80.7204 67.0491 48.0263 47.4932 36.6064 64.1168 29.6536 37.2124 28.6912 61.3202 45.8108 51.4759 28.5637 28.2234 27.6593 17.366 73.116 33.2323 16.6664 19.5161 14.7204 14.5298 13.3706 11.3153 7.90886 0.139751 0.0691562 0.0310547 0.0126057
threshold=0.74091297388076793 1.0000000180025095e-35 0.99530676007270824 -0.5167979598045348 1.0000000180025095e-35 -0.99460124969482411 1.0938884019851687 1.0325826406478884 1.0000000180025095e-35 -0.44379365444183344 -0.90633663535118092 -1.1788490414619444 1.0000000180025095e-35 -1.1346208453178404 -0.83094719052314747 -1.501081585884094 -0.8367822766304015 -0.0097293849103152735 1.0627884268760683 0.42813475430011755 -0.90838330984115589 -0.9313288927078246 -0.41776946187019343 -1.6560492515563963 -1.1135098934173582 1.1365674138069155 0.73737201094627391 0.96504738926887523 -0.91358128190040577 -1.0350510478019712 0.55406606197357189 -0.97128355503082264 1.0904891490936282 -0.93921545147895802 -0.67918914556503285 -0.91198128461837757 -0.89682823419570912 0.91061982512474071 -0.90044763684272755 -0.37240494787693018 -1.1384465694427488 0.80513229966163646 -0.99802097678184498 -1.3238034844398496 0.82601997256279003 1.1552831530570986 1.2384313344955447 1.2417196631431582 -0.83838522434234608 -0.96236130595207203 -0.89781776070594776 -0.08246248215436934 -0.95973458886146534 -1.1489441990852354 -0.79310488700866688 -0.93988901376724232 1.0000000180025095e-35 -1.0396869182586668
decision_type=2 2 2 2 2 2 2 2 2 2 2 2 2 2 2 2 2 2 2 2 2 2 2 2 2 2 2 2 2 2 2 2 2 2 2 2 2 2 2 2 2 2 2 2 2 2 2 2 2 2 2 2 2 2 2 2 2 2
left_child=21 2 3 4 6 -6 -2 10 12 16 -5 23 14 -14 -4 -9 -10 18 30 -20 27 28 -11 51 26 -26 -25 -19 33 55 -13 -22 49 34 -1 52 -37 44 41 40 -40 53 -43 -36 47 -46 -47 48 -23 -31 -49 -3 -35 -39 -53 56 -30 -34
right_child=1 11 8 7 5 -7 -8 15 9 22 -12 17 13 -15 -16 -17 -18 20 19 -21 31 37 -24 24 25 -27 -28 -29 29 32 -32 -33 57 35 43 36 -38 38 39 -41 -42 42 -44 -45 45 46 -48 50 -50 -51 -52 54 -54 -55 -56 -57 -58 -59
leaf_value=0.18509606401260803 0.080479366635597016 0.052540542327315309 0.13797576862075267 0.22068797781710756 0.41206824660478969 -0.015528231104895294 0.15043935547332543 -0.093106657393216566 0.06271956947775556 0.13459580995323661 0.12765233733097994 0.25417836738243277 0.022107174303632092 0.1325629201249697 0.097776502054501696 0.11326277568074213 -0.01924547763115661 -0.049757648307507535 0.14409655035533958 -0.015817001284984641 0.26101062584977325 0.13128210240619573 0.2121994978784898 -0.014999782106641725 0.1107174292431217 -0.095495932229587188 0.20939260490066836 0.11955270472236357 -0.11976700481435401 0.34163744171781218 0.19344884179354863 -0.064556800288126992 -0.11500657644606514 0.26167714706523587 0.23200844242809315 0.0038183528562980352 0.19056321144382427 0.18106761221723466 -0.089600205533021893 0.21028412143087577 0.11071241858006194 0.00063280941001325308 0.21858660994961365 -0.12117943188120534 0.200760362301485 0.17743239859504156 -0.13289081618227325 0.15591282336693049 0.19745098077229464 0.14864488423937169 0.24755429335808488 -0.1316786226455999 0.18449286099625697 0.25011232297202146 -0.11962043975608663 -0.1314775568580826 -0.11275549170046624 -0.12441489552313603
leaf_weight=20.986248582601547 21556.061425723135 4.7784212976694098 18005.39104089886 1265.5011235699058 161.70168349146843 3149.0380527228117 2759.7591361179948 267.83062369376421 3158.5256782621145 556.21989035606384 3030.3986439928412 240.93667596578598 2521.8071541935205 4143.1115802824497 7146.7960115820169 207.77836312353611 774.6892189309001 39.556158110499382 8570.6775022223592 170.29850123822689 4.6824272572994223 44.745971702039242 390.1289019882679 302.02271312475204 321.34565196186304 28.036938540637493 22.705087408423424 455.13453663885593 11.841847017407421 5.7347582504153278 740.69173282384872 140.14207036048174 3.3313199505209949 28.800738967955112 2.5828781723976162 18.929706119000912 24.456934228539467 22.151166781783104 19.083297908306122 23.576156869530678 39.1426070779562 11.920490309596063 11.844915837049482 15.667102105915545 59.916455745697021 4.9655324220657375 11.3132998496294 20.531714707612991 11630.721881911159 12.714871332049372 109.95646044611931 13.666708737611769 55.779008001089096 66.085100263357162 32.392143487930298 3.2701220735907546 13.539288215339184 2.4874803721904719
leaf_count=32 87805 18 48673 2092 149 18610 5462 1762 13367 1417 7054 215 12748 11180 21747 784 3301 163 17496 616 9 80 696 2092 1218 185 42 1119 90 4 1142 734 32 22 8 75 43 35 91 19 93 39 8 119 26 4 61 31 5076 39 87 82 72 53 252 19 139 17
internal_value=0 0.105641 0.100751 0.0874263 0.0784653 0.00535625 0.0884196 0.139309 0.112515 0.0698509 0.155059 0.136119 0.119058 0.0907697 0.126553 -0.00295045 0.0465757 0.142969 0.147783 0.140981 0.0697706 0.195172 0.166588 0.0382122 0.0491391 0.0941694 0.000689816 0.106014 0.113242 -0.00412387 0.208355 -0.0540306 0.13007 0.150389 0.0658879 0.176298 0.109086 0.196665 0.158499 0.0926798 0.0450608 0.20657 0.109263 -0.0711936 0.197287 0.1497 -0.0382329 0.197595 0.197197 0.208633 0.233135 -0.10668 0.210775 0.232779 -0.123198 -0.11779 -0.116027 -0.119029
internal_weight=0 80181.8 69094.7 32398.1 27626.6 3310.74 24315.8 4771.51 36696.7 4879.56 4295.9 11087.1 31817.1 6664.92 25152.2 475.609 3933.21 10362.1 9722.6 8740.98 639.515 12296.1 946.349 724.948 674.11 349.383 324.728 494.691 220.122 52.9197 981.628 144.824 24.2684 167.203 39.2362 127.966 43.3866 12076 193.804 81.8021 58.2259 112.002 23.7654 18.25 11882.2 76.1953 16.2788 11806 11675.5 18.4496 130.488 50.8373 84.5797 88.2363 46.0589 28.6513 25.3811 5.8188
internal_count=268644 262230 236847 123718 112026 18759 93267 11692 113129 18781 9146 25383 94348 23928 70420 2546 16668 21494 19469 18112 2025 6414 2113 3889 3537 1403 2134 1282 711 340 1357 743 92 371 159 212 118 5703 338 203 184 135 47 127 5365 91 65 5274 5156 43 118 352 94 88 334 248 229 49
is_linear=0
shrinkage=0.1


Tree=6
num_leaves=42
num_cat=0
split_feature=125 74 106 135 107 114 97 74 24 77 134 35 74 96 32 52 14 22 31 129 107 115 30 98 45 43 52 3 100 36 127 29 74 59 75 33 82 82 29 10 115
split_gain=8054.25 1001.82 1052.43 1081.85 982.247 1361.28 800.802 903.01 646.616 576.306 500.658 458.361 415.343 607.975 411.537 392.565 345.969 259.008 253.779 204.228 202.754 173.303 104.155 122.278 67.6454 55.4505 12.6358 46.889 19.4859 0.883578 0.190191 1.30963 0.0744966 0.0499918 0.0243001 0.0189082 0.0106562 0.00636599 0.00580652 0.00560542 0.00521482
threshold=-0.32783754169940943 -1.0141100883483884 -0.93924012780189503 1.0000000180025095e-35 -1.0354593396186826 -1.174913167953491 -0.98350563645362843 -0.99889293313026417 1.3132927417755129 -0.41126604378223414 1.0000000180025095e-35 0.85391196608543407 -1.0630638003349302 -1.0171428322792051 0.92875617742538463 1.0681605935096743 1.3809390664100649 1.5835140347480776 1.0099868774414065 1.0000000180025095e-35 -0.99714976549148548 -0.98513501882553089 1.0843003988265993 -0.97626769542694081 1.0259963274002077 1.0551581978797915 0.8282020390033723 0.60005387663841259 -0.67100718617439259 0.71079644560813915 1.0000000180025095e-35 1.0472743511199953 -1.0274160504341123 0.61487707495689403 -1.1241992712020872 0.7703070640563966 -1.3427042961120603 -1.3427042961120603 1.0963702201843264 0.92092853784561168 -1.2984660863876341
decision_type=2 2 2 2 2 2 2 2 2 2 2 2 2 2 2 2 2 2 2 2 2 2 2 2 2 2 2 2 2 2 2 2 2 2 2 2 2 2 2 2 2
left_child=1 10 3 4 11 -6 19 8 -8 -9 12 -3 16 18 17 -15 25 -5 -14 21 -16 -4 32 34 -21 -1 29 28 39 30 31 -2 37 35 -24 -32 -34 -12 -33 40 -28
right_child=26 2 6 14 5 -7 7 9 -10 -11 22 -13 13 15 20 -17 -18 -19 -20 24 -22 -23 23 -25 -26 -27 27 -29 -30 -31 33 38 36 -35 -36 -37 -38 -39 -40 -41 -42
leaf_value=-0.072715375741982641 0.15736698527874579 0.29244991407190141 -0.019099940502838551 0.038285573273794324 -0.010193837720767698 0.081228890294578179 0.10432465737545411 0.096296796812530006 0.010534289102923242 0.14522789812984624 -0.12076122198890699 0.087587604961852361 0.10203074906010129 0.0050409775249554839 0.26961886319682149 0.093478645907342645 0.28457394311548384 0.19819366632533783 0.018053044406370213 -0.080952707527441117 0.15712964880900038 0.15212959546900992 -0.11934497199312151 0.39920225915904906 0.076404286613561009 0.27568754162593001 -0.11696595170145976 0.18226997523228528 0.18586458358557281 0.19263679399685929 0.17991915781426437 0.18127545403947537 -0.1256774687995966 0.18324533309014557 -0.13010355117613742 0.18148614036742938 -0.12198590448977782 -0.1180892618236066 0.17994003540559009 -0.11470856798650682 -0.12319061918811998
leaf_weight=357.00795687735081 29.443441033363342 218.45968934893608 60.176689878106117 389.67016655951738 3284.5440603941679 3230.6558464169502 1140.2696963176131 60343.565472669899 2068.5737193152308 2507.041609890759 9.9526749253272992 218.40168863534927 3092.7078337222338 1905.9678796380758 247.57347045838833 681.35138131678104 30.104404963552952 136.86941103637218 407.23936704546213 45.936044931411743 454.17897842824459 3329.0581119284034 5.9373779296875 8.7512876689434034 67.40804859995842 4.6273783892393103 2.9108406901359531 39.407957829535007 2.7691617608070365 54.645544290542603 11190.339077949524 45.602962017059326 8.5958469659090024 45.665204763412476 3.2478262484073657 77.539252281188965 86.588740691542625 85.666232168674469 113.83861398696899 3.4990292936563492 2.5033556930720815
leaf_count=2377 20 229 237 1428 18284 10362 3506 179659 8543 4048 70 706 10838 8788 386 2522 34 185 1979 203 1022 6466 44 11 193 15 26 24 6 24 4915 20 53 20 19 34 587 661 50 32 18
internal_value=0 0.0908926 0.0940875 0.0601587 0.0448728 0.0351394 0.0980774 0.0956068 0.0438629 0.0982486 0.0537531 0.190032 0.0586642 0.0650872 0.146676 0.0283304 -0.0411429 0.0798523 0.0922595 0.144674 0.196815 0.149089 -0.0986811 0.131708 0.0126307 -0.0682573 0.179732 0.13011 -0.0458415 0.179951 0.179891 0.176744 -0.120339 0.179943 -0.123149 0.17993 -0.122319 -0.118367 0.180322 -0.117828 -0.119844
internal_weight=0 84430.1 77742.4 8180.35 6952.06 6515.2 69562 66059.5 3208.84 62850.6 6687.75 436.861 6479.01 6087.27 1228.29 2587.32 391.74 526.54 3499.95 3502.58 701.752 3389.23 208.74 17.9365 113.344 361.635 11608.2 51.0903 11.6824 11557.1 11502.4 188.885 190.803 11313.5 9.1852 11267.9 95.1846 95.6189 159.442 8.91323 5.4142
internal_count=268644 263455 235457 32602 29581 28646 202855 195756 12049 183707 27998 935 26553 24127 3021 11310 2426 1613 12817 7099 1408 6703 1445 74 396 2392 5189 106 82 5083 5059 90 1371 4969 63 4949 640 731 70 76 44
is_linear=0
shrinkage=0.1


Tree=7
num_leaves=42
num_cat=0
split_feature=125 128 32 136 77 118 30 123 87 52 116 53 109 85 33 73 5 0 56 77 113 103 108 95 74 41 127 32 54 39 36 31 52 96 101 36 72 33 127 18 88
split_gain=7715.72 934.057 796.7 891.149 982.825 1019.59 955.56 697.894 646.788 390.975 370.921 335.828 306.504 506.804 346.361 292.01 279.923 249.563 232.55 224.273 326.623 165.914 143.962 140.931 164.174 133.086 132.387 130.275 113.157 106.134 44.9241 30.0228 10.8344 39.3654 18.8141 0.537939 0.205701 0.114701 0.0186265 0.00933987 0.00252346
threshold=-0.32783754169940943 1.0000000180025095e-35 0.96063521504402172 1.0000000180025095e-35 -0.41126604378223414 -1.5947962403297422 1.0575741529464724 -1.2640824913978574 -1.2913168072700498 1.0885887742042544 -1.5330472588539121 1.0366388559341433 -0.90514001250267018 -1.2401270270347593 0.94183275103569042 -0.77523842453956593 0.61936327815055858 0.44034664332866674 0.9710596799850465 -1.2695201635360716 -0.94875392317771901 -0.78268894553184498 -0.78790313005447377 -0.99795719981193531 -0.97084850072860707 0.99515533447265636 -1.9175978302955625 0.94485315680503856 1.0128836631774905 1.0124081969261172 0.98098221421241771 0.99944406747818004 0.8282020390033723 -0.69741603732109059 -1.0256920456886289 0.71079644560813915 -0.55668723583221424 0.7703070640563966 1.0000000180025095e-35 1.1418778896331789 -0.77924177050590504
decision_type=2 2 2 2 2 2 2 2 2 2 2 2 2 2 2 2 2 2 2 2 2 2 2 2 2 2 2 2 2 2 2 2 2 2 2 2 2 2 2 2 2
left_child=1 2 3 4 5 -1 7 -5 9 21 -6 -8 16 14 -14 22 17 -4 23 26 -21 28 -11 27 -25 -18 -20 -10 -3 -17 -15 -23 35 -34 39 36 37 38 -2 -35 -41
right_child=32 8 12 6 10 -7 11 -9 18 15 -12 -13 13 30 -16 29 25 -19 19 20 -22 31 -24 24 -26 -27 -28 -29 -30 -31 -32 -33 33 34 -36 -37 -38 -39 -40 40 -42
leaf_value=-0.087695956480380532 0.16778292309586576 -0.0181067883282909 0.10951486378438441 0.088378696946163099 -0.021542972682553688 0.062717782831081537 0.13530714278740075 -0.0093869048898520806 0.12112572405392107 0.13891856821833712 0.13395901532741081 0.072829240788830282 0.065846311504047461 -0.11312991116038607 0.11254349007790938 -0.091833934918067045 0.091576254640998556 0.2601298057035239 -0.13671888879137645 0.099709092759256698 0.0069608644641051742 -0.093260379981439642 -0.071341034221445068 0.1715052508871405 0.12592248667598835 -0.066491654824533813 0.17789150690132441 0.047792952030408994 0.058322654516234744 0.048836655612187647 0.090313320005100894 -0.0068663699055069513 0.16804604974075493 -0.12164617261235514 0.18706641442898042 0.17676288720797906 0.16017077120297896 0.16289380520980248 0.16676286311979771 -0.1173731721811106 -0.11302046693041734
leaf_weight=454.87259175628424 182.00584745407104 298.09393694251776 7739.8553088903427 2191.9641088396311 163.6302322819829 48699.848325699568 4596.595749810338 1094.8676017075777 661.75253187119961 781.89866311848164 2452.2062110751867 1058.4316100329161 4100.4153015017509 145.11711694300175 2592.6623067706823 62.870143942534924 89.538289554417133 111.59910404682159 13.869130447506903 2579.5799992457032 445.2299619615078 145.66591014713049 33.979047253727913 975.59063412249088 4156.6197912171483 131.48229259252548 375.5247618407011 382.14386001229286 553.22151479125023 365.13793183863163 11.731530591845511 55.56842029094696 38.580032177269459 2.6421824991703016 2.6744986176490775 53.643605947494507 47.681481182575226 76.487030223011971 10879.080353975296 2.0172494277358028 3.9204761125147369
leaf_count=2493 82 1675 16989 5872 684 172250 9884 4164 1244 1402 3535 2820 11733 640 6082 324 240 123 74 4971 1404 878 219 1303 6752 547 490 994 2163 1250 30 226 23 20 5 24 25 38 4914 18 40
internal_value=0 0.0787231 0.0746277 0.0695395 0.0645043 0.0613259 0.0986912 0.0558123 0.104782 0.0571129 0.124232 0.123613 0.0953294 0.0797712 0.0839352 0.0950687 0.108531 0.111656 0.116197 0.095253 0.0860572 0.0122573 0.130162 0.127775 0.134587 -0.00245631 0.166686 0.0942805 0.0315604 0.0281735 -0.0979133 -0.0694037 0.166567 0.120043 -0.044513 0.166773 0.166725 0.166753 0.16678 -0.1167 -0.114499
internal_weight=0 87521.6 75634.8 60712.4 51770.6 49154.7 8941.86 3286.83 11886.7 2296.44 2615.84 5655.03 14922.4 6849.93 6693.08 1243.89 8072.47 7851.45 9590.31 3414.2 3024.81 1052.55 815.878 6176.11 5132.21 221.021 389.394 1043.9 851.315 428.008 156.849 201.234 11288.7 49.8344 11.2544 11238.9 11185.3 11137.6 11061.1 8.57991 5.93773
internal_count=268644 263455 238086 201702 178962 174743 22740 10036 25369 8137 4219 12704 36384 18485 17815 3195 17899 17112 17232 6939 6375 4942 1621 10293 8055 787 564 2238 3838 1574 670 1104 5189 106 83 5083 5059 5034 4996 78 58
is_linear=0
shrinkage=0.1


Tree=8
num_leaves=42
num_cat=0
split_feature=125 128 74 96 73 29 114 30 90 75 85 0 129 54 30 73 114 75 76 69 30 69 56 31 54 104 55 53 37 114 70 52 78 90 74 58 72 34 35 72 77
split_gain=7413.33 765.001 668.282 1043.11 1038.14 851.696 806.28 758.225 729.819 533.904 521.553 396.639 344.919 326.008 322.28 430.505 211.05 191.482 190.472 181.001 221.027 162.126 154.856 88.6664 130.651 83.3662 81.2704 75.0422 60.5562 50.4033 30.7417 9.47572 33.9356 18.2073 0.819809 0.351223 0.238755 0.0454106 0.0103587 0.00617141 0.0018085
threshold=-0.32783754169940943 1.0000000180025095e-35 -1.0071393847465513 -0.98166140913963307 -0.83687210083007801 1.2143203020095827 -1.09224396944046 1.0948278903961184 -1.2173866629600523 -1.1747402548789976 -1.3607026338577268 0.54359248280525219 1.0000000180025095e-35 1.0346809029579165 1.0732390880584719 -0.85327312350273121 -0.9592633545398711 -1.1285455226898191 -1.2118777036666868 0.013827946037054064 1.0137621760368349 -0.097313050180673585 0.98702478408813488 0.9999830722808839 1.0128836631774905 -0.77551499009132374 1.0161271691322329 1.1151005029678347 0.86189827322959911 -1.1204965114593504 -0.13475017994642255 0.8282020390033723 -0.85206499695777882 -0.27036184072494501 -1.0274160504341123 0.65097117424011242 -0.55808660387992848 0.74033004045486461 0.7140357792377473 -0.80772811174392689 -0.49478130042552942
decision_type=2 2 2 2 2 2 2 2 2 2 2 2 2 2 2 2 2 2 2 2 2 2 2 2 2 2 2 2 2 2 2 2 2 2 2 2 2 2 2 2 2
left_child=1 2 7 14 5 -5 -6 8 9 -1 13 34 -10 23 15 -4 -16 -13 21 20 27 -15 -22 28 -25 29 -20 -12 -3 -21 -27 35 -33 39 -9 36 37 38 -2 40 -34
right_child=31 10 3 4 6 -7 -8 11 12 -11 19 17 -14 18 16 -17 -18 -19 26 25 22 -23 -24 24 -26 30 -28 -29 -30 -31 -32 32 33 -35 -36 -37 -38 -39 -40 -41 -42
leaf_value=-0.03304821587298324 0.15651974165318716 0.21070503918535169 0.0044653329210728602 0.0035151084164286583 0.051242625008918699 0.10509675305452003 0.076729619838609375 -0.11910411191739388 -0.0078012274636499795 0.088618449902272772 0.16809563257166202 -0.046638938072124742 0.12197478211655431 0.19403590965906692 0.087261086826000131 0.093750438221701926 0.13060215233153089 0.11112091798270676 0.055763631367572057 -0.020660545755586991 0.10184033969934186 0.074099903610554449 0.063712378267577155 -0.075199121170804448 0.069916331947973573 -0.024585060416871394 -0.05578721463532274 0.099519596797221374 -0.076749987652150575 0.22294156635717055 -0.14453592519444669 0.15729431741339908 -0.11615546189555424 0.19148499257903628 -0.14004660216689285 0.16470731375116854 0.14926756773848379 0.15366931135116971 0.1555087633698562 -0.12019236428873653 -0.11257515443102162
leaf_weight=439.10513477027416 10544.166389465332 7.5472411140799514 655.2591545432806 4473.8762727305293 19010.435942754149 1012.1014897525311 35761.201762378216 44.539992302656174 4112.3641707077622 2019.4157366529107 624.20218580961227 80.484183274209499 215.5328381806612 142.00301487743855 1656.3308818340302 3071.0256441682577 3492.7648451328278 1745.5404164344072 127.39634697139263 14.894155412912367 8482.2878983840346 546.3268316090107 1218.2097481191158 100.9602130278945 160.94766557961702 69.010432884097099 134.01552787423134 214.37805473804474 252.92549611628056 19.765227168798447 30.947309017181396 37.269473761320114 2.1161587797105277 2.5223566442728034 32.209178477525711 51.938392400741577 45.903084397315979 56.572382152080536 102.3334124982357 1.9563058689236648 4.2329479828476915
leaf_count=2618 4956 10 2643 17624 68402 2242 96017 338 18509 6443 643 449 674 172 4121 7599 7046 3198 388 55 15047 1580 2781 729 660 261 632 495 1744 23 149 23 19 3 163 24 25 29 49 16 45
internal_value=0 0.0688013 0.0651583 0.0684437 0.0637294 0.0222558 0.0678835 0.0390198 0.0233782 0.0668881 0.0921426 0.0948072 -0.00133828 0.0363442 0.10045 0.0780498 0.11666 0.104167 0.0712448 0.0998383 0.10131 0.0988428 0.0970521 -0.0271087 0.0139772 -0.0153833 -0.00142407 0.150565 -0.0684209 0.118259 -0.0617223 0.156307 0.112019 -0.0438195 -0.127893 0.156504 0.156464 0.156495 0.15651 -0.115282 -0.113768
internal_weight=0 89968 77822.2 69133 60257.6 5485.98 54771.6 8689.19 6786.42 2458.52 12145.8 1902.77 4327.9 1472.12 8875.38 3726.28 5149.1 1826.02 949.742 10673.7 10539.1 688.33 9700.5 522.381 261.908 134.617 261.412 838.58 260.473 34.6594 99.9577 10849 48.0972 10.8278 76.7492 10800.9 10749 10703.1 10646.5 8.30541 6.34911
internal_count=268644 263455 238086 205694 184285 19866 164419 32392 28244 9061 25369 4148 19183 5915 21409 10242 11167 3647 2772 19454 18966 1752 17828 3143 1389 488 1020 1138 1754 78 410 5189 106 83 501 5083 5059 5034 5005 80 64
is_linear=0
shrinkage=0.1


Tree=9
num_leaves=45
num_cat=0
split_feature=125 36 77 54 126 132 108 115 125 59 72 37 127 69 130 116 73 44 5 99 69 111 51 97 31 68 3 61 106 9 52 3 90 46 123 127 29 36 106 32 50 77 136 28
split_gain=7126.96 674.68 659.907 1219.15 763.094 1714.81 1282.73 573.972 470.67 344.662 391.478 669.661 340.848 329.749 296.113 295.622 276.494 274.777 239.501 241.462 212.723 177.478 500.98 153.391 148.788 145.5 133.773 128.853 82.9419 71.0222 8.36421 29.025 16.4512 1.15082 1.11524 0.267488 1.53682 0.250939 0.0161661 0.0111639 0.00465148 0.00250135 0.00183428 8.13903e-06
threshold=-0.32783754169940943 0.93949291110038768 -0.41126604378223414 1.0831075310707095 -2.7816474437713619 1.0000000180025095e-35 -1.044269800186157 -1.4583675265312193 -2.5877642631530757 0.83094307780265819 -0.58684229850769032 0.97422397136688244 -2.0656976699829097 -0.12331827357411383 1.0000000180025095e-35 -1.5330472588539121 -0.74640128016471852 1.1781674623489382 0.56242170929908764 -0.8533533215522765 -0.077414579689502702 -1.2226977944374082 1.1889264583587649 -0.88977479934692372 1.001258969306946 0.10034181550145151 -0.18785622715950009 0.60476392507553112 -0.93305033445358265 0.65561139583587658 0.8282020390033723 0.60005387663841259 -0.13543177396059033 1.2088463902473452 -2.2266904115676875 1.0000000180025095e-35 1.0472743511199953 0.71079644560813915 -0.89961224794387806 0.8222009837627412 1.2401471734046938 -0.48067361116409296 1.0000000180025095e-35 1.2083533406257632
decision_type=2 2 2 2 2 2 2 2 2 2 2 2 2 2 2 2 2 2 2 2 2 2 2 2 2 2 2 2 2 2 2 2 2 2 2 2 2 2 2 2 2 2 2 2
left_child=1 2 3 4 6 -6 -1 33 -9 13 14 12 -12 23 25 17 -13 28 20 -20 -15 26 -23 29 -16 -11 -17 -25 -4 -3 35 32 40 -5 -19 36 -2 38 -37 -40 -32 -42 -38 -44
right_child=30 9 15 7 5 -7 -8 8 -10 10 11 16 -14 18 24 21 -18 34 19 -21 -22 22 -24 27 -26 -27 -28 -29 -30 -31 31 -33 -34 -35 -36 37 42 -39 39 -41 41 -43 43 -45
leaf_value=0.15667545190864909 0.12236106040784617 0.18480376184438332 -0.1416184096719407 -0.14512059191916407 0.059141065796650051 -0.01854318313139942 -0.10663026230382344 0.07125968175713257 -0.020065722714111833 0.14896605458057174 0.0776768217834269 0.12105748788816664 -0.011050442877201057 0.086490756848630557 -0.01762616188504261 0.16733528254904378 0.066787217560695458 -0.14722793654897978 0.13235199056192007 0.044153856484890737 0.13182914416030622 -0.15506831853660541 0.11456119019408824 0.20485239257234183 0.14052679072629226 -0.14267935789998967 0.11027676626461924 -0.076574814612018885 0.17528166687707256 -0.08177178271956409 -0.11759974111573182 0.14802743795390963 0.18226944784904511 -0.12342803991353912 -0.12439218055700377 0.15031616515186608 0.1489943575818386 0.15544575620055034 0.14831756201244306 0.14943807038897983 -0.11537987311205902 -0.1107123121057523 0.14820389014383495 0.14826352905269286
leaf_weight=1479.75746306777 26.733624741435051 47.708051323890686 9.62419645488262 26.348858907818794 65146.405279614031 2971.100373364985 211.45662896335125 822.10352765023708 1799.7860893160105 1002.8210462927818 589.61349442601204 1126.7574064731598 1629.5633946061134 1682.5834275335073 202.11558991670609 558.77689099311829 5627.0427584126592 31.734440818428993 429.51756196469069 1119.3230934813619 2688.2580953165889 89.936099573969841 294.76313903927803 17.805640771985054 84.295333728194237 17.40306843072176 1552.5315383821726 188.52692839503288 58.224919959902763 12.642882406711577 2.9594387821853143 35.774188742041588 2.4604145437479019 340.45178161561489 65.58622470498085 41.048335075378418 48.823213338851929 49.884832859039307 9935.3332109451294 89.720491170883179 1.9000269398093204 2.9013573974370974 40.477699995040894 52.643908977508545
leaf_count=2563 20 64 49 129 190462 15093 923 2635 8272 1436 1672 2159 5354 3293 682 442 13767 149 788 2685 3960 395 401 22 147 89 2243 746 46 53 27 24 2 2298 438 20 24 24 4905 44 18 35 20 26
internal_value=0 0.0605124 0.0565104 0.0547224 0.0574001 0.0557527 0.123754 -0.00782156 0.00856971 0.0788522 0.0676286 0.0601817 0.0125235 0.0975019 0.118768 0.105422 0.0758413 -0.0241437 0.102402 0.0686126 0.114376 0.113995 0.0515264 -0.0112721 0.0289208 0.143991 0.125378 -0.0522888 0.13033 0.128959 0.148115 0.105566 -0.0430488 -0.124986 -0.131838 0.148305 0.144356 0.148371 0.148336 0.148328 -0.114481 -0.112559 0.148498 0.148238
internal_weight=0 91924.6 75458.6 72797.4 69808.7 68117.5 1691.21 2988.69 2621.89 16466 10279.6 8972.98 2219.18 6186.37 1306.64 2661.18 6753.8 165.17 5919.68 1548.84 4370.84 2496.01 384.699 266.684 286.411 1020.22 2111.31 206.333 67.8491 60.3509 10330.7 45.9954 10.2212 366.801 97.3207 10284.7 168.678 10116 10066.1 10025.1 7.76082 4.80138 141.945 93.1216
internal_count=268644 263455 226538 222375 209041 205555 3486 13334 10907 36917 25306 22952 7026 11611 2354 4163 15926 682 10726 3473 7253 3481 796 885 829 1525 2685 768 95 117 5189 106 82 2427 587 5083 90 4993 4969 4949 80 53 70 46
is_linear=0
shrinkage=0.1


Tree=10
num_leaves=45
num_cat=0
split_feature=125 128 29 73 30 30 54 93 105 0 88 52 75 56 48 2 104 77 69 53 29 113 97 83 135 76 31 100 52 96 91 73 127 29 131 36 74 74 107 32 50 77 136 28
split_gain=6843.94 591.197 548.411 701.461 1038.86 730.55 1292 651.374 615.092 449.238 445.332 213.373 301.709 193.546 185.678 182.603 167.95 143.577 127.04 96.6875 85.9771 85.9339 72.7208 70.2563 66.7691 66.4018 36.6185 9.48856 7.4791 25.4576 15.6665 0.821719 0.27535 1.53894 0.173668 0.16793 0.0699334 0.0222448 0.0104115 0.00721916 0.00419949 0.00212267 0.0011777 5.17383e-06
threshold=-0.32783754169940943 1.0000000180025095e-35 1.2417196631431582 -0.84662801027297963 1.0838202834129336 1.0669999718666079 0.97653397917747509 -1.1314167976379392 -0.93438336253166188 0.51755630970001232 -1.2478879094123838 1.0885887742042544 -1.0927724838256834 0.9710596799850465 1.1443449258804324 0.57416385412216198 -0.78127619624137867 -1.2653679847717283 -0.060193929821252816 1.0400342941284182 1.2169579267501833 -0.93195089697837818 -1.0356475114822385 -1.4388082623481748 1.0000000180025095e-35 -1.1975317001342771 0.99944406747818004 -0.93104511499404896 0.8282020390033723 -0.69741603732109059 -0.19957671314477918 -0.92114719748496998 1.0000000180025095e-35 1.0472743511199953 1.0000000180025095e-35 0.71079644560813915 -1.0630638003349302 -1.0274160504341123 -0.85462009906768788 0.8222009837627412 1.2401471734046938 -0.49478130042552942 1.0000000180025095e-35 1.2083533406257632
decision_type=2 2 2 2 2 2 2 2 2 2 2 2 2 2 2 2 2 2 2 2 2 2 2 2 2 2 2 2 2 2 2 2 2 2 2 2 2 2 2 2 2 2 2 2
left_child=1 2 3 4 7 6 -5 -1 -7 -6 11 16 18 20 25 31 19 -16 -13 -3 23 -14 36 -12 -24 -15 -18 -22 32 -30 40 37 33 -2 -33 38 -17 -4 -34 -40 -31 -42 -35 -44
right_child=28 10 15 5 9 8 -8 -9 -10 -11 13 12 21 14 17 22 26 -19 -20 -21 27 -23 24 -25 -26 -27 -28 -29 29 30 -32 34 35 42 -36 -37 -38 -39 39 -41 41 -43 43 -45
leaf_value=0.070795882887629377 0.11506942105350211 -0.010225113681185758 -0.11686294320669983 -0.021712555997015007 -0.012868286817926523 0.023668996050957417 0.052588951723534963 -0.0016238762332082192 0.087153205794057442 0.068333603424112779 -0.12196985333707062 0.11764649541706783 0.063957203220869493 0.087296789316105627 0.13006055027511204 -0.14821276472754449 -0.093724363158567636 0.063302651182215619 0.041172045748992137 0.046721765803804806 -0.18255133925188671 -0.025446261761168262 0.073427400487432057 0.096871498579210985 0.13043401359930792 -0.079777696138263021 0.0053402992279957921 -0.020409364515802459 0.14093556970673404 -0.11649334552103881 0.1857582435323753 -0.14738405074837416 0.14330562661127083 0.14221533991835372 -0.16788712860257327 0.14763941986709991 -0.16535461513082661 -0.12605856771553786 0.14165731462050898 0.14258371167322589 -0.11439229565541149 -0.10994989956688313 0.14156407701568266 0.14161298949626697
leaf_weight=1467.0432458370924 25.641815394163132 450.52440182864666 6.0148321762681025 2457.4981897175312 761.7855422347784 1815.6594786047935 49064.007987983525 8095.8818972855806 9572.8222284168005 6449.1926707550883 14.706639759242533 783.70631916821003 156.51506887376308 30.018880695104599 362.19904358685017 4.52715764939785 155.20141145586967 2914.8180319070816 300.52213536202908 881.51279336959124 11.380344301462175 343.38846287876368 252.74486581981182 5868.7887173742056 1098.1815326213837 114.60666465759277 49.123466737568378 5.2854180783033362 34.004789881408215 2.7682375721633417 2.2919445037841797 9.4418308883905429 38.868245959281921 46.171669721603394 7.345107674598693 47.397802352905273 5.0179025679826719 4.6755948215723038 9390.2197203636169 84.878956079483032 1.6941514350473861 2.9458998963236827 38.252941370010376 49.753143548965454
leaf_count=5240 20 2042 49 11049 2662 5963 138824 32941 23273 16045 116 1129 350 48 483 21 1004 5749 941 2700 47 1266 552 8921 1341 376 184 13 23 27 1 45 20 24 31 24 21 29 4905 44 17 38 20 26
internal_value=0 0.0534669 0.050352 0.0492666 0.0310964 0.0541113 0.0490449 0.009486 0.077032 0.0597552 0.073763 0.0410644 0.0668162 0.084709 0.0657874 0.11267 0.0145118 0.0706812 0.0964496 0.0274611 0.095682 0.00254512 0.117825 0.0963245 0.119769 -0.0450993 -0.0699074 -0.131129 0.141448 0.100173 -0.042724 -0.142555 0.141633 0.137517 -0.156355 0.141702 -0.157224 -0.120885 0.141672 0.141666 -0.113411 -0.111572 0.141806 0.141592
internal_weight=0 93514.1 81071.8 79683.9 16773.9 62910 51521.5 9562.93 11388.5 7210.98 12442.3 3120.49 1584.13 9321.8 3421.64 1387.95 1536.36 3277.02 1084.23 1332.04 5900.16 499.904 1360.47 5883.5 1350.93 144.626 204.325 16.6658 9764.89 43.705 9.70023 27.4774 9721.18 159.82 16.7869 9561.36 9.54506 10.6904 9513.97 9475.1 7.40829 4.64005 134.178 88.0061
internal_count=268644 263455 238086 235997 56888 179109 149873 38181 29236 18707 25369 9616 3686 15753 6656 2089 5930 6232 2070 4742 9097 1616 1935 9037 1893 424 1188 60 5189 106 83 154 5083 90 76 4993 42 78 4969 4949 82 55 70 46
is_linear=0
shrinkage=0.1


Tree=11
num_leaves=35
num_cat=0
split_feature=125 111 128 80 114 74 34 87 124 71 41 57 39 50 22 111 88 112 75 76 34 55 52 78 91 32 32 74 72 36 33 127 17 77
split_gain=6553.2 543.317 549.099 539.125 771.713 1091.92 749.735 251.492 219.262 209.009 186.35 170.288 167.037 162.731 158.071 139.662 108.441 116.766 138.537 95.6906 52.978 42.83 6.70849 22.5664 13.591 2.68705 13.2398 1.32727 0.305278 0.116195 0.187013 0.0104925 0.0032105 0.00327335
threshold=-0.32783754169940943 -0.84508419036865223 1.0000000180025095e-35 -0.31610354781150812 -1.1093530654907224 -0.89507943391799916 0.82283696532249462 -1.2707764506340025 -2.4496761560440059 -0.35104797780513758 1.0918454527854922 0.93638813495635997 1.0424724817276003 1.1204397082328799 1.4123432040214541 -1.2226977944374082 -1.3200479745864866 -0.83199012279510487 -1.1558418869972227 -0.85684430599212635 0.95043876767158519 1.0036375522613528 0.8282020390033723 -0.85206499695777882 -0.19957671314477918 0.95838463306427013 0.95890030264854442 -1.0289219617843626 -0.55668723583221424 0.71079644560813915 0.7703070640563966 1.0000000180025095e-35 1.0482962727546694 -0.49478130042552942
decision_type=2 2 2 2 2 2 2 2 2 2 2 2 2 2 2 2 2 2 2 2 2 2 2 2 2 2 2 2 2 2 2 2 2 2
left_child=1 2 3 4 6 -6 -1 9 15 13 -10 19 -13 -4 16 -5 17 18 -3 -9 -11 -19 28 -24 32 27 -27 -18 29 30 31 -2 -25 -34
right_child=22 14 7 8 5 -7 -8 11 10 20 -12 12 -14 -15 -16 -17 25 21 -20 -21 -22 -23 23 24 -26 26 -28 -29 -30 -31 -32 -33 33 -35
leaf_value=0.078981625180891926 0.13700341198091653 0.032970969134017689 0.030660644497394137 0.112914759005909 0.043096082011554751 0.0787621439824856 0.016203868264864509 0.086260441970319068 0.1742932921969792 -0.10589626900990823 -0.13451346078321572 0.031000294351542619 0.090510473704133051 0.072643443020997123 0.21097188389733346 0.044390990130244293 -0.12345605649555469 -0.1140367241958552 -0.076242397400846609 -0.16070605889404654 0.070403729319645988 -0.010219440687619482 0.13518617941443223 -0.11602390441991087 0.17122000676191734 0.046524880394915508 -0.13778034836514588 -0.14750129430578821 0.1273133347371351 0.1412424505172736 0.13068571163019801 0.13615687423255859 -0.11423108236210833 -0.1090625696103019
leaf_weight=2195.2561944574118 148.88181054592133 391.20828005671501 1902.3265690803528 1727.0377333760262 52748.590761497617 10252.187300316989 14259.062275350094 6353.4755556210876 26.772401630878448 109.0377441495657 72.350842535495758 1306.647146910429 738.08843557536602 1793.9298561885953 26.495825126767159 359.31997282803059 46.456405252218246 154.30580691248178 165.19418755918741 15.727761931717394 20.202861785888672 53.521693229675293 32.112708047032356 1.6696712151169757 2.2403581142425537 5.0117912590503719 17.53357070684433 45.381160855293274 39.191483557224274 44.727370142936707 62.589864552021027 8838.2449712753296 1.953250333666799 3.2881290577352069
leaf_count=7275 82 1649 5589 2000 148705 22061 54092 9632 23 547 429 2873 1301 3581 24 723 320 1092 811 81 53 271 23 16 1 18 92 213 25 24 38 4914 20 46
internal_value=0 0.047429 0.0481724 0.0452112 0.0438635 0.0489001 0.0245794 0.0679244 0.0942093 0.0466657 -0.0511072 0.07759 0.0524817 0.0510364 -0.0296778 0.101113 -0.0369349 -0.0233435 0.000545855 0.0856506 -0.0783371 -0.0873007 0.135938 0.0957087 -0.0428198 -0.127744 -0.0968096 -0.135338 0.13612 0.136158 0.136133 0.136171 -0.112205 -0.110989
internal_weight=0 94785.1 93880 81640.6 79455.1 63000.8 16454.3 12239.4 2185.48 3825.5 99.1232 8413.94 2044.74 3696.26 905.109 2086.36 878.613 764.23 556.402 6369.2 129.241 207.828 9174.9 41.2641 9.15141 114.383 22.5454 91.8376 9133.64 9094.44 9049.72 8987.13 6.91105 5.24138
internal_count=268644 263455 258965 235308 232133 170766 61367 23657 3175 9770 452 13887 4174 9170 4490 2723 4466 3823 2460 9713 600 1363 5189 106 83 643 110 533 5083 5058 5034 4996 82 66
is_linear=0
shrinkage=0.1


Tree=12
num_leaves=44
num_cat=0
split_feature=125 74 96 105 30 53 74 5 29 0 134 74 96 31 14 103 75 92 113 128 37 75 33 43 52 3 91 30 72 127 28 58 74 89 82 33 82 94 72 119 34 29 29
split_gain=6255.08 491.782 583.762 512.591 1044.39 662.818 450.946 421.895 643.652 543.502 260.083 226.656 360.496 328.027 207.154 200.514 159.568 218.415 158.428 148.644 104.231 89.2068 45.7539 35.3182 6.0502 19.7013 11.9023 5.86473 16.1754 0.335129 1.77471 0.0899082 0.0506452 0.0143222 0.0121624 0.00809982 0.007987 0.0060472 0.00519991 0.00314801 0.00234473 0.000572145 5.76561e-05
threshold=-0.32783754169940943 -1.0209142565727232 -1.0101016163825987 -0.86012998223304737 1.0700293183326723 0.98783797025680553 -1.0071393847465513 0.64780712127685558 1.1262844204902651 0.48002865910530096 1.0000000180025095e-35 -1.0630638003349302 -1.0279346108436582 1.0053914189338686 1.3809390664100649 -0.83771702647209156 -1.0865463614463804 -1.1688585281372068 -0.96099936962127674 1.0000000180025095e-35 0.93570816516876232 -1.1371074914932249 0.93160536885261547 1.0551581978797915 0.8282020390033723 0.60005387663841259 -0.19957671314477918 1.0843003988265993 -0.76035895943641651 1.0000000180025095e-35 1.1215570569038393 0.65097117424011242 -1.0274160504341123 -1.1875799894332884 -1.3427042961120603 0.7703070640563966 -1.3427042961120603 -0.83887815475463856 -0.55808660387992848 1.5689598321914675 0.74033004045486461 1.0963702201843264 1.1244485378265383
decision_type=2 2 2 2 2 2 2 2 2 2 2 2 2 2 2 2 2 2 2 2 2 2 2 2 2 2 2 2 2 2 2 2 2 2 2 2 2 2 2 2 2 2 2
left_child=1 10 15 4 5 -4 -6 9 -9 -5 11 14 13 -13 23 16 17 -3 -18 -14 21 -17 -22 -1 29 26 37 32 33 30 -2 35 34 -29 -12 38 -34 -26 -31 -39 -37 -32 -43
right_child=24 2 3 7 6 -7 -8 8 -10 -11 27 12 19 -15 -16 20 18 -19 -20 -21 22 -23 -24 -25 25 -27 -28 28 -30 31 41 -33 36 -35 -36 40 -38 39 -40 -41 -42 42 -44
leaf_value=-0.078627182832021247 0.10130598255292916 0.14808470084404637 -0.036975374666126964 0.048312542043673926 -0.010940459092159781 0.022057805038501618 0.055016326787789407 -0.087164120034400605 0.042861064762914076 0.13218396144193914 -0.1224463343216439 0.077686113704855134 -0.010834457169032696 -0.0072853402163572667 0.17905731729777025 -0.14947000813606032 0.020112389572917569 0.063164530367408475 0.13369588009983815 0.062009388173327511 0.22064952279418512 0.098055327704951942 -0.056222371493168548 0.16328034158552984 -0.11706315504664588 0.12968328140293969 0.160012563347564 -0.1212532604261783 0.13820803325091122 0.13154996514143763 0.13198343469302207 0.1361951930479762 -0.12782343162973286 -0.12997838715452389 -0.11883697176336148 0.13207509839396858 -0.1228847313055498 -0.10809414386903037 0.13275481496876052 -0.11353230408487403 0.13316153274991568 0.13142581894666694 0.1315936570493573
leaf_weight=380.23827365785837 23.068842604756355 340.23049665987492 2214.985573284328 52438.683823205531 1116.7001955285668 13458.484260171652 14448.781008556485 574.63017170131207 1128.1481871753931 784.18711823225021 10.442979529500006 1549.9021072909236 2325.8890566080809 642.72149953991175 35.065849512815475 72.512393765151501 142.56573820114136 2758.4598230421543 885.77599932253361 318.49076617509127 17.404817268252376 18.217922918498516 9.0835690647363645 6.1326599270105353 1.5933588370680789 30.274735368788242 2.1615159511566162 4.3129852265119553 3.3583330214023572 8239.9489489793777 33.843008875846863 42.146992683410645 3.5576807260513297 3.3369104564189911 88.065502390265465 44.07312798500061 41.154613584280014 3.1313351355493069 35.976736664772034 1.6126818209886549 36.165718197822571 48.656642436981201 35.328413009643555
leaf_count=2377 20 418 10102 128669 3869 46906 36415 2479 3619 1423 70 4465 9706 2723 34 346 364 6136 1063 1143 23 41 35 15 15 24 1 30 10 4901 20 24 21 20 661 26 272 49 21 17 21 29 21
internal_value=0 0.0421944 0.0439473 0.0421639 0.0319366 0.0137152 0.0502844 0.0479807 -0.00101804 0.0495483 0.0129155 0.0166696 0.0227978 0.0527785 -0.0536662 0.080153 0.0838161 0.0724886 0.117949 -0.0020611 -0.0488181 -0.0997689 0.125703 -0.0747875 0.131328 0.0919156 -0.0426202 -0.11508 -0.044743 0.131507 0.12667 0.131588 -0.120487 -0.125059 -0.11922 0.131565 -0.123278 -0.111733 0.131555 -0.109943 0.132565 0.131636 0.131496
internal_weight=0 95821.5 90408.9 86164.6 31239 15673.5 15565.5 54925.6 1702.78 53222.9 5412.67 5258.44 4837 2192.62 421.437 4244.25 4127.03 3098.69 1028.34 2644.38 117.219 90.7303 26.4884 386.371 8577.98 38.7736 8.49889 154.229 11.0082 8539.21 140.897 8398.31 143.221 7.6499 98.5085 8356.16 44.7123 6.33738 8275.93 4.74402 80.2388 117.828 83.9851
internal_count=268644 263455 241908 233482 97292 57008 40284 136190 6098 130092 21547 20463 18037 7188 2426 8426 7981 6554 1427 10849 445 387 58 2392 5189 106 82 1084 60 5083 90 4993 1024 50 731 4969 293 81 4922 66 47 70 50
is_linear=0
shrinkage=0.1


Tree=13
num_leaves=39
num_cat=0
split_feature=125 0 45 75 132 106 107 110 116 106 107 50 130 127 54 38 26 51 117 95 104 112 34 120 39 40 57 52 96 91 113 84 72 33 59 33 76 85
split_gain=5951.97 452.216 505.949 623.414 1273.59 1425.34 738.802 714.004 490.531 420.364 199.181 169.035 161.739 157.405 147.891 133.666 120.143 103.097 97.543 90.1622 83.5563 62.3941 36.6792 26.3104 55.7295 10.6189 6.85743 5.51385 17.6261 10.4823 4.09573 1.73076 0.367 0.100389 0.0297319 0.018652 0.00372697 0.00250034
threshold=-0.32783754169940943 -0.39126515388488764 1.2101367712020876 -0.52721264958381642 1.0000000180025095e-35 -0.99460124969482411 -0.99151471257209767 -1.1682968735694883 -1.4813013076782224 -0.88427248597145069 -0.91304093599319447 1.2019906640052798 1.0000000180025095e-35 -3.3077551126480098 1.1124064326286318 0.97243472933769237 1.1568855643272402 1.1796970963478091 -1.4772709608078001 -0.43403233587741846 -0.71115726232528675 -1.2526643276214597 0.818077713251114 -1.7202733755111692 1.0249819755554201 1.0464750528335574 0.9864318072795869 0.8282020390033723 -0.69741603732109059 -0.19957671314477918 -1.320224344730377 -0.18732745200395581 -0.55668723583221424 0.77579969167709362 0.61059018969535839 0.7703070640563966 -0.41259464621543879 -0.73566859960556019
decision_type=2 2 2 2 2 2 2 2 2 2 2 2 2 2 2 2 2 2 2 2 2 2 2 2 2 2 2 2 2 2 2 2 2 2 2 2 2 2
left_child=1 10 3 4 6 -6 -3 8 -5 18 17 -9 13 -11 26 21 -14 22 20 -20 -4 -16 25 24 -19 -1 -12 32 -29 36 -28 -17 33 34 35 -2 -30 -38
right_child=27 2 9 7 5 -7 -8 11 -10 12 14 -13 16 -15 15 31 -18 23 19 -21 -22 -23 -24 -25 -26 -27 30 28 29 -31 -32 -33 -34 -35 -36 -37 37 -39
leaf_value=-0.057384065179566492 0.12767466743256767 -0.0072784872931206989 -0.10965136128556729 0.065683626796794986 0.22208102637389843 -0.039373018799885778 0.040529547268774654 -0.13209046868925686 0.14840016756777386 0.038612957224558077 -0.068134485403948994 0.052019114156246694 0.22512490926715026 -0.04719226580805036 0.11343262109424285 -0.14669954329416632 -0.0060344002232668335 0.15669292315012318 -0.028976514340627188 0.31423113699327088 0.17175455338757684 -0.065817944422405947 0.078893664320189905 0.24493734305601089 0.037828793591751161 -0.23374793510647818 -0.21639935503215899 0.12549033536433252 -0.11502385126684521 0.15113868943402675 -0.13973893168742779 -0.21876038512373175 0.11729666855955473 0.12219700219859322 0.13070038988084118 0.12568174233928883 -0.10747452530863899 -0.11246166549515246
leaf_weight=5.8029704988002804 7802.8678367137909 3362.3727766573429 475.7959518879652 2419.3493405357003 222.64265458285809 3285.0495422035456 83627.742203660309 187.44241653382778 1018.8621179461479 613.50989070534706 7.1810778677463523 67.944673269987106 63.634257629513741 328.14005104452372 162.6502400636673 4.5277254134416607 34.769112914800644 484.47359183430672 135.21188919246197 8.1137076169252378 10.790769591927527 22.051554560661316 11.608975753188131 28.94478651881218 42.940286755561829 8.2927614450454694 13.812748268246651 28.35446684807539 1.45359432324767 2.0645372867584229 14.066733434796333 12.631543040275572 34.373939514160156 33.594570130109787 32.352985262870789 47.246076077222824 2.9191227592527853 1.5333713032305252
leaf_count=16 4984 13519 2933 4788 149 17216 217791 773 1425 1364 23 177 130 1520 176 22 137 288 581 8 14 70 15 24 85 34 56 23 15 1 70 51 25 23 20 31 50 17
internal_value=0 0.0376079 0.0369757 0.0379431 0.0362995 -0.0227778 0.0386817 0.0782126 0.0901954 -0.0175854 0.1116 -0.0831089 0.0214601 0.00871211 0.0343022 0.0672292 0.143449 0.143064 -0.0820538 -0.00954742 -0.103411 0.0920319 -0.0527351 0.15211 0.147015 -0.161142 -0.155275 0.12743 0.0885577 -0.0428252 -0.17772 -0.199746 0.127607 0.127652 0.127675 0.127663 -0.110627 -0.109192
internal_weight=0 96680.4 95861.4 94191.4 90497.8 3507.69 86990.1 3693.6 3438.21 1669.97 818.985 255.387 1040.05 941.65 236.922 201.861 98.4034 582.063 629.912 143.326 486.587 184.702 25.7047 556.359 527.414 14.0957 35.0606 7986.76 36.3251 7.97063 27.8795 17.1593 7950.44 7916.06 7882.47 7850.11 5.90609 4.45249
internal_count=268644 263455 262525 255838 248675 17365 231310 7163 6213 6687 930 950 3151 2884 468 319 267 462 3536 589 2947 246 65 397 373 50 149 5189 106 83 126 73 5083 5058 5035 5015 82 67
is_linear=0
shrinkage=0.1


Tree=14
num_leaves=45
num_cat=0
split_feature=125 111 128 29 73 0 91 87 76 113 71 28 2 124 30 136 114 112 77 126 30 75 96 32 102 93 53 50 91 74 127 16 72 128 3 128 58 95 33 72 34 115 30 23
split_gain=5641.58 417.465 452.446 441.127 521.161 515.364 462.068 228.069 225.9 205.502 147.191 172.004 144.935 117.294 196.93 116.007 90.2696 86.1888 84.0698 87.387 68.9677 59.7053 45.9803 19.2835 24.8498 69.7984 5.77124 15.6095 9.36854 0.795104 0.404216 2.17097 0.287413 0.183484 0.132472 0.087923 0.0519188 0.00544875 0.00489356 0.00380905 0.00133213 0.00128995 0.00116469 3.00063e-05
threshold=-0.32783754169940943 -0.84508419036865223 1.0000000180025095e-35 1.2417196631431582 -0.91405138373374928 0.61536079645156871 -1.2177133560180662 -1.2798862457275388 -1.2011042833328245 -0.9259112775325774 -0.33397442102432245 1.0923313498497011 0.57416385412216198 -1.2563678026199339 1.0437507629394533 1.0000000180025095e-35 -0.93391847610473622 -0.96477696299552906 -1.3837079405784605 -1.391043424606323 1.042180120944977 -1.0899500846862791 -1.0344883799552915 0.95838463306427013 -0.78485700488090504 -1.1038030982017515 0.80552658438682567 0.94810083508491527 -0.19957671314477918 -1.0080733895301817 1.0000000180025095e-35 1.3058587312698366 -0.59590062499046315 1.0000000180025095e-35 0.53112226724624645 1.0000000180025095e-35 0.65097117424011242 -0.71306803822517384 0.7703070640563966 -0.55808660387992848 0.74033004045486461 -1.3561642765998838 0.98977914452552807 1.4173836112022402
decision_type=2 2 2 2 2 2 2 2 2 2 2 2 2 2 2 2 2 2 2 2 2 2 2 2 2 2 2 2 2 2 2 2 2 2 2 2 2 2 2 2 2 2 2 2
left_child=1 2 3 4 5 -1 -6 8 9 -4 11 -9 29 23 18 22 -10 -12 20 -20 -15 -14 -16 32 25 -25 30 -28 37 -5 31 -2 34 -26 -3 -34 38 -29 39 -32 -40 -39 -33 -44
right_child=26 13 7 12 6 -7 -8 10 16 -11 17 -13 21 14 15 -17 -18 -19 19 -21 -22 -23 -24 24 33 -27 27 28 -30 -31 36 42 35 -35 -36 -37 -38 41 40 -41 -42 -43 43 -45
leaf_value=-0.052762491573289654 0.088698885858070065 -0.1507604515919754 0.13076615143694878 -0.12054659972130007 0.13078540498735011 0.027276340176925387 0.031684772395441672 0.1224305280802595 0.0018030952523463669 0.03489649035289677 0.029264281264397327 0.059507868655343389 -0.050670036762249029 -0.11240625819688498 -0.026628479301794225 0.16112107208600898 -0.078590263363492785 -0.074007432189424169 0.036781099154454655 0.17456944939076094 0.19762971579867 0.09517027960760692 -0.09491120222920213 -0.14157385481357551 -0.1366865893720953 0.10753812386379986 0.12246588294899025 -0.1158289626668122 0.14396538748464524 -0.15558940957258757 0.12434602820406802 0.1250499792685941 -0.13882000693630903 -0.12358973121747806 -0.14119000444871319 -0.12476446930541568 0.12847200603509037 -0.10616202335128209 0.12479643329506172 0.12545160725772087 0.12567560747969717 -0.10986621164169684 0.12425202268315703 0.12438327999574655
leaf_weight=1456.6678402423859 20.28288958966732 39.818788021802902 252.01622599363327 10.736854247748854 473.31187813729048 1796.7915890663862 79001.275357797742 458.33689317852259 712.72709207981825 1982.3469687923789 302.94564573466778 8330.0493300408125 28.675635695457458 46.662080176174641 154.89409206062555 22.861702382564545 173.71043417602777 110.21558250486851 179.45316889882088 61.906331464648247 8.4787289053201658 1331.2372415140271 271.42515540122986 23.957961618900299 23.566788300871849 21.200426392257214 22.051608499139551 1.3900465779006497 1.9562265872955285 16.311140507459641 7126.7363146543503 29.488929152488708 10.876031026244165 19.588182337582111 22.712756469845772 7.532998599112033 30.821154594421387 1.4271640963852426 38.159272909164429 31.299729228019714 31.429284453392029 2.7548540979623781 43.459108233451843 29.064594864845276
leaf_count=7046 20 182 264 80 855 5332 219986 566 1906 5416 667 13768 92 295 916 18 680 390 636 105 34 1843 1622 131 122 53 21 13 1 74 4908 20 55 150 118 53 20 28 26 21 21 40 30 20
internal_value=0 0.0335905 0.0342284 0.0316067 0.0306691 -0.00855936 0.032275 0.0521242 0.0287636 0.0457097 0.0600471 0.0627894 0.0875361 -0.0336397 -0.0165814 -0.0583337 -0.0139512 0.00171535 0.046671 0.0721225 -0.0647336 0.092095 -0.0701021 -0.108793 -0.0764791 -0.0246237 0.124104 0.0800211 -0.0443068 -0.141679 0.12428 0.118579 -0.144051 -0.130742 -0.147284 -0.133068 0.124376 -0.110405 0.124359 0.124351 0.125194 -0.108602 0.12452 0.124305
internal_weight=0 97352.3 96437.4 84115 82728 3253.46 79474.6 12322.3 3120.8 2234.36 9201.55 8788.39 1386.96 914.935 745.681 449.181 886.438 413.161 296.5 241.36 55.1408 1359.91 426.319 169.254 88.3134 45.1584 7410.32 29.5799 7.52829 27.048 7380.74 122.296 80.9406 43.155 62.5315 18.409 7258.45 5.57206 7227.62 7158.04 69.5886 4.18202 102.013 72.5237
internal_count=268644 263455 258965 235308 233219 12378 220841 23657 8266 5680 15391 14334 2089 4490 3626 2556 2586 1057 1070 741 329 1935 2538 864 456 184 5189 103 82 154 5086 90 408 272 300 108 4996 81 4976 4929 47 68 70 50
is_linear=0
shrinkage=0.1


Tree=15
num_leaves=40
num_cat=0
split_feature=125 0 35 31 30 131 128 133 69 69 126 4 108 107 129 54 33 38 113 51 34 34 36 16 70 32 106 111 53 88 91 113 82 72 33 33 67 76 50
split_gain=5329.07 393.865 431.529 606.407 742.438 631.821 537.89 387.028 364.67 360.045 325.944 414.736 179.338 169.248 144.901 140.702 114.935 114.924 87.8276 73.346 55.11 26.2285 25.259 53.7771 17.5816 15.7581 7.30445 5.88349 5.28106 14.2732 8.31613 2.62406 0.919585 0.44121 0.160653 0.0222156 0.012932 0.00166867 0.00191818
threshold=-0.32783754169940943 -0.39126515388488764 0.91963145136833202 1.0037608146667483 1.0938884019851687 1.0000000180025095e-35 1.0000000180025095e-35 1.0000000180025095e-35 -0.1745362654328346 -0.099288642406463609 -1.5315203666687009 0.55454322695732128 -0.80898979306220997 -0.91408157348632801 1.0000000180025095e-35 1.1124064326286318 0.94273492693901073 0.97243472933769237 -1.1516668200492857 1.1796970963478091 0.79106694459915172 0.818077713251114 0.8976619839668275 0.54045125842094432 -0.20964075624942777 0.80632829666137706 -0.82417693734168995 -1.2288199663162229 0.80552658438682567 -1.0534406900405882 -0.19957671314477918 -1.320224344730377 -0.2293567284941673 -0.55668723583221424 0.77579969167709362 0.7703070640563966 0.18608679622411731 -0.41259464621543879 1.1204397082328799
decision_type=2 2 2 2 2 2 2 2 2 2 2 2 2 2 2 2 2 2 2 2 2 2 2 2 2 2 2 2 2 2 2 2 2 2 2 2 2 2 2
left_child=1 13 3 4 6 9 -3 10 -7 -5 11 -4 -12 19 -6 27 24 20 -18 21 -17 26 25 -24 -9 -21 -1 -15 33 -30 37 -29 -19 34 35 36 -2 -31 -39
right_child=28 2 7 5 14 8 -8 16 -10 -11 12 -13 -14 15 -16 17 18 32 -20 22 -22 -23 23 -25 -26 -27 -28 31 29 30 -32 -33 -34 -35 -36 -37 -38 38 -40
leaf_value=-0.21748981561120023 0.12151260276618384 0.014573282601667624 0.04417339060601335 0.052919512615587298 0.0632624995631592 -0.025976676850632725 0.053434395017568373 -0.14589970120382348 0.041792538298243906 -0.051670816451652994 0.12876937436762401 -0.016495867422178075 0.0014758276962360227 -0.05063180140253673 -0.084938095354625029 -0.090817736257518614 -0.14333860260733697 -0.14837193195311052 0.071591941528823422 0.13952541923868678 0.10119346719926517 0.069350425059588591 -0.11294866038903278 0.15006589169185702 -0.086395325917243013 0.21150794259809322 -0.064712168791262362 -0.19351383570141589 0.11990731454743281 -0.11182409125669811 0.13807040062761322 -0.1359121544129557 -0.1990573376076383 0.10927620866801882 0.11407139450378397 0.11917508900601526 0.12367289874670058 -0.11114335956664803 -0.10630773063870556
leaf_weight=6.2053270936012268 6700.0569378137589 48405.563957720995 20288.068132013083 14462.859537445009 4177.3648700639606 1923.2154732942581 3844.6420304812491 97.24746410548687 1352.3727049976587 336.79904869198799 641.45934227854013 1193.0256311222911 133.75565451383591 5.2195493727922431 67.032305017113686 16.33015750348568 25.613591596484184 5.0618648231029537 73.769546210765839 461.39185836911201 176.58402393758297 11.373396083712576 12.195030614733694 21.442975714802742 101.46112701296806 32.558434352278709 6.3134007751941699 16.10276834666729 20.468508705496792 1.4416191615164304 1.8416655063629113 15.541800647974016 12.223328307271002 29.776329576969147 29.179026961326599 40.592803820967674 27.82535183429718 1.1968220658600333 2.6076118461787701
leaf_count=25 4987 155029 42419 31498 7432 7421 8020 461 3355 1006 1062 3260 537 13 269 55 122 25 180 305 198 15 42 22 454 17 18 65 18 17 1 81 49 25 23 31 20 15 52
internal_value=0 0.0300418 0.0294667 0.0258009 0.0207 0.0417436 0.0174327 0.0415868 0.0020028 0.0505393 0.0431029 0.0408039 0.106806 0.0999851 0.0609219 0.0312033 -0.071603 0.0628066 0.0161988 0.130799 0.0849397 -0.040574 0.13856 0.0547133 -0.115517 0.14427 -0.140442 -0.148999 0.121246 0.0775566 -0.0447473 -0.165224 -0.184214 0.121422 0.121476 0.121507 0.121522 -0.108927 -0.107829
internal_weight=0 97922.8 97124.3 74569.8 56494.6 18075.2 52250.2 22554.4 3275.59 14799.7 22256.3 21481.1 775.215 798.544 4244.4 247.063 298.092 210.199 99.3831 551.48 192.914 23.8921 527.588 33.638 198.709 493.95 12.5187 36.8641 6854.99 27.5562 7.08772 31.6446 17.2852 6827.43 6797.65 6768.48 6727.88 5.24605 3.80443
internal_count=268644 263455 262525 214030 170750 43280 163049 48495 10776 32504 47278 45679 1599 930 7701 486 1217 327 302 444 253 58 386 64 915 322 43 159 5189 103 85 146 74 5086 5061 5038 5007 84 67
is_linear=0
shrinkage=0.1


Tree=16
num_leaves=46
num_cat=0
split_feature=125 74 132 107 123 117 106 133 32 40 108 51 76 134 53 32 114 10 44 108 108 106 70 36 116 63 107 116 117 68 73 28 53 88 91 127 16 58 33 72 76 50 34 28 29
split_gain=5013.82 378.957 772.44 1033.64 704.545 854.892 604.872 675.757 750.92 475.066 725.592 702.147 422.412 1196.75 775.571 328.129 289.303 273.952 342.317 252.336 179.072 156.625 138.909 138.705 133.472 116.077 108.575 69.9143 65.4214 26.7484 24.7814 10.9335 4.82124 12.4822 7.37388 0.489796 2.49979 0.0289649 0.00317247 0.00286856 0.0012041 0.00139236 0.000824306 0.000602054 1.57289e-05
threshold=-0.32783754169940943 -0.47008252143859858 1.0000000180025095e-35 -1.0354593396186826 -2.0901249647140498 -1.5186077952384947 -0.96006575226783741 1.0000000180025095e-35 0.90594157576560985 1.0629336237907412 -1.0549920201301572 1.1617439985275271 -1.1287701725959776 1.0000000180025095e-35 1.0873224139213564 0.92813464999198925 -1.4028433561325071 0.054650804027915008 1.1869372725486758 -1.0503891110420225 -1.0841528773307798 -0.95340576767921437 -0.12346371635794638 0.8930853307247163 -1.507257282733917 0.62219807505607616 -0.93587246537208546 -1.5330472588539121 -1.5232915282249448 0.052334832027554519 -0.38790716230869288 1.2064899206161501 0.80552658438682567 -1.0534406900405882 -0.19957671314477918 1.0000000180025095e-35 1.3058587312698366 0.65097117424011242 0.7703070640563966 -0.55808660387992848 -0.41259464621543879 1.1204397082328799 0.74033004045486461 1.1884538531303408 1.1192297935485842
decision_type=2 2 2 2 2 2 2 2 2 2 2 2 2 2 2 2 2 2 2 2 2 2 2 2 2 2 2 2 2 2 2 2 2 2 2 2 2 2 2 2 2 2 2 2 2
left_child=1 2 6 23 5 -5 7 15 -9 10 22 19 13 -8 -14 -1 -13 26 20 -12 -19 -6 25 31 -20 -3 30 -24 -28 -25 -11 -4 35 -34 40 36 -2 38 39 -37 -35 -42 -40 -38 -45
right_child=32 9 3 4 21 -7 12 8 -10 17 11 16 14 -15 -16 -17 -18 18 24 -21 -22 -23 27 29 -26 -27 28 -29 -30 -31 -32 -33 33 34 -36 37 43 -39 42 -41 41 -43 -44 44 -46
leaf_value=0.010585786334247815 0.078144927214494314 0.098587837600141393 0.16147194755660388 -0.069474817220935361 -0.0078826726350586813 0.08544350949142146 0.027888521762956722 0.032811163808199088 -0.074832645584869614 0.19269997718935716 0.044806493904243516 -0.038976535376287001 0.045023186520500948 -0.028909731255352445 0.010345273452567949 0.14613613451877333 0.075881037455293371 -0.053707341479644934 -0.11547277812178025 -0.16086063891674363 0.13208950745040191 -0.066314647266120644 0.052576234757229105 -0.13445398350659138 -0.023461120808863683 -0.10004420053382719 -0.13079801579151173 0.16000257279481772 0.058845496927889256 0.092261033713944784 0.10805323867262079 0.20949333561860631 0.11625800307843775 -0.11059169667778442 0.13316075051407486 0.11903927815570203 0.11958567281959694 0.1223591687383874 0.11943853102429768 0.12007344201002093 -0.10999294212458353 -0.10568027662763227 0.12018526272677191 0.11895332094683993 0.11905424620932213
leaf_weight=385.14558240771294 17.902959004044533 137.46026337146759 63.781568557024002 560.10967170447111 572.1075920984149 978.50045870244503 44176.175249803811 1023.6367094516754 1766.296983987093 45.65297070145607 82.996743112802505 249.61717760562897 28945.692640565336 4049.7362641990185 8298.2682826295495 332.98109140992165 1805.4669130593538 75.868799112737179 299.04034317284822 212.12177740037441 164.02075803279877 2314.8361869603395 64.899827644228935 15.441306009888651 333.44817403703928 37.431703105568886 29.005078554153442 910.62391124665737 48.787334948778152 7.8493884652853003 142.68011240661144 184.73824413120747 19.072143830358986 1.3182218037545705 1.7246314287185631 6081.2952843904495 25.206815123558044 26.579429626464844 32.654958963394165 26.940497159957886 1.0936754420399668 2.3727583363652229 27.01055109500885 29.645737528800964 32.229245185852051
leaf_count=1071 20 203 100 2556 2935 2883 112808 2949 7974 31 147 737 67540 15883 23953 495 2752 281 1893 829 209 12585 143 87 1153 146 96 668 86 24 154 84 18 17 1 4908 20 20 26 21 15 52 21 24 26
internal_value=0 0.0269217 0.0255401 -0.0139814 -0.0256068 0.0290476 0.0276266 -0.0130706 -0.0353377 0.0548202 0.0730699 0.041217 0.029297 0.0231189 0.0372967 0.0734378 0.0619301 -0.00129283 -0.0283861 -0.10302 0.0733284 -0.0547351 0.138143 0.1753 -0.0669642 0.0560751 0.0875207 0.152856 -0.0118635 -0.0580469 0.128572 0.197169 0.118774 0.0754496 -0.0441187 0.11895 0.112177 0.119065 0.119051 0.119044 -0.108019 -0.107041 0.119777 0.119174 0.119006
internal_weight=0 98314.4 93675.3 4697.36 4425.55 1538.61 88977.9 3508.06 2789.93 4639.12 3500.62 2350.2 85469.9 48225.9 37244 718.127 2055.08 1138.5 872.378 295.119 239.89 2886.94 1150.42 271.811 632.489 174.892 266.125 975.524 77.7924 23.2907 188.333 248.52 6325.05 25.5814 6.50929 6299.47 104.985 6194.48 6167.9 6108.24 4.78466 3.46643 59.6655 87.0818 61.875
internal_count=268644 263455 253927 21254 20959 5439 232673 12489 10923 9528 5625 4465 220184 128691 91493 1566 3489 3903 3536 976 490 15520 1160 295 3046 349 367 811 182 111 185 184 5189 103 85 5086 90 4996 4976 4929 84 67 47 70 50
is_linear=0
shrinkage=0.1


Tree=17
num_leaves=41
num_cat=0
split_feature=125 74 97 74 129 36 133 72 106 134 119 96 74 35 129 122 130 129 72 107 97 123 30 73 127 31 123 53 50 91 72 33 74 74 33 74 82 56 93 115
split_gain=4701 332.531 479.165 415.249 510.857 360.253 359.068 1044.61 298.009 190.772 176.01 170.508 301.151 216.195 222.957 190.959 184.943 139.147 103.165 161.259 95.2633 79.7726 70.9315 65.4604 62.6409 58.8715 37.1787 4.42935 11.2261 6.64588 0.530077 0.227623 0.117678 0.0774292 0.0263755 0.0193905 0.0101115 0.00709861 0.00568807 0.000448526
threshold=-0.32783754169940943 -1.0173640847206114 -0.98350563645362843 -0.99980536103248585 1.0000000180025095e-35 0.92371475696563732 1.0000000180025095e-35 -0.54697188735008229 -0.99460124969482411 1.0000000180025095e-35 -0.94213372468948353 -1.0211936831474302 -1.0375587940216062 0.91079127788543712 1.0000000180025095e-35 -1.0818570256233213 1.0000000180025095e-35 1.0000000180025095e-35 -0.68062922358512867 -0.90235736966133107 -0.97310844063758839 -1.1612978577613828 1.0843003988265993 -0.89663738012313832 -1.5310176610946653 1.0045959353446963 -1.1612978577613828 0.80552658438682567 0.94810083508491527 -0.19957671314477918 -0.55668723583221424 0.77579969167709362 -1.0274160504341123 -1.0321004986762998 0.7703070640563966 -1.0209142565727232 -1.3427042961120603 0.70425170660018932 -1.0006269216537473 -1.3561642765998838
decision_type=2 2 2 2 2 2 2 2 2 2 2 2 2 2 2 2 2 2 2 2 2 2 2 2 2 2 2 2 2 2 2 2 2 2 2 2 2 2 2 2
left_child=1 9 17 4 5 -4 8 -8 -5 11 -6 12 16 14 -13 -14 -1 18 19 -3 -15 -20 32 33 26 -26 -19 30 -29 38 31 34 36 -24 37 -34 -11 -2 -30 -40
right_child=27 2 3 6 10 -7 7 -9 -10 22 -12 13 15 20 -16 -17 -18 24 21 -21 -22 -23 23 -25 25 -27 -28 28 29 -31 -32 -33 35 -35 -36 -37 -38 -39 39 -41
leaf_value=-0.02459383715954009 0.11691571744344005 0.07555585365066067 -0.031492371277839729 0.10819031391478942 0.12791547539045597 0.075672273728322803 0.019969449452021091 -0.07890416877026539 0.02743056640709185 -0.12072433375495838 -0.0088835502215115995 -0.027418112676843149 -0.080908576945976432 0.23075263897364906 0.089011672002411835 0.054146576251990368 0.06741171907916968 -0.010119302042916433 -0.0012884831390432387 0.035264638097790325 0.054781584490820372 0.11417378984167544 -0.12000993072388733 0.22936648822316391 -0.0097666623444669365 -0.15454570322908817 0.17315324821332892 0.11348713268248896 -0.11423206410434456 0.12902641730789313 0.10243839627897917 0.10736228928399538 -0.12181376326949014 -0.1393372890346162 0.11415074558698718 -0.12523387558183424 -0.11734593837195775 0.11869442732788663 -0.10462749422572204 -0.10718641838799976
leaf_weight=1461.0296523422003 5691.7404586076736 1890.1694369763136 3139.9578087702394 459.79513415694237 340.97968856990337 348.51066606491804 8405.1408019065857 1224.1782560646534 73065.236685089767 9.9157996177673322 129.87722966074944 2506.7383300811052 110.97019554674625 40.267016209661961 176.02137093991041 1850.7364099770784 256.89404113590717 27.611653655767441 68.097268760204315 2093.6222603172064 130.3563329204917 493.3305035084486 5.908592477440834 11.918134093284605 62.434772953391075 51.051969736814499 18.474809512495995 17.728739466518167 1.2950232829898616 1.6079055070877037 25.583240389823914 25.099598959088326 42.910818293690681 3.1929316520690936 34.533136427402496 27.012307032942772 83.144257351756096 22.525707721710205 1.025982173159721 2.0608426183462125
leaf_count=6643 4988 2951 11076 662 591 795 26170 5753 184250 70 438 10148 490 40 479 4522 869 73 162 4700 364 598 43 11 196 203 18 21 16 1 25 23 293 17 31 169 661 19 26 39
internal_value=0 0.0241586 0.0257298 0.024051 -0.0075895 -0.0207862 0.0255575 0.00739962 0.0279356 0.00268045 0.090182 0.00550875 0.0197351 -0.0128371 -0.0197789 0.0465068 -0.0108356 0.0568148 0.0600371 0.0543814 0.0963107 0.100169 -0.097738 0.0751504 -0.0349688 -0.0748955 0.0633497 0.116625 0.0734985 -0.0448618 0.116801 0.116865 -0.120035 -0.12679 0.116906 -0.123135 -0.117706 0.116923 -0.10867 -0.106336
internal_weight=0 98535.5 91818.5 87113.7 3959.33 3488.47 83154.4 9629.32 73525 6717.02 470.857 6533.01 3679.63 2853.38 2682.76 1961.71 1717.92 4704.79 4545.22 3983.79 170.623 561.428 184.003 21.0197 159.573 113.487 46.0865 5823.2 23.7185 5.98975 5799.48 5773.9 162.983 9.10152 5748.8 69.9231 93.0601 5714.27 4.38185 3.08682
internal_count=268644 263455 238636 229735 12900 11871 216835 31923 184912 24819 1029 23555 12524 11031 10627 5012 7512 8901 8411 7651 404 760 1264 71 490 399 91 5189 103 82 5086 5061 1193 60 5038 462 731 5007 81 65
is_linear=0
shrinkage=0.1


Tree=18
num_leaves=43
num_cat=0
split_feature=125 77 116 109 132 109 47 124 106 105 48 77 117 44 121 111 44 51 3 61 58 70 122 118 124 54 127 53 3 91 123 38 127 29 39 58 94 72 33 50 107 29
split_gain=4397.3 330.138 481.302 365.359 638.528 622.163 551.93 423.215 414.213 287.871 195.643 126.187 103.086 175.274 142.877 165.82 182.63 69.3527 62.8101 160.667 59.2734 37.9361 25.2902 20.4466 15.8325 11.4241 10.7911 4.09965 10.112 5.95228 1.65301 0.696352 0.593705 2.9407 0.0433976 0.0164206 0.00379555 0.00219126 0.00219764 0.001347 0.000561961 8.22793e-06
threshold=-0.32783754169940943 -0.39282597601413721 -1.5137930512428281 -1.1324602365493772 1.0000000180025095e-35 -1.110044479370117 1.2077620029449465 -2.2841025590896602 -0.9615679383277892 -0.80788573622703541 1.1966154575347903 -0.41126604378223414 -1.5771582126617429 1.1781674623489382 -1.8913012742996214 -1.2315048575401304 1.1914351582527163 1.1796970963478091 -0.18785622715950009 0.79841789603233349 0.97966822981834423 -0.18978454917669293 -2.0661883354187007 -1.6109381318092344 -2.4496761560440059 1.0585302710533144 -3.3077551126480098 0.80552658438682567 0.60005387663841259 -0.19957671314477918 -2.2266904115676875 0.98701822757720958 1.0000000180025095e-35 1.0472743511199953 1.0325826406478884 0.65097117424011242 -0.83887815475463856 -0.55808660387992848 0.7703070640563966 1.1204397082328799 -0.80118396878242482 1.1168472170829775
decision_type=2 2 2 2 2 2 2 2 2 2 2 2 2 2 2 2 2 2 2 2 2 2 2 2 2 2 2 2 2 2 2 2 2 2 2 2 2 2 2 2 2 2
left_child=1 2 10 6 8 -6 7 -4 -5 -8 11 21 13 22 15 17 -17 -14 20 -20 -16 -1 -3 -13 -24 -12 -27 32 29 36 31 -15 33 -2 -32 37 -29 38 -34 -38 41 -35
right_child=27 12 3 4 5 -7 9 -9 -10 -11 25 23 14 30 18 16 -18 -19 19 -21 -22 -23 24 -25 -26 26 -28 28 -30 -31 34 -33 35 40 -36 -37 39 -39 -40 -41 -42 -43
leaf_value=0.15719192505518956 0.067439916307627676 0.13868700569632411 0.13687443191885867 -0.013199023691274531 0.025480326698891775 -0.044257242923018636 -0.086517216164431879 0.021268480040272771 0.023768443922536974 0.24097345181796703 0.060815787887231271 0.03039781287683967 0.025504003303540829 -0.1740754194097183 0.12599208671034703 -0.1565096442477476 0.04013379925963613 0.11861185387084919 0.09863883597281968 0.010905405548474975 0.018908039625395459 -0.10740901257184832 0.10509365831868711 0.14530013493014976 -0.089654355112530365 0.02387286013602874 -0.13055039522353137 -0.1129186550058589 0.11104313555737738 0.1255127881658491 -0.12222930409183196 -0.14113137598988351 0.1150374872207864 0.11496836931096927 -0.11532663215189476 0.1177437432589707 -0.1092552571454514 0.11602168790694396 0.11569880335096301 -0.10464192001362189 0.11561894860046436 0.11504794602531195
leaf_weight=5.96186339855194 15.630246505141256 44.107216522097588 868.90264168381691 3141.3045173734426 2282.9071742594242 2909.9962803572416 273.50046700239182 498.24933029711246 86308.114166736603 29.761852964758873 3.2293768972158423 22.670918405056 186.91684536635876 8.8924385011196154 423.73872092366219 89.037499263882637 100.58343471586704 139.86007295548916 606.05487938225269 318.39579340070486 58.872049018740654 59.438832104206085 7.3894786387681988 48.872386172413826 9.5948273837566358 4.593627154827117 303.82058595865965 1.1444773152470609 16.433872159570456 1.4935039281845091 21.580078572034836 23.040739998221397 5143.0713933110237 24.019489049911499 15.759832412004469 22.698806405067444 0.93127023428678568 23.023321747779846 50.746179699897766 1.9754242319613695 21.473824858665466 28.304545879364014
leaf_count=11 20 30 1047 11271 7628 13894 1423 1742 220937 26 6 48 319 37 315 359 160 108 644 638 111 209 7 29 38 11 2003 15 21 1 149 116 4908 23 139 20 14 21 47 52 20 27
internal_value=0 0.0216702 0.0208281 0.0213094 0.0204911 -0.0135992 0.06767 0.0947426 0.0224702 -0.0543776 -0.0825137 0.0171107 0.0613441 -0.0247115 0.0671766 0.0221879 -0.0522012 0.065354 0.0836876 0.068422 0.112929 -0.0832883 0.0987611 0.108889 -0.004924 -0.126291 -0.12825 0.114744 0.071644 -0.0451311 -0.133601 -0.150305 0.114922 0.106843 -0.119316 0.11506 -0.108041 0.115048 0.115044 -0.10612 0.115188 0.115011
internal_weight=0 98815.1 96761.3 96312.7 94642.3 5192.9 1670.41 1367.15 89449.4 303.262 448.588 136.944 2053.82 130.365 1923.46 516.398 189.621 326.777 1407.06 924.451 482.611 65.4007 61.0915 71.5433 16.9843 311.644 308.414 5350.95 21.9785 5.54468 69.2731 31.9332 5328.97 89.4281 37.3399 5239.54 4.05117 5216.84 5193.82 2.90669 73.7979 52.324
internal_count=268644 263455 260285 257968 253730 21522 4238 2789 232208 1449 2317 297 3170 516 2654 946 519 427 1708 1282 426 220 75 77 45 2020 2014 5189 103 82 441 153 5086 90 288 4996 81 4976 4955 66 70 50
is_linear=0
shrinkage=0.1


Tree=19
num_leaves=43
num_cat=0
split_feature=125 111 128 74 31 29 17 40 108 114 111 75 52 71 29 34 124 18 105 30 110 125 68 77 22 38 41 110 33 53 79 91 127 16 67 58 72 33 77 85 30 21
split_gain=4100.57 327.292 307.197 332.507 560.329 548.116 490.182 330.298 553.458 200.605 198.33 178.711 143.474 117.277 235.828 145.938 99.8729 157.363 142.786 163.742 103.068 76.8681 71.7201 66.8016 49.3274 17.159 55.0271 14.0657 6.04647 3.80821 9.45154 5.35064 0.639198 3.05831 0.03418 0.0118725 0.00154943 0.00155692 0.00114012 0.00100499 0.000528884 6.55319e-06
threshold=-0.32783754169940943 -0.84508419036865223 1.0000000180025095e-35 -0.47008252143859858 0.97484055161476146 1.2417196631431582 1.3958696126937868 1.0629336237907412 -1.0549920201301572 -1.4186062216758726 -0.89455199241638172 -1.0899500846862791 1.0891128778457644 -0.41466769576072687 1.0935894250869753 0.92691808938980114 -1.2563678026199339 1.1206544041633608 -0.82751899957656849 1.0616562366485598 -0.81431734561920155 -1.2911941409111021 0.035995412617921836 -1.2666031122207639 1.3301125764846804 0.99058443307876598 1.0552101731300356 -0.83474078774452198 0.93501392006874096 0.80552658438682567 -1.1551355719566343 -0.19957671314477918 1.0000000180025095e-35 1.3058587312698366 0.23182354122400287 0.65097117424011242 -0.55808660387992848 0.7703070640563966 -0.49478130042552942 -0.73566859960556019 0.98977914452552807 1.3996818065643313
decision_type=2 2 2 2 2 2 2 2 2 2 2 2 2 2 2 2 2 2 2 2 2 2 2 2 2 2 2 2 2 2 2 2 2 2 2 2 2 2 2 2 2 2
left_child=1 2 3 4 5 -1 -6 8 -5 -9 13 12 -12 14 -4 -15 25 20 19 -19 21 -18 -22 -13 -20 27 -27 -3 -29 32 -31 38 33 -2 -28 36 37 -34 -32 -40 -35 -42
right_child=29 16 10 7 6 -7 -8 9 -10 -11 11 23 -14 15 -16 -17 17 18 24 -21 22 -23 -24 -25 -26 26 34 28 -30 30 31 -33 35 40 -36 -37 -38 -39 39 -41 41 -43
leaf_value=-0.0067257888896919485 0.063449865604990885 0.048411484892483453 0.087838123873653223 0.11764949801920088 0.019011844937455551 0.065231993256674503 0.075112983225662691 -0.059558291638383547 0.031611786184141358 0.029432983797807934 -0.0013819118141354975 -0.028326598998630926 0.050544164440240638 -0.022706753644597871 0.03907591136202461 0.035795042408055727 0.051939788680942157 0.12707399146294393 -0.089886174233251404 -0.097811972436548322 0.22833353527203049 0.2222822772616671 -0.1020778325307288 -0.12552101974210181 0.16846648478466952 0.2069877167336184 -0.1411793613757546 -0.14305368911926608 -0.10012199104519784 0.10995071094126491 -0.10920175956737728 0.12250340359836194 0.11340341891217272 0.11399394993377819 -0.12972273262217349 0.11580348628010523 0.11426719986644983 0.11398445467807031 -0.10386514805796715 -0.10797975603353127 0.11333404536285543 0.11340950958368241
leaf_weight=13661.823654673994 14.849270284175871 4.702625259757041 1336.7821838408709 1111.3894860222936 64946.424378365278 1147.4744445383549 1595.7155415192246 402.87520080059767 2284.5491909086704 682.30103896558285 1177.189284235239 348.60076829791069 971.03241258859634 477.14331169426441 3843.3070215731859 4010.6677626520395 136.71233113110065 78.830464854836464 384.85937277972698 54.942623555660248 7.4294138923287383 32.858111992478371 56.7568049877882 88.708361841738224 7.5350044071674338 6.9087202399969128 3.3071383982896796 89.879724152386189 51.661488682031631 15.126149145886304 1.4102161992341287 1.3828543424606303 4717.2507764101028 19.774437248706818 12.249889574944971 20.865126490592957 21.135764956474304 46.572107255458832 1.3871571859344851 1.0376669410616153 19.146361112594604 28.841095924377441
leaf_count=53132 20 14 1708 1159 168383 1766 2532 2218 4457 1661 3696 1183 1787 1174 6664 7077 369 158 2350 363 14 25 334 368 13 4 17 458 297 20 22 1 4908 20 74 20 21 47 43 17 20 30
internal_value=0 0.0194578 0.0200172 0.0179027 0.0164419 -0.00115026 0.0203572 0.0444221 0.0597694 -0.00360532 0.0348288 0.0102276 0.0220895 0.041408 0.0516596 0.0295751 -0.0396302 -0.0241781 -0.054509 0.0347099 0.0440944 0.0849475 -0.0638334 -0.0480425 -0.0849251 -0.109231 -0.0278632 -0.121731 -0.127384 0.113094 0.0699179 -0.0461332 0.113273 0.104552 -0.132158 0.113423 0.113413 0.113409 -0.106941 -0.105626 0.113559 0.113379
internal_weight=0 99014.6 98086 85832.6 81351.4 14809.3 66542.1 4481.11 3395.94 1085.18 12253.4 2585.53 2148.22 9667.9 5180.09 4487.81 928.634 759.924 526.167 133.773 233.757 169.57 64.1862 437.309 392.394 168.71 22.4657 146.244 141.541 4908.78 20.344 5.21789 4888.43 82.6112 15.557 4805.82 4784.96 4763.82 3.83504 2.42482 67.7619 47.9875
internal_count=268644 263455 258965 235308 225813 54898 170915 9495 5616 3879 23657 7034 5483 16623 8372 8251 4490 3626 2884 521 742 394 348 1551 2363 864 95 769 755 5189 103 83 5086 90 91 4996 4976 4955 82 60 70 50
is_linear=0
shrinkage=0.1


Tree=20
num_leaves=42
num_cat=0
split_feature=125 40 72 127 2 117 34 132 52 57 127 46 116 109 135 127 110 72 5 112 108 109 69 59 104 126 62 69 38 29 91 124 53 96 91 72 33 33 127 56 55
split_gain=3811.59 290.28 613.549 562.481 955.638 695.366 920.059 484.086 407.887 387.596 453.046 538.466 427.231 342.083 318.799 277.062 272.176 261.04 259.943 309.44 271.06 271.86 190.754 171.161 170.511 165.735 202.981 116.73 97.1027 97.0858 78.4396 33.9604 3.52286 8.38601 4.81132 0.708817 0.348694 0.0350822 0.00501432 0.00260706 0.000605488
threshold=-0.32783754169940943 1.0464750528335574 -0.53415590524673451 -2.0160515308380123 0.42786346375942236 -1.1510089635848997 0.82864049077034008 1.0000000180025095e-35 1.1129569411277773 0.94369691610336315 -1.9025231003761289 1.1718704104423525 -1.507257282733917 -1.1247459053993223 1.0000000180025095e-35 -1.8879047632217405 -1.113142132759094 -0.55668723583221424 0.20809693634510043 -1.2587227225303648 -1.0503891110420225 -1.1559658646583555 -0.020504026673734185 0.85688459873199474 -0.92464378476142872 -2.7258254289627071 0.66702058911323558 0.029953215271234516 1.0032079219818117 1.1026816964149477 -0.43682739138603205 -2.2841025590896602 0.80552658438682567 -0.69741603732109059 -0.19957671314477918 -0.55668723583221424 0.77579969167709362 0.7703070640563966 1.0000000180025095e-35 0.68352255225181591 0.82166394591331493
decision_type=2 2 2 2 2 2 2 2 2 2 2 2 2 2 2 2 2 2 2 2 2 2 2 2 2 2 2 2 2 2 2 2 2 2 2 2 2 2 2 2 2
left_child=1 2 3 5 15 6 -1 -6 -7 18 11 17 -13 25 24 -5 -16 -11 20 31 21 -3 23 -12 -15 26 -4 -27 -24 -21 -22 -20 35 -34 39 36 37 38 -2 40 -35
right_child=32 9 13 4 7 8 -8 -9 -10 10 22 12 -14 14 16 -17 -18 -19 19 29 30 -23 28 -25 -26 27 -28 -29 -30 -31 -32 -33 33 34 -36 -37 -38 -39 -40 -41 -42
leaf_value=0.085391420992963415 0.11279541757278627 -0.061461642952467949 0.12675194070809417 -0.068903913589621751 0.01645847252301522 0.076969087534464728 0.0013843287909025889 -0.062306844207001735 0.011913123035437028 0.014588440161573055 0.065829748961643328 -0.049405933909473142 0.030557195160423642 0.13387870029365082 0.13294880786333571 0.0017466048084038865 -0.10230807049040476 -0.076752938103400503 0.012107689930554525 0.053195396193662842 0.15637886389221731 0.14340447517013816 -0.12264812887979248 0.17509888327045781 -0.062826184243239047 -0.035734682227876041 -0.012514537514218866 0.16234058148600278 0.045969121545870843 -0.084647891936869238 -0.16408682364302951 -0.10518365794490028 0.10738344126168659 -0.10686433317877797 0.11990882853631346 0.093067328800634383 0.098636053095278842 0.10835047686088287 0.1119717927332765 -0.11163579910718835 -0.10381184114402407
leaf_weight=1604.7348129749298 75.200531840324402 71.761808082461357 258.93119113147259 1763.0407025068998 63437.331731937826 4339.7979135066271 6950.1834787279367 790.00112316012383 1238.8732792586088 487.19820277392864 273.37539847195148 731.12995996326208 7758.362083658576 45.004895240068436 166.73690435290337 810.12529930472374 69.749175503849983 874.4284919500351 29.720839992165565 3224.8857530802488 9.2186962366104108 665.27631770074368 41.878703385591507 301.40875440835953 2116.5241756364703 358.30783644318581 175.65079566836357 32.446767747402191 185.12909546494484 51.918297067284584 44.540825560688972 145.7019971460104 14.016816787421705 1.3204455384984628 1.2769323587417583 20.064565360546112 19.717248782515526 26.706327497959137 4336.0778401494026 0.88881990686058987 1.2794992402195928
leaf_count=4586 82 287 493 5593 163341 7253 23735 4178 3346 1101 447 3426 19264 90 313 2183 278 2767 109 5898 20 606 166 245 9819 1816 446 22 423 184 197 823 20 27 1 25 23 31 4925 14 41
internal_value=0 0.0175038 0.0152263 0.0169303 0.0130956 0.0350542 0.0171424 0.0154897 0.0625219 0.0303711 0.0201908 0.0143074 0.0236706 -0.0275586 -0.0466704 -0.0466606 0.0635622 -0.0440704 0.0559306 0.0440842 0.107646 0.123458 0.0924759 0.123129 -0.0587306 0.0279707 0.0704628 -0.0192873 0.0148624 0.0510114 -0.109133 -0.0853117 0.111639 0.0684216 -0.0461725 0.111821 0.111905 0.111964 0.111986 -0.10696 -0.105362
internal_weight=0 99053.4 84157.4 80934.1 66800.5 14133.6 8554.92 64227.3 5578.67 14895.9 10652.9 9851.12 8489.49 3223.35 2398.02 2573.17 236.486 1361.63 4243.02 3452.23 790.798 737.038 801.792 574.784 2161.53 825.337 434.582 390.755 227.008 3276.8 53.7595 175.423 4496.55 18.7825 4.7657 4477.77 4457.7 4437.98 4411.28 3.48876 2.59994
internal_count=268644 263455 227492 214215 175295 38920 28321 167519 10599 35963 27839 26558 22690 13277 10500 7776 591 3868 8124 7014 1110 893 1281 692 9909 2777 939 1838 589 6082 217 932 5189 103 83 5086 5061 5038 5007 82 68
is_linear=0
shrinkage=0.1


Tree=21
num_leaves=42
num_cat=0
split_feature=125 80 53 116 43 72 81 134 61 133 106 81 124 107 124 41 108 52 38 48 108 114 45 69 126 112 53 50 91 118 127 29 43 36 36 93 72 33 67 77 29
split_gain=3536.51 279.774 359.969 483.066 467.823 451.644 381.896 328.614 326.625 225.357 221.886 211.713 119.115 239.997 101.14 125.679 115.186 195.015 146.622 74.4644 55.742 25.5936 71.4637 19.9792 11.9508 11.9319 3.28225 7.6668 4.34196 1.08107 0.780042 3.57287 0.265389 0.178253 0.00712884 0.00309675 0.00186901 0.000547115 0.000458389 0.000240603 3.63136e-06
threshold=-0.32783754169940943 -0.31610354781150812 1.1165706515312197 -1.4813013076782224 1.1420524120330813 -0.5293019413948058 -0.80031383037567128 1.0000000180025095e-35 0.77176943421363842 1.0000000180025095e-35 -0.93924012780189503 -0.42094600200653071 -2.4097081422805782 -0.96697819232940663 -2.4496761560440059 1.0918454527854922 -1.048849821090698 1.13781213760376 0.97765287756919872 1.1738796234130862 -1.0458168387413023 -1.4417831897735593 1.1915681362152102 0.044664040207862861 -2.8853408098220821 -1.3105137944221494 0.80552658438682567 0.94810083508491527 -0.19957671314477918 -1.6231027245521543 1.0000000180025095e-35 1.0472743511199953 1.1583493351936343 0.90730577707290661 0.71079644560813915 -1.0006269216537473 -0.55668723583221424 0.7703070640563966 -0.15962898731231687 -0.44187019765377039 1.1192297935485842
decision_type=2 2 2 2 2 2 2 2 2 2 2 2 2 2 2 2 2 2 2 2 2 2 2 2 2 2 2 2 2 2 2 2 2 2 2 2 2 2 2 2 2
left_child=1 2 4 12 5 6 -1 11 10 -7 -6 -5 13 -4 16 -16 21 25 -19 -9 -10 22 -3 -23 -14 -18 30 -28 35 32 31 -2 -17 -31 36 -29 37 -32 40 -37 -33
right_child=26 14 3 7 8 9 -8 19 20 -11 -12 -13 24 -15 15 29 17 18 -20 -21 -22 23 -24 -25 -26 -27 27 28 -30 33 34 38 -34 -35 -36 39 -38 -39 -40 -41 -42
leaf_value=0.015897876959185025 0.05266192684623279 0.13464526309698113 0.087164392661313622 0.00048212500729279329 -0.046141124753169782 -0.0075736871374060492 0.071841992095403706 0.21114369861329099 -0.031484174046912505 -0.074062353397033417 0.070724973990233045 0.064732889304594518 -0.087863384109984774 -0.10269013296081755 0.12774014559221339 -0.14621088378209166 -0.072151257539522368 0.063256380820650299 -0.032206495602514727 -0.10461934538987311 -0.17507267123244383 0.083392637914470047 -0.14264972787134009 0.14529934104040321 -0.12037982748311943 -0.23285197780263112 0.10577934575195486 -0.11116180551196311 0.11765916081995656 -0.16340222749216005 0.11069937513349248 0.11063821609097164 -0.11915146981998259 -0.14294823039900359 0.11254922273144917 -0.10593403166681291 0.11171898255115094 0.1111411917600129 0.11129292512922793 -0.10375427287225276 0.11069840645403628
leaf_weight=83794.052500698715 12.955077238380907 28.123438835144043 108.46978677809238 3482.3793417215347 173.53136181086302 3521.8254550769925 1238.24659755826 7.6574244350194922 47.904826432466507 596.04756824672222 2547.0152416974306 601.42156107723713 165.21448749303818 172.42264071106911 27.230014458298683 3.9892166927456847 5.6745719164609936 1381.4179251194 182.09880916774273 302.50935965776443 62.061924993991852 73.50156144797802 13.881357237696646 179.30945745110512 357.84262267500162 24.869814708828926 12.931830711662771 1.0425381856039173 1.1763674020767192 6.8534210324287441 3959.0172808766365 19.234886527061462 39.642607912421227 11.262483447790144 21.11895340681076 0.79306612722575787 18.17141318321228 28.227976441383362 16.703210651874542 1.400870745070278 20.930336892604828
leaf_count=216881 20 17 235 11398 759 12404 3668 10 147 2983 4712 1334 1037 662 29 22 15 1897 425 1305 266 82 71 116 2471 102 21 16 1 30 4917 24 321 56 24 18 21 34 20 47 26
internal_value=0 0.015728 0.0149702 -0.0106322 0.016417 0.0151462 0.0167125 0.00240766 0.056441 -0.0171977 0.0632706 0.00994434 -0.0819016 -0.0293757 0.0529613 -0.0512285 0.0578692 0.0472493 0.0521381 -0.0968238 -0.112521 0.115291 0.0430074 0.127301 -0.110109 -0.202997 0.110351 0.0669417 -0.0468721 -0.130151 0.110535 0.100056 -0.121625 -0.150686 0.110717 -0.106675 0.110707 0.110703 0.110853 -0.104542 0.11067
internal_weight=0 99156.5 97178.6 5197.92 91980.7 89150.2 85032.3 4393.97 2830.51 4117.87 2720.55 4083.8 803.95 280.892 1977.85 88.9777 1888.88 1594.06 1563.52 310.167 109.967 294.816 42.0048 252.811 523.057 30.5444 4113.7 17.3447 4.41284 61.7477 4096.36 69.8235 43.6318 18.1159 4026.54 3.23648 4005.42 3987.25 56.8684 2.19394 40.1652
internal_count=268644 263455 260272 18452 241820 235936 220549 14047 5884 15387 5471 12732 4405 897 3183 458 2725 2439 2322 1315 413 286 88 198 3508 117 5189 103 82 429 5086 90 343 86 4996 81 4972 4951 70 65 50
is_linear=0
shrinkage=0.1


Tree=22
num_leaves=44
num_cat=0
split_feature=125 36 131 31 30 4 17 90 53 31 74 58 72 38 125 130 74 69 72 5 52 15 126 72 104 69 15 127 69 128 32 67 63 29 86 86 33 51 97 79 64 33 77
split_gain=3274 274.053 445.345 528.129 471.401 553.887 383.675 276.464 335.903 325.504 357.168 253.609 303.484 406.493 358.264 255.705 251.443 242.995 228.722 216.798 185.234 181.832 181.243 150.704 141.801 138.949 137.389 133.658 118.72 111.901 93.518 82.3803 3.2074 8.43359 11.3824 5.97914 0.433673 0.395579 0.707846 0.845594 0.0594954 0.0420024 0.00122282
threshold=-0.32783754169940943 0.93949291110038768 1.0000000180025095e-35 1.0035309195518496 1.0818751454353335 0.56715673208236705 1.0857840776443484 -1.2365500330924986 1.0222606658935549 1.0116302371025088 -1.0221993923187254 0.88357356190681469 -0.58684229850769032 0.9997486174106599 -1.7340866923332212 1.0000000180025095e-35 -1.0173640847206114 -0.11460611596703528 -0.61273500323295582 0.56242170929908764 1.1122692227363589 0.93891063332557689 -1.7932119965553281 -0.5985203981399535 -0.84090873599052418 -0.076076742261648164 0.9499722719192506 -1.9215500354766843 -0.077414579689502702 1.0000000180025095e-35 0.93220630288124096 0.13748317956924441 0.41435430943965917 0.81479763984680187 -1.7552580833435056 -1.2105526328086851 0.77579969167709362 0.85511809587478649 -0.87151613831520069 -1.1708573698997495 0.34193345904350286 0.7703070640563966 -0.48067361116409296
decision_type=2 2 2 2 2 2 2 2 2 2 2 2 2 2 2 2 2 2 2 2 2 2 2 2 2 2 2 2 2 2 2 2 2 2 2 2 2 2 2 2 2 2 2
left_child=1 2 3 4 5 -1 25 8 30 18 -11 17 15 14 -14 27 -6 26 -9 28 -8 -21 -15 -17 -10 -5 29 -13 -19 -3 -4 -28 36 34 -34 -36 37 40 -39 -40 41 -2 -37
right_child=32 11 7 6 16 -7 20 9 24 10 -12 12 13 22 -16 23 -18 19 -20 21 -22 -23 -24 -25 -26 -27 31 -29 -30 -31 -32 -33 33 -35 35 42 -38 38 39 -41 -42 -43 -44
leaf_value=0.013036138736372469 0.10959411197965041 -0.12000803495333839 0.10982262535550268 -0.010362011786993686 -0.00099369181768815405 -0.0095125182224010223 0.034686076487834526 -0.038189932663885033 0.13692287893524721 -0.089279013921312836 0.051344259237674841 0.00077374743086869476 0.044748682485434108 0.013082306716334383 -0.039727547573668198 -0.10653161409531649 0.038136625158245153 0.037337872680577797 0.044773442429367705 -0.014561977165643376 -0.17021605620680358 0.054594784872807112 0.048585813012647076 0.029763277901047477 0.033926873567230641 -0.13351235581132612 -0.017615777470346965 0.094548785258617804 0.07330434642910319 0.056877799678118617 -0.097939327696325684 0.11854116935518269 0.11047052434406233 0.111457359912839 -0.46714552088198125 -0.10977872911461423 0.09334620434867047 0.11013895981849771 0.11748634996545643 0.039111826320890775 0.10351666513591518 0.10524953189726619 -0.10456297158115052
leaf_weight=32036.085800804198 3671.4268133640289 178.84386652708054 25.021812036633492 1446.3183574080467 2100.6829389110208 16506.970630493015 15491.072819314897 4389.5924984514713 269.22223448008299 220.37811426073313 1001.0675796717405 178.9411406815052 644.90069484710693 4891.5819551125169 2266.2044729664922 120.77712768316269 7523.1469389498234 1439.7926982045174 359.51990526914597 858.30819479376078 44.245106518268585 682.51183322072029 2036.4856496751308 247.11975634098053 265.48784572631121 97.814869582653046 126.4802130907774 1009.2349629402161 2531.2173318788409 44.703513622283936 161.50464499741793 68.505143254995346 2.360586643218995 11.503482818603514 0.61477705091238144 0.78768062498420577 16.748950056731701 9.9743115901947039 2.1261556148529062 3.9049059962853772 16.320280313491821 22.388179525732994 1.0469572320580478
leaf_count=91718 4986 665 71 3480 6085 53907 32967 15534 589 1214 2146 413 1402 11457 6608 425 15787 2657 750 2159 186 1211 3892 541 833 351 362 1332 3627 69 920 97 3 14 7 14 23 13 2 39 23 31 34
internal_value=0 0.0141342 0.011718 0.0139166 0.00937688 0.00536851 0.0293772 -0.0130036 0.0454777 -0.020068 0.0259724 0.0255609 0.0168328 0.0103429 -0.0210134 0.0578693 0.0295953 0.0423319 -0.0319094 0.0479098 0.0341025 0.0160713 0.0235185 -0.0149811 0.0857845 -0.0181631 -0.0311264 0.0804261 0.0602638 -0.0846356 -0.0700689 0.0302209 0.109208 0.064964 -0.0462284 -0.197245 0.109401 0.109473 0.0937862 0.0667415 0.109541 0.109568 -0.106802
internal_weight=0 99263.7 81938.1 75246.3 58166.9 48543.1 17079.5 6691.79 721.237 5970.56 1221.45 17325.6 11395.2 9839.17 2911.11 1556.07 9623.83 5930.36 4749.11 5511.83 15535.3 1540.82 6928.07 367.897 534.71 1544.13 418.533 1188.18 3971.01 223.547 186.526 194.985 3759.2 16.3135 4.81 2.44941 3742.89 3726.14 16.0054 6.03106 3710.14 3693.81 1.83464
internal_count=268644 263455 226538 204481 167497 145625 36984 22057 2413 19644 3360 36917 26070 23359 8010 2711 21872 10847 16284 9654 33153 3370 15349 966 1422 3831 1193 1745 6284 734 991 459 5189 72 58 55 5117 5094 54 41 5040 5017 48
is_linear=0
shrinkage=0.1


Tree=23
num_leaves=37
num_cat=0
split_feature=125 110 0 46 41 72 55 106 107 44 109 51 38 41 78 52 50 135 33 121 61 36 65 29 25 63 29 57 86 33 51 95 98 64 33 96
split_gain=3023.54 258.173 251.532 276.215 319.415 455.827 249.145 193.377 151.544 109.356 104.82 94.353 107.098 92.8869 89.495 127.002 85.8897 64.2991 43.8538 29.4303 25.5214 24.4862 23.1503 19.3314 5.78388 2.93643 7.51916 9.83136 4.27468 0.474408 0.465285 0.889106 1.27201 0.0639941 0.0455665 0.000853945
