tree
version=v4
num_class=1
num_tree_per_iteration=1
label_index=0
max_feature_idx=136
objective=binary sigmoid:1
feature_names=Column_0 Column_1 Column_2 Column_3 Column_4 Column_5 Column_6 Column_7 Column_8 Column_9 Column_10 Column_11 Column_12 Column_13 Column_14 Column_15 Column_16 Column_17 Column_18 Column_19 Column_20 Column_21 Column_22 Column_23 Column_24 Column_25 Column_26 Column_27 Column_28 Column_29 Column_30 Column_31 Column_32 Column_33 Column_34 Column_35 Column_36 Column_37 Column_38 Column_39 Column_40 Column_41 Column_42 Column_43 Column_44 Column_45 Column_46 Column_47 Column_48 Column_49 Column_50 Column_51 Column_52 Column_53 Column_54 Column_55 Column_56 Column_57 Column_58 Column_59 Column_60 Column_61 Column_62 Column_63 Column_64 Column_65 Column_66 Column_67 Column_68 Column_69 Column_70 Column_71 Column_72 Column_73 Column_74 Column_75 Column_76 Column_77 Column_78 Column_79 Column_80 Column_81 Column_82 Column_83 Column_84 Column_85 Column_86 Column_87 Column_88 Column_89 Column_90 Column_91 Column_92 Column_93 Column_94 Column_95 Column_96 Column_97 Column_98 Column_99 Column_100 Column_101 Column_102 Column_103 Column_104 Column_105 Column_106 Column_107 Column_108 Column_109 Column_110 Column_111 Column_112 Column_113 Column_114 Column_115 Column_116 Column_117 Column_118 Column_119 Column_120 Column_121 Column_122 Column_123 Column_124 Column_125 Column_126 Column_127 Column_128 Column_129 Column_130 Column_131 Column_132 Column_133 Column_134 Column_135 Column_136
feature_infos=[-1.7844352722167969:2.1475074291229248] [-1.6962581872940063:2.0597634315490723] [-1.6161398887634277:1.9801409244537354] [-1.5440802574157715:1.9086390733718872] [-1.4800789356231689:1.8452587127685547] [-1.4241359233856201:1.7899996042251587] [-1.3852788209915161:1.7536556720733643] [-1.3575865030288696:1.77842116355896] [-1.3260828256607056:2.0758624076843262] [-1.2853907346725464:2.0974209308624268] [-1.2320997714996338:2.0165181159973145] [-1.1626077890396118:2.064321756362915] [-1.0779223442077637:2.1106562614440918] [-0.97803342342376709:2.1760303974151611] [-0.86829191446304321:2.2624907493591309] [-0.75375783443450928:2.3293297290802002] [-0.63882678747177124:2.3999395370483398] [-0.65620064735412598:2.4409308433532715] [-0.66012513637542725:2.4605560302734375] [-0.66667592525482178:2.4363620281219482] [-0.8555336594581604:2.3612079620361328] [-0.86833834648132324:2.2960772514343262] [-0.86565589904785156:2.1994528770446777] [-0.7797551155090332:2.1797337532043457] [-1.0841877460479736:2.1614029407501221] [-1.4308524131774902:2.0620582103729248] [-1.6366665363311768:1.9191513061523438] [-1.8254417181015015:1.7314887046813965] [-1.9454965591430664:1.5598906278610229] [-2.1342308521270752:1.3473584651947021] [-2.4037775993347168:1.1459542512893677] [-2.6881959438323975:1.0691677331924438] [-2.6397361755371094:1.0156075954437256] [-2.3245775699615479:0.99408984184265137] [-1.6179424524307251:0.99887841939926147] [-0.8696785569190979:1.0559519529342651] [-0.66342759132385254:1.2162210941314697] [-0.67049169540405273:1.258552074432373] [-0.67192721366882324:1.3003014326095581] [-0.67710685729980469:1.2340725660324097] [-0.67391806840896606:1.2342766523361206] [-0.77278417348861694:1.2170119285583496] [-0.78214722871780396:1.2562694549560547] [-0.67822211980819702:1.3808037042617798] [-0.67593681812286377:1.5838102102279663] [-0.67998087406158447:1.7493973970413208] [-0.67735743522644043:1.7343066930770874] [-0.68056988716125488:1.6915385723114014] [-0.67851173877716064:1.8138210773468018] [-0.68057990074157715:2.0951991081237793] [-0.67868822813034058:2.3221406936645508] [-0.68411111831665039:2.3866791725158691] [-0.6882440447807312:2.3278176784515381] [-0.69760811328887939:2.41339111328125] [-0.68820065259933472:2.0181429386138916] [-0.66498374938964844:1.663224458694458] [-0.63047897815704346:1.3939603567123413] [-0.6819922924041748:1.3641012907028198] [-0.88048118352890015:1.3483799695968628] [-0.73171019554138184:1.3266682624816895] [-0.62303602695465088:1.2987289428710938] [-0.62908732891082764:1.5017008781433105] [-0.65896600484848022:1.6471337080001831] [-0.67422842979431152:1.5962808132171631] [-0.89532732963562012:1.2496439218521118] [-1.1747497320175171:1.0613176822662354] [-1.3727543354034424:0.98026233911514282] [-1.6713657379150391:0.87500208616256714] [-1.8910553455352783:0.74292320013046265] [-2.0949718952178955:0.59156680107116699] [-1.9126988649368286:0.44254273176193237] [-1.723555326461792:0.31167539954185486] [-1.5550380945205688:0.20973041653633118] [-1.4402464628219604:0.13722024857997894] [-1.4517455101013184:0.30397361516952515] [-1.6804615259170532:0.9557119607925415] [-1.8599822521209717:1.3625956773757935] [-2.0371255874633789:1.0853415727615356] [-2.1728529930114746:1.1285310983657837] [-2.2573421001434326:0.92254304885864258] [-2.3058340549468994:0.73609095811843872] [-2.3315773010253906:0.27998179197311401] [-2.3403120040893555:0.32789856195449829] [-2.3343968391418457:0.37759476900100708] [-2.3124566078186035:0.5232703685760498] [-2.2730567455291748:0.46151745319366455] [-2.2140905857086182:0.49370381236076355] [-2.1362462043762207:0.51996833086013794] [-2.0426793098449707:0.67684948444366455] [-1.9374580383300781:0.55988889932632446] [-1.8240519762039185:0.65060514211654663] [-1.8478662967681885:1.0689502954483032] [-1.648851752281189:1.4172115325927734] [-1.5815147161483765:1.6287872791290283] [-1.5245249271392822:1.664950966835022] [-1.4843816757202148:1.6182941198348999] [-1.4547033309936523:1.5608183145523071] [-1.4384253025054932:1.5597559213638306] [-1.4264529943466187:1.5643377304077148] [-1.5388252735137939:1.5628886222839355] [-2.0638625621795654:1.5662939548492432] [-2.4396805763244629:1.5653641223907471] [-2.4439821243286133:1.5686177015304565] [-2.3072562217712402:1.5662518739700317] [-1.9470208883285522:1.5674868822097778] [-1.4475361108779907:1.5623446702957153] [-1.1187688112258911:1.563502311706543] [-1.1215335130691528:1.561995267868042] [-1.1656886339187622:1.5723429918289185] [-1.225764274597168:1.5757462978363037] [-1.3317182064056396:1.5827798843383789] [-1.6010570526123047:1.5861003398895264] [-2.1418814659118652:1.5904537439346313] [-2.4733853340148926:1.5896482467651367] [-2.5047738552093506:1.5896980762481689] [-2.0072333812713623:1.5865405797958374] [-1.6131480932235718:1.5868538618087769] [-1.6321159601211548:1.7016431093215942] [-1.6862318515777588:2.5795986652374268] [-1.7458088397979736:2.8008601665496826] [-1.820858359336853:2.5472877025604248] [-1.9268163442611694:1.7488086223602295] [-2.1498878002166748:1.6308574676513672] [-2.3795907497406006:1.6220458745956421] [-2.6431498527526855:1.8138364553451538] [-2.9497678279876709:2.1645474433898926] [-3.3559722900390625:3.0688047409057617] [-3.8750591278076172:4.2020993232727051] [0:1] [0:1] [0:1] [0:1] [0:1] [0:1] [0:1] [0:1] [0:1]
tree_sizes=4775 5332 5439 5646 5035 4682 5763 4791 5001 5354 5029 4378 4722 4725 4694 4376 5044 5259 4995 4628 5250 5099 4629 5149 4600 5245 5299 4719 4980 5049 4393 4853 4631 5082 4973 5096 5087 4505 5226 5084 4350 5107 5205 4839 4950 5174 4374 5146 4965 4197 5614 5245 4860 5348 4988 4975 5250 5432 4848 5451 6252 4732 6931 6037 6821 5482 5649 4289 6831 6579 6393 6711 4403 5904 4443 6825 6806 6185 6694 4404 6958 4111 5773 4941 6980 6967 6841 6305 5900 6945 6239 5976 6294 6534 6798 5427 4941 4301 6629 6613 5019 6216 7009 6974 5440 5824 6946 6143 4939 6390 5036 6148 6891 5782 6814 6705 6340 6024 4812 6953 5479 6533 5575 6710 6256 6396 6932 5063 6398 6788 6457 4597 5865 6930 6795 6688 6865 6443 4202 5898 5301 6492 6054 6558 6896 6941 6029 6461 5893 6914 5721 6741 4926 6633 6233 6583 5437 5840 6658 6710 6945 6673 6034 6340 6429 6916 6551 5949 6932 4806 6477 6798 6375 6944 5812 4518 6497 6220 6694 6918 6944 3886 6648 6627 5792 5763 6934 6831 5590 6929 6723 5150 6914 6513 6037 5728 6947 6132 6578 5931

Tree=0
num_leaves=44
num_cat=0
split_feature=125 33 77 114 74 30 75 46 135 108 38 128 134 109 111 133 83 113 46 57 52 73 45 69 73 74 116 70 116 113 52 36 69 69 33 66 3 127 19 26 29 0 0
split_gain=148098 14699.3 10372.5 10876.8 8168.89 7682.62 4167.43 6536.64 3346.08 2705.12 2646.33 2321.32 1503.07 1328.45 1268.24 1145.77 803.661 762.1 937.475 709.566 686.963 599.625 987.293 872.022 682.531 541.947 502.46 484.288 466.506 345.279 325.498 201.703 302.222 66.834 55.5794 112.432 38.747 1.4153 7.6396 0.0608569 0.047719 1.77636e-15 8.88178e-16
threshold=-0.41193795204162592 0.93115532398223888 -0.41161817312240595 -1.1371964812278745 -1.027436316013336 1.0894779562950136 -0.5148477554321288 1.2110937833786013 1.0000000180025095e-35 -0.82818135619163502 0.98972702026367199 1.0000000180025095e-35 1.0000000180025095e-35 -0.94670614600181568 -0.90720453858375538 1.0000000180025095e-35 -1.1102234721183775 -1.3203701376914976 1.2253761291503908 0.94364693760871898 0.89164310693740856 -0.74479621648788441 1.1330497860908511 -0.05249450542032718 -0.80909791588783253 -0.94555845856666554 -1.5219027400016782 -0.079005904495716081 -1.5330354571342466 -1.0442715287208555 1.1280758380889895 0.96195241808891307 -0.0035955948987975712 -0.020729404874145981 0.77483290433883678 0.10475414618849756 0.59125173091888439 1.0000000180025095e-35 1.2869071960449221 1.3998610377311709 1.0974496006965639 0.39543204009532934 0.16086637973785403
decision_type=2 2 2 2 2 2 2 2 2 2 2 2 2 2 2 2 2 2 2 2 2 2 2 2 2 2 2 2 2 2 2 2 2 2 2 2 2 2 2 2 2 2 2
left_child=1 2 3 6 13 -6 8 -8 -1 11 17 12 15 -5 19 -3 -14 28 -19 -13 34 22 24 -24 -11 -16 30 -28 -4 36 -12 33 -33 -23 37 -36 41 38 -2 -39 -40 42 -22
right_child=20 9 10 4 5 -7 7 -9 -10 21 26 14 16 -15 25 -17 -18 18 -20 -21 29 31 23 -25 -26 -27 27 -29 -30 -31 -32 32 -34 -35 35 -37 -38 39 40 -41 -42 -43 -44
leaf_value=-2.0535923762287034 -1.3001367026763624 -1.7413690577981715 -1.8182668082369959 -1.2598704781262664 -1.8441109258087729 -1.656659900722899 -1.5977336131170787 -2.0878550558521631 -1.8007212633248848 -1.7972482508174958 -1.7705742176870163 -1.5294219594245031 -1.546728647865113 -2.0506516114253448 -1.6508401030673245 -2.0519192313443475 -1.914845308186411 -2.3324340046262488 -1.5121479025913089 -1.6836606507442444 -2.3324340046262488 -1.9262095976103542 -1.3375554494483968 -1.7957611707533834 -2.0477532338302153 -1.8384887029335022 -1.5295157936041388 -2.3324340046262488 -1.4496698805319665 -1.3225844864755332 -2.3324340046262488 -1.5480990932815195 -2.119720731821602 -2.3324340046262488 -1.7257154406245563 -1.1993918496106797 -1.81572419343293 -1.1993918496106797 -1.205821635043222 -1.2055018794308658 -1.1993918496106797 -2.3324340046262488 -2.3324340046262488
leaf_weight=4646.6840354204178 8.933458745479582 5100.3989161849022 35.871543049812317 21.495196163654327 17978.527830421925 2489.1307908296585 623.83616191148758 482.63112258911133 589.69341504573822 182.65255403518677 13.130657255649565 1258.6730192899704 565.73331278562546 1816.3668129444122 350.42775511741638 121.63832026720047 66.251688122749329 23.211845695972443 34.851443350315094 390.89860254526138 4.2363824844360369 4.5403403639793387 52.835912764072418 194.17497587203979 268.87126332521439 274.44979095458984 27.565403997898102 10.326182305812834 802.3077244758606 7.3056313395500174 48.012334823608398 11.757713735103605 43.354066431522369 37.509636580944061 6.079909801483157 12.208705544471739 1.7847513556480405 4092.3580985069275 15.552618324756621 16.366532027721405 44.765253663063049 1.7651593685150144 1.7651593685150144
leaf_count=41097 19 30912 242 38 125431 13206 2982 4416 3886 1198 83 5250 2447 16017 1841 1074 504 263 140 2168 48 35 130 1271 2364 1901 115 117 2776 17 544 51 409 425 36 15 12 5028 20 21 55 20 20
internal_value=-2.22159 -1.82741 -1.86128 -1.87231 -1.83945 -1.82131 -1.98786 -1.81152 -2.02512 -1.71489 -1.54392 -1.69767 -1.73098 -2.0414 -1.61193 -1.7486 -1.58532 -1.48972 -1.84007 -1.56597 -1.20298 -1.89086 -1.85849 -1.69775 -1.94642 -1.73326 -2.03445 -1.74833 -1.46544 -1.84007 -2.21177 -2.12362 -1.99777 -2.28857 -1.20042 -1.37436 -2.23588 -1.19966 -1.21383 -1.19942 -1.20105 -2.33243 -2.33243
internal_weight=0 38567.8 29643.6 28648.4 22305.5 20467.7 6342.84 1106.47 5236.38 8924.17 995.277 8128.47 5854.02 1837.86 2274.45 5222.04 631.985 896.243 58.0633 1649.57 4213.12 795.696 698.535 247.011 451.524 624.878 99.0346 37.8916 838.179 16.8571 61.143 97.1618 55.1118 42.05 4196.26 18.2886 9.55145 4177.98 69.2513 4108.72 60.3179 7.7667 6.00154
internal_count=268644 263333 211353 207073 154692 138637 52381 7398 44983 51980 4280 46097 34937 16055 11160 31986 2951 3421 403 7418 5311 5883 4963 1401 3562 3742 859 232 3018 117 627 920 460 460 5194 51 100 5143 94 5049 75 88 68
is_linear=0
shrinkage=1


Tree=1
num_leaves=49
num_cat=0
split_feature=45 128 32 30 123 89 75 134 54 136 74 32 34 49 73 55 40 52 136 132 30 75 69 110 83 30 29 113 37 107 122 100 99 111 112 93 28 125 74 32 114 97 82 34 30 110 30 74
split_gain=22967.7 6479.76 5194.32 5104.85 6437.3 4210.88 3148.29 3979.61 3233.65 2996.05 2739.78 1743.57 1307.81 1246.59 1230.77 1195.83 982.489 834.141 754.304 643.759 609.607 600.648 544.421 489.943 464.519 467.456 403.833 376.302 249.411 200.555 165.663 135.619 135.576 103.758 92.3565 233.123 109.445 232.943 191.963 122.449 114.845 62.7572 51.0435 5.95957 0.00254656 5.2958e-05 2.74856e-05 8.33977e-06
threshold=0.74034020304679882 1.0000000180025095e-35 0.94456025958061229 1.0876602530479433 -2.1619915962219234 -1.2437037825584409 -1.0429942607879636 1.0000000180025095e-35 1.05461061000824 1.0000000180025095e-35 -1.035642087459564 0.94706913828849804 0.94827938079833995 0.94314157962799083 -0.92137902975082386 0.97061192989349376 1.0672429800033572 1.0883015990257265 1.0000000180025095e-35 1.0000000180025095e-35 1.096834182739258 -1.1181103587150572 1.0000000180025095e-35 -0.81393462419509877 -1.4203533530235288 1.0824625492095949 1.0604105591773989 -0.87276011705398548 0.9892663061618806 -0.81186881661415089 -1.1099961400032041 -0.94961068034172047 -0.99064385890960682 -0.84042862057685841 -1.0212169885635374 -0.86227530241012562 1.3930919170379641 -0.41193795204162592 -1.0073859095573423 0.79745227098464977 -0.93746465444564808 -0.99030497670173634 -1.0551403164863584 0.73956140875816356 1.0907988548278811 -0.88774645328521717 1.0749253034591677 -0.90873152017593373
decision_type=2 2 2 2 2 2 2 2 2 2 2 2 2 2 2 2 2 2 2 2 2 2 2 2 2 2 2 2 2 2 2 2 2 2 2 2 2 2 2 2 2 2 2 2 2 2 2 2
left_child=19 2 3 4 16 17 7 10 18 -6 -4 24 -10 20 -15 -9 -2 27 -8 34 -5 23 26 -19 33 -26 -13 30 -24 -23 -3 -29 -21 -7 35 44 37 39 41 -36 -40 -38 45 -39 -1 46 -34 -46
right_child=1 5 6 13 9 11 8 15 12 -11 -12 22 -14 14 -16 -17 -18 21 -20 32 -22 29 28 -25 25 -27 -28 31 -30 -31 -32 -33 42 -35 36 -37 38 43 40 -41 -42 -43 -44 -45 47 -47 -48 -49
leaf_value=-0.1156826453164217 0.34853839863585001 0.045711093019736374 0.006613922821122914 0.29865404029598702 0.14441884291797366 -0.030827119700942748 0.33796965897095232 0.15614143768441602 0.2040236485266913 0.27775224281439481 0.2756472789354083 0.45839270982937547 0.39058463068900656 0.018826835635428446 0.27986193102511608 -0.024038551949836645 0.17074722696914188 0.44882307094048324 0.41941601476954188 0.43447802529208812 0.41740239029141624 0.31669127816081244 -0.060509480748110557 -0.11535801814350868 0.49520603362088877 0.31049942458599322 0.34277228938446225 0.36701814066992761 0.23539986039367472 0.0033541167386726954 0.19236920369656174 -0.06414711212334416 -0.11581658301300285 0.66721382766753001 0.2910442671273194 0.62204073894922696 0.31614026823956198 0.43184061284438569 0.39281173829891314 -0.11524253888202429 0.57212189385696433 -0.11733106089695843 0.21799019730386737 0.39493239527129936 -0.11884049416254849 -0.1153992507390907 -0.11616624653758692 -0.11907751988553393
leaf_weight=3.8606634885072726 2416.298692047596 142.56307543069124 393.60488839447498 732.76582179218531 13949.169325172901 22.10048004984856 5594.7259693071246 1254.3737655431032 2597.1855403482914 1916.8660370707512 9885.7394145131111 327.0525237172842 439.31136199831963 194.68004767596722 2501.8934862464666 521.48009538650513 356.70290349423885 148.35764075815678 1427.1825086697936 6.7154784351587287 1054.3340101614594 27.654960930347443 33.665172323584557 17.174371987581253 1309.0871075242758 153.03513004630804 3957.5185663327575 7.5687217712402335 185.07003535330296 78.159119464457035 167.53518484532833 201.83451242744923 21.578554898500446 2.3564703390002242 47.61784403026104 7.4892772063612929 8.4944001436233503 8415.2876458987594 47.018634036183357 8.7868756949901563 148.63158094882965 5.5042135566472998 5.5187400355935088 43.977660194039345 2.6570880487561235 2.879514746367934 2.5094830989837638 3.3635836094617835
leaf_count=33 7345 1018 3476 3036 93633 188 23233 7574 13638 9608 47705 715 1493 1626 10483 3968 2297 491 4738 28 3001 120 289 150 4156 648 13325 28 848 633 971 1761 183 4 235 13 33 5153 165 78 311 44 30 48 20 25 21 25
internal_value=0 0.254944 0.24128 0.208141 0.185096 0.346106 0.27593 0.241465 0.317238 0.160528 0.265346 0.37474 0.231015 0.303942 0.261016 0.103232 0.325668 0.12923 0.354523 0.429784 0.368712 0.271334 0.343742 0.390288 0.468644 0.475873 0.351598 0.0550067 0.189857 0.0852461 0.124945 -0.048563 0.0254528 0.0364304 0.431597 0.201244 0.432055 0.430298 0.503435 0.227752 0.52903 0.145701 -0.0590998 0.431649 -0.117687 -0.115805 -0.115853 -0.118973
internal_weight=0 52017 45236.3 23122.7 18639 6780.73 22113.6 12055.2 10058.4 15866 10279.3 5989.89 3036.5 4483.67 2696.57 1775.85 2773 790.848 7021.91 8781.89 1787.1 271.346 4503.31 165.532 1486.58 1462.12 4284.57 519.501 218.735 105.814 310.098 209.403 39.2018 24.457 8742.69 17.3706 8725.32 8515.67 209.649 56.4047 195.65 13.9986 32.4863 8459.27 9.88134 26.9676 24.088 6.02067
internal_count=268644 262199 236854 131029 112883 25345 105825 62723 43102 103241 51181 20173 15131 18146 12109 11542 9642 5172 27971 6445 6037 1394 15177 641 4996 4804 14040 3778 1137 753 1989 1789 287 192 6158 91 6067 5514 553 313 476 77 259 5201 78 229 204 45
is_linear=0
shrinkage=0.1


Tree=2
num_leaves=50
num_cat=0
split_feature=45 128 31 131 123 31 112 108 71 134 77 106 47 132 102 69 30 103 79 122 45 35 117 83 70 133 70 87 70 74 32 31 119 114 76 113 127 53 5 29 80 31 77 114 93 97 113 31 99
split_gain=13726.9 2950.45 2938.08 2376.88 2351 2857.65 2071.66 1693.22 1408.5 1255.51 1974.55 1290.43 1075.85 743.103 739.009 689.432 600.437 574.469 522.899 533.632 501.321 459.396 397.521 390.384 390.158 334.232 254.105 252.108 225.601 217.498 157.857 152.625 130.457 342.083 129.639 126.347 108.077 96.5228 95.8467 72.5316 82.3591 73.8898 35.3251 68.9499 25.8935 25.3666 22.2677 0.0556972 0.00915148
threshold=0.79716533422470104 1.0000000180025095e-35 0.99996486306190502 1.0000000180025095e-35 -2.1958191394805904 0.9747816026210786 -0.88529726862907399 -1.0795885920524595 -0.50987535715103138 1.0000000180025095e-35 -1.1931116580963133 -0.84511318802833546 1.2099303007125857 1.0000000180025095e-35 -0.858272224664688 -0.073550973087549196 1.043206572532654 -0.85999512672424305 -0.40393359959125513 -2.023204922676086 1.1023144721984866 0.93271192908287059 -1.576938211917877 -1.4386746883392332 -0.25824260711669916 1.0000000180025095e-35 -0.15431988984346387 -1.2907508611679075 -0.21192245185375211 -0.9582170546054839 0.96756833791732799 0.9616231918334962 -0.95491838455200184 -0.95587509870529164 -1.24482786655426 -1.1520223021507261 -1.1641334891319273 1.0379621386528017 0.77268713712692272 1.2503495216369631 -1.0371986627578733 0.9354427456855775 -1.124846279621124 -0.95986521244049061 -0.97964507341384877 -0.83568400144577015 -0.95071318745613087 0.93764019012451183 -0.99064385890960682
decision_type=2 2 2 2 2 2 2 2 2 2 2 2 2 2 2 2 2 2 2 2 2 2 2 2 2 2 2 2 2 2 2 2 2 2 2 2 2 2 2 2 2 2 2 2 2 2 2 2 2
left_child=13 2 4 9 18 12 15 -7 17 11 -11 -4 -6 25 -10 16 23 -5 19 -2 30 28 -20 -3 34 32 -23 -18 -17 -26 37 45 42 38 -22 -15 -35 -8 -34 41 46 48 -1 -44 -33 47 -41 -27 -37
right_child=1 6 3 8 5 7 20 -9 14 10 -12 -13 -14 35 -16 21 27 -19 22 -21 24 26 -24 -25 29 31 -28 -29 -30 -31 -32 44 33 36 -36 39 -38 -39 -40 40 -42 -43 43 -45 -46 -47 -48 -49 -50
leaf_value=0.52723542675595814 -0.092460676916947579 -0.074832210722750162 0.25764458743322444 0.08644503405648804 0.12156124664239387 0.59009914843368383 -0.087713619942563312 0.17354715855212965 0.31432189921982312 0.084126398441901659 0.23971883668902755 0.18401328316011742 0.017747125410988888 0.51731888703609619 0.15729672992808486 0.15552486179431305 0.17413417833669317 -0.077551735051791304 0.082418490732153071 0.21878570094436217 0.44797212587773833 0.24426762820617742 0.27763374335646285 0.34261963264004902 0.15554045658191248 -0.11809084923141591 0.12281518398993096 0.26896835600844587 -0.047200537586525593 -0.047080795824165966 0.4104193899888321 0.1659792498681755 -0.12006504334050967 0.27070452933221961 0.093162706474976598 -0.12131208825853459 0.31527783500056983 0.024437157306399296 0.16436256316748407 -0.11840650542918783 0.54494466859339807 0.3182546556316565 0.41126830248253976 0.14248172667800579 0.38912549514093742 0.19129346696921778 0.23777882565650135 -0.12727721229754471 -0.11668798284324229
leaf_weight=21.372040271759033 82.131369858980179 22.74349145591259 10234.248107992113 1002.8124131187797 8180.335198096931 98.044254414737225 131.8606925830245 20757.508820809424 366.29890009760857 1448.1706636622548 1867.3291714042425 3101.4834233894944 1136.9962218776345 4.3460103869438163 1648.8815555125475 235.14620215445757 313.07969705760479 271.40671464800835 109.39503259956837 167.27586717903614 53.265258088707924 2782.3218309059739 2244.802117832005 1490.2822333797812 246.15894766151905 12.514877185225492 183.63614075630903 2679.1302180960774 71.611486986279488 67.504718847572803 8.6560518667101842 12.508521124720575 20.017598263919353 573.82108675688505 12.765807658433912 4.6923559829592696 10460.643368035555 183.58227717876434 29.028727859258652 5.4457276314496985 4.150823935866355 4.2057398110628119 108.3021937161684 10.466024070978163 8.9000631123781186 2.8450616747140876 2.5899294167757025 13.964637987315653 48.693523943424225
leaf_count=33 490 199 35364 6019 46516 239 1128 94374 1131 8504 6297 12717 8110 9 6989 848 1240 2032 651 640 81 7207 4670 3006 1220 99 834 7169 414 565 18 39 147 1691 60 33 5577 1350 129 44 4 14 176 48 10 9 12 84 404
internal_value=0 0.190024 0.181217 0.211484 0.162803 0.154936 0.244764 0.175505 0.133805 0.226829 0.171758 0.24052 0.108893 0.309768 0.185839 0.25963 0.285006 0.051514 0.253976 0.11629 0.0804682 0.224699 0.268562 0.336345 0.158443 0.311843 0.236748 0.259046 0.108199 0.111934 -0.0108829 0.0557498 0.313001 0.311789 0.379377 -0.00582036 0.31296 -0.0224438 0.0482773 -0.0384032 0.183235 -0.0853022 0.40888 0.387582 0.258747 -0.0924491 -0.00360633 -0.122936 -0.117094
internal_weight=0 61198.9 52717.1 19940.6 32776.5 30172.9 8481.75 20855.6 3289.4 16651.2 3315.5 13335.7 9317.33 11348.5 2015.18 7777.95 4505.24 1274.22 2603.6 249.407 703.794 3272.72 2354.2 1513.03 379.695 11274.4 2965.96 2992.21 306.758 313.664 324.099 50.7332 11223.7 11083.5 66.0311 74.1241 11034.5 315.443 49.0463 69.7781 12.1865 57.5916 140.14 118.768 21.4086 29.3246 8.03566 26.4795 53.3859
internal_count=268644 260082 234743 79053 155690 149239 25339 94613 16171 62882 14801 48081 54626 8562 8120 20917 11614 8051 6451 1130 4422 9303 5321 3205 1926 8042 8041 8409 1262 1785 2496 241 7801 7544 141 520 7268 2478 276 511 60 451 257 224 49 192 56 183 437
is_linear=0
shrinkage=0.1


Tree=3
num_leaves=52
num_cat=0
split_feature=45 35 31 30 128 123 131 112 73 31 22 133 136 106 68 58 99 55 75 69 69 128 132 110 74 82 31 0 114 109 110 99 98 82 98 101 31 112 107 109 31 89 70 42 31 114 99 74 54 31 114
split_gain=10688.2 1913.61 1611.84 2293.12 1907.54 2223.98 1594.48 1063.86 773.23 550.939 544.372 541.222 510.252 379.086 400.111 467.952 355.222 308.545 304.166 301.792 293.089 237.467 230.451 214.204 208.71 129.253 116.22 96.551 75.5847 146.67 88.2297 74.2072 67.4874 55.1112 53.2583 58.8773 40.1849 104.601 39.771 28.1028 22.7971 12.4056 4.17182 0.0397492 0.0373416 0.0285925 0.0226288 0.0162417 0.0103302 0.00203341 0.000964642
threshold=0.74034020304679882 0.92260506749153148 1.0036410093307497 1.0938996672630312 1.0000000180025095e-35 -2.1619915962219234 1.0000000180025095e-35 -0.88529726862907399 -0.891863852739334 1.0111721754074099 1.2767885327339175 1.0000000180025095e-35 1.0000000180025095e-35 -0.78766560554504383 0.023728908039629463 0.88318541646003734 -0.95873957872390736 1.0054353475570681 -1.1241487860679624 -0.081612441688776002 -0.018083657138049599 1.0000000180025095e-35 1.0000000180025095e-35 -1.0682851076126096 -0.98211929202079762 -0.95453178882598866 1.0044655799865725 0.58212181925773632 -0.92882633209228505 -0.90868553519248951 -0.91145497560501088 -1.0135283470153806 -0.97286772727966297 -1.0551403164863584 -0.9681204855442046 -0.90783751010894764 0.9281655251979829 -0.91438075900077809 -0.93304911255836476 -0.90176934003829945 0.91016638278961193 -1.1046447753906248 -0.624446541070938 1.0848991870880129 0.97724083065986644 -0.95506241917610157 -0.99064385890960682 -1.0073859095573423 1.0533465743064883 0.97128790616989147 -0.95828706026077259
decision_type=2 2 2 2 2 2 2 2 2 2 2 2 2 2 2 2 2 2 2 2 2 2 2 2 2 2 2 2 2 2 2 2 2 2 2 2 2 2 2 2 2 2 2 2 2 2 2 2 2 2 2
left_child=22 2 3 4 5 -2 10 -6 27 -10 19 13 -12 14 21 -16 18 43 -5 -4 -19 -3 28 44 -18 26 -25 -8 29 34 45 -24 -32 46 -1 -36 39 41 -27 42 -41 -38 -30 -15 49 -31 -33 -39 -46 -13 -48
right_child=1 11 6 16 7 -7 8 -9 9 -11 12 23 -14 17 15 -17 24 20 -20 -21 -22 -23 31 25 -26 38 -28 -29 36 30 32 33 -34 -35 35 -37 37 47 -40 40 -42 -43 -44 -45 48 -47 50 -49 -50 -51 -52
leaf_value=0.35502578010937624 0.19284084631446741 0.047962930709224777 0.13887170597441917 0.022425829881253911 0.22238866526082304 0.1114973455367428 -0.060452309542804984 0.040971038785467435 0.081391343252526019 0.18823444098593797 0.18473427042378804 -0.11567571664969552 0.23838376649288773 -0.11762137030493214 0.2152142760123503 0.17701855801971411 0.12309849486821078 0.18460282357496482 0.2544491952360492 -0.11145986101237026 0.064154816227826011 0.2267074293831457 0.34958106064903394 -0.044959257798977838 0.20731263964031316 0.18073927427995395 0.18656278326658965 0.10172436910254652 0.29258848168738677 -0.12268414506582059 0.38627617549266358 -0.122489827479574 0.077891260352842287 0.17174043545807391 0.14694459926336817 0.34066094486737297 0.28929649930838613 -0.12858432121450258 0.51213539974398781 0.25697735679633321 0.20011990147865988 0.17001923165146043 0.34681557436668997 -0.1293244939893807 -0.12296957884456368 -0.13108214948025199 -0.11257552894232348 -0.13701823604972704 -0.12009451489197816 -0.11792315882830479 -0.11483045624900566
leaf_weight=37.685394093394279 3762.9445987716317 302.58085735142231 1277.1793046966195 58.461019404232502 2788.3761850968003 31476.624785840511 297.9509399086237 365.62540952861309 1255.7101551368833 783.92265099287033 7314.909517198801 15.891348183155062 2339.8324839472771 46.869756571948528 5580.3803699463606 7543.4057013168931 456.84364668279886 515.25495493412018 1684.2576108947396 50.045919269323349 332.32012605667114 98.527697063982487 5.7469205409288397 49.154774598777294 827.06559373438358 6.1679672524332991 38.79358497262001 41.868058614432812 23.354081571102142 6.6456035673618343 8.8918315917253476 2.6819985508918753 35.144095718860626 9.1878428608179075 49.424017392098904 22.986973315477371 21.394381836056709 5.7164115011692029 8.771065451204775 11388.174231752753 70.95801953971386 14.718634575605391 36.143361583352089 3.0937511175870887 20.404188364744186 10.396627709269522 20.803778693079952 3.8020271211862564 32.249432146549225 5.3916242942214003 2.0875132009387043
leaf_count=38 9625 1285 4274 364 6358 148338 2408 2363 5857 2677 23697 136 6173 380 13091 23000 1496 1682 3576 278 1696 177 8 323 2066 31 153 250 23 45 8 18 133 32 165 15 23 34 17 5382 158 30 26 18 135 58 210 20 233 42 19
internal_value=0 0.151774 0.1432 0.133458 0.126852 0.120183 0.173402 0.201358 0.0991877 0.122456 0.189481 0.183944 0.197736 0.186076 0.190253 0.19326 0.217261 0.123142 0.246666 0.129432 0.137377 0.0918695 0.254812 0.0100559 0.177347 0.103358 0.057164 -0.040471 0.255634 0.18967 0.0653916 0.0167057 0.140161 -0.0383273 0.258616 0.20844 0.25661 0.162953 0.37531 0.256981 0.256625 0.240682 0.32553 -0.118346 -0.11978 -0.127807 -0.113799 -0.131953 -0.121209 -0.116245 -0.112781
internal_weight=0 69380.9 54781.6 41420.2 38393.6 35239.6 13361.4 3154 2379.45 2039.63 10982 14599.3 9654.74 14422.4 13524.9 13123.8 3026.63 897.539 1742.72 1327.23 847.575 401.109 11775.9 176.824 1283.91 102.887 87.9484 339.819 11735.4 171.175 61.0782 40.5081 44.0359 34.7611 110.096 72.411 11564.3 45.6315 14.939 11518.6 11459.1 36.113 59.4974 49.9635 73.9366 17.0422 25.5733 9.51844 52.6536 21.283 22.8913
internal_count=268644 262199 219800 174186 166684 157963 45614 8721 11192 8534 34422 42399 29870 41329 37553 36091 7502 3776 3940 4552 3378 1462 6445 1070 3562 524 476 2658 6158 462 244 287 141 279 218 180 5696 107 48 5589 5540 53 49 398 546 103 247 54 368 178 229
is_linear=0
shrinkage=0.1


Tree=4
num_leaves=46
num_cat=0
split_feature=116 32 30 75 128 110 106 75 134 0 133 40 107 31 127 56 131 49 73 95 106 1 135 35 62 20 69 126 111 103 43 36 33 41 113 75 105 85 29 32 43 53 27 42 112
split_gain=9353.37 1318.93 1633.17 2355.44 2337.7 1340.41 1268.32 1082.42 2247.5 1352.03 1050.22 1039.57 1194.16 968.914 908.5 856.424 801.381 590.159 557.183 366.158 328.444 315.444 299.48 250.079 211.721 136.696 268.563 118.475 68.5779 53.4516 186.74 38.9667 16.7435 92.2709 15.7598 70.2783 25.2855 18.9859 13.6552 1.72029 2.42445 1.39188 1.10564 0.0467701 0.0284762
threshold=-0.80398225784301747 0.93401378393173229 1.0839118957519533 -0.52802446484565724 1.0000000180025095e-35 -0.83474835753440846 -0.99514237046241749 -1.0242142677307127 1.0000000180025095e-35 0.29554572701454168 1.0000000180025095e-35 1.0672429800033572 -0.9826010763645171 1.0009161829948428 -3.3030606508255 0.98701629042625438 1.0000000180025095e-35 0.94314157962799083 -0.91249775886535633 -1.0333762168884275 -0.90169334411621083 0.62427961826324474 1.0000000180025095e-35 0.72524073719978344 0.67262041568756115 1.197535574436188 -0.087641559541225419 -1.4540590643882749 -0.82394829392433155 -0.8223411738872527 1.037935793399811 0.92073035240173351 0.77483290433883678 0.66007161140441906 -0.81587633490562428 -0.72390562295913685 -0.93483483791351307 -0.45907208323478693 1.0085579156875613 0.8258795738220216 0.66898509860038768 0.78686076402664196 1.3498309254646303 0.62846043705940258 -0.93611156940460194
decision_type=2 2 2 2 2 2 2 2 2 2 2 2 2 2 2 2 2 2 2 2 2 2 2 2 2 2 2 2 2 2 2 2 2 2 2 2 2 2 2 2 2 2 2 2 2
left_child=1 2 3 4 6 7 -1 8 16 10 -9 12 -5 -10 -13 -11 -3 20 21 -20 22 -19 -4 -22 -6 26 27 -7 -28 30 -27 -31 34 38 35 36 -2 44 43 41 -41 42 -36 -34 -37
right_child=32 5 17 11 24 25 -8 9 13 15 -12 14 -14 -15 -16 -17 -18 18 19 -21 23 -23 -24 -25 -26 29 28 -29 -30 31 -32 -33 33 -35 39 37 -38 -39 -40 40 -42 -43 -44 -45 -46
leaf_value=0.30276170515178036 0.08041142401573198 0.14464117730344372 0.13477613832798682 0.2518172872366029 0.19836045157529614 -0.063267556867056485 0.058153085548555354 0.13665824049606587 0.0060167430519762182 0.18661126228383768 0.011295728982170097 0.2066953052645468 0.13660648419428426 0.10119422394945202 -0.034341833805851867 0.050464306365344852 0.095286824347280377 -0.0546146791816483 0.19463714009542454 0.12077932196967428 0.063188177037782248 0.098829365867646249 0.21306487267613466 0.20343626678161175 0.012095764523486824 -0.083143370753067769 0.010572372084485736 0.25151710484275891 -0.11996814247856474 -0.10836456795461083 0.20487090177728118 0.026862065297508782 -0.13234205664585699 0.23953760051718392 0.22152552114827864 -0.11606712745398327 0.27977606032447716 0.17598770214042314 0.081065726466280463 0.18162441712945637 0.22352891006713574 0.23925407243737135 0.23733709108136947 -0.14701371174785571 -0.12870536063431687
leaf_weight=215.26194705814123 8.2741810604929906 23312.495851635933 641.28828707337379 1336.083256483078 1499.5816775262356 14.602069757878779 13880.199555203319 4342.6104302108288 1872.6206913888454 9808.7462006658316 789.79955177009106 231.01797821372747 2754.1894528642297 2494.2150599509478 483.9408745020628 484.87226602435112 3830.5197749435902 246.94735272228718 860.24538530409336 3055.0379008203745 375.15735624730587 292.85558671504259 2052.4241438657045 192.31650522351265 63.612889900803566 81.09478272497654 209.05589500814676 65.989625163376331 49.836895987391472 161.72834388911724 31.162435315549374 24.543110705912113 4.3407618850469571 40.193587690591812 11585.267548561096 6.4743479266762707 27.523955158889294 2.8726878166198722 4.1355074346065512 25.852807968854904 29.631595849990845 44.759518429636955 44.393918991088867 4.3502475321292877 2.4603234082460412
leaf_count=540 34 68028 1663 2448 2708 85 71934 13873 9541 24409 4371 544 6498 10263 3273 1878 16136 1481 2169 9879 1519 1374 3992 503 288 652 1082 216 377 1240 137 135 25 19 5093 57 34 7 13 31 13 26 20 20 16
internal_value=0 0.125477 0.108333 0.09355 0.0747559 0.135632 0.0618887 0.137589 0.126964 0.159294 0.117367 0.154794 0.17424 0.0603795 0.0435422 0.180198 0.137676 0.147537 0.123876 0.137007 0.179861 0.0286323 0.194427 0.110718 0.190781 -0.00833761 0.0350681 0.194483 -0.0145567 -0.0576982 -0.00319104 -0.0905471 0.221085 0.165015 0.221337 0.163916 0.233696 -0.0476447 -0.0685115 0.22157 0.204004 0.221654 0.221586 -0.139686 -0.119547
internal_weight=0 75754.1 28180.2 20463.9 15658.7 47573.9 14095.5 46935.9 31509.9 15426 5132.41 4805.23 4090.27 4366.84 714.959 10293.6 27143 7716.27 4455.09 3915.28 3261.19 539.803 2693.71 567.474 1563.19 638.013 339.484 80.5917 258.893 298.529 112.257 186.271 11830.5 53.0201 11777.5 47.6055 35.7981 11.8074 12.8265 11729.9 55.4844 11674.4 11629.7 8.69101 8.93467
internal_count=268644 263236 110813 88233 75470 152423 72474 148499 103968 44531 18244 12763 8946 19804 3817 26287 84164 22580 14903 12048 7677 2855 5655 2022 2996 3924 1760 301 1459 2164 789 1375 5408 77 5331 148 68 80 58 5183 44 5139 5113 45 73
is_linear=0
shrinkage=0.1


Tree=5
num_leaves=43
num_cat=0
split_feature=115 74 97 32 77 107 73 114 134 75 92 30 136 114 123 134 129 74 80 30 98 53 55 32 57 33 7 84 68 19 44 32 125 72 107 56 125 74 75 128 32 31
split_gain=8611.12 1082.91 1414.84 1155.55 1371.36 790.161 704.922 736.501 694.054 567.204 1133.35 549.111 435.149 292.91 257.228 220.591 219.446 201.467 176.543 101.393 119.663 84.296 274.79 80.8671 63.0359 23.5255 91.3798 51.851 30.1415 11.8907 11.0783 1.60834 2.38562 1.00093 0.971955 0.587043 0.105167 0.0928102 0.0385762 0.00543389 0.00298655 0.00101774
threshold=-0.82540583610534657 -1.0143116712570188 -0.98153987526893605 0.92843118309974682 -0.39291809499263758 -1.0359678864479063 -0.8536168336868285 -1.1750725507736204 1.0000000180025095e-35 -1.1804265975952146 -1.1850341558456419 1.0948382616043093 1.0000000180025095e-35 -0.96618762612342823 -2.2250819206237789 1.0000000180025095e-35 1.0000000180025095e-35 -1.0045400261878965 -1.0631871223449705 1.0843964219093325 -0.97524765133857716 1.0338577032089236 0.97527539730072033 0.95810988545417797 0.83173149824142467 0.77483290433883678 1.1208478808403017 -1.4697107672691343 0.0030673001892864708 1.1367117762565615 1.0566262006759646 0.8258795738220216 1.0000000180025095e-35 -0.55874198675155629 -0.85292911529541005 0.70293313264846813 -0.41193795204162592 -1.027436316013336 -1.1204348206520078 1.0000000180025095e-35 0.93401378393173229 0.99985739588737499
decision_type=2 2 2 2 2 2 2 2 2 2 2 2 2 2 2 2 2 2 2 2 2 2 2 2 2 2 2 2 2 2 2 2 2 2 2 2 2 2 2 2 2 2
left_child=1 8 13 4 5 -4 15 -8 9 21 12 -12 -11 18 -6 -5 17 -15 24 37 38 30 -23 -18 -3 31 27 29 39 -27 -1 33 -33 34 -2 -36 -28 41 -21 -29 -39 -10
right_child=25 2 3 6 14 -7 7 -9 19 10 11 -13 -14 16 -16 -17 23 -19 -20 20 -22 22 -24 -25 -26 26 36 28 -30 -31 -32 32 -34 -35 35 -37 -38 40 -40 -41 -42 -43
leaf_value=-0.10719191575852816 0.21248345275950076 0.077898500886996486 0.22814570645614768 0.057976358987197489 0.17245859133063524 0.074953595699254777 0.051186649668548884 0.11859394462798566 -0.12082738725200839 0.172295545699759 0.050516085994394749 0.12628675334049061 0.39652812367239099 0.15623251249775388 0.02014352298947945 -0.053648302058904952 -0.02261801562024256 0.20558267748440562 0.2618268476346684 -0.12097418446420261 0.38337188188241733 0.30968146075215625 -0.074211258774281044 0.17262841498368889 -0.074872387082346545 0.17969931344041512 -0.1217182343113079 -0.11676265059168785 0.3070491503304536 0.27776931079119338 0.02625328784813365 0.15855811609830317 0.19977656274530886 0.18422899447155472 0.1973553849840031 0.20821490977411977 -0.14282631300471083 -0.1254946776689366 -0.13416402032018282 -0.11135286206676664 -0.12442957269125719 -0.11934988240868952
leaf_weight=180.61973068863153 42.887740850448608 343.14790309220552 342.99938914179802 900.29539486765862 1941.3875452876091 18332.02360573411 1679.2777081429958 46636.891953915358 102.82906313240528 287.56130185723305 4226.991193972528 1236.1425919979811 123.80518586933613 1551.90550750494 117.590391241014 220.37421803176403 72.89493265748024 1771.5362509191036 52.452504098415375 5.9798423275351524 8.969322666525839 23.667033553123474 87.885358579456806 29.92031155526638 29.31633386015892 24.773105390369892 3.6480264514684677 4.6256849542260152 2.1719703152775764 24.68017166107893 6.4430217444896689 26.421304449439049 29.968294620513916 57.484080635011196 11659.025305114686 49.992670252919197 6.6871257424354535 49.827059641480446 3.524189695715906 3.10178592056036 55.816558316349983 4.8834815025329581
leaf_count=1468 19 1023 771 3246 2703 76243 7740 134316 721 1245 19204 3309 92 3649 537 1247 306 3545 29 42 9 94 736 73 134 27 25 38 10 22 45 31 13 36 5090 23 32 308 19 34 354 36
internal_value=0 0.105948 0.109361 0.106122 0.0863067 0.0777672 0.114433 0.116251 0.0665001 0.0728793 0.0797135 0.0676607 0.239781 0.168375 0.16376 0.0360259 0.178087 0.182538 0.0900628 -0.103366 0.121383 -0.0615664 0.00723569 0.0342007 0.065874 0.196972 0.13904 0.186824 -0.0220819 0.228642 -0.102596 0.197312 0.180464 0.197392 0.197457 0.197402 -0.135376 -0.122826 -0.125865 -0.114591 -0.124932 -0.12076
internal_weight=0 80427 74022 70170.8 20734 18675 49436.8 48316.2 6404.94 6173.12 5874.5 5463.13 411.366 3851.17 2058.98 1120.67 3426.26 3323.44 424.917 231.83 18.4734 298.615 111.552 102.815 372.464 11935.5 69.6879 59.3527 9.89944 49.4533 187.063 11865.8 56.3896 11809.4 11751.9 11709 10.3352 213.356 9.50403 7.72747 105.644 107.713
internal_count=268644 263244 235562 226803 80254 77014 146549 142056 27682 26193 23850 22513 1337 8759 3240 4493 7573 7194 1186 1489 70 2343 830 379 1157 5400 188 131 82 49 1513 5212 44 5168 5132 5113 57 1419 61 72 662 757
is_linear=0
shrinkage=0.1


Tree=6
num_leaves=53
num_cat=0
split_feature=45 128 88 136 34 30 6 30 123 55 29 74 91 74 53 133 110 75 31 53 110 54 115 110 114 69 0 109 29 37 113 99 105 135 136 58 82 31 112 43 89 31 101 86 33 57 31 63 108 114 30 74
split_gain=8156.83 1030.33 824.228 787.049 1084.85 1043.2 1859.7 947.555 1172.76 1107.63 645.809 591.059 519.701 632.567 400.229 387.332 448.777 316.173 215.459 209.628 204.144 192.133 212.278 161.429 146.626 134.924 129.767 116.937 114.598 103.639 95.3787 107.913 83.3674 68.5904 120.654 65.99 53.1744 49.7867 62.7475 36.3901 17.3015 14.8914 59.8424 13.4569 12.5232 58.2935 11.1143 10.8315 9.97213 13.2893 6.95914 0.0261951
threshold=0.74034020304679882 1.0000000180025095e-35 -1.2667589783668516 1.0000000180025095e-35 0.91244894266128551 1.0839118957519533 0.64033481478691112 1.060618579387665 -1.3152509927749632 1.0177364349365237 1.1073443889617922 -1.0321322679519651 -1.2092671394348142 -1.0045400261878965 1.0626623034477236 1.0000000180025095e-35 -0.93273091316223133 -1.11697381734848 0.98042988777160656 1.1135925054550173 -1.0682851076126096 1.0802791118621828 -1.0744753479957578 -0.81393462419509877 -0.93567329645156849 -0.0067517857532948247 0.30961544811725622 -0.90868553519248951 1.0618248581886294 0.95202031731605541 -0.87276011705398548 -0.84709766507148732 -0.97450965642929066 1.0000000180025095e-35 1.0000000180025095e-35 0.77438533306121837 -1.0354416966438291 0.9281655251979829 -0.91438075900077809 0.60125917196273815 -1.103054881095886 0.90276977419853222 -0.90666058659553517 -1.1231952905654905 0.77483290433883678 0.57045122981071483 1.0058258771896365 0.22279199212789538 -0.90542176365852345 -0.92523196339607228 1.0839118957519533 -1.0073859095573423
decision_type=2 2 2 2 2 2 2 2 2 2 2 2 2 2 2 2 2 2 2 2 2 2 2 2 2 2 2 2 2 2 2 2 2 2 2 2 2 2 2 2 2 2 2 2 2 2 2 2 2 2 2 2
left_child=24 3 14 4 5 6 -2 8 9 -5 -10 -7 46 -14 30 16 -6 23 19 28 -17 25 -23 -16 27 -20 -21 33 -4 -19 31 -3 -29 34 39 -32 43 44 40 -1 -39 42 -35 -34 48 47 -9 -46 -26 -50 -43 -40
right_child=1 2 18 7 15 11 -8 12 10 -11 -12 -13 13 -15 17 20 -18 29 21 26 -22 22 -24 -25 37 -27 -28 32 -30 -31 35 -33 36 41 -36 -37 -38 38 51 -41 -42 50 -44 -45 45 -47 -48 -49 49 -51 -52 -53
leaf_value=0.14361370938652204 0.080835331647438863 0.03999021157239626 0.22368058502899754 0.1512423582488342 0.12713325508592496 0.016579397585396751 0.031439078871380838 0.31533567228712972 -0.043750663015126166 0.031007367972112232 0.06534383053870961 0.11130117863904442 0.0051663745436371575 0.14777163550756117 0.17285907820370811 -0.11363410212052355 0.091424177426026418 -0.11657216364492827 0.12788976510125408 0.13709585959047493 0.054468679490870225 0.15682885866359281 -0.052163527386015686 -0.08206395739310926 0.22935271271777957 0.066428359952608998 0.0070271873852176068 0.26403677680188808 0.16020655377707096 0.055044289415563864 0.18295152385672853 -0.082816831021706047 0.044548167324982527 -0.050895087992870153 0.24788050286647617 -0.068991273956404961 0.16164992888508745 0.1788495009920793 -0.13361938248478278 -0.12266539179132263 0.051082955075880447 0.27039747798343755 0.25388702057104301 -0.12509394460423265 -0.13031020462752474 0.18953755746883333 0.25674134838895296 0.072139327045527543 0.13288765207111786 0.17978559069339528 0.19830381603648106 -0.14393313100329777
leaf_weight=6.4749625250697163 26208.638412833214 524.57419852912426 409.76795874536037 2959.0276377648115 6501.4685370102525 713.77168402075768 10747.142826154828 156.12961085140705 755.47992424666882 1033.8905069082975 1925.9010656028986 8548.3643790185452 335.74084402620792 4230.3232281804085 433.05646522343159 110.2512581050396 7673.1313463822007 38.45969745516777 7633.4817577376962 217.91299633681774 209.54539392143488 78.396606646478176 127.87524122744799 26.352298475801945 40.336509093642235 374.71142560243607 118.37014757096767 9.0190852880477888 929.95274995267391 413.74533215910196 10.982472538948057 82.85435838252306 5.2677361592650405 10.091290459036829 19.847420215606689 194.74383619427681 8.8156249672174436 30.883793830871578 6.1924644857645035 24.749442353844643 16.136198431253437 26.348530501127243 17.814988791942596 41.628388091921806 7.9859586134552938 38.617427110671997 40.839936465024948 3.9498144388198853 60.730606883764267 11893.845092505217 27.223350584506989 4.0883855521678907
leaf_count=18 94902 2008 402 5691 15156 3573 48299 93 3134 3554 6355 21664 1307 9767 812 768 21688 189 14164 494 866 145 505 208 20 1072 413 12 1403 1458 31 414 23 42 9 1627 18 29 34 189 34 21 11 295 48 17 37 10 117 5455 23 20
internal_value=0 0.0904607 0.118102 0.0860108 0.0814775 0.0739917 0.0664704 0.110074 0.085759 0.12011 0.0346064 0.104002 0.144147 0.137286 0.0543121 0.105347 0.107803 0.0998078 0.129226 0.161902 -0.00348547 0.122559 0.0272671 0.158236 0.177669 0.125014 0.0913123 0.0921523 0.179621 0.0404484 0.00330777 0.0232391 -0.0180189 0.145954 0.0550946 -0.0555416 -0.0636804 0.179063 0.0860711 -0.0674475 0.135003 0.202907 0.143674 -0.106038 0.179506 0.129838 0.303187 -0.0633151 0.179715 0.179547 0.233762 -0.137721
internal_weight=0 83764.9 11615.2 72149.6 60712.3 46217.9 36955.8 11437.3 6674.3 3992.92 2681.38 9262.14 4763.03 4566.06 1724.77 14494.4 14174.6 911.614 9890.47 1676 319.797 8214.47 206.272 459.409 12300 8008.19 336.283 197.281 1339.72 452.205 813.155 607.429 64.7308 132.55 51.0718 205.726 55.7117 12102.8 57.3008 31.2244 47.02 81.4782 27.9063 46.8961 12045.5 50.5532 196.97 11.9358 11994.9 11954.6 53.5719 10.2809
internal_count=268644 262199 25345 236854 206916 168438 143201 29938 18734 9245 9489 25237 11204 11074 6747 38478 36844 2667 18598 2712 1634 15886 650 1020 6445 15236 907 661 1805 1647 4080 2422 348 313 216 1658 336 5784 117 207 63 97 53 318 5667 75 130 58 5592 5572 44 54
is_linear=0
shrinkage=0.1


Tree=7
num_leaves=44
num_cat=0
split_feature=115 128 80 114 74 134 57 34 76 82 89 70 37 62 30 117 54 74 75 56 40 54 122 123 125 113 72 109 107 33 7 84 20 60 57 19 32 16 72 24 56 44 128
split_gain=7795.44 812.059 738.489 953.902 1253.94 1463.14 876.52 788.056 1100.75 906.379 649.17 223.818 266.101 297.954 246.13 218.138 185.085 291.173 162.727 161.98 151.504 145.759 131.727 119.581 104.753 100.46 93.6458 83.3167 29.6966 16.8683 63.5749 35.4713 28.6784 10.5393 9.51643 7.96484 2.07068 3.30459 1.07357 0.498308 0.44332 0.0393025 0.00446189
threshold=-0.82540583610534657 1.0000000180025095e-35 -0.28554783761501307 -1.1061748266220091 -0.91649675369262684 1.0000000180025095e-35 0.93840956687927257 0.82262867689132702 -0.54826673865318287 -0.96201756596565235 -1.2364935278892515 -0.22718850523233411 0.97140392661094677 0.62297204136848461 1.040183484554291 -0.88554522395133961 1.0299468040466311 -0.98540246486663807 -1.0907567143440244 0.97943013906478893 1.0440178513526919 1.0856510400772097 -2.0922467708587642 -1.1116335988044737 -2.7015997171401973 -1.3395476937294004 -0.32688613235950464 -1.0901373624801634 -0.85292911529541005 0.77483290433883678 1.1208478808403017 -1.4697107672691343 1.2123685479164126 0.84474927186965953 0.90382739901542675 1.1367117762565615 0.8258795738220216 1.2129077911376955 -0.55874198675155629 1.4926913380622866 0.70293313264846813 0.6202586591243745 1.0000000180025095e-35
decision_type=2 2 2 2 2 2 2 2 2 2 2 2 2 2 2 2 2 2 2 2 2 2 2 2 2 2 2 2 2 2 2 2 2 2 2 2 2 2 2 2 2 2 2
left_child=1 2 3 7 5 -5 -6 9 -9 -1 15 14 13 -13 18 16 23 -18 -12 -14 22 -16 25 -3 27 -4 -26 -22 -17 36 31 35 -33 -24 -30 -31 38 -38 39 40 -2 -32 -34
right_child=29 10 20 4 6 -7 -8 8 -10 -11 11 12 19 -15 21 28 17 -19 -20 -21 24 -23 33 -25 26 -27 -28 -29 34 30 41 32 42 -35 -36 -37 37 -39 -40 -41 -42 -43 -44
leaf_value=0.01034616942142158 0.16672099014874553 -0.0082087387953172219 0.13619326400956699 0.076871626012436731 0.11685979080820637 0.018572196201207945 0.065304705142679664 0.025039332348675721 0.087503715903235121 0.15484128203703018 0.19477281143434991 0.12780757941783782 0.12830883971062648 -0.016507218608372155 0.1121908184611967 0.10494735473470476 0.16038644133893276 0.034577367697934396 0.13232598049624453 0.085049000258559146 0.16551857642348039 -0.11664214044450505 0.10321981316432059 0.14331296278460931 0.31257107610708212 -0.14564423600541998 -0.13135821606693038 0.10799217846451373 -0.11958220493884207 0.14769146551664764 -0.12290376136375832 0.29968093040850186 -0.11539545066490953 0.20667787511634048 -0.063111189037437718 0.22771389513539933 0.16886796101016197 0.11960183281363919 0.15286576240279545 0.17740915501734322 0.17630398230893188 -0.13616795116431274 -0.11045153053567765
leaf_weight=630.55511717498302 11199.536742195487 490.16264682263136 17.577038288116455 36517.992210179567 11930.494800560176 4880.1077337637544 4557.5206747204065 9811.8796909973025 3959.6075758561492 1393.456754103303 642.0320243164897 219.21222166717052 1550.3796025514603 411.83774152398109 4511.8032990992069 7.8598799481987944 302.45942930877209 469.55108992755413 1192.0976354777813 1959.4966847002506 1170.5490370094776 28.008250623941422 16.655235320329666 58.277785956859589 5.9974981695413616 45.09259144961834 22.878490835428238 320.7555890083313 70.231815099716187 24.272257670760155 5.2687589228153211 2.1675853580236417 4.3487615883350372 24.086017966270447 51.889684207737446 25.510878577828407 31.165809869766235 24.177155748009682 55.532850041985512 44.132187604904175 48.483149811625481 3.8781469315290451 3.1461167484521866
leaf_count=2794 5089 2262 22 111758 26467 20706 13427 44374 11519 4753 616 346 2356 1328 8277 30 568 1756 1860 4416 1231 120 30 254 5 191 140 532 638 27 37 6 38 17 451 22 14 30 36 20 23 20 38
internal_value=0 0.0786591 0.074814 0.073344 0.0792877 0.0699991 0.102609 0.0515623 0.0429992 0.109826 0.102859 0.11151 0.0934089 0.0336244 0.123269 0.040144 0.0523114 0.083867 0.154185 0.104158 0.141526 0.110779 0.0244036 0.0078921 0.149493 -0.0665969 -0.0391548 0.153146 -0.0834613 0.166344 0.116902 0.154667 -0.0206714 0.164384 -0.0955876 0.188698 0.166642 0.147346 0.166736 0.166804 0.166762 -0.128528 -0.11332
internal_weight=0 87270.5 75305.2 73681.6 57886.1 41398.1 16488 15795.5 13771.5 2024.01 11965.3 10514.9 4140.93 631.05 6373.94 1450.43 1320.45 772.011 1834.13 3509.88 1623.59 4539.81 103.411 548.44 1520.18 62.6696 28.876 1491.3 129.981 11471.6 68.5925 59.4456 9.66246 40.7413 122.121 49.7831 11403 55.343 11347.7 11292.2 11248 9.14691 7.49488
internal_count=268644 263244 237966 235798 172358 132464 39894 63440 55893 7547 25278 19319 8446 1674 10873 5959 4840 2324 2476 6772 2168 8397 260 2516 1908 213 145 1763 1119 5400 188 131 82 47 1089 49 5212 44 5168 5132 5112 57 76
is_linear=0
shrinkage=0.1


Tree=8
num_leaves=46
num_cat=0
split_feature=115 36 81 54 110 132 116 126 124 58 37 72 126 130 73 35 69 4 99 69 60 127 121 112 48 104 23 34 62 2 73 125 26 30 35 98 44 33 63 52 127 27 33 52 60
split_gain=7478.6 713.761 621.86 1155.89 858.799 1795.85 732.152 621.119 516.044 268.821 360.495 607.584 508.719 322.065 318.077 283.131 249.91 258.455 343.541 174.621 143.62 139.908 123.18 267.274 229.228 178.818 114.477 94.0942 79.0131 67.4549 44.437 31.4399 48.004 59.9022 25.4235 22.4404 22.1467 3.59621 8.44747 0.658414 0.267695 2.02337 0.132922 0.044594 0.00145869
threshold=-0.82540583610534657 0.93927046656608593 -0.25768692791461939 1.0843070149421694 -1.1878672838211057 1.0000000180025095e-35 -1.5012356638908384 -2.86708652973175 -2.3230078220367427 0.88318541646003734 0.97605925798416149 -0.58722749352455128 -1.8949238061904905 1.0000000180025095e-35 -0.74680444598197926 0.95558947324752819 -0.12377462536096571 0.53711402416229259 -0.85160481929779042 -0.077680412679910646 0.80441689491271984 -3.3030606508255 -1.8912419676780698 -1.2868836522102354 1.2225199341773989 -0.70068001747131337 1.3191717863082888 0.92199403047561657 0.7818984091281892 -0.24550643563270566 -0.39579740166664118 -0.41193795204162592 1.2084890604019167 1.0429126024246218 0.9007227122783662 -0.85913160443305958 1.0947464704513552 0.77483290433883678 0.31017206609249121 0.82838392257690441 1.0000000180025095e-35 1.171683728694916 0.77483290433883678 0.78176474571228038 0.69090917706489574
decision_type=2 2 2 2 2 2 2 2 2 2 2 2 2 2 2 2 2 2 2 2 2 2 2 2 2 2 2 2 2 2 2 2 2 2 2 2 2 2 2 2 2 2 2 2 2
left_child=1 2 3 4 8 -6 21 -8 -1 16 11 13 -13 -11 20 -16 26 19 -19 -18 -12 -5 23 28 -25 30 27 -3 -4 -27 -24 32 36 -34 44 -28 42 39 -39 40 41 -33 -2 -42 -35
right_child=31 9 22 6 5 -7 7 -9 -10 10 14 12 -14 -15 15 -17 17 18 -20 -21 -22 -23 25 24 -26 29 35 -29 -30 -31 -32 37 33 34 -36 -37 -38 38 -40 -41 43 -43 -44 -45 -46
leaf_value=0.16285470150142548 -0.13971838259442612 0.068146171630310323 0.13969704496270838 0.035389276598718926 0.067856670010633932 -0.0079228875494434352 0.082255133069858488 -0.012696146403169524 0.041279165080025604 0.14124479553804214 0.12150015456860962 0.097749679847138227 0.0052842654539528916 0.021939263068573942 0.068368633940154341 0.11958159060162177 0.096603044086225387 0.14264387239238951 0.03795290127843795 0.1392648385833414 0.20520504894194147 -0.12342315012224075 0.20367147229680788 -0.16459549053421407 0.077683630566789424 0.17775300261720828 0.3232116982546388 -0.063841278581241737 -0.078167909675532055 0.12697776814104475 -0.11905280590314618 0.12689409657005624 0.30908436054756677 -0.11487323326133754 0.26837949388627552 0.13383793082871828 0.1685915872245104 0.07175840537190481 0.16045573329084065 0.1440203639801588 0.15655848148082002 0.15702195962348153 -0.11845605649270935 0.15874651095672948 -0.11178707083129764
leaf_weight=1409.9215254858136 7.4101201593875867 86.768648810684681 393.79959646612406 63.258945718407631 63170.93097409606 3290.1498496159911 1158.1227935999632 1700.4908931180835 464.04604364931583 975.46032604575157 830.60992883145809 823.30832675099373 2145.6931632384658 294.60350729525089 3753.5968233719468 1515.30476038903 1572.2608271241188 470.46796693652868 939.13083252310753 2461.5438684746623 272.14116215705872 450.6443037763238 4.9494794458150855 66.024360418319702 95.589728116989136 526.73603074252605 9.9925516247749346 143.07812890410423 17.381281360983849 519.8814906924963 30.924050569534302 26.018509089946747 12.029411733150484 2.1412101313471776 2.2824409157037735 16.740040980279446 3.0803978890180579 16.740107998251915 29.945289134979248 42.350944384932518 10627.035325288773 155.61615133285522 4.8741811066865921 93.970878601074219 5.3787531852722168
leaf_count=2096 37 284 451 154 190341 15433 3120 8097 2041 1591 1605 2260 6805 883 9917 2885 3018 872 2402 3557 373 2746 5 297 171 406 13 533 55 624 163 20 9 19 5 46 11 37 14 37 4994 73 39 44 61
internal_value=0 0.0687726 0.0645659 0.0631671 0.0659877 0.0641052 0.00601646 0.0257719 0.132749 0.0876937 0.0782844 0.0556865 0.0309251 0.113571 0.0933188 0.0830972 0.10521 0.109756 0.0728946 0.122637 0.142157 -0.103874 0.125163 0.0876621 -0.0212949 0.145007 0.00876463 -0.0140152 0.130488 0.152532 -0.0745265 0.156036 0.0642545 0.159557 -0.0239413 0.204625 -0.0711616 0.156347 0.128651 0.156465 0.156513 0.152706 -0.131282 0.156578 -0.112666
internal_weight=0 89673.6 73362.9 71707.6 68335 66461.1 3372.52 2858.61 1873.97 16310.7 10610.7 4239.07 2969 1270.06 6371.65 5268.9 5699.98 5443.4 1409.6 4033.8 1102.75 513.903 1655.29 572.795 161.614 1082.49 256.579 229.847 411.181 1046.62 35.8735 11028.9 37.1965 21.8318 9.8024 26.7326 15.3647 10991.7 46.6854 10945 10902.6 181.635 12.2843 10721 7.51996
internal_count=268644 263244 226200 224028 209911 205774 14117 11217 4137 37044 26319 11539 9065 2474 14780 12802 10725 9849 3274 6575 1978 2900 2172 974 468 1198 876 817 506 1030 168 5400 181 94 85 59 87 5219 51 5168 5131 93 76 5038 80
is_linear=0
shrinkage=0.1


Tree=9
num_leaves=49
num_cat=0
split_feature=115 128 74 97 97 74 129 96 74 83 129 36 90 113 70 93 30 115 0 126 39 56 77 105 108 32 80 53 113 75 53 74 33 7 83 28 71 127 23 35 41 52 97 44 52 111 32 23
split_gain=7190.27 622.708 663.139 1102 1047.66 794.625 804.558 708.05 675.272 735.27 573.792 724.939 527.151 326.532 239.304 297.946 221.168 208.407 162.722 177.997 150.681 149.031 130.571 130.467 120.518 113.943 113.42 86.9558 71.5859 105.386 53.3055 19.8069 16.4123 49.0336 17.4528 29.1678 6.77515 2.31061 22.9826 11.937 24.2467 0.940671 0.758849 0.0364177 0.0301076 0.0384842 0.0204524 0.00141554
threshold=-0.82540583610534657 1.0000000180025095e-35 -1.0092627406120298 -0.97733625769615162 -0.99030497670173634 -0.98878511786460865 1.0000000180025095e-35 -0.97536545991897572 -1.0632036328315733 -1.3582354784011839 1.0000000180025095e-35 0.92073035240173351 -1.2150959968566892 -0.87276011705398548 -0.22718850523233411 -1.0153405070304868 1.0346980690956118 -0.98393452167510975 0.41550604999065405 -1.521045923233032 1.0041573643684389 0.97943013906478893 -1.2664801478385923 -0.91009828448295582 -0.78728500008583058 0.96591621637344371 -1.0631871223449705 1.1451227664947512 -0.89628103375434864 -1.1454027891159055 1.0379621386528017 -1.0706036090850828 0.77483290433883678 1.1208478808403017 -1.4931707978248594 1.1461177468299868 -0.45679350197315211 1.0000000180025095e-35 0.98283737897872936 0.65340173244476329 0.64245298504829418 0.82838392257690441 -1.1394200921058653 0.6202586591243745 0.78176474571228038 -0.55031105875968922 0.8258795738220216 1.2622497081756594
decision_type=2 2 2 2 2 2 2 2 2 2 2 2 2 2 2 2 2 2 2 2 2 2 2 2 2 2 2 2 2 2 2 2 2 2 2 2 2 2 2 2 2 2 2 2 2 2 2 2
left_child=1 2 4 17 8 6 -5 -7 31 -10 11 -6 18 -12 16 22 27 26 19 25 -18 -17 -16 -19 -21 -3 -4 -14 29 -20 -30 -1 37 34 36 -36 -34 38 -2 42 -41 44 -40 -35 46 -46 -39 -37
right_child=32 12 3 5 10 7 -8 -9 9 -11 13 -13 14 -15 15 21 20 23 28 24 -22 -23 -24 -25 -26 -27 -28 -29 30 -31 -32 -33 33 43 35 47 -38 41 39 40 -42 -43 -44 -45 45 -47 -48 -49
leaf_value=-0.1114820959726506 -0.19429800665814856 -0.086617210776092635 0.0071226243155940372 -0.0023975453725436579 -0.044228978495413705 0.09877984727234132 0.11876817537097061 0.057122576276200092 0.15809460049750057 0.050603322909206175 0.15832985747253409 0.14133224291808433 0.13994778074866071 -0.10355486079211101 0.045156846280936906 0.10561696235428611 0.081441097610110036 0.14873931019902295 0.28502305730130745 0.14338747431217216 0.12168076399357071 0.063849020252186278 -0.032118937077398421 0.10595041597856979 -0.12043982046055762 0.17056274145332928 0.18625609843417021 0.01605185031674301 -0.093821077047649498 0.0047004344483544515 -0.019594993739879579 -0.059917354205155482 0.19841879346704561 -0.12072011970750647 0.19933671104581652 -0.11405002795637308 0.12127752942154864 0.14835314947848879 0.14855337773098007 -0.015917366035832218 0.15510846852190613 0.13324757389977121 0.16439100783644311 -0.1339206008279365 0.14821028677169246 0.15235820580997528 0.15058794944146742 -0.11083391297458008
leaf_weight=157.17070598900318 2.0688025951385489 91.143393941223621 267.11030039191246 3672.5937619060278 2608.215144328773 4387.6501204296947 644.14009778946638 58230.834482379258 759.31096321344376 3929.8383856266737 265.35527019947767 229.0230165719986 1306.9771800488234 58.021118864417076 735.94303893297911 1586.5304610580206 4501.273199737072 940.02385716885328 15.050270184874533 185.04067148268223 1173.0880603045225 1850.8324801400304 311.08129273355007 2945.1884919404984 19.102079793810844 21.242131650447845 40.736081391572952 59.214515224099159 156.7497705668211 123.14085515588522 252.77226493507624 141.60865779966116 22.625953316688538 4.7060219049453718 5.3811285123229009 1.8892776928842065 22.917216435074806 10077.623345136642 111.5853796005249 13.651963859796522 21.103870630264282 41.25383722782135 41.506982356309891 3.7595488727092743 46.551399707794189 43.05597710609436 41.118231534957886 4.9652274511754513
leaf_count=1052 11 472 787 13813 11909 10442 1565 173577 2035 12870 623 504 1526 298 2069 2234 8716 1268 15 329 1509 3997 943 6352 148 67 25 193 1125 408 1527 846 11 37 13 19 29 4974 55 40 10 37 21 20 23 21 20 59
internal_value=0 0.0604587 0.0572005 0.0602961 0.0301789 0.0571807 0.0156827 0.0600415 0.0587216 0.0680093 -0.0148658 -0.0292504 0.0813079 0.111342 0.0869566 0.0689012 0.0984567 0.110028 0.00598141 0.0630604 0.08976 0.0831272 0.0221974 0.116303 0.118701 -0.0380073 0.0308266 0.134578 -0.027005 0.0352301 -0.048006 -0.0870426 0.1478 0.0981824 0.131114 0.0250799 0.159601 0.148115 0.137186 0.140836 0.0879302 0.148317 0.152847 -0.126582 0.148378 0.150203 0.148362 -0.11172
internal_weight=0 91666 79276.8 71128.3 8148.54 66935.2 4316.73 62618.5 4987.93 4689.15 3160.61 2837.24 12389.2 323.376 11524.9 4484.39 7040.55 4193.06 864.241 316.528 5674.36 3437.36 1047.02 3885.21 204.143 112.386 307.846 1366.19 547.713 138.191 409.522 298.779 10505.8 66.2444 57.7788 12.2356 45.5432 10439.5 189.917 187.848 34.7558 10249.6 153.092 8.46557 10208.3 89.6074 10118.7 6.85451
internal_count=268644 263244 237966 207829 30137 199397 15378 184019 16803 14905 13334 12413 25278 921 21187 9243 11944 8432 4091 1016 10225 6231 3012 7620 477 539 812 1719 3075 423 2652 1898 5400 188 131 91 40 5212 137 126 50 5075 76 57 5038 44 4994 78
is_linear=0
shrinkage=0.1


Tree=10
num_leaves=46
num_cat=0
split_feature=115 35 29 31 77 128 131 106 70 69 35 29 101 0 68 60 21 123 38 67 41 127 105 118 48 135 119 1 37 125 22 97 17 35 33 66 52 75 127 27 30 72 74 52 19
split_gain=6905.31 553.557 574.376 606.911 743.799 755.519 671.609 541.693 386.374 315.495 423.721 382.904 216.645 208.728 194.005 292.336 263.643 185.613 184.62 112.933 200.269 94.4718 85.1492 82.7456 146.344 82.1276 70.4332 63.3232 43.7553 30.9905 36.4198 38.6336 27.9924 22.3619 3.47011 7.60091 1.24197 0.8475 0.277307 1.85474 0.0452898 0.0409252 0.0385742 0.0206748 0.00872339
threshold=-0.82540583610534657 0.93271192908287059 1.2415821552276614 0.99996486306190502 -0.39291809499263758 1.0000000180025095e-35 1.0000000180025095e-35 -0.8494686186313628 -0.32078899443149561 -0.018083657138049599 0.95349839329719555 1.0630568861961367 -0.79542753100395192 0.53130537271499645 0.1016657054424286 0.78409600257873546 1.1887772083282473 -2.2250819206237789 1.0030496120452883 0.28000137209892279 1.107267498970032 -1.8923871517181394 -0.77586510777473439 -0.90771612524986256 0.71865200996398937 1.0000000180025095e-35 -1.4257094264030454 0.37989440560340887 0.97921696305274974 -0.41193795204162592 1.2384747266769411 -0.98153987526893605 1.4414443969726565 0.90191304683685314 0.77483290433883678 0.10475414618849756 0.82838392257690441 -1.077166676521301 1.0000000180025095e-35 1.171683728694916 1.096834182739258 -0.66434890031814564 -1.027436316013336 0.78176474571228038 1.1573976278305056
decision_type=2 2 2 2 2 2 2 2 2 2 2 2 2 2 2 2 2 2 2 2 2 2 2 2 2 2 2 2 2 2 2 2 2 2 2 2 2 2 2 2 2 2 2 2 2
left_child=1 2 3 4 5 -1 7 -5 -8 11 12 22 28 37 16 -16 -13 -6 -14 21 -21 -12 26 25 -25 -15 -3 -24 -11 30 41 32 33 -32 36 -36 38 42 39 -31 -39 -2 -4 -40 -43
right_child=29 9 13 6 17 -7 8 -9 -10 10 19 14 18 23 15 -17 -18 -19 -20 20 -22 -23 27 24 -26 -27 -28 -29 -30 34 31 -33 -34 -35 35 -37 -38 40 43 -41 -42 44 -44 -45 -46
leaf_value=0.035336567459961339 -0.13152828015872481 -0.13416649315672488 -0.11902203849373148 0.07449517299326168 0.10623541185455297 0.078872610131774365 -0.0027253090175241063 0.043004998207335422 0.056678021090705515 0.016985650869843157 0.098861996889323289 0.16645638601722457 -0.090783282521843409 0.075725038496814612 0.093410559516549377 0.018928917053927862 0.079670487218910624 -0.018536443248383098 0.011136514279443482 -0.089663450776689066 0.075753964169130994 -0.11499006985497083 0.21950412211229772 0.16600844253744115 -0.0061053530171836052 0.14428176539924994 0.13064689576012803 0.061044267865482997 0.20216180265429082 0.11202921940287436 -0.12101818601900489 0.28475450043110623 0.19239889142731065 0.21335419887704746 0.053635503882778601 0.14276621662625658 0.12397561666170465 -0.14912487189214027 0.14169404087295745 0.14198498596706494 -0.16080764078238108 -0.12084254983633402 -0.13092943960738643 0.14326236998236641 -0.11249103260891682
leaf_weight=41455.962341248989 3.6716049611568451 10.190250083804129 7.0288834869861603 19936.518435835838 2072.6056958884001 4410.1388609707355 2443.2315206676722 7524.3367267400026 1984.1036542654037 15.995900958776472 1185.4521391019225 373.57573591172695 213.27597584575415 215.97006883472204 907.45394142717123 1256.8077004626393 5556.2169868946075 126.50433647632599 1066.395534530282 99.029256924986839 280.5011212900281 21.023745775222778 188.70205825567245 82.005305707454681 124.25733059644699 915.279860496521 698.82385964691639 29.109037607908249 63.083278141915798 24.246677696704865 10.44773041829467 8.493121415376665 6.9049751758575431 2.4736282825469962 14.332896426320074 28.778706073760986 39.972000077366829 4.3047290444374111 9563.9502928256989 140.08464562892914 14.479894712567328 3.5192458853125554 4.4385746419429797 84.800771713256836 1.9402486383914945
leaf_count=141643 22 66 53 46431 2703 8946 10162 20043 5274 47 2119 495 954 466 1675 3489 10882 530 3219 387 625 87 129 90 368 1007 1107 72 68 20 102 6 3 3 36 15 37 20 4994 73 62 25 25 44 20
internal_value=0 0.0533971 0.0504423 0.0493431 0.0422466 0.0395227 0.0600396 0.0658668 0.0238962 0.073479 0.0450588 0.0827565 0.00407637 0.114698 0.0757848 0.0501583 0.085138 0.0990579 -0.00584991 0.0801689 0.0325923 0.0951355 0.143641 0.120573 0.0623232 0.131193 0.126841 0.198327 0.164705 0.141099 0.0503037 0.1063 0.0298544 -0.0570069 0.141443 0.113134 0.141567 -0.145053 0.141638 0.137565 -0.15813 -0.123365 -0.123631 0.141708 -0.117875
internal_weight=0 93286.8 81321.2 79953.4 48065.2 45866.1 31888.2 27460.9 4427.34 11965.6 2944.76 9020.88 1358.75 1367.76 8094.05 2164.26 5929.79 2199.11 1279.67 1586.01 379.53 1206.48 926.825 1337.51 206.263 1131.25 709.014 217.811 79.0792 9933.62 37.4506 28.3195 19.8263 12.9214 9896.17 43.1116 9853.05 30.2521 9813.08 164.331 18.7846 9.1311 11.4675 9648.75 5.45949
internal_count=268644 263244 237823 235732 153822 150589 81910 66474 15436 25421 7506 17915 4288 2091 16541 5164 11377 3233 4173 3218 1012 2206 1374 1931 458 1473 1173 201 115 5400 181 114 108 105 5219 51 5168 160 5131 93 82 67 78 5038 45
is_linear=0
shrinkage=0.1


Tree=11
num_leaves=40
num_cat=0
split_feature=115 110 128 29 31 75 127 87 53 75 0 71 28 98 44 22 129 112 89 69 105 58 55 125 22 54 23 125 22 39 33 80 52 75 127 27 72 52 19
split_gain=6606.26 498.569 504.752 474.5 682.671 1036.74 402.034 282.629 206.043 239.683 159.27 137.709 209.628 136.467 115.951 90.5992 90.3848 90.7082 125.324 71.4034 70.8686 36.2051 53.9264 29.6539 30.3598 27.2659 26.2923 26.0151 23.4934 19.8006 3.67819 8.03984 1.58501 0.491962 0.300711 1.9172 0.0285242 0.0145158 0.00613823
threshold=-0.82540583610534657 -0.83474835753440846 1.0000000180025095e-35 1.2415821552276614 0.98839345574378978 -0.52802446484565724 -2.0238229036331172 -1.2907508611679075 1.0631718039512636 -1.11697381734848 0.53130537271499645 -0.33425660431385035 1.0946927666664126 -0.87542846798896778 1.2044728994369509 1.2432572245597842 1.0000000180025095e-35 -0.83170148730278004 -1.3105493187904356 -0.48260898888111109 -0.80622756481170643 0.90435993671417247 1.031557619571686 -0.41193795204162592 1.2384747266769411 1.0354267954826357 1.3337579965591433 -1.288065433502197 1.3864061832427981 0.96490791440010082 0.77483290433883678 -1.7956248521804807 0.82838392257690441 -1.0738358497619627 1.0000000180025095e-35 1.171683728694916 -0.66434890031814564 0.78176474571228038 1.1573976278305056
decision_type=2 2 2 2 2 2 2 2 2 2 2 2 2 2 2 2 2 2 2 2 2 2 2 2 2 2 2 2 2 2 2 2 2 2 2 2 2 2 2
left_child=1 2 3 4 5 -1 -6 8 13 -10 33 12 -9 -4 16 -16 17 18 -3 -12 -13 27 -23 24 36 28 -19 -18 29 -26 32 -32 34 -5 35 -25 -2 -36 -38
right_child=23 14 7 10 6 -7 -8 11 9 -11 19 20 -14 -15 15 -17 21 26 -20 -21 -22 22 -24 30 25 -27 -28 -29 -30 -31 31 -33 -34 -35 37 -37 38 -39 -40
leaf_value=0.02096066447982365 -0.12774184344150677 0.13449775363678423 0.014442154654504925 -0.12103114686499286 0.069882955182532056 0.069084048860068831 0.046812052928831574 0.13139214099305541 0.12042183329944894 0.03097136208894093 0.092515775606324124 0.076628254387760109 0.072639406500699416 -0.094088779654992918 -0.0074261899621343268 0.49390055101723046 -0.1397843422800148 -0.10959916455267059 -0.018016542595553058 0.14188102090332022 -0.010700534819976406 0.24844458365495284 -0.13974230813219143 0.10529371435195983 -0.12010084907745232 0.23693158112467533 0.20524220726722708 -0.050938361887654326 0.17622984517747819 0.19663870057229882 0.14028931853955648 0.049315562670446705 0.11581242287343879 -0.14864756899007533 0.13618576253889333 0.13643150472977317 -0.11848228767669272 0.1375408296699786 -0.11116845530894032
leaf_weight=21077.856498874724 3.4155581444501877 60.717070341110229 765.76326230913401 10.772593528032305 9111.6047552227974 5683.884935669601 44163.30471367389 651.48997043073177 439.68536268174648 939.88328959047794 910.13041549175978 138.73997312784195 8950.3751432299614 136.51001531630754 6.9859680533409101 7.4480787068605423 109.86797027289867 104.37349951267242 478.34342139214277 432.12261480093002 281.41424243152142 7.1075837612152082 7.2077358216047287 23.269162878394127 9.7269974090158993 9.1923166736960393 2.7216031253337851 47.07964101433754 6.7898139953613272 2.4760766327381125 25.912378668785095 15.540355890989302 38.583324551582336 16.077827259898186 8985.4597773551941 131.64240264892578 3.2445035204291326 79.755104541778564 1.7754242569208143
leaf_count=79047 22 212 2746 79 22606 12751 118961 794 600 2539 1482 256 15181 581 35 6 549 896 2275 439 825 10 36 20 101 8 8 256 3 2 14 37 37 74 4994 73 25 44 20
internal_value=0 0.0473797 0.0480639 0.0452107 0.0442122 0.0311815 0.0507579 0.0669418 0.0351788 0.0594803 0.103584 0.0741737 0.0766258 -0.0019781 -0.0296965 0.251262 -0.0346577 -0.0175383 -0.000838097 0.108408 0.0181365 -0.0992472 0.0529932 0.135552 0.0457417 0.0955533 -0.101598 -0.113133 0.027128 -0.0558325 0.135905 0.106184 0.136038 -0.137568 0.136123 0.131754 -0.120692 0.136198 -0.115896
internal_weight=0 94541.5 93709.6 81405.8 80036.7 26761.7 53274.9 12303.9 2281.84 1379.57 1369.1 10022 9601.87 902.273 831.853 14.434 817.419 646.156 539.06 1342.25 420.154 171.263 14.3153 9336.78 36.6207 28.1852 107.095 156.948 18.9929 12.2031 9300.16 41.4527 9258.71 26.8504 9220.13 154.912 8.43549 9065.21 5.01993
internal_count=268644 263244 258961 235439 233365 91798 141567 23522 6466 3139 2074 17056 15975 3327 4283 41 4242 3391 2487 1921 1081 851 46 5400 181 114 904 805 106 103 5219 51 5168 153 5131 93 67 5038 45
is_linear=0
shrinkage=0.1


Tree=12
num_leaves=43
num_cat=0
split_feature=115 75 106 135 107 114 133 93 74 30 97 82 32 129 3 94 107 5 106 76 36 94 57 111 19 125 22 94 52 17 39 88 111 33 59 52 127 27 131 72 52 19
split_gain=6302.5 444.335 452.416 801.295 811.147 972.598 437.439 408.123 600.129 700.735 633.332 300.926 274.507 238.596 174.121 188.972 164.643 156.391 148.065 142.795 124.86 112.272 96.7878 90.8818 78.6711 27.9549 25.6936 21.4686 17.5854 14.6892 16.528 6.64763 46.0534 3.97166 9.01381 1.95994 0.328467 2.00256 0.202126 0.0200219 0.0103245 0.00434401
threshold=-0.82540583610534657 -1.1652151942253111 -0.93951642513275135 1.0000000180025095e-35 -1.0359678864479063 -1.1837462186813352 1.0000000180025095e-35 -1.134260296821594 -1.0073859095573423 1.0915276408195498 -0.97528043389320362 -1.3329876065254209 0.93300655484199535 1.0000000180025095e-35 0.63240751624107372 -1.1176869273185728 -1.0059014558792112 0.66785511374473583 -0.9486488103866576 -1.2794854044914243 0.92073035240173351 -1.0965437889099119 0.85191115736961376 -0.82394829392433155 1.3712522983551028 -0.41193795204162592 1.2384747266769411 -1.1176869273185728 0.95495969057083141 1.4414443969726565 0.96490791440010082 -1.299108564853668 -0.85823354125022877 0.77483290433883678 0.54087108373641979 0.82838392257690441 1.0000000180025095e-35 1.171683728694916 1.0000000180025095e-35 -0.66434890031814564 0.78176474571228038 1.1573976278305056
decision_type=2 2 2 2 2 2 2 2 2 2 2 2 2 2 2 2 2 2 2 2 2 2 2 2 2 2 2 2 2 2 2 2 2 2 2 2 2 2 2 2 2 2
left_child=1 14 3 4 6 -6 -3 11 9 -9 -10 13 16 -4 15 17 -5 19 -14 -1 21 -17 -19 -22 -13 26 39 29 -16 30 -28 32 -30 35 -35 36 37 -27 -33 -2 -38 -41
right_child=25 2 7 12 5 -7 -8 8 10 -11 -12 24 18 -15 28 20 -18 22 -20 -21 23 -23 -24 -25 -26 33 27 -29 31 -31 -32 38 -34 34 -36 -37 40 -39 -40 41 -42 -43
leaf_value=0.0025733850066762699 -0.12449138748115372 0.16736474674852087 0.14565760118687501 -0.069024449745126296 -0.035867682555068878 0.036107205720225764 -0.14243647206612481 -0.00053411220851098636 0.084660946998935616 0.064216734068489489 0.044901591508222934 -0.070126905283351082 0.17457722351863156 -0.036930987268992417 0.10047679941385171 -0.0063021102671232806 0.069368678525855071 0.33894408249839858 0.072060464918624542 0.2499989561544238 0.11154876992699617 -0.10068275279763544 -0.087734726081424769 -0.1200783854234031 0.069108103738917695 0.099207104241295099 -0.11760489051677672 0.18719837175847673 0.17834202160932594 0.16436225694031603 0.17346008813519231 -0.13049605253052005 -0.10926546474516158 0.035080677746401029 0.13475295382224625 0.10848825268372278 0.13157866229813939 0.13178833567926992 -0.12169725978509281 -0.11642699231675689 0.13276007994845382 -0.10999862639775709
leaf_weight=35.246422685682774 3.1670322343707085 435.79261054098606 819.04317359626293 98.688003346323967 3591.6164029166102 3933.7903218120337 50.901038527488708 5704.4486914128065 4243.1736206784844 2363.9364211037755 71793.204037480056 103.19197822362185 423.5084857493639 78.419647380709648 4.0485923439264289 279.75984715670347 666.72456720471382 5.958528295159339 211.11284822225571 68.963040426373482 90.373572371900082 229.3813807964325 49.333700478076935 20.846892304718494 66.882192328572273 22.279110446572304 8.6022656597197038 12.110654294490814 6.0301163941621772 4.3935124874114999 2.5231473296880713 37.101584911346436 72.574107602238655 13.982675760984419 25.84120762348175 37.145003199577332 8400.17347407341 123.09217059612274 88.111996069550514 2.9849011898040763 74.628158330917358 1.6226791292428968
leaf_count=218 22 666 1711 412 17101 11617 252 21432 8378 5354 187025 558 620 310 16 1492 1570 13 485 121 215 1530 343 169 242 20 97 13 22 2 2 214 541 36 15 37 4994 73 617 25 44 20
internal_value=0 0.0421527 0.0428495 0.0220446 0.00984778 0.00175608 0.134964 0.0451486 0.0443687 0.0184371 0.0471203 0.106591 0.0918447 0.129703 -0.024571 -0.00289449 0.051525 0.0941853 0.140474 0.166313 -0.0278548 -0.048823 -0.041754 0.0681331 -0.0153723 0.130904 0.0422248 0.0874143 -0.105896 0.00954476 -0.0515939 -0.109995 -0.0872017 0.131265 0.0997567 0.131409 0.131508 0.126795 -0.124304 -0.11837 0.131589 -0.114163
internal_weight=0 95572.2 94584.4 9412.13 8012.1 7525.41 486.694 85172.3 84104.8 8068.39 76036.4 1067.54 1400.03 897.463 987.73 779.863 765.413 159.502 634.621 104.209 620.362 509.141 55.2922 111.22 170.074 8732.55 35.4042 27.6296 207.866 15.5189 11.1254 203.818 78.6042 8697.14 39.8239 8657.32 8620.17 145.371 125.214 7.77461 8474.8 4.60758
internal_count=268644 263244 257733 32723 29636 28718 918 225010 222189 26786 195403 2821 3087 2021 5511 4101 1982 695 1105 339 3406 3022 356 384 800 5400 181 114 1410 101 99 1394 563 5219 51 5168 5131 93 831 67 5038 45
is_linear=0
shrinkage=0.1


Tree=13
num_leaves=43
num_cat=0
split_feature=115 36 38 109 115 54 107 105 79 125 102 120 57 72 44 130 69 3 41 70 60 135 49 44 69 106 125 102 22 26 35 94 17 39 33 58 52 127 17 72 52 19
split_gain=5996.6 406.763 459.961 544.357 649.322 639.234 636.517 437.345 427.514 377.278 227.138 225.697 199.384 285.52 511.831 272.584 208.596 222.893 113.495 211.251 94.229 66.1818 130.776 36.7192 103.767 32.8872 26.1633 22.4061 21.9672 21.4235 19.9606 16.6979 12.5575 14.1344 4.22337 8.66521 2.36455 0.360439 2.14094 0.0141401 0.0074165 0.00308968
threshold=-0.82540583610534657 0.93927046656608593 0.99869844317436229 -1.1325228810310362 -1.4531735777854917 1.0735300779342654 -0.99604919552803028 -0.79364794492721547 -0.31367555260658259 -2.5031517744064327 -0.55814886093139637 -1.5119353532791135 0.93626824021339428 -0.58815985918045033 1.1385884881019595 1.0000000180025095e-35 -0.12377462536096571 0.50422769784927379 1.1052014231681826 -0.10786280408501624 0.6732023060321809 1.0000000180025095e-35 1.1883100271224978 1.1737986803054812 0.013775415718555452 -0.93733394145965565 -0.41193795204162592 -0.63699778914451588 1.2384747266769411 1.1967467665672304 0.91274994611740123 -1.1176869273185728 1.4414443969726565 0.96490791440010082 0.77483290433883678 0.57926470041275036 0.82838392257690441 1.0000000180025095e-35 1.3098692893981936 -0.66434890031814564 0.78176474571228038 1.1573976278305056
decision_type=2 2 2 2 2 2 2 2 2 2 2 2 2 2 2 2 2 2 2 2 2 2 2 2 2 2 2 2 2 2 2 2 2 2 2 2 2 2 2 2 2 2
left_child=1 2 3 5 8 9 -6 -7 -5 -1 18 21 16 15 -15 -14 20 -18 19 -4 -13 23 29 24 -3 -24 28 -25 39 -23 -20 32 33 -30 36 -36 37 38 -28 -2 -39 -41
right_child=26 11 10 4 6 7 -8 -9 -10 -11 -12 12 13 14 -16 -17 17 -19 30 -21 -22 22 25 27 -26 -27 34 -29 31 -31 -32 -33 -34 -35 35 -37 -38 40 -40 41 -42 -43
leaf_value=0.14856148949408685 -0.12168367001706655 -0.13100387740056071 -0.060079362654122503 -0.10783460839420218 -0.0075253588839240826 -0.061254939790874631 0.036646594426497321 0.15830765195389274 0.065706492780095271 0.034963362721291892 0.26980100354457803 0.16036108308898359 0.11639755327093178 -0.0017952428579268199 0.052763974980470862 -0.0043816846198879468 0.077061097746206508 0.035377827221579609 -0.11651094497270378 0.25686213166649607 -0.041298937015919655 -0.15156299962072906 0.055099650351683176 -0.11709899313742858 0.17702733433904885 0.28641980000416301 0.093322269234577801 0.14301276649432851 -0.11585842298706808 0.027522242157460103 0.12279602041714344 0.16739648742054072 0.15460897709616064 0.15591930447159574 0.031538210489298425 0.13045434801955499 0.10181297418278704 0.1276853788503719 0.12789919229223912 -0.1146294519334522 0.12872272457384804 -0.10896140112848168
leaf_weight=1119.4162463545799 2.9283491000533104 26.497903242707253 127.87189523875713 524.11757533252239 3415.8233311325312 392.44328211247921 72558.861709106714 117.9985856115818 194.68149761110544 395.70961643755436 19.577492043375969 25.621871054172516 872.91911901533604 2448.0154312700033 5777.4830915778875 237.75448796153069 5783.1704269647598 1648.5224356725812 297.67868172377348 25.169547468423843 242.23405563831329 21.524849832057956 9.4959486573934573 116.4965880587697 18.622020661830902 17.42261703312397 21.220568969845772 3.4085524082183829 7.8949667997658235 9.6857264041900617 3.5267736166715613 12.183199293911457 4.2127954959869394 2.5258088558912277 13.997088864445685 24.112357020378113 35.698656395077705 7820.4744130373001 114.69435143470764 2.7410228848457328 69.533899784088135 1.4815215840935705
leaf_count=1327 22 150 655 2283 14502 1690 201989 93 287 1470 16 41 1193 6989 13005 676 9547 3747 1841 37 824 98 32 656 26 23 20 12 97 25 10 13 2 2 36 15 37 4994 73 25 44 20
internal_value=0 0.0375574 0.0345258 0.0351171 0.0337656 0.0862862 0.0346606 -0.0104988 -0.0608323 0.118893 -0.0637052 0.0514683 0.0527771 0.0429525 0.0365264 0.0905431 0.0646899 0.0678148 -0.0780789 -0.00795444 -0.0220091 -0.0484476 0.0433106 -0.0807689 -0.00387238 0.204818 0.126968 -0.109705 0.0393881 -0.0959866 -0.113709 0.0809152 0.00891511 -0.0499844 0.127335 0.0941238 0.127492 0.127607 0.122501 -0.116344 0.127695 -0.112641
internal_weight=0 96451.8 79192.9 78719.1 76693.5 2025.57 75974.7 510.442 718.799 1515.13 473.824 17258.9 17035.7 9336.17 8225.5 1110.67 7699.55 7431.69 454.247 153.041 267.856 223.154 58.1291 165.025 45.1199 26.9186 8133.7 119.905 33.9677 31.2106 301.205 26.8168 14.6336 10.4208 8099.73 38.1094 8061.62 8025.92 135.915 7.15089 7890.01 4.22254
internal_count=268644 263244 226200 223641 219061 4580 216491 1783 2570 2797 2559 37044 36022 21863 19994 1869 14159 13294 2543 692 865 1022 178 844 176 55 5400 668 181 123 1851 114 101 99 5219 51 5168 5131 93 67 5038 45
is_linear=0
shrinkage=0.1


Tree=14
num_leaves=43
num_cat=0
split_feature=115 2 45 126 132 106 108 49 107 115 116 107 130 124 54 50 103 39 126 116 32 37 20 109 125 69 22 54 22 39 37 119 37 33 50 113 52 127 27 72 52 19
split_gain=5682.88 401.382 509.915 551.26 1459.75 1541.22 763.687 867.002 596.577 412.587 409.522 217.927 191.173 169.542 168.115 136.551 124.586 115.944 90.589 67.5936 32.3995 29.3189 53.0394 28.8722 24.3994 19.4034 18.9185 14.1641 15.1507 12.663 10.2207 7.66719 4.79316 4.49225 8.35196 3.01234 2.79621 0.396746 2.26713 0.0100395 0.00536831 0.00220724
threshold=-0.82540583610534657 -0.24550643563270566 1.2077879309654238 -2.804458379745483 1.0000000180025095e-35 -0.99514237046241749 -1.0503157973289488 1.1946209073066714 -0.99267438054084767 -1.4644035100936887 -1.5075197219848631 -0.91320061683654774 1.0000000180025095e-35 -2.4090180397033687 1.1122174859046938 1.1972443461418154 -0.74433156847953785 1.0170736312866213 -3.0294506549835201 -1.4565460681915281 0.79244193434715282 0.93890118598937999 0.84703776240348827 -1.0214799642562864 -0.41193795204162592 0.086580779403448119 1.2384747266769411 1.0354267954826357 1.3864061832427981 0.96490791440010082 0.93930873274803173 -1.6662577986717222 0.92931321263313305 0.77483290433883678 0.71344822645187389 -1.3203701376914976 0.82838392257690441 1.0000000180025095e-35 1.171683728694916 -0.66434890031814564 0.78176474571228038 1.1573976278305056
decision_type=2 2 2 2 2 2 2 2 2 2 2 2 2 2 2 2 2 2 2 2 2 2 2 2 2 2 2 2 2 2 2 2 2 2 2 2 2 2 2 2 2 2
left_child=1 11 3 6 8 -6 9 -8 -5 -3 18 15 13 -12 31 20 -14 19 -4 -16 25 32 -23 -19 26 -1 39 28 29 -28 -20 -13 -17 36 -35 -33 37 38 -26 -2 -39 -41
right_child=24 2 10 4 5 -7 7 -9 -10 -11 12 14 16 -15 17 21 -18 23 30 -21 -22 22 -24 -25 33 -27 27 -29 -30 -31 -32 35 -34 34 -36 -37 -38 40 -40 41 -42 -43
leaf_value=-0.044473205578241151 -0.11924538722928708 0.049458236468732486 0.085677898269359412 -0.0067798396111645584 0.22136896799182995 -0.046107504981530135 -0.11541207736737236 0.062972972807712441 0.036736267344412148 0.14915208993296966 0.026614743429186401 -0.040115582532592668 0.0011122713543468381 -0.04182384890852521 0.11129625727163342 0.15408757150872787 0.19880630758352003 -0.21725934837152305 -0.06210677485682841 -0.059319758156268311 0.094620464280088898 -0.12076967064271789 0.1368319122422644 0.073231547752203363 0.088062581572265181 -0.23334459584649242 -0.11649418142055062 0.17249316818097837 0.14593839168623454 0.14202336701866158 -0.12445415148383049 -0.1996467395397408 0.13179860555033721 0.028364004750540562 0.12679698198988895 -0.1436696905959999 0.095650291755819628 0.12436676525075388 0.12456562414831573 -0.11305138005912106 0.12528272934878304 -0.10803976083141681
leaf_weight=10.818654730916023 2.7010611779987812 620.11831139028072 22.776362463831902 3273.1831057220697 229.84195473790169 3434.00093010813 357.55703626573086 1144.8128536194563 83986.184204358608 1255.7762461602688 784.03798307478428 4.9835466444492331 52.909715853631496 672.40650404244661 155.07290558516979 430.00610671937466 80.191740691661835 17.255804523825649 28.45239083468914 27.30945873260498 8.1221788823604602 11.528711751103399 26.060763105750084 4.2676822543144217 20.251736044883728 10.939369022846222 7.8565994277596527 9.5162640511989576 5.9645671844482413 2.4969637840986252 346.473937317729 19.425228141248226 124.39079891145229 14.006589248776434 22.414352297782898 19.032979190349579 34.274144992232323 7255.2735205888748 106.43889462947845 2.5130209550261493 64.55466902256012 1.3513863831758497
leaf_count=29 22 1265 29 13117 156 16820 1393 2282 217904 1535 1816 12 218 3248 159 251 153 72 113 88 9 41 28 13 20 45 101 8 3 2 2164 79 112 36 15 93 37 4994 73 25 44 20
internal_value=0 0.0335356 0.032925 0.0339813 0.0325076 -0.029328 0.0736465 0.0205182 0.0351039 0.116196 -0.0172047 0.101185 0.00550208 -0.00498176 0.0217913 0.132764 0.12022 0.0598442 -0.107959 0.0857487 -0.0758114 0.143292 0.0578254 -0.159661 0.123604 -0.139433 0.0370105 0.0755322 0.0189874 -0.0541476 -0.119723 -0.156821 0.149087 0.123977 0.0889421 -0.171944 0.124148 0.124279 0.118731 -0.114568 0.124375 -0.111299
internal_weight=0 97157.9 96288.7 94301.5 90923.2 3663.84 3378.26 1502.37 87259.4 1875.89 1987.25 869.214 1589.55 1456.44 247.348 621.867 133.101 203.906 397.703 182.382 29.8802 591.986 37.5895 21.5235 7549.61 21.758 32.3999 25.8344 16.3181 10.3536 374.926 43.4418 554.397 7517.21 36.4209 38.4582 7480.79 7446.52 126.691 6.56547 7319.83 3.86441
internal_count=268644 263244 262213 254472 247997 16976 6475 3675 231021 2800 7741 1031 5435 5064 516 515 371 332 2306 247 83 432 69 85 5400 74 181 114 106 103 2277 184 363 5219 51 172 5168 5131 93 67 5038 45
is_linear=0
shrinkage=0.1


Tree=15
num_leaves=40
num_cat=0
split_feature=115 74 30 105 108 69 74 30 134 1 132 35 106 4 29 103 83 102 66 60 56 124 125 22 99 54 22 19 120 76 33 7 53 127 17 114 52 72 19
split_gain=5364.7 370.141 397.892 476.547 721.597 435.146 431.956 672.346 594.059 361.763 306.761 174.836 167.681 118.606 96.865 92.6191 48.1207 25.7325 72.7298 142.1 32.4357 23.7437 22.585 16.4211 16.1697 11.2981 13.1489 11.0071 5.24297 22.621 4.77577 10.1431 4.07349 0.438096 2.42579 0.123959 0.0101034 0.00716127 0.00158294
threshold=-0.82540583610534657 -1.0632036328315733 1.0995371341705324 -0.93483483791351307 -1.0795885920524595 -0.17663967609405515 -1.0036299824714658 1.0668706297874453 1.0000000180025095e-35 0.51885175704956066 1.0000000180025095e-35 0.750420242547989 -0.96991494297981251 0.73336938023567211 0.84571820497512828 -0.91763475537300099 -0.93714264035224903 -0.90851926803588856 0.078753534704446806 0.63119980692863475 0.82233139872550975 -1.5378952026367185 -0.41193795204162592 1.2384747266769411 -0.94836333394050587 1.0354267954826357 1.3864061832427981 1.1799286007881167 -0.88779801130294789 -1.2794854044914243 0.77483290433883678 1.0693247914314272 0.80565637350082409 1.0000000180025095e-35 1.3098692893981936 -0.86314186453819264 0.78176474571228038 -0.66434890031814564 1.1573976278305056
decision_type=2 2 2 2 2 2 2 2 2 2 2 2 2 2 2 2 2 2 2 2 2 2 2 2 2 2 2 2 2 2 2 2 2 2 2 2 2 2 2
left_child=1 14 3 4 10 -6 8 -8 -5 12 -3 15 21 -13 24 -11 -14 18 20 -20 -16 -4 23 37 -1 26 27 -25 35 -30 32 -32 33 34 -24 -19 -35 -2 -39
right_child=22 2 9 6 5 -7 7 -9 -10 11 -12 13 16 -15 17 -17 -18 28 19 -21 -22 -23 30 25 -26 -27 -28 -29 29 -31 31 -33 -34 36 -36 -37 -38 38 -40
leaf_value=0.063479443125386073 -0.11711809282344406 0.022704693966105808 -0.0042061019343822593 0.016128417913668879 -0.038161298089507668 0.10838986603917294 0.028430272333881991 0.050953614044463302 -0.10787630543157739 0.10145192107186705 0.19001346664754537 0.049009531153189269 -0.1479582647725004 -0.11618441377770126 -0.031009046622473446 0.014853509904092697 0.14981010986219753 -0.12330115209489678 0.36422553564992055 -0.046367991544221818 -0.11802900694334256 0.16955285802638301 0.082911491572166235 0.1306147570418808 0.25531985829783826 0.15762782184633264 0.13970289108033662 -0.11490910620734696 -0.1157721978238051 0.21240490981735 0.1266382488421825 0.01553094117781751 0.083198838824651788 0.12151724821126118 0.12172072746631124 -0.11693092063962839 0.12277337504318975 -0.11166137756498151 -0.10721927544474308
leaf_weight=8.6121977418661135 2.4861249178647995 207.80493824183941 11.737031444907187 9806.4327235706151 2607.6855656802654 219.67572782933712 64326.005257613957 16692.654160402715 402.16866977512836 1608.5796770229936 231.86398710310459 862.14750829339027 117.66959293186665 45.770408049225807 67.329566538333893 133.77496598660946 5.6896082609891883 58.84377309679985 11.189503438770769 34.164197772741318 117.7331969961524 23.833112746477127 19.252228245139122 2.4461160600185412 8.9695251286029798 9.3787603899836522 5.6251614093780509 7.201986338943243 11.409503620117901 2.5742552727460852 21.471787571907043 13.309606879949568 27.991432309150696 6710.8102390766144 98.548831820487976 63.523076213896275 64.649479031562805 2.3007281124591858 1.231663607060909
leaf_count=32 22 559 34 31810 10284 607 170162 40027 2224 2189 177 1769 539 171 286 300 7 400 17 203 752 23 20 2 12 8 3 101 107 4 15 36 34 4994 73 549 47 25 20
internal_value=0 0.0300001 0.030387 0.0292844 -0.00824192 -0.0267748 0.0306283 0.0330709 0.0112432 0.0674747 0.110937 0.0762624 -0.079068 0.0406817 -0.0679409 0.094803 -0.134225 -0.0789324 -0.0585565 0.0549322 -0.0863694 0.112218 0.120706 0.0350825 0.161349 0.0712367 0.0181871 -0.0526606 -0.113365 -0.0553584 0.121084 0.0841214 0.12127 0.121424 0.115378 -0.119994 0.121529 -0.113006 -0.110113
internal_weight=0 97687.8 97303.5 94494.3 3267.03 2827.36 91227.3 81018.7 10208.6 2809.2 439.669 2650.27 158.929 907.918 384.349 1742.35 123.359 366.767 230.416 45.3537 185.063 35.5701 6986.7 30.6705 17.5817 24.652 15.2733 9.6481 136.351 13.9838 6956.03 34.7814 6921.25 6893.26 117.801 122.367 6775.46 6.01852 3.53239
internal_count=268644 263244 260882 255850 11627 10891 244223 210189 34034 5032 736 4429 603 1940 2362 2489 546 2318 1258 220 1038 57 5400 181 44 114 106 103 1060 111 5219 51 5168 5134 93 949 5041 67 45
is_linear=0
shrinkage=0.1


Tree=16
num_leaves=46
num_cat=0
split_feature=115 128 77 116 48 29 72 108 88 69 35 30 51 109 70 53 38 44 116 122 47 76 47 67 93 105 76 54 39 105 90 125 22 94 17 39 33 94 54 69 127 27 51 72 19
split_gain=5050.12 363.648 399.495 583.248 438.098 398.941 1104.51 372.13 349.582 171.643 260.408 183.431 159.491 156.855 155.686 145.954 144.534 151.195 150.091 148.398 197.749 114.901 108.118 106.621 90.8446 82.1485 82.1443 81.8211 68.7801 46.0534 29.2836 20.8673 14.3219 9.66648 8.40022 9.3625 5.05518 11.1448 5.02357 3.67804 0.483655 2.57008 0.0161918 0.00512909 0.00113911
threshold=-0.82540583610534657 1.0000000180025095e-35 -0.39291809499263758 -1.5075197219848631 1.198672413825989 1.1992225050926211 -0.73976719379425038 -0.89564189314842213 -1.2667589783668516 -0.089859373867511735 0.92727887630462658 1.0464127063751223 1.1021184921264651 -1.1386696696281431 -0.22989236563444135 1.1451227664947512 0.97941112518310558 1.1801523566246035 -1.5219027400016782 -2.0922467708587642 1.2201847434043886 -1.2132823467254636 1.2099303007125857 0.25260813534259802 -1.0461757183074949 -0.7812649905681609 -0.3912720382213592 1.0125353336334231 1.0098944306373598 -0.84773212671279896 -0.22297605872154233 -0.41193795204162592 1.2384747266769411 -1.1176869273185728 1.4414443969726565 0.96490791440010082 0.77483290433883678 -1.3516567945480344 0.78478553891181957 -0.091013569384813295 1.0000000180025095e-35 1.171683728694916 0.82117635011672985 -0.66434890031814564 1.1573976278305056
decision_type=2 2 2 2 2 2 2 2 2 2 2 2 2 2 2 2 2 2 2 2 2 2 2 2 2 2 2 2 2 2 2 2 2 2 2 2 2 2 2 2 2 2 2 2 2
left_child=1 2 3 4 13 6 -5 -7 12 11 22 15 25 -1 21 -10 19 29 -19 20 -4 -14 -11 -12 -13 27 -21 -3 -16 -18 -6 32 43 34 35 -34 38 -38 40 -27 41 -33 -42 -2 -45
right_child=31 8 16 5 30 7 -8 -9 9 10 23 24 14 -15 28 -17 17 18 -20 26 -22 -23 -24 -25 -26 39 -28 -29 -30 -31 -32 36 33 -35 -36 -37 37 -39 -40 -41 42 -43 -44 44 -46
leaf_value=0.069704944483256689 -0.1152546030933902 -0.057584909628672999 -0.04938167040726741 -0.027930849792502779 -0.12983365712106004 0.055161199989859439 0.024984131522919752 -0.013485086199147601 0.092963595846634967 -0.053547670245849624 0.048669011631609131 0.031793108275545844 0.090684295831243406 -0.13052258661939561 -0.069752647468560011 -0.047839735974206488 -0.05469671484055777 -0.12745311167618875 0.026732240918712142 0.06868816542255432 0.076599409315037142 -0.044014250206884042 0.17995025252834992 0.0031842764462072961 0.063872093579771486 -0.079517127889705913 0.12358469523178171 0.0073391329167354427 0.014160893844384827 0.1375300225744556 -0.021823456890918538 0.078230342341544912 -0.11222999458935651 0.13435852890970576 0.13516420508035884 0.12097314295043893 0.12482574933152522 0.0053190475598791408 0.074274996476729305 -0.12571890687360585 0.11905758637294438 0.11924785082365115 0.12142562660174161 -0.11043346345651683 -0.10648761447068299
leaf_weight=227.91562406718731 2.2840381562709808 304.74063284695148 176.32042007148266 4175.8174575045705 441.16041015833616 6345.5489233732224 71273.023241527379 901.9420223981142 1821.9578917175531 374.41579869389534 4289.5150156319141 1669.7240292131901 426.5067852512002 47.23294723033905 133.1955027282238 76.718773007392883 14.358930662274359 96.799077592790127 181.53770044445992 460.8101272881031 424.72862756252289 74.370841659605503 20.939498960971832 585.7326632887125 1873.1159013807774 22.678805977106094 667.28508359193802 534.71319085359573 366.31268978118896 94.407720439136028 26.615626156330109 18.359321236610413 6.220353791490199 11.252826660871502 3.5491870641708383 2.3803602606058121 20.641907215118408 12.546573370695112 25.266270205378532 71.723421476781368 6223.6961687803268 90.956865191459656 29.009203195571899 2.1037450507283242 1.1217211894690988
leaf_count=368 22 1593 466 16825 2631 13599 197965 3073 2244 1016 7213 3322 645 174 560 285 48 536 359 628 563 229 22 1491 3007 186 563 1883 1095 72 96 20 97 13 2 2 15 36 33 487 5020 73 22 25 20
internal_value=0 0.0268435 0.024504 0.0234157 -0.0647932 0.0242082 0.0220555 0.0466182 0.0426714 0.0497363 0.0368744 0.0621943 0.00354464 0.0353332 0.0312886 0.0872742 0.0674115 0.0121778 -0.0268898 0.0797767 0.0396423 0.0706841 -0.0411807 0.0432043 0.0487534 -0.0261758 0.10116 -0.0162298 -0.00821493 0.112153 -0.123688 0.118193 0.0334276 0.067577 0.00572617 -0.047688 0.118574 0.0796474 0.118777 -0.11462 0.118953 0.112359 0.119069 -0.111629 -0.109061
internal_weight=0 98201.9 85555.5 83439.3 742.925 82696.3 75448.8 7247.49 12646.4 10712.1 5270.6 5441.52 1934.24 275.149 1000.39 1898.68 2116.25 387.103 278.337 1729.14 601.049 500.878 395.355 4875.25 3542.84 933.856 1128.1 839.454 499.508 108.767 467.776 6449.39 28.9122 23.4027 12.1499 8.60071 6420.48 33.1885 6387.29 94.4022 6362.02 109.316 6252.71 5.5095 3.22547
internal_count=268644 263244 237966 234731 3269 231462 214790 16672 25278 18600 9742 8858 6678 542 2529 2529 3235 1015 895 2220 1029 874 1038 8704 6329 4149 1191 3476 1655 120 2727 5400 181 114 101 99 5219 51 5168 673 5135 93 5042 67 45
is_linear=0
shrinkage=0.1


Tree=17
num_leaves=48
num_cat=0
split_feature=115 36 136 92 106 74 113 128 108 70 69 36 28 126 58 58 123 60 29 89 131 127 31 22 57 39 50 33 30 32 52 56 127 73 128 104 49 99 115 12 22 104 33 31 52 73 44
split_gain=4733.07 329.951 362.596 545.313 554.74 564.68 397.266 371.885 479.3 368.366 260.327 283.621 240.517 230.933 335.149 226.04 218.626 176.654 207.624 122.106 145.829 121.346 119.45 115.086 103.743 73.3401 61.6383 55.1086 52.1779 22.6308 19.7743 22.1565 9.72801 52.3755 32.9968 9.30538 9.12214 7.32536 4.41267 2.62676 0.349961 0.315335 0.225636 0.144694 0.0261631 0.0166367 0.00284898
threshold=-0.82540583610534657 0.95140022039413463 1.0000000180025095e-35 -1.1687660813331602 -0.84615150094032276 -1.0045400261878965 -0.86546620726585377 1.0000000180025095e-35 -0.89804792404174794 -0.20848364382982251 -0.012910690624266861 0.97272127866745006 1.1005317568778994 -1.8076967597007749 0.89754649996757518 0.91135707497596752 -1.3642638325691221 0.79374304413795482 1.0570657849311831 -1.2919965982437132 1.0000000180025095e-35 -1.9504138827323911 0.99683001637458812 1.1779583096504214 0.90101900696754467 1.0263032317161562 1.147233307361603 0.93115532398223888 1.0680208802223208 0.95216473937034618 0.95146027207374584 0.56001749634742748 1.0000000180025095e-35 -0.94033047556877125 1.0000000180025095e-35 -0.78682029247283924 1.1686996817588808 -0.93031325936317433 -0.55395692586898793 0.82024678587913524 1.2508329749107363 -0.87746340036392201 0.77483290433883678 0.89477467536926281 0.80929404497146618 -1.0044909119606016 0.71623978018760692
decision_type=2 2 2 2 2 2 2 2 2 2 2 2 2 2 2 2 2 2 2 2 2 2 2 2 2 2 2 2 2 2 2 2 2 2 2 2 2 2 2 2 2 2 2 2 2 2 2
left_child=1 2 6 22 5 -5 7 8 -1 -9 12 17 24 14 -14 -15 -6 25 -19 20 -8 23 28 -13 41 -12 -26 -21 -4 -24 32 -32 33 43 38 37 -23 39 -35 -33 -39 -3 44 45 46 -2 -34
right_child=30 10 3 4 16 -7 19 9 -10 -11 11 21 13 15 -16 -17 -18 18 -20 27 -22 36 29 -25 26 -27 -28 -29 -30 -31 31 35 42 34 -36 -37 -38 40 -40 -41 -42 -43 -44 -45 -46 -47 -48
leaf_value=0.023790305212638398 0.11674637773029942 -0.13225520235796226 -0.15317456620604664 -0.06513063050193707 0.056017985325614778 0.048999395269323731 -0.041932792700655926 0.044202589226628015 0.0056790119804897704 -0.077243264312627444 -0.06925031617386293 0.023489830853303056 0.052194674706311464 0.051379036617208308 -0.018216098859108295 0.13172118760286725 -0.025293062794007865 0.0067699587931811566 -0.083315549729971572 -0.10295714380513843 0.070716126422955508 -0.19421084193441351 0.18413975175608457 0.086181751568833342 0.047406756154371045 0.073397776038889348 0.10844729647149767 -0.0098525613447406676 0.21250330078884008 0.10778708258174524 -0.19631939974960277 0.13933263105274313 0.11691530263602685 -0.13008098712666402 0.12477670422329186 0.11050176274210598 -0.073999950975013731 -0.1749349298008312 -0.26944473901397453 -0.0035498062912829201 -0.10831016831625347 -0.16000678335051713 0.12636546657960995 0.11049056217202552 0.11976430817034261 0.1199405971370192 0.11804702716530782
leaf_weight=44827.153573043644 27.189928650856018 12.375423930585386 16.687372505664829 453.432302698493 402.57179835438728 9868.664000838995 469.64148143678904 7985.6775170788169 21678.273716926575 257.81857291609049 42.482506766915321 606.84294252097607 1566.3947839736938 2982.6683508604765 1189.2903124690056 396.76822848618031 1851.590434640646 516.65668326616287 506.79658479243517 327.22960155084729 152.14862022548914 19.207110434770588 291.70994152128696 565.86165003478527 202.12694599479437 237.74057801067829 911.18451771140099 78.902832560241222 5.0928912907838813 44.778581336140633 3.6654076725244549 2.1459849476814314 5713.858079791069 8.851182896643877 5.8138583898544303 16.604658488184214 9.4030076861381513 1.4027046188712096 3.0565322637557992 3.2131341639906168 1.8002487607300279 6.1189358234405509 25.487408399581909 31.82281931489706 32.516323208808899 40.73317551612854 22.330703377723694
leaf_count=126963 24 71 77 1686 767 20443 2593 15036 66226 958 174 1424 2716 5567 3283 496 5493 1475 1822 1881 544 80 165 844 338 387 1327 282 7 58 16 2 5007 75 4 35 32 8 16 46 36 29 19 34 26 33 19
internal_value=0 0.0240834 0.0221623 0.0376367 0.0341711 0.0439859 0.0195209 0.02037 0.0178867 0.0404043 0.0415232 0.0137234 0.0511061 0.0432922 0.021807 0.0608117 -0.0107717 -0.0185771 -0.0378388 -0.0422231 -0.0143682 0.0487762 0.159289 0.0537404 0.0934629 0.051772 0.0973651 -0.0848689 -0.0676679 0.173979 0.115997 0.0333824 0.1164 0.0879095 -0.0705075 0.0668373 -0.154702 -0.0178424 -0.165854 0.0536655 -0.137488 -0.141437 0.116977 0.116055 0.116936 0.118662 0.11692
internal_weight=0 98483.3 88711.4 12934.5 12576.3 10322.1 75776.8 74748.9 66505.4 8243.5 9771.92 2504.99 7266.93 6135.12 2755.69 3379.44 2254.16 1303.68 1023.45 1027.92 621.79 1201.31 358.269 1172.7 1131.81 280.223 1113.31 406.132 21.7803 336.489 5940.49 28.8321 5911.66 117.467 17.7216 25.1667 28.6101 8.56207 11.9077 5.35912 3.20295 18.4944 5794.19 99.7459 5768.71 67.9231 5736.19
internal_count=268644 263244 243179 28696 28389 22129 214483 209183 193189 15994 20065 6238 13827 12062 5999 6063 6260 3858 3297 5300 3137 2380 307 2268 1765 561 1665 2163 84 223 5400 143 5257 186 95 127 112 92 91 48 44 100 5071 91 5052 57 5026
is_linear=0
shrinkage=0.1


Tree=18
num_leaves=46
num_cat=0
split_feature=115 0 45 72 132 106 107 4 107 44 116 99 41 107 54 39 81 110 35 51 116 33 121 34 37 20 52 56 41 117 127 73 128 33 104 99 115 12 81 26 31 33 52 73 44
split_gain=4425.1 315.567 348.848 369.221 945.036 961.564 581.451 554.374 524.875 431.639 191.721 201.085 225.768 175.79 110.926 121.087 90.2763 103.643 89.5032 67.0395 61.9928 58.1094 27.8263 25.4036 23.1964 39.3423 19.5475 18.4728 11.0383 9.34907 9.06989 46.3258 28.6544 8.59478 7.67646 6.35608 2.97334 2.26358 1.68576 0.286777 0.169629 0.16515 0.0185381 0.0119198 0.00205752
threshold=-0.82540583610534657 -0.39450691640377039 1.2122908234596255 -0.34746645390987391 1.0000000180025095e-35 -0.99514237046241749 -0.97575253248214711 0.017004734836518768 -1.0059014558792112 1.1867839694023135 -1.4626548290252683 -0.42366665601730341 1.1095260977745058 -0.91320061683654774 1.1154853105545046 1.0170736312866213 -0.38705986738204951 -1.1529391407966612 0.91230392456054699 1.1794519424438479 -1.4565460681915281 0.64958894252777111 -1.8912419676780698 0.81778663396835338 0.93890118598937999 0.84703776240348827 0.95146027207374584 0.56001749634742748 1.0884956121444704 -1.5137061476707456 1.0000000180025095e-35 -0.94033047556877125 1.0000000180025095e-35 0.78832751512527477 -0.78682029247283924 -0.93031325936317433 -0.55395692586898793 0.82024678587913524 -0.25768692791461939 1.2157226800918581 0.89477467536926281 0.77483290433883678 0.80929404497146618 -1.0044909119606016 0.71623978018760692
decision_type=2 2 2 2 2 2 2 2 2 2 2 2 2 2 2 2 2 2 2 2 2 2 2 2 2 2 2 2 2 2 2 2 2 2 2 2 2 2 2 2 2 2 2 2 2
left_child=1 13 3 4 8 -6 9 -8 -3 -5 11 21 -13 19 22 20 18 -18 -12 23 -16 -4 33 28 29 -26 30 -28 -1 -21 31 40 36 -15 35 37 -33 -29 -17 -37 43 42 44 -2 -32
right_child=26 2 10 6 5 -7 7 -9 -10 -11 16 12 -14 14 15 38 17 -19 -20 24 -22 -23 -24 -25 25 -27 27 34 -30 -31 41 32 -34 -35 -36 39 -38 -39 -40 -41 -42 -43 -44 -45 -46
leaf_value=-0.036027133856278433 0.11490118711843214 -0.036052482590871002 0.27326718666899258 0.11224846546224398 0.17215950957976109 -0.035627717154526332 0.044939768996795408 -0.09122914395241434 0.023917014594070373 -0.068427875377119834 -0.051713311476341298 -0.059233256200167977 0.10672963249900075 -0.18709096660334468 0.10457689769708262 -0.15165642169877169 0.15048563602923873 -0.07031331566037087 0.039357449407865182 0.1292055021914848 -0.061485772709114095 -0.10300569824744935 0.095755961150957788 0.065407105312262626 -0.11079360730932436 0.11723514704904128 -0.18167363040138049 0.13119245597495768 -0.22422712396877831 0.18522762328906017 0.11504889054743804 -0.12740500599403656 0.12188261265693429 -0.096690599030332822 0.10167961860532174 -0.17163950504137601 -0.24313228293416406 -0.0031976115926000909 -0.2192979106447473 -0.10826225711142529 0.10740201343405452 0.12345480760409913 0.11754784283472096 0.11772067196450019 0.11605182199903918
leaf_weight=5.5444804877042788 24.977206945419312 1484.2577856406569 4.1392489671707144 1514.2938665300608 235.27391777932644 4170.6349594667554 1262.362101405859 391.77202449738979 87391.563103977591 144.87699641287327 202.65370485931635 235.72053977847099 125.66465151309967 24.346082702279091 134.39397218823433 5.2436046376824406 86.857715979218483 28.148985370993614 230.83728425949812 421.28522504866123 26.995598830282688 486.30971188098192 5.2557771801948538 11.105399161577223 10.711489722132681 25.767734229564667 3.569531828165057 2.0559093877673194 7.1165657788515091 32.055131852626801 5249.6661466360092 8.1684167087078094 5.3790370225906363 18.515337094664574 16.259230002760887 1.1862746365368342 3.0487132221460351 3.2104815430939198 12.39091110229492 1.793238705024123 29.580308839678764 23.577571868896484 29.948132872581482 37.516073822975159 20.535135865211487
leaf_count=15 24 6391 2 1855 154 18908 2237 1447 224783 767 991 642 207 108 128 26 113 97 722 289 89 3021 7 15 38 29 16 2 29 19 5007 75 4 65 35 7 16 46 50 37 34 19 26 33 19
internal_value=0 0.0216128 0.0211213 0.0218396 0.0206745 -0.024532 0.0546442 0.012689 0.0229155 0.096472 -0.0284326 -0.0581239 -0.0015229 0.0866379 0.0133847 0.0496142 0.0176789 0.096443 -0.00321743 0.119035 0.0767996 -0.0998301 -0.12141 -0.0449839 0.126994 0.0502785 0.11409 0.0308622 -0.141811 0.133167 0.11452 0.0859207 -0.0678667 -0.14804 0.0618211 -0.0167717 -0.158859 0.049266 -0.199185 -0.133496 0.113641 0.115104 0.115067 0.116594 0.115053
internal_weight=0 98736.1 97995.4 96595 93281.7 4405.91 3313.3 1654.13 88875.8 1659.17 1400.33 851.834 361.385 740.727 227.141 179.024 548.498 115.007 433.491 513.586 161.39 490.449 48.1172 23.7664 489.82 36.4792 5460.47 28.0747 12.661 453.34 5432.4 108.67 16.5962 42.8614 24.5051 8.2459 11.2171 5.26639 17.6345 2.97951 92.0736 5323.73 5300.15 62.4933 5270.2
internal_count=268644 263244 262337 256542 250236 19062 6306 3684 231174 2622 5795 3872 849 907 473 293 1923 210 1713 434 217 3023 180 59 375 67 5400 143 44 308 5257 186 95 173 127 92 91 48 76 44 91 5071 5052 57 5026
is_linear=0
shrinkage=0.1


Tree=19
num_leaves=42
num_cat=0
split_feature=116 29 73 100 29 57 129 110 73 104 103 128 114 30 1 3 113 129 133 57 73 105 28 110 127 51 96 102 99 97 104 115 111 76 51 70 114 33 44 73 125
split_gain=4126.07 296.445 374.506 411.59 404.296 683.749 311.123 299.988 266.454 254.421 227.615 194.98 177.933 134.608 128.522 122.951 82.874 63.6044 58.6347 149.854 81.905 109.008 39.4933 38.1574 35.7959 33.2327 35.2228 29.5259 21.3605 19.7764 11.9703 2.19932 1.29257 1.05307 0.997071 0.359016 0.304437 0.121074 0.0962034 0.0291836 0.018205
threshold=-0.80398225784301747 1.2415821552276614 -0.91419413685798634 -0.95703682303428639 1.1973787546157839 0.77947908639907848 1.0000000180025095e-35 -0.83474835753440846 -0.92797651886939991 -0.92061653733253468 -0.94236677885055531 1.0000000180025095e-35 -0.94702309370040882 1.1106872558593752 0.59514185786247265 0.67961430549621593 -0.96663072705268849 1.0000000180025095e-35 1.0000000180025095e-35 0.60236912965774547 -0.92137902975082386 -0.91472813487052906 1.2864583730697634 -0.48965419828891749 -1.7065026760101316 1.2034767866134646 -0.88934591412544239 -0.94709828495979298 -0.94836333394050587 -0.97323185205459584 -0.78682029247283924 -0.55395692586898793 -0.80024707317352284 -1.1101278662681577 0.84032937884330761 -0.60549175739288319 -1.2209584116935728 0.77483290433883678 0.6202586591243745 -0.92797651886939991 -0.41193795204162592
decision_type=2 2 2 2 2 2 2 2 2 2 2 2 2 2 2 2 2 2 2 2 2 2 2 2 2 2 2 2 2 2 2 2 2 2 2 2 2 2 2 2 2
left_child=1 2 3 8 5 9 10 -7 13 -4 -6 15 -10 -1 24 -5 -13 25 20 28 21 -16 -8 31 -3 32 -27 -22 -20 -21 36 38 -2 39 37 -35 -28 -34 40 -26 -19
right_child=17 14 4 11 6 7 22 -9 12 -11 -12 16 -14 -15 18 -17 -18 23 19 29 27 -23 -24 -25 33 26 30 -29 -30 -31 -32 -33 34 35 -36 -37 -38 -39 -40 -41 -42
leaf_value=-0.023827022318454905 0.13717886128212217 0.12176464850916235 -0.062052456568629857 -0.09752793388673596 -0.024666066892829977 0.021023205762125081 0.097705314486003086 -0.041466718154330909 -0.020116600709499815 -0.0061181446685249627 0.061041962551578122 0.15328140436051571 0.089617443831030541 0.089557039715890907 0.082217852147036669 -0.037825919945304903 -0.063214445732550181 -0.11359816604881628 -0.042315131548990512 -0.020091186901310957 0.020194264605781196 -0.0099553286098230335 -0.1621489208911919 0.20146384834372888 -0.12004759909445413 0.23286931669985728 -0.12292482804977456 0.11293911289388928 -0.17086733075893923 0.11156330595340265 0.058048644684142149 -0.22160990475100389 0.11343420787338934 -0.18132903100312617 0.09250469457057528 -0.15236394444254842 -0.15990787497603298 0.12091000492709009 -0.13533759341744783 -0.13074043304929442 -0.12530456827422704
leaf_weight=1074.2043808847666 22.909179672598839 5.7785405069589606 1113.9540086686611 552.98853962868452 337.37100171297789 84894.949954040349 6.3358465880155554 775.23124251887202 197.01235948503017 3011.9469345882535 3799.0285857841372 63.471991658210754 591.14321603253484 116.01302102208138 411.32673254609108 916.8972944766283 24.509017838165164 4.2448387518525124 21.390069678425789 13.465780198574064 36.758614785969257 186.47334077209234 76.077734589576721 4.0370857715606681 8.5672976076602918 4.6038901954889324 9.1049463599920291 518.69435758888721 32.663789734244347 74.726664423942566 4.5736376345157597 3.0120593905448922 4921.2227434962988 5.7183741182088843 22.795089147984982 17.003146439790729 2.9460279494524011 21.759713172912598 5.625032976269722 3.6355582326650611 1.933559790253639
leaf_count=4283 31 8 4513 3035 949 220877 9 3936 696 9844 7744 46 1221 198 566 3338 144 55 56 30 79 425 312 2 64 6 65 513 148 80 9 16 5112 24 30 77 15 19 36 21 12
internal_value=0 0.0194033 0.0187625 -0.0131853 0.0199642 0.0185428 0.0502183 0.0204577 0.0170889 -0.0212199 0.0540515 -0.0516312 0.0621876 -0.0127752 0.0661856 -0.0602865 0.0929718 0.112259 0.0716829 0.0111069 0.0791545 0.053466 -0.142172 -0.0710748 -0.108782 0.112949 -0.0119047 0.106801 -0.119997 0.0914615 -0.0796905 -0.145339 0.11348 -0.146928 0.113371 -0.159654 -0.131966 0.113467 -0.125876 -0.123233 -0.117262
internal_weight=0 98887.3 97551.1 3536.24 94014.9 89796.1 4218.81 85670.2 1978.37 4125.9 4136.4 1557.87 788.156 1190.22 1336.2 1469.89 87.981 5028.77 1295.5 142.246 1153.25 597.8 82.4136 18.8526 40.7029 5009.92 21.2285 555.453 54.0539 88.1924 16.6246 14.8155 4988.69 34.9244 4965.78 22.7215 12.051 4942.98 11.8034 12.2029 6.1784
internal_count=268644 263236 261145 12961 248184 239170 9014 224813 6398 14357 8693 6563 1917 4481 2091 6373 190 5408 1897 314 1583 991 321 121 194 5287 95 592 204 110 89 119 5192 186 5161 101 80 5131 103 85 67
is_linear=0
shrinkage=0.1


Tree=20
num_leaves=48
num_cat=0
split_feature=115 0 36 105 55 69 4 73 58 36 72 73 73 109 114 107 47 100 53 39 51 34 37 20 34 52 74 104 57 34 127 73 128 3 118 54 115 103 81 83 31 33 3 53 136 48 11
split_gain=3838.21 274.85 288.118 454.236 583.231 945.405 277.676 270.016 191.381 213.517 359.103 235.912 176.555 263.264 169.709 152.298 151.662 118.831 93.4896 98.3231 58.2456 58.1981 21.4403 32.4597 20.5125 19.0798 18.6895 17.6033 8.58369 8.08727 7.75787 36.5357 21.8962 7.41814 7.18807 3.31442 1.35599 0.984992 0.961941 0.479096 0.181359 0.089086 0.0496691 0.0200929 0.00641158 0.00166993 3.20733e-05
threshold=-0.82540583610534657 -0.39450691640377039 0.93927046656608593 -0.83070763945579518 1.0400211811065676 -0.0035955948987975712 0.60525608062744152 -0.80909791588783253 0.88318541646003734 0.95044291019439708 -0.59087666869163502 -0.74680444598197926 -0.74578294157981861 -0.92324545979499806 -1.1061748266220091 -0.91320061683654774 1.2201847434043886 -0.90716281533241261 1.1451227664947512 1.0170736312866213 1.1794519424438479 0.78440511226654064 0.93890118598937999 0.84703776240348827 0.81778663396835338 0.95832338929176342 -0.37586398422718043 -0.8101733624935149 0.98623862862586986 0.80880236625671398 1.0000000180025095e-35 -0.94033047556877125 1.0000000180025095e-35 0.54288029670715343 -1.5640757679939268 1.0354267954826357 -0.55395692586898793 -0.8156105875968932 -0.25768692791461939 -1.2105769515037534 0.89477467536926281 0.77483290433883678 0.58131080865859996 0.78686076402664196 1.0000000180025095e-35 0.78123745322227489 0.82160195708274852
decision_type=2 2 2 2 2 2 2 2 2 2 2 2 2 2 2 2 2 2 2 2 2 2 2 2 2 2 2 2 2 2 2 2 2 2 2 2 2 2 2 2 2 2 2 2 2 2 2
left_child=1 15 3 4 5 -3 7 -5 12 10 -10 -11 13 -4 -14 20 -6 -8 26 21 24 -20 34 -24 29 30 -17 39 -28 -1 31 40 36 -29 -22 37 -33 -35 -21 42 44 43 -27 45 -2 -32 -44
right_child=25 2 8 6 16 -7 17 -9 9 11 -12 -13 14 -15 -16 18 -18 -19 19 38 22 -23 23 -25 -26 27 28 33 -30 -31 41 32 -34 35 -36 -37 -38 -39 -40 -41 -42 -43 46 -45 -46 -47 -48
leaf_value=-0.041827850511400831 0.11409256260050259 0.017952314065103721 -0.048965552646052596 0.024946087889049531 -0.02809836443000124 0.11171719254733317 0.068390110696328818 -0.0060801702209814755 0.051573326563416955 0.059989993072375937 -0.021315790004911503 0.020309312113318701 0.0028284580599472384 0.038186838002184864 0.07244786141076924 0.029977884042008414 -0.11109257458658482 -0.068941751112910662 -0.13451827288713833 -0.1459125890010152 0.12106014876116072 0.084732531460179963 -0.10264704538829823 0.10567413875856752 0.05812373873042348 -0.13186623481172607 -0.055922297772136892 -0.04518220980951973 -0.17631554152892046 -0.20186478102444663 0.11197459554730156 -0.12283913111921718 0.1173106912214502 0.090027743623314629 0.17409321408425571 0.1347314577240202 -0.20378147817053038 0.0068601230021636365 -0.19788754641053458 -0.17744330198181615 0.1028853290992628 0.11867520229412876 -0.10392706276242858 0.11527306548634463 0.11183776359046088 0.11279947393046307 -0.10480932256387554
leaf_weight=5.8006010353565234 31.694701075553894 63078.922428864986 396.75599448382854 3816.0880889445543 1310.3670271933079 1093.9679974988103 68.730857003480196 10586.566270522773 949.11241724342108 1967.2979911640286 2348.2207571864128 6284.4504392743111 412.39816984534264 2741.9606736674905 2319.4023871198297 6.7641199380159369 264.65014454722404 756.53185915201902 13.188026838004587 4.9820396751165417 403.10553953051567 147.65836255252361 10.628218188881872 25.247480183839798 10.86323571205139 1.0925023853778841 7.480768308043479 4.6444259434938457 28.420997679233551 6.930142879486084 4410.6163796186447 6.9297476597130272 4.5896911621093741 2.3639459107071188 27.287622302770615 9.7105341479182226 2.951080985367299 3.5816255323588813 12.483367413282393 2.2706924229860332 25.243221171200275 20.0406693816185 0.81848105601966359 18.597015500068665 20.944648087024689 24.679859280586243 0.82979710400104523
leaf_count=16 33 173965 1060 10014 4992 1564 275 29242 1718 3504 6916 14175 1106 5399 3156 15 1775 3476 57 26 291 171 38 29 15 6 26 31 128 28 5008 75 4 13 17 8 16 30 50 10 34 19 25 18 24 27 19
internal_value=0 0.0174281 0.0169805 0.0144707 0.0180752 0.0195507 -0.00109193 0.00214046 0.0286475 0.0211745 -0.000335209 0.0297696 0.0433491 0.0271702 0.061938 0.0793864 -0.0420439 -0.0575043 0.0104697 0.0422866 0.110475 0.0667558 0.118231 0.0439587 -0.0428146 0.110951 -0.122501 0.0243696 -0.151229 -0.128946 0.111431 0.0827421 -0.0631767 0.0658042 0.124423 0.0987286 -0.147014 0.0399274 -0.183062 -0.143474 0.109854 0.112023 -0.115331 0.111993 0.113195 0.111979 -0.104371
internal_weight=0 99106.3 98395.4 80975.8 65747.9 64172.9 15227.9 14402.7 17419.6 11549.1 3297.33 8251.75 5870.52 3138.72 2731.8 710.841 1575.02 825.263 220.978 178.312 489.863 160.846 466.269 35.8757 23.594 4591.6 42.6659 25.312 35.9018 12.7307 4566.29 92.3531 14.4705 20.3005 430.393 15.6561 9.88083 5.94557 17.4654 5.01147 77.8826 4473.93 2.74078 4453.89 52.6393 4435.3 1.64828
internal_count=268644 263244 262337 225303 182296 175529 43007 39256 37034 26313 8634 17679 10721 6459 4262 907 6767 3751 473 304 434 228 375 67 59 5400 169 142 154 44 5258 186 95 82 308 51 91 43 76 60 91 5072 50 5053 57 5035 44
is_linear=0
shrinkage=0.1


Tree=21
num_leaves=47
num_cat=0
split_feature=115 80 116 109 132 124 47 106 98 122 70 105 111 51 118 50 110 46 117 114 37 71 47 122 52 122 55 28 20 127 73 128 113 47 34 9 36 115 33 23 32 33 50 98 9 54
split_gain=3560.1 260.732 378.309 270.756 538.852 899.059 441.339 383.881 214.241 203.899 191.417 117.389 102.4 264.449 68.4803 67.6135 186.375 106.486 106.11 55.4975 48.4882 45.7164 38.7831 22.5878 20.9806 19.4707 16.107 10.2617 7.34209 7.28461 32.4517 19.1984 3.85171 2.56703 2.28154 1.27206 1.15352 0.912783 0.609588 0.416067 0.236125 0.065388 0.0571289 0.00331397 0.00141018 0.00124358
threshold=-0.82540583610534657 -0.28554783761501307 -1.5219027400016782 -1.1386696696281431 1.0000000180025095e-35 -2.3040089607238765 1.2099303007125857 -0.96017298102378834 -0.42616660892963404 -2.0349375009536739 -0.12430372834205626 -0.82514438033103932 -1.2228181362152097 1.1886268854141238 -1.5792085528373716 1.1905956268310549 -1.1778625249862669 1.213539779186249 -1.576938211917877 -1.3591603636741636 0.93242904543876659 -0.30745001137256617 1.2400364279747011 -2.023204922676086 1.0121145248413088 -2.0480600595474239 0.98140519857406627 0.84464648365974437 1.1951386332511904 1.0000000180025095e-35 -0.94033047556877125 1.0000000180025095e-35 -1.3203701376914976 1.2177200913429262 0.81615966558456432 0.67744687199592601 0.90328443050384533 -0.55395692586898793 0.79570916295051586 1.255303740501404 0.80165669322013866 0.77483290433883678 0.8438173532485963 -1.1128991842269895 0.7547765076160432 0.75150513648986828
decision_type=2 2 2 2 2 2 2 2 2 2 2 2 2 2 2 2 2 2 2 2 2 2 2 2 2 2 2 2 2 2 2 2 2 2 2 2 2 2 2 2 2 2 2 2 2 2
left_child=1 2 9 6 7 -6 10 -5 -8 11 -4 25 15 32 22 16 17 -3 36 -16 -20 -11 -15 -23 29 -1 39 -18 -28 30 40 37 34 -13 -14 -30 -17 -32 -34 -26 43 42 45 -2 -41 -31
right_child=24 12 3 4 5 -7 8 -9 -10 21 -12 33 13 14 19 18 27 -19 20 -21 -22 23 -24 -25 26 -27 28 -29 35 41 31 -33 38 -35 -36 -37 -38 -39 -40 44 -42 -43 -44 -45 -46 -47
leaf_value=0.14640798066910829 0.11071902203683158 0.08035867229342368 0.050909249922491934 -0.015795060467504007 0.025315383438789335 -0.050283252368930248 -0.10453120185849191 0.018117288318549068 0.21454385712521884 0.19119082462881387 0.13765041129013686 -0.20988221264314988 -0.17757038599491493 0.01911140849566224 0.095402003331571172 -0.18376457903829713 -0.069373156313012024 -0.15389738979409626 0.098532247876159551 -0.06898546771569436 0.036075312804558252 -0.078903141086463194 -0.23811465061672568 -0.14556980580323464 -0.16526643218398163 0.038810684099445387 -0.043940024068975729 -0.22145707646810653 0.13373936896128388 0.11070633572930909 -0.12099694567420903 0.11540098531662175 -0.13530024285551573 -0.13639104005707506 -0.23498128623510384 0.069913732269881054 -0.12925014411510446 -0.18894413839466129 -0.16244842926848579 -0.10356061292723107 0.098049327934965347 0.1167052547351827 0.11646120229137805 0.11238012620614019 -0.10915873195764217 0.11156779751042747
leaf_weight=44.287371754646301 35.474861145019531 201.90586274117231 583.70443232357502 3472.1590405032039 3067.4289774000645 3229.1836996674538 189.91266202926636 86364.647623103112 23.665768951177597 4.4961878657340995 450.95559613406658 9.736703500151636 22.935009978711605 12.178031221032144 173.76409380882978 5.2383617460727718 5.2852891236543647 21.468151196837425 754.20591482520103 23.289501488208771 148.8295496031642 66.08293578773737 11.30096088349819 220.08055628091097 3.2078140079975155 27.11513178050518 4.9677521288394955 27.630904793739319 5.8544803559780103 4041.5780946612358 6.360861482098696 4.218108355998992 19.47269706428051 9.2856794968247396 9.914433076977728 6.6918450370430946 14.985497012734411 2.868742674589158 14.377863496541975 1.1022429708391426 18.016401261091232 18.423890471458435 17.345091879367828 18.157808542251587 0.76039906963706005 16.827034592628479
leaf_count=23 44 254 1530 12249 8153 15736 1185 220017 27 5 331 40 96 21 174 22 14 90 718 67 240 311 48 1344 15 66 34 114 5 5017 75 4 106 59 41 36 101 16 62 35 26 19 17 21 16 20
internal_value=0 0.0156641 0.0150362 0.0154253 0.0148245 -0.013455 0.0616995 0.0168066 -0.0691758 -0.0844045 0.0887153 0.0467387 0.0575126 0.00396896 0.0567382 0.070551 0.0251093 0.0578447 0.0831653 0.0759733 0.0882387 -0.125203 -0.104697 -0.130175 0.10964 0.105548 0.0135157 -0.197037 0.058955 0.110159 0.0812006 -0.0613415 -0.170504 -0.174008 -0.194898 0.0996966 -0.14337 -0.142116 -0.146831 -0.143438 0.107954 0.110761 0.110734 0.111281 -0.105846 0.11071
internal_weight=0 99229.5 97762.7 97381.7 96133.4 6296.61 1248.24 89836.8 213.578 381.085 1034.66 90.4249 1466.78 287.233 220.533 1179.55 256.29 223.374 923.259 197.054 903.035 290.66 23.479 286.163 4201.86 71.4025 22.5845 32.9162 17.5141 4179.27 85.0968 13.4477 66.7 19.0224 32.8494 12.5463 20.2239 9.2296 33.8506 5.07046 71.6491 4094.17 4075.75 53.6327 1.86264 4058.41
internal_count=268644 263244 261076 259228 256155 23889 3073 232266 1212 1848 1861 188 2168 615 310 1553 472 344 1081 241 958 1660 69 1655 5400 89 141 128 75 5259 186 95 305 99 137 41 123 91 168 66 91 5073 5054 65 51 5037
is_linear=0
shrinkage=0.1


Tree=22
num_leaves=42
num_cat=0
split_feature=116 29 73 134 4 36 98 96 128 74 102 0 74 0 22 32 136 135 31 107 129 98 110 51 96 55 104 131 59 53 89 115 28 73 29 114 73 40 64 125 74
split_gain=3294.35 256.232 366.855 636.367 433.609 636.532 473.532 332.648 446.299 332.721 299.575 222.216 327.735 145.164 126.567 66.1615 65.8059 70.6028 186.828 87.3316 46.6551 32.9783 30.9306 28.3996 29.127 16.7335 9.9857 0.752854 0.75046 2.10757 7.84539 0.642493 0.445752 0.172727 0.150144 0.100791 0.056335 0.0502546 0.0410889 0.00951918 0.00612823
threshold=-0.80398225784301747 1.2355914115905764 -0.84714964032173146 1.0000000180025095e-35 0.6942955255508424 0.79545107483863842 -0.91982027888298024 -1.0113249421119688 1.0000000180025095e-35 -1.024695038795471 -0.91183060407638539 0.53860583901405346 -1.0054911971092222 0.52888807654380809 1.6274853944778445 0.94013717770576488 1.0000000180025095e-35 1.0000000180025095e-35 0.95692104101181041 -0.90378060936927784 1.0000000180025095e-35 -0.88116922974586476 -0.48965419828891749 1.2034767866134646 -0.89258423447608937 0.92604747414588939 -0.78682029247283924 1.0000000180025095e-35 0.62175568938255321 0.78686076402664196 -1.2994399666786192 -0.55395692586898793 1.2586741447448733 -0.91938364505767811 1.2415821552276614 -1.2469062209129331 -0.90748056769371022 0.63628676533699047 0.064129780977964415 -0.41193795204162592 -1.027436316013336
decision_type=2 2 2 2 2 2 2 2 2 2 2 2 2 2 2 2 2 2 2 2 2 2 2 2 2 2 2 2 2 2 2 2 2 2 2 2 2 2 2 2 2
left_child=1 2 3 7 5 10 -7 9 -9 -1 -4 25 -13 27 15 -6 17 18 -15 -19 23 -16 31 28 -25 -5 35 34 29 32 -31 36 -2 40 -3 -26 37 -22 -36 -38 -29
right_child=20 13 4 11 14 6 -8 8 -10 -11 -12 12 -14 16 21 -17 -18 19 -20 -21 22 -23 -24 24 26 -27 -28 33 -30 30 -32 -33 -34 -35 38 -37 39 -39 -40 -41 -42
