tree
version=v4
num_class=1
num_tree_per_iteration=1
label_index=0
max_feature_idx=136
objective=binary sigmoid:1
feature_names=Column_0 Column_1 Column_2 Column_3 Column_4 Column_5 Column_6 Column_7 Column_8 Column_9 Column_10 Column_11 Column_12 Column_13 Column_14 Column_15 Column_16 Column_17 Column_18 Column_19 Column_20 Column_21 Column_22 Column_23 Column_24 Column_25 Column_26 Column_27 Column_28 Column_29 Column_30 Column_31 Column_32 Column_33 Column_34 Column_35 Column_36 Column_37 Column_38 Column_39 Column_40 Column_41 Column_42 Column_43 Column_44 Column_45 Column_46 Column_47 Column_48 Column_49 Column_50 Column_51 Column_52 Column_53 Column_54 Column_55 Column_56 Column_57 Column_58 Column_59 Column_60 Column_61 Column_62 Column_63 Column_64 Column_65 Column_66 Column_67 Column_68 Column_69 Column_70 Column_71 Column_72 Column_73 Column_74 Column_75 Column_76 Column_77 Column_78 Column_79 Column_80 Column_81 Column_82 Column_83 Column_84 Column_85 Column_86 Column_87 Column_88 Column_89 Column_90 Column_91 Column_92 Column_93 Column_94 Column_95 Column_96 Column_97 Column_98 Column_99 Column_100 Column_101 Column_102 Column_103 Column_104 Column_105 Column_106 Column_107 Column_108 Column_109 Column_110 Column_111 Column_112 Column_113 Column_114 Column_115 Column_116 Column_117 Column_118 Column_119 Column_120 Column_121 Column_122 Column_123 Column_124 Column_125 Column_126 Column_127 Column_128 Column_129 Column_130 Column_131 Column_132 Column_133 Column_134 Column_135 Column_136
feature_infos=[-1.8014661073684692:2.1475074291229248] [-1.7160434722900391:2.0597634315490723] [-1.6382262706756592:1.9801409244537354] [-1.5680137872695923:1.9086390733718872] [-1.5054070949554443:1.8452587127685547] [-1.4504051208496094:1.7899996042251587] [-1.4123568534851074:1.7536556720733643] [-1.3844102621078491:1.7939627170562744] [-1.3517893552780151:2.0758624076843262] [-1.3099035024642944:2.0974209308624268] [-1.2559221982955933:1.9997674226760864] [-1.1870334148406982:1.9951491355895996] [-1.1039742231369019:2.0742456912994385] [-1.0067610740661621:2.1771299839019775] [-0.90047705173492432:2.2825961112976074] [-0.78966546058654785:2.355140209197998] [-0.67814630270004272:2.3999395370483398] [-0.65542465448379517:2.4998569488525391] [-0.65817779302597046:2.5653238296508789] [-0.6643681526184082:2.5221147537231445] [-0.8555336594581604:2.4413206577301025] [-0.86833834648132324:2.3840618133544922] [-0.86565589904785156:2.2409591674804688] [-0.7797551155090332:2.1797337532043457] [-1.0841877460479736:2.1614029407501221] [-1.4308524131774902:2.0620582103729248] [-1.6366665363311768:1.9191513061523438] [-1.8254417181015015:1.7312250137329102] [-1.9454965591430664:1.5516149997711182] [-2.1668190956115723:1.3473584651947021] [-2.5042393207550049:1.1458766460418701] [-2.6881959438323975:1.0691677331924438] [-2.8964071273803711:1.0182701349258423] [-2.6209216117858887:1.0153312683105469] [-1.9672813415527344:1.0222163200378418] [-1.2877312898635864:1.096311092376709] [-0.66342759132385254:1.2162210941314697] [-0.67050886154174805:1.328394889831543] [-0.67336314916610718:1.4686216115951538] [-0.67729061841964722:1.427788257598877] [-0.67375040054321289:1.3506048917770386] [-0.77278417348861694:1.3033223152160645] [-0.78214722871780396:1.4334096908569336] [-0.67821109294891357:1.6771683692932129] [-0.67549598217010498:1.8418123722076416] [-0.67939788103103638:1.9795904159545898] [-0.67687302827835083:1.8671952486038208] [-0.68056988716125488:1.8940913677215576] [-0.67851173877716064:2.0411467552185059] [-0.68057990074157715:2.1347439289093018] [-0.67672491073608398:2.3221406936645508] [-0.68208664655685425:2.3866791725158691] [-0.6882440447807312:2.3278176784515381] [-0.69760811328887939:2.41339111328125] [-0.68820065259933472:2.0181429386138916] [-0.66498374938964844:1.663224458694458] [-0.62813276052474976:1.3939603567123413] [-0.79989981651306152:1.3641012907028198] [-0.9627259373664856:1.3483799695968628] [-0.83332031965255737:1.3266682624816895] [-0.58463895320892334:1.3006186485290527] [-0.6056399941444397:1.5017008781433105] [-0.63135004043579102:1.6471337080001831] [-0.66003769636154175:1.5962808132171631] [-0.93073725700378418:1.2496439218521118] [-1.1305865049362183:1.0751444101333618] [-1.2290370464324951:0.99085426330566406] [-1.5406250953674316:0.88485002517700195] [-1.6584281921386719:0.75389385223388672] [-1.8893227577209473:0.60495084524154663] [-1.6504355669021606:0.45876148343086243] [-1.5578154325485229:0.33052113652229309] [-1.4160724878311157:0.23037496209144592] [-1.3336478471755981:0.15855956077575684] [-1.4517455101013184:0.30397361516952515] [-1.6804615259170532:0.84510332345962524] [-1.8599822521209717:1.4404212236404419] [-2.0371255874633789:1.2026444673538208] [-2.1728529930114746:1.1285310983657837] [-2.2573421001434326:0.92254304885864258] [-2.3058340549468994:0.73609095811843872] [-2.3315773010253906:0.28676301240921021] [-2.3403120040893555:0.33890664577484131] [-2.3343968391418457:0.39074629545211792] [-2.3124566078186035:0.5232703685760498] [-2.2730567455291748:0.47703936696052551] [-2.2140905857086182:0.50853937864303589] [-2.1362462043762207:0.53271615505218506] [-2.0426793098449707:0.67684948444366455] [-1.9374580383300781:0.56802195310592651] [-1.8240519762039185:0.65060514211654663] [-1.8478662967681885:1.0689502954483032] [-1.6520191431045532:1.4172115325927734] [-1.5958865880966187:1.6280827522277832] [-1.5394163131713867:1.6645923852920532] [-1.4922878742218018:1.6171708106994629] [-1.4547033309936523:1.5605852603912354] [-1.4384253025054932:1.5595740079879761] [-1.4264529943466187:1.5645072460174561] [-1.522296667098999:1.5648646354675293] [-2.0638625621795654:1.5687597990036011] [-2.4619696140289307:1.5680602788925171] [-2.648137092590332:1.5700795650482178] [-2.4631106853485107:1.5662518739700317] [-2.0341367721557617:1.5671930313110352] [-1.4073458909988403:1.5610309839248657] [-1.2213733196258545:1.5632989406585693] [-1.1215335130691528:1.5619508028030396] [-1.168958306312561:1.5697338581085205] [-1.225764274597168:1.5736351013183594] [-1.369315505027771:1.5835809707641602] [-1.6010570526123047:1.5857315063476562] [-2.1418814659118652:1.5904401540756226] [-2.4733853340148926:1.5886306762695312] [-2.5047738552093506:1.5877697467803955] [-2.0072333812713623:1.5805701017379761] [-1.6131480932235718:1.5816278457641602] [-1.6321159601211548:1.6058655977249146] [-1.6864286661148071:2.4495923519134521] [-1.7459897994995117:2.6529664993286133] [-1.820858359336853:2.5047237873077393] [-1.9280952215194702:1.7488086223602295] [-2.15055251121521:1.5731028318405151] [-2.3795907497406006:1.5710934400558472] [-2.6580204963684082:1.8138364553451538] [-2.9761693477630615:2.1645474433898926] [-3.3559722900390625:3.0688047409057617] [-3.8750591278076172:4.2020993232727051] [0:1] [0:1] [0:1] [0:1] [0:1] [0:1] [0:1] [0:1] [0:1]
tree_sizes=4143 4267 3849 4282 4283 4600 4500 6402 6232 6530 6217 6216 6529 6762 6527 6581 6932 6039 5693 6786 6529 4942 5831 6635 6065 6127 6953 6803 6874 6824 6971 6223 5862 6497 6927 5224 6007 5692 6280 6763 5841 6904 5380 6706 5669 6031 6937 6442 6702 6146 4226 5863 5711 6281 6812 5891 6590 6230 6573 6640 3888 6962 6374 6230 6353 6892 6819 3654 6357 5600 4307 5906 6956 6130 6553 6063 6041 5956 5779 3736 5954 6452 6111 6057 6039 6286 3991 6916 5239 6559 6945 6793 6766 6503 5758 6311 6794 6784 6711 5527 6134 4614 5984 6912 6616 4316 6873 6401 6708 6677 6081 6697 6909 6736 5469 6146 4939 6361 6839 6762 6729 6728 4023 3566 6804 5981 6595 6836 6801 6329 6718 6938 6285 6367 5465 5926 6939 6829 6688 6344 3908 5397 5686 6774 6113 6610 6506 6789 4021 5613 6410 6490 5088 4153 6911 6230 5752 6628 5860 4238 6545 5681 4216 6372 6934 6370 4662 6220 5673 5453 6011 5815 6228 5234 5868 6956 5757 5837 6930 5451 5771 6780 6324 5583 6617 6501 5641 6058 6939 6599 6473 6256 6805 6672 6507 5920 5372 3809 6350 5672

Tree=0
num_leaves=38
num_cat=0
split_feature=114 41 125 57 70 132 31 106 31 30 130 30 122 109 104 71 74 47 0 30 49 132 30 37 6 72 36 71 131 46 60 55 0 26 36 67 27
split_gain=19547.7 12793.9 18231.6 8743.04 9303.61 6390.69 5953.59 5848.8 4690.89 6598.08 4232.81 3952.88 2574.84 2523.83 2433.75 2420.21 1856.24 1443.92 1318.97 1170.28 1129.65 699.22 644.563 611.677 979.059 433.564 357.342 302.098 179.276 136.994 381.791 131.727 1.13687e-13 5.68434e-14 7.10543e-15 7.10543e-15 1.77636e-15
threshold=-0.82004582881927479 1.1097711324691775 -1.5742131471633909 0.96838921308517467 -0.11800220981240271 1.0000000180025095e-35 0.99654844403266918 -0.89844298362731922 0.99898070096969616 1.0685095787048342 1.0000000180025095e-35 1.044027626514435 -1.873637795448303 -1.1206418871879575 -0.72123700380325306 -0.17726881802082059 -0.39850671589374537 1.2201605439186098 0.77219954133033764 1.0667517781257632 1.213276267051697 1.0000000180025095e-35 1.0451614856719973 1.0059280395507815 0.052236232906579978 -0.48759841918945307 0.91419899463653576 -0.2309124022722244 1.0000000180025095e-35 1.2431269884109499 0.86769783496856701 0.9863315522670747 0.58833289146423351 1.2737295627593996 0.90185296535491954 -0.22454255819320676 0.92986389994621288
decision_type=2 2 2 2 2 2 2 2 2 2 2 2 2 2 2 2 2 2 2 2 2 2 2 2 2 2 2 2 2 2 2 2 2 2 2 2 2
left_child=1 2 3 4 6 8 -1 16 9 -4 -10 18 15 -6 23 -5 17 27 -7 -13 -14 -19 32 24 -9 -25 -18 -3 31 34 -31 -24 -2 -34 -16 -35 -28
right_child=22 7 5 12 13 11 -8 14 10 -11 -12 19 20 -15 29 -17 26 21 -20 -21 -22 -23 28 25 -26 -27 36 -29 -30 30 -32 -33 33 35 -36 -37 -38
leaf_value=-2.0620951386431643 -2.6638129464432723 -1.8669186572172396 -2.0044183125451918 -2.5285242226546298 -1.8957619588232864 -2.3249020224754871 -1.9169102452653541 -1.3845259112147166 -1.7918626547320942 -1.8285513966271671 -1.9931254296507843 -1.6575894307782155 -2.2193682739763774 -1.4489101672217202 -2.6638129464432718 -1.9183637497385009 -1.4990314591831178 -1.7091848991025578 -1.4267846482636377 -1.339651607550983 -1.8995509280640093 -1.2713376241341767 -2.6638129464432723 -1.4271748880153208 -2.059566427845942 -1.8261055685586909 -2.6638129464432723 -2.6638129464432723 -1.2753282997824928 -1.5048665070510316 -2.531661483898473 -1.6692785778523325 -2.6638129464432723 -2.6638129464432723 -2.6638129464432723 -2.6638129464432723 -2.6638129464432723
leaf_weight=6925.1054609119892 88.688642531633377 21.019475668668751 4402.4559960365295 447.62620025873184 186.21393066644669 76.036771535873413 4769.9117730557919 27.194119781255722 8325.3855699598789 4138.8284294903278 1194.9490881860256 167.74750661849976 394.27609291672707 393.46999940276146 2.6733577251434353 76.052565008401871 3.318608611822131 39.142003238201141 20.83193451166153 373.65393581986427 153.4187203347683 534.83469417691231 2.7401916682720167 63.557450443506241 102.3543538749218 47.681355595588684 3.2080292701721183 6.1487227678298941 3.7119160890579224 4.447089463472369 19.500119030475616 2.5911314189434052 239.59968611598015 14.101962000131609 26.466241478919983 14.369297772645949 9.5572538673877698
leaf_count=65181 1327 160 39095 6139 1467 900 38508 86 57609 30040 10487 953 4283 1478 40 615 14 241 74 1027 1214 1133 41 226 961 345 48 92 8 19 268 15 3585 211 396 215 143
internal_value=-2.55605 -1.90762 -1.91813 -2.00741 -1.9835 -1.85441 -2.00288 -1.53811 -1.8654 -1.9192 -1.81712 -1.54343 -2.28137 -1.59245 -1.9053 -2.43991 -1.36328 -1.33491 -2.13176 -1.43816 -2.12978 -1.3012 -2.64268 -1.77017 -1.91787 -1.59817 -2.42348 -2.04727 -1.80893 -2.51819 -2.34098 -2.18045 -2.66381 -2.66381 -2.66381 -2.66381 -2.66381
internal_weight=0 32957.1 32046 13346.1 12274.7 18699.9 11695 911.103 18061.6 8541.28 9520.33 638.27 1071.37 579.684 293.874 523.679 617.229 601.145 96.8687 541.401 547.695 573.977 365.803 240.787 129.548 111.239 16.0839 27.1682 9.04324 53.0868 23.9472 5.33132 356.76 268.071 29.1396 28.4713 12.7653
internal_count=268644 263242 259070 118885 106634 140185 103689 4172 137231 69135 68096 2954 12251 2945 2341 6754 1831 1626 974 1980 5497 1374 5402 1618 1047 571 205 252 64 723 287 56 5338 4011 436 426 191
is_linear=0
shrinkage=1


Tree=1
num_leaves=39
num_cat=0
split_feature=114 103 39 74 30 73 126 105 0 105 71 39 104 116 110 73 104 31 41 18 78 69 0 106 34 131 121 34 57 57 122 71 71 109 30 0 18 2
split_gain=5901.08 2916.11 2197.11 3120.95 1972.8 1966.26 1887.01 1569.61 1565.7 1428.71 1303.11 1129.85 1063.24 1008.18 841.577 606.839 330.291 315.708 314.886 262.757 63.7818 60.937 273.377 90.7056 36.8317 13.4619 54.3627 12.465 0.332879 0.0389853 0.0189805 0.0180962 0.0108898 0.00969087 0.00489288 5.68434e-14 5.68434e-14 1.42109e-14
threshold=-0.82004582881927479 -0.61901324987411488 1.0357086062431338 -0.93287187814712513 1.1034030914306643 -0.93598195910453785 -1.842026352882385 -0.78973296284675587 0.32871225476264959 -0.80017158389091481 -0.17726881802082059 1.0463512539863589 -0.93040132522582997 -1.5014840960502622 -1.1782577633857725 -0.35890007019042963 -0.73962342739105214 0.9929569959640504 1.0977817177772524 1.1001508235931399 -0.29991810023784632 0.086835313588380827 -0.34296548366546625 -0.84508049488067616 0.8301464617252351 1.0000000180025095e-35 -0.91203600168228138 0.83956333994865429 0.96838921308517467 0.96838921308517467 -2.0649003982543941 -0.17726881802082059 -0.17726881802082059 -1.1206418871879575 1.043733596801758 1.0685511827468874 1.4481502771377566 1.0563789010047915
decision_type=2 2 2 2 2 2 2 2 2 2 2 2 2 2 2 2 2 2 2 2 2 2 2 2 2 2 2 2 2 2 2 2 2 2 2 2 2 2
left_child=1 2 3 4 5 -1 9 8 -5 15 -9 -11 -6 14 29 -4 19 34 -18 -8 27 28 24 -24 -23 26 -19 -16 30 33 -15 -30 -31 -3 35 36 -2 -37
right_child=17 13 6 7 12 -7 16 10 -10 11 -12 -13 -14 21 20 -17 18 25 -20 -21 -22 22 23 -25 -26 -27 -28 -29 31 32 -32 -33 -34 -35 -36 37 -38 -39
leaf_value=0.47243652513179868 -0.10696820522043288 -0.11482873130554475 0.41395719954418281 0.33110775599373676 0.28118096710828849 0.3461022767545141 0.59649998184797715 0.1162442537405397 0.27592020702373049 0.010839073707480551 0.54977576154362962 0.3293237535233573 -0.023760629499398458 -0.12325275574685098 0.61832775450777 -0.031049379323620986 -0.11200532334189905 -0.11034903965854091 0.67763983883952927 0.11200404542700021 0.42486848615980793 -0.11381879459795807 0.13552442280612953 0.69987075905949925 0.1944625998014434 0.41578898463653768 0.44890005566556557 0.74698833667786191 -0.1081400029486192 -0.10790008241578929 -0.11506290547620207 -0.11468471036158015 -0.11316855367540389 -0.12348261235645741 -0.11317287661743709 -0.10696820522043288 -0.10696820522043288 -0.10696820522043288
leaf_weight=1286.9095816463232 244.69284307211637 2.558678712695837 2398.9184832945466 10392.542671028525 252.63509651273489 28854.189619459212 559.2484425008297 701.13124248757958 10172.815555751324 167.47177967429161 76.941738341003656 332.62607678771019 208.87548891454935 17.227251060307029 12.292014949023725 31.040165573358536 13.328799448907377 2.8100224994122991 8.1303848773241025 11.422352261841295 11.804185584187506 50.28538790717721 5.1718156784772873 6.3385191746056062 4.1991206482052794 9.4789794087409973 4.556833989918232 19.437729567289352 142.06809888780117 13.58384727686644 3.3859846144914618 4.354304574429988 5.516567733138797 2.6180843412876156 1.2759500369429577 3.8366473652422419 14.920295309275387 60.655567869544029
leaf_count=3555 4018 23 5869 56823 1150 124475 1831 5459 55468 1575 98 1610 1561 113 29 324 140 39 19 85 26 488 40 17 34 8 18 20 2063 203 31 39 57 17 15 63 245 996
internal_value=0 0.331383 0.333067 0.327884 0.348355 0.351496 0.409499 0.298534 0.303809 0.376594 0.159115 0.22267 0.143167 0.0208849 0.360242 0.408273 0.57232 -0.0851383 0.187173 0.586802 0.623318 -0.0778667 0.00348817 0.446299 -0.0900595 0.336981 0.235579 0.697146 -0.11001 -0.111508 -0.121907 -0.108335 -0.109422 -0.119205 -0.106993 -0.106968 -0.106968 -0.106968
internal_weight=0 55769.1 55468.2 51946 30602.6 30141.1 3522.19 21343.4 20565.4 2930.06 778.073 500.098 461.511 300.842 67.8111 2429.96 592.13 342.227 21.4592 570.671 43.5339 233.03 65.9948 11.5103 54.4845 16.8458 7.36686 31.7297 167.036 24.2772 20.6132 146.422 19.1004 5.17676 325.381 324.105 259.613 64.4922
internal_count=268644 263242 260042 248589 130741 128030 11453 117848 112291 9378 5557 3185 2711 3200 375 6193 2075 5402 159 1916 75 2825 579 57 522 65 57 49 2246 300 144 2102 260 40 5337 5322 4263 1059
is_linear=0
shrinkage=0.1


Tree=2
num_leaves=35
num_cat=0
split_feature=114 103 2 31 40 136 32 31 133 30 101 134 31 31 116 0 104 110 31 69 101 44 101 34 111 47 57 57 71 122 71 71 109 30
split_gain=3174.72 1469.81 1282.9 1855.85 1985.06 1859.05 2667.69 1851.35 1561.72 1144.8 1277.94 1068.15 1005.84 930.204 637.182 475.143 437.377 373.618 238.035 55.8391 172.928 93.6198 52.784 21.7466 66.247 15.4467 0.236481 0.0276521 0.016596 0.0131356 0.0129634 0.00784826 0.00675853 0.00359006
threshold=-0.82004582881927479 -0.61901324987411488 0.62670940160751354 0.99795258045196544 1.0701748132705691 1.0000000180025095e-35 0.96126344799995433 1.00433886051178 1.0000000180025095e-35 1.0948267579078677 -0.9521951675415038 1.0000000180025095e-35 0.96172621846199047 0.99313589930534374 -1.5014840960502622 0.59245383739471447 -0.73485079407691944 -1.1782577633857725 0.9929569959640504 0.086835313588380827 -0.4556415975093841 1.1959142684936526 -1.0023001432418821 0.83730170130729686 -1.2158113121986387 1.087514400482178 0.96838921308517467 0.96838921308517467 -0.17726881802082059 -2.0649003982543941 -0.17726881802082059 -0.17726881802082059 -1.1206418871879575 1.043733596801758
decision_type=2 2 2 2 2 2 2 2 2 2 2 2 2 2 2 2 2 2 2 2 2 2 2 2 2 2 2 2 2 2 2 2 2 2
left_child=1 2 3 4 11 7 -7 -5 9 12 -11 -1 -4 22 17 -15 -6 27 33 26 21 -21 -10 24 -19 -20 29 32 -22 -16 -28 -29 -3 -2
right_child=18 14 8 5 16 6 -8 -9 13 10 -12 -13 -14 15 19 -17 -18 23 25 20 28 -23 -24 -25 -26 -27 30 31 -30 -31 -32 -33 -34 -35
leaf_value=0.20950026848776032 -0.1062613073739429 -0.11322247247316418 0.25089979393955875 0.25703131115978389 0.29260918113837775 0.24148154052781404 0.37371825452630159 0.20029924458340226 0.33749011570614434 0.30060854268681025 0.10270746386266792 0.13950483584756232 0.32831117774230889 0.33393971412757306 -0.12055936266776995 0.0089289361096201933 0.1371832382594658 0.11007800658378333 0.10459407715075264 0.35270986076799793 -0.10711730844557817 -0.113650322009327 -0.099164041732420022 0.40220498350917061 0.48486009656633577 0.30086434181088945 -0.10730821140232212 -0.10709555094131856 -0.11312126774717655 -0.1134491375034878 -0.11309357318275981 -0.11177304784444847 -0.12075480093166827 -0.11181679200349495
leaf_weight=24998.638226047158 295.1138606518507 2.346344318240881 2863.4801587164402 14512.347901709378 3251.5974545516074 3733.143255956471 2579.8303320035338 9529.2040719166398 2.8123334199190131 608.0077436119318 704.24091579020023 2388.4881555661559 4055.9755519255996 129.99313946068287 15.918082334101202 68.780883483588696 191.73031418398023 10.698179446160795 5.5000300258398083 16.270946551114324 5.2104523032903662 5.8529261760413638 177.16330482810736 45.898181609809399 8.4350346326827985 14.799638718366621 129.49399377405643 12.378785811364654 39.550608489662409 3.1051061600446692 3.9925192594528189 5.0507184416055653 2.4196838140487698 1.1678112670779217
leaf_count=111673 5322 23 8723 49208 6705 12073 5883 36439 8 1487 3323 12649 8913 336 113 381 1035 41 34 46 84 62 1206 30 4 31 2063 203 387 31 39 57 17 15
internal_value=0 0.2338 0.23476 0.229674 0.212393 0.247226 0.295521 0.234545 0.270901 0.280036 0.194402 0.203396 0.296276 0.0723563 0.0153374 0.221478 0.283955 0.243959 -0.0835861 -0.0755581 0.00062184 0.229333 -0.0923408 0.364869 0.275304 0.247687 -0.108968 -0.110297 -0.112422 -0.119399 -0.107481 -0.108451 -0.117047 -0.106283
internal_weight=0 70102.1 69795.4 61185 30830.5 30354.5 6312.97 24041.6 8610.45 8231.7 1312.25 27387.1 6919.46 378.75 306.622 198.774 3443.33 87.2269 316.581 219.395 66.8849 22.1239 179.976 65.0314 19.1332 20.2997 152.51 22.1955 44.7611 19.0232 133.487 17.4295 4.76603 296.282
internal_count=268644 263242 260042 235665 132062 103603 17956 85647 24377 22446 4810 124322 17636 1931 3200 717 7740 375 5402 2825 579 108 1214 75 45 65 2246 300 471 144 2102 260 40 5337
is_linear=0
shrinkage=0.1


Tree=3
num_leaves=39
num_cat=0
split_feature=114 103 39 103 47 70 58 72 56 126 108 52 31 55 69 81 32 27 36 120 102 25 124 70 112 57 116 110 30 71 28 127 109 22 71 120 30 0
split_gain=2017.04 862.721 842.207 1688.07 1975.31 1518.03 1512.8 1325.35 1737.41 889.254 751.172 795.516 583.772 551.881 491.021 427.18 195.997 147.233 202.772 122.129 119.515 68.6509 23.3928 25.9027 4.28916 0.189843 0.0323854 0.0384087 0.0294907 0.0197621 0.017533 0.0124442 0.00996685 0.00939277 0.0072852 0.00119227 3.85082e-08 5.68434e-14
threshold=-0.82004582881927479 -0.61901324987411488 1.0297731757164004 -0.7855146825313567 1.1497448086738589 -0.2133345082402229 0.8610956370830537 -0.32022441923618311 0.98153465986251842 -1.7661547064781187 -1.0622702836990354 1.1376188993453982 0.99239236116409313 1.065162777900696 0.086835313588380827 -0.20791798084974286 0.94663372635841381 1.1286824941635134 0.96506226062774669 -1.7368965148925779 -0.73985391855239857 1.0144610404968264 -1.1041186451911924 -0.32856392860412592 -1.2841778993606565 0.96838921308517467 -1.5014840960502622 -1.1782577633857725 1.0451614856719973 -0.17726881802082059 1.1456956267356875 -3.2652107477188106 -1.1206418871879575 1.0142393112182619 -0.17726881802082059 -1.7580479979515073 1.0217365026474001 0.26812066137790685
decision_type=2 2 2 2 2 2 2 2 2 2 2 2 2 2 2 2 2 2 2 2 2 2 2 2 2 2 2 2 2 2 2 2 2 2 2 2 2 2
left_child=1 2 3 4 6 -6 -1 8 -5 10 11 -4 -12 -9 25 19 28 18 -11 24 -19 -21 23 -18 -16 32 27 -17 36 31 -25 -27 -3 -34 -28 -31 37 -2
right_child=16 14 9 7 5 -7 -8 13 -10 17 12 -13 -14 -15 15 26 22 20 -20 21 -22 -23 -24 30 -26 29 34 -29 -30 35 -32 -33 33 -35 -36 -37 -38 -39
leaf_value=0.1846051265972567 -0.10563010592204269 -0.11173591259617409 -0.030541470296108899 0.16603949045010039 0.25882541615653371 0.073240463294452385 0.13514408359869376 0.25596589378231477 0.06862639122012576 -0.022475368245281652 0.14722160418593008 0.26466151987617231 0.22520063721279066 -0.11388338419352462 0.2899829185526262 -0.11068146812908473 0.27483543070054417 0.34900733537577255 0.28663752660114433 -0.11479063748306489 0.002485317611553121 0.51954507474254652 0.27026020039930321 -0.10656332376976535 0.33806991694233268 -0.10657856493695837 -0.10639493645996274 -0.12703074808710399 -0.11689404562699973 -0.11134012249984926 -0.11968754260368929 -0.11239662105515369 -0.11862775646134319 -0.11127058226995123 -0.11187910327950246 -0.11417393834998613 -0.10561050432073688 -0.10563010592204269
leaf_weight=52769.522289641201 62.317193150520325 3.0749068744480637 95.620056226849556 4002.8791974186897 4890.3282742798328 484.41238570213318 7004.6068625450134 1014.1834537982941 3374.3144304156303 26.197248756885529 2460.3643795624375 2014.2980459779501 1574.3477961570024 42.017031855881214 59.12578096985817 2.6540799103677273 2.9823818206787118 567.16095516085625 111.72846961021423 11.374772585928438 10.130954779684542 2.0071722567081443 15.452105052769182 2.1895405389368552 27.027999401092529 127.40497206896544 2.5986736901104441 3.1332660615444174 2.3447116240859023 3.2968817129731178 1.9022693037986753 3.7855414897203437 16.960698373615745 1.9330649226903904 35.68081134557724 2.7010017558932296 1.006018966436385 204.15818905830383
leaf_count=164818 1235 33 535 15343 14587 2296 25968 1747 17276 165 8885 2212 4423 417 43 33 1 1079 236 127 55 2 18 39 24 2237 46 19 23 37 20 43 129 22 378 27 20 4046
internal_value=0 0.181071 0.181705 0.178581 0.18403 0.242099 0.178809 0.136483 0.121483 0.215217 0.202933 0.251283 0.177649 0.241253 0.0125824 0.146653 -0.0820701 0.320749 0.227925 0.261413 0.342926 -0.0196459 0.201309 0.0507 0.305069 -0.108385 -0.112561 -0.119533 -0.105728 -0.107003 -0.112665 -0.106746 -0.117016 -0.117875 -0.111507 -0.112616 -0.10563 -0.10563
internal_weight=0 80744.9 80442.1 73582.3 65148.9 5374.74 59774.1 8433.39 7377.19 6859.85 6144.63 2109.92 4034.71 1056.2 302.76 143.603 292.352 715.218 137.926 99.5357 577.292 13.3819 22.5263 7.07419 86.1538 159.157 44.0668 5.78735 269.826 137.188 4.09181 131.191 21.9687 18.8938 38.2795 5.99788 267.481 266.475
internal_count=268644 263242 260042 242452 207669 16883 190786 34783 32619 17590 16055 2747 13308 2164 3200 672 5402 1535 401 196 1134 129 78 60 67 2528 476 52 5324 2344 59 2280 184 151 424 64 5301 5281
is_linear=0
shrinkage=0.1


Tree=4
num_leaves=39
num_cat=0
split_feature=114 1 133 31 39 136 32 134 117 32 73 82 105 21 30 29 74 45 31 129 132 42 102 32 73 30 46 105 0 104 124 70 31 30 28 80 32 30
split_gain=1392.77 796.026 1310.9 1204.1 1207.15 1093.93 1361.3 2105.32 1119.25 1099.18 1977.83 866.858 868.381 775.006 942.696 428.992 348.61 639.623 345.591 307.489 293.329 264.091 175.596 164.979 140.694 140.46 77.0909 123.252 33.0528 63.874 15.1589 20.2926 11.6713 0.0217066 0.0131239 0.00179615 2.81412e-08 1.13687e-13
threshold=-0.82004582881927479 0.63105979561805736 1.0000000180025095e-35 0.99932470917701732 1.0381267070770266 1.0000000180025095e-35 0.94862994551658641 1.0000000180025095e-35 -0.95312225818634022 0.95988121628761303 -0.79386031627655018 -1.4379439353942869 -0.77359911799430836 1.569820284843445 1.0968917608261111 1.2029110193252566 -0.88480493426322926 1.2057079672813418 1.0031833052635195 1.0000000180025095e-35 1.0000000180025095e-35 1.0866671800613406 -0.73359131813049305 0.94663372635841381 -0.98251914978027333 1.0366796851158144 0.94779065251350414 -0.95224821567535389 0.6100202500820161 -0.95921713113784779 -1.1041186451911924 -0.32856392860412592 0.93331339955329906 1.0451614856719973 1.1456956267356875 -1.1881496310234068 0.84536203742027294 1.0137951970100405
decision_type=2 2 2 2 2 2 2 2 2 2 2 2 2 2 2 2 2 2 2 2 2 2 2 2 2 2 2 2 2 2 2 2 2 2 2 2 2 2
left_child=1 3 13 4 11 6 7 -5 -8 10 -7 21 -13 19 15 -15 22 -18 -11 25 -16 -1 -6 33 -21 -3 28 -28 29 -4 31 -25 -30 36 -33 -29 37 -2
right_child=23 2 26 5 16 9 8 -9 -10 18 -12 12 -14 14 20 -17 17 -19 -20 24 -22 -23 -24 30 -26 -27 27 35 32 -31 -32 34 -34 -35 -36 -37 -38 -39
leaf_value=0.19383777856376339 -0.10506572690222907 0.096201451041004638 0.28232644314082284 0.15074104289807608 0.26139125436976485 0.1856964639452702 0.14514186585713035 0.26003685586238307 0.081445941203093994 0.17340696766128194 -0.0055137506655259013 0.12791227874584252 0.023194521274543196 0.066137375305421298 -0.023435418047163294 0.18718750505258272 0.11888252601142808 0.20226386861905232 0.24303431911275575 0.31816786233952543 0.2632059322888598 0.35006425906273075 0.061786812806512596 0.23282197937960578 -0.13778991674970723 0.23545753339699405 0.33176940022069723 -0.12844796895779209 -0.025666933385953231 -0.12445003775006286 0.22214376192741225 -0.10590241334388657 -0.12408069334513544 -0.11515322857061715 -0.11777433628827863 -0.12573502963070582 -0.10504815578664989 -0.10506575521203726
leaf_weight=1215.6023582369089 241.24460978806019 74.440051466226578 6.3413987308740642 6188.4779308140278 645.18160747736692 3079.1510989069939 15956.738025858998 2464.2109690457582 3335.3406667560339 921.91840070486069 656.25851504504681 39887.603334873915 807.93889866396785 325.75039838254452 334.0593763589859 2891.1797843575478 1478.0004786401987 2436.82225009799 3143.5670058131218 8.5336601436138135 39.97259783744812 118.77678159624338 47.304620496928692 3.1571936607360866 32.697774186730385 2683.9627014696598 11.221809521317484 8.7919660806655866 13.197626680135725 9.8659733235836011 16.831369563937187 1.9929105564951899 138.6427845954895 2.1520084217190734 1.7477712780237196 3.3780726194381705 0.91490180790424247 1.1013697013258923
leaf_count=3471 5257 300 17 16781 1010 6665 45511 3615 11036 2168 2753 137669 5647 1175 1548 5793 4978 2750 4831 9 22 193 218 1 166 3797 19 51 75 63 18 39 890 23 20 21 20 24
internal_value=0 0.147018 0.180484 0.144345 0.133761 0.158154 0.148911 0.181868 0.13413 0.191264 0.152104 0.128434 0.125833 0.188208 0.157459 0.17493 0.182353 0.170784 0.227245 0.227648 0.00719779 0.207744 0.247756 -0.0808087 -0.0434204 0.231699 -0.0773618 0.0927246 -0.101037 0.0347079 0.170977 0.0461254 -0.115527 -0.105154 -0.111449 -0.127695 -0.105066 -0.105066
internal_weight=0 88964.9 6582.04 82382.9 46637.2 35745.7 27944.8 8652.69 19292.1 7800.9 3735.41 42029.9 40695.5 6390.6 3590.96 3216.93 4607.31 3914.82 4065.49 2799.63 374.032 1334.38 692.486 269.142 41.2314 2758.4 191.44 23.3918 168.048 16.2074 23.7292 6.89788 151.84 245.413 3.74068 12.17 243.261 242.346
internal_count=268644 263242 13946 249296 155936 93360 76943 20396 56547 16417 9418 146980 143316 12810 8538 6968 8956 7728 6999 4272 1570 3664 1228 5402 175 4097 1136 91 1045 80 78 60 965 5324 59 72 5301 5281
is_linear=0
shrinkage=0.1


Tree=5
num_leaves=42
num_cat=0
split_feature=114 1 33 97 120 31 29 132 82 133 31 72 116 29 112 73 30 101 30 91 28 39 31 31 122 118 32 36 81 122 27 74 62 33 1 126 30 106 43 32 29
split_gain=1013.23 687.363 1206.91 1159.55 831.735 994.412 642.652 736.033 551.079 412.796 689.946 504.484 401.188 470.522 467.975 376.186 371.479 755.605 377.343 333.089 299.365 374.633 246.782 213.422 181.375 271.138 141.87 117.195 106.557 25.545 22.7571 16.9691 13.9818 25.0368 3.27332 0.0940833 0.0159975 0.00417969 2.05966e-08 8.52651e-14 5.68434e-14
threshold=-0.82004582881927479 0.5754530429840089 0.83856347203254711 -0.99645882844924916 -1.7010881304740904 0.99932470917701732 1.2415571808815005 1.0000000180025095e-35 -1.27530962228775 1.0000000180025095e-35 0.99218916893005382 -0.70486199855804432 -1.4958918690681455 1.1770163178443911 -1.3109424114227293 -0.43523789942264551 1.0939893126487734 -0.9521951675415038 1.0609869360923769 -1.1624519228935239 1.2582504749298098 0.90891963243484508 1.0074866414070132 1.012838661670685 -0.99241694808006276 -0.91550952196121205 0.94663372635841381 0.77741488814353954 -1.2062029242515562 -0.97219109535217274 1.4763838052749636 -1.0025781989097593 0.56557810306549083 0.91104295849800121 0.78650239109992992 -1.2831218242645261 1.0451614856719973 -0.78149545192718495 0.82528984546661388 0.83530443906784069 1.1358629465103152
decision_type=2 2 2 2 2 2 2 2 2 2 2 2 2 2 2 2 2 2 2 2 2 2 2 2 2 2 2 2 2 2 2 2 2 2 2 2 2 2 2 2 2
left_child=1 2 8 19 15 -6 9 24 20 16 30 -12 14 -14 -10 -5 18 -18 -3 22 21 -1 -4 -21 28 -26 36 -22 -8 31 -11 -9 -28 -34 -31 37 38 -35 39 40 -2
right_child=26 6 3 4 5 -7 7 29 12 10 11 -13 13 -15 -16 -17 17 -19 -20 23 27 -23 -24 -25 25 -27 32 -29 -30 34 -32 -33 33 35 -36 -37 -38 -39 -40 -41 -42
leaf_value=0.036504685967788941 -0.10456049944487074 0.10766448191912602 0.040920347370401434 -0.0059345791606842946 0.10993993417331015 0.1335790567367931 0.35397578687664866 0.23135196366078398 -0.030876364227156318 -0.10348729497107555 0.19001798828321861 -0.088206383113799608 -0.012471326015528375 0.074753292213679629 0.19094717883855908 0.1776667582227783 0.18316725347755974 0.059718393006243292 0.16348876237845245 0.20954822388096517 0.078445655020186883 0.16420667937076192 -0.058575451902664645 0.012579164771856159 0.25293611598115073 -0.030460393403336658 0.20021842665811423 0.26281071721847338 -0.099895410352004554 0.21494839056533774 0.097698581554915787 0.11710027821617611 0.25328217285858184 -0.11322149589095923 0.24757914448220217 -0.13899134664120336 -0.11360652356520103 -0.10522788114189381 -0.10454473247736443 -0.1045605313345476 -0.10456051769844006
leaf_weight=462.1095415353775 218.24521923065186 1368.902938336134 806.47230753302574 115.42398362606764 36340.963732223958 34870.334330305457 5.2897898852825156 19.064768299460411 132.42375345155597 176.05174374580383 337.31333036720753 80.778349503874779 1343.0907749645412 1146.2572299093008 337.48525924235582 3365.3499104566872 846.67573603987694 1196.4770320653915 10487.114308997989 154.69337573647499 42.416980519890785 456.82516364753246 360.82421560585499 85.367420196533203 45.890825793147087 127.71266721189022 16.869330365210775 184.23575627803802 233.69210436195135 55.773822441697121 5.8078749477863303 40.863067656755447 3.0786592960357657 1.1053241938352609 68.497466996312141 1.6142955571413011 1.9723681993782509 1.6024141162633898 0.8316153809428205 0.83427615463733573 1.2096970081329335
leaf_count=1740 5232 4031 2734 592 118321 84630 5 7 850 1084 696 387 8094 3767 694 5240 1303 4004 19415 259 141 1150 1575 310 60 494 18 275 1241 25 26 65 1 13 27 11 23 35 20 20 29
internal_value=0 0.122989 0.119305 0.122154 0.123848 0.121515 0.142565 0.0408652 0.066487 0.146751 0.0655365 0.136263 0.0436898 0.0276925 0.128436 0.171578 0.150257 0.110875 0.157043 0.0322273 0.125376 0.0999885 0.0101651 0.139505 -0.0333387 0.0444534 -0.0796617 0.228308 -0.0898491 0.207074 -0.0970622 0.153447 0.149946 0.0353523 0.232934 -0.119883 -0.10464 -0.108491 -0.10456 -0.10456 -0.10456
internal_weight=0 95300.2 80204.3 76099.4 74692.1 71211.3 15095.9 596.785 4104.84 14499.1 599.951 418.092 2959.26 2489.35 469.909 3480.77 13899.2 2043.15 11856 1407.36 1145.59 918.935 1167.3 240.061 412.585 173.603 247.363 226.653 238.982 184.199 181.86 59.9278 24.27 7.40069 124.271 4.32203 223.093 2.70774 221.121 220.289 219.455
internal_count=268644 263242 230372 213661 208783 202951 32870 1924 16711 30946 2193 1083 13405 11861 1544 5832 28753 5307 23446 4878 3306 2890 4309 569 1800 554 5402 416 1246 124 1110 72 78 60 52 59 5324 48 5301 5281 5261
is_linear=0
shrinkage=0.1


Tree=6
num_leaves=41
num_cat=0
split_feature=114 132 75 0 135 30 117 125 45 37 53 69 31 46 39 107 48 31 71 69 52 4 32 69 30 108 106 34 108 53 53 106 32 32 3 72 30 71 45 29
split_gain=762.719 668.807 1076.45 1144.05 1177.36 1124.44 1018.59 1390.59 1467.58 1455.61 937.824 1361.07 930.408 776.385 1185.2 758.526 724.183 686.311 507.047 454.839 425.786 300.178 293.171 281.684 391.155 341.813 238.716 210.576 208.756 186.494 138.789 130.477 123.634 11.2556 18.4663 0.182466 0.0118022 0.00811622 1.50669e-08 5.68434e-14
threshold=-0.82004582881927479 1.0000000180025095e-35 -1.018248379230499 0.28703218698501592 1.0000000180025095e-35 1.0354465246200564 -1.0699458122253416 -1.6164600253105161 1.130373001098633 0.97928816080093395 1.067954480648041 -0.021076168864965435 0.99681773781776439 1.1878083944320681 1.0325780510902407 -0.99175351858139027 1.138328552246094 0.99570488929748546 -0.43418002128601069 -0.2149752080440521 1.0834286212921145 0.47358278930187231 0.90537700057029735 -0.081181701272726045 1.0337305068969729 -1.0686901211738584 -0.94615644216537464 0.87232711911201488 -1.0686901211738584 1.0794804692268374 1.0545145869255068 -0.99450859427452076 0.94663372635841381 0.95020565390586864 0.62792676687240612 -0.70039716362953175 1.0451614856719973 -0.48205485939979548 1.0694706439971926 1.1382754445075991
decision_type=2 2 2 2 2 2 2 2 2 2 2 2 2 2 2 2 2 2 2 2 2 2 2 2 2 2 2 2 2 2 2 2 2 2 2 2 2 2 2 2
left_child=1 2 6 5 12 16 17 9 -9 -8 22 27 -5 15 -15 -13 -4 21 -7 -6 -19 -1 23 24 -3 -25 31 29 -29 -12 -28 -24 36 -34 35 -35 38 -37 39 -2
right_child=32 10 3 4 19 18 7 8 -10 -11 11 13 -14 14 -16 -17 -18 20 -20 -21 -22 -23 26 25 -26 -27 30 28 -30 -31 -32 -33 33 34 -36 37 -38 -39 -40 -41
leaf_value=0.1600010951028123 -0.1041077354388486 0.070495251500535122 -0.025636048372776162 0.019310208889513802 0.096929448568828527 0.11004546185006192 -0.015513122220940848 0.10400156867611164 0.16106946985989196 0.13078249605361916 0.064087351072653884 -0.09692630446582616 0.078061209947811613 0.063679598409560417 0.15662827723044362 0.24843727702447321 0.089868502558573704 0.14015995619696608 0.17498724055360146 0.1966759061231238 0.21947845328065038 0.020750753150938123 -0.051630031722553218 0.0042270070984928697 0.15655359747028663 0.30429684578266686 0.16976802566252794 0.12903080907172243 0.018765323847973428 -0.063699065895994389 0.019756194318713456 0.23899839860518451 0.17790668614420491 -0.16127056456766795 0.20082566347520123 -0.11597667428021259 -0.11222908953600773 -0.10497319395301102 -0.10409358759600487 -0.10410774992509297
leaf_weight=242.19121254980564 199.20105983316898 710.04003119468689 614.23622061312199 5097.3298068493605 1196.1839875280857 2350.5076036453247 1853.4890433549881 53780.27952965349 4918.3822031542659 1074.3212019130588 156.67728950083256 69.742065161466599 5720.6724499464035 2636.6412787251174 2859.8150120712817 721.41586109995842 4668.1722776591778 1229.0004766732454 2461.0937476456165 739.94342519342899 1506.1779809296131 429.0453659594059 15.74392820894718 47.010652914643288 2061.8250147849321 197.2124862074852 736.91375684738159 236.2946660220623 628.04752287268639 421.32879880070686 67.307370260357857 820.3053822517395 17.283645227551464 0.99396964907646479 3.2767428196966648 1.5571261681616337 1.805453948676585 1.1770575083792143 0.75556989759206672 0.9474976658821096
leaf_count=669 5256 2510 2713 20800 3472 7002 7535 131440 11121 2711 552 347 16403 10644 3606 779 15185 2826 5285 1559 2382 1733 72 194 2822 260 1557 707 2516 2098 264 1478 27 5 2 17 23 27 20 25
internal_value=0 0.104877 0.101811 0.0831387 0.0632319 0.108292 0.108371 0.105428 0.108783 0.0381681 0.126631 0.105275 0.0503784 0.125373 0.112041 0.217993 0.0764377 0.161602 0.143263 0.13505 0.183838 0.0709942 0.162084 0.14358 0.134509 0.246536 0.19611 0.017664 0.0489098 -0.0290606 0.157213 0.233525 -0.0786342 0.134569 0.0276387 -0.124579 -0.10418 -0.11124 -0.104108 -0.104108
internal_weight=0 100267 87881 22848.1 12754.1 10094 65032.9 61626.5 58698.7 2927.81 12386.3 7729.96 10818 6287.61 5496.46 791.158 5282.41 3406.42 4811.6 1936.13 2735.18 671.237 4656.36 3016.09 2771.87 244.223 1640.27 1442.35 864.342 578.006 804.221 836.049 226.998 24.2885 7.0049 3.72815 202.71 2.73418 200.904 200.149
internal_count=268644 263242 232836 72419 42234 30185 160417 152807 142561 10246 30406 21249 37203 15376 14250 1126 17898 7610 12287 5031 5208 2402 9157 5786 5332 454 3371 5873 3223 2650 1821 1550 5402 78 51 49 5324 44 5301 5281
is_linear=0
shrinkage=0.1


Tree=7
num_leaves=59
num_cat=0
split_feature=40 58 70 71 132 74 0 103 46 57 104 31 109 53 122 47 74 108 54 129 32 48 94 126 106 124 41 52 106 34 48 104 72 37 34 110 118 72 104 111 123 23 106 133 6 40 68 69 123 56 32 55 123 26 43 74 101 33
split_gain=627.532 978.501 667.005 788.682 654.738 857.078 1217.27 1041.46 928.347 1369.34 955.733 920.615 691.558 992.613 766.047 734.155 670.283 601.666 523.123 370.587 389.43 302.539 283.289 270.943 243.913 562.409 435.117 313.924 315.39 231.958 228.408 308.882 194.236 191.069 189.348 116.046 170.322 95.1764 94.6704 85.3254 78.3449 74.1603 71.6595 66.9961 66.988 61.5354 61.3262 57.3468 50.7978 50.6137 48.8258 43.9133 24.9896 17.4667 10.1818 1.05697 0.218699 0.0887105
threshold=1.0716754198074343 0.91731807589530956 -0.069741997867822633 -0.35666072368621821 1.0000000180025095e-35 -0.90659475326538075 0.30024963617324835 -0.77976101636886586 1.1289426088333132 0.91128256916999828 -0.79926741123199452 1.00251179933548 -1.1251340508460996 1.1051917076110842 -1.9085120558738706 1.2151117324829104 -0.56885668635368336 -1.0686901211738584 1.0938006043434145 1.0000000180025095e-35 0.93855780363082897 1.2155941128730776 -0.99254846572875965 -1.7979082465171812 -0.90429475903511036 -1.6440563201904295 1.115338981151581 1.1437681913375857 -0.94733938574790943 0.89110791683197033 1.2392646670341494 -0.79331135749816883 -0.49432110786437983 0.99376145005226146 0.83619362115859996 -1.1633738875389097 -1.5842031836509702 -0.55833756923675526 -0.72123700380325306 -0.96911087632179249 -2.1969407796859737 1.1912813782691958 -0.92298263311386097 1.0000000180025095e-35 0.052236232906579978 1.0732948780059817 0.23017650097608569 -0.039324631914496415 -2.1392320394515987 0.9751366674900056 0.94631996750831615 1.0400862097740176 -2.2265536785125728 1.1463257670402529 1.1582813262939455 -0.42389962077140803 -0.48389625549316401 0.81602582335472118
decision_type=2 2 2 2 2 2 2 2 2 2 2 2 2 2 2 2 2 2 2 2 2 2 2 2 2 2 2 2 2 2 2 2 2 2 2 2 2 2 2 2 2 2 2 2 2 2 2 2 2 2 2 2 2 2 2 2 2 2
left_child=1 4 3 19 5 8 7 -7 9 -1 -10 -8 15 14 -14 16 -6 21 34 20 -3 -5 -21 -19 27 26 30 33 48 -15 31 -26 37 43 57 56 -37 49 44 -34 45 -32 -17 51 -28 -30 -40 -42 -29 -27 -39 -2 -36 -41 -35 -50 -20 -4
right_child=24 2 18 17 12 6 11 -9 10 -11 -12 -13 13 29 -16 42 -18 23 35 22 -22 -23 -24 -25 25 32 38 28 40 -31 41 -33 39 54 52 36 -38 50 46 53 47 -43 -44 -45 -46 -47 -48 -49 55 -51 -52 -53 -54 -55 -56 -57 -58 -59
leaf_value=0.093059533149832674 -0.11368355348075235 0.10045726110561899 -0.1127419217105452 -0.1337865247110252 0.13199256702221715 0.11244889606001428 0.031898069314111661 0.024468085329784912 0.14897363505403258 0.035886239620240443 0.085167969587730111 0.094001309236984465 0.20241089868338935 -0.044338611036592618 0.1209118526376807 0.26283561429303931 -0.026651405545954982 -0.074709319207833788 -0.12478254881646711 -0.14654516468377018 -0.045032964716161188 0.20967970835685221 0.20261286792939656 0.080248017171906161 0.086373173629294253 0.12698140062705071 0.1806626539232806 0.28362395837359039 0.16074555085739886 0.15979792626424763 0.063432648499525207 -0.089544901950488753 0.1675597077972337 0.2609245274406688 0.21324263962385626 0.19659523711370358 -0.055030871295330436 0.0068169752384184259 -0.084536103996279449 -0.14152297922951693 0.03344244105854751 0.24910662674799791 0.058543429543565575 0.16697338464123687 0.10366920633436293 -0.14791337615143027 0.23492458699817115 0.16470197769146885 -0.15973218210893797 -0.1540064882557601 0.18499645183900792 0.038299667555842465 0.30102678722055559 0.038174854171594275 0.1543803883410301 -0.12712277390132506 -0.11234549856793719 -0.13498333258434034
leaf_weight=52672.621568698436 81.263886466622353 443.78107174858451 15.391653247177603 31.780258283019066 392.89111235737801 7774.8215710632503 8618.0340355634689 1627.0108490288258 5568.852713778615 4551.0915139950812 4058.3987759798765 3301.3874325752258 1472.2989425882697 384.79854711890221 5323.3533031195402 160.44444254040718 826.72972463071346 1161.3222959302366 37.068609014153481 25.438184961676598 314.25533855706453 132.8571046218276 268.57653753459454 124.98106767982244 143.61634327471256 12.730479165911676 156.72795908153057 3.0142175778746596 11.596298754215242 65.076860070228577 53.167212534695864 327.21410189196467 16.141182765364647 19.02646704018116 294.44629385322332 47.130136828869581 62.671052075922489 15.701264783740042 35.116395402699709 29.688969880342484 33.774853147566319 36.129323959350586 19.227645739912987 12.462243914604185 405.04605090618134 14.579878672957419 7.2496946863830081 2294.4317843466997 18.351452529430386 12.912885949015616 749.81811118125916 24.816600039601326 36.442000791430473 6.6141575276851645 16.968815952539444 21.685329198837284 22.85688816383481 2.0297799780964842
leaf_count=126059 382 1537 182 175 1034 20237 30486 7126 10818 13963 11388 8174 1465 1642 11302 143 3502 7609 275 119 1426 276 468 362 363 18 89 3 13 160 196 1521 26 19 169 88 700 46 313 151 89 44 58 24 801 90 39 1597 80 59 1160 66 20 18 30 140 290 14
internal_value=0 0.0886042 0.03256 0.0111834 0.090353 0.087778 0.0703201 0.0972236 0.093346 0.0885125 0.122076 0.0490991 0.116616 0.129046 0.138569 0.0522559 0.0244545 -0.0366152 0.135845 0.077105 0.0401421 0.14338 0.172404 -0.0596532 0.126539 0.100465 0.0554143 0.147054 0.155959 -0.0148092 -0.00807525 -0.035885 0.16264 0.008911 0.205993 -0.00811108 0.052975 0.174994 0.114278 -0.0237312 0.160864 0.138556 0.240973 -0.0523612 0.125149 -0.0111745 -0.0298699 0.162798 -0.112265 -0.0145119 0.181342 -0.0781284 0.222911 -0.108783 0.210698 -0.14207 -0.120039 -0.115333
internal_weight=0 99838.1 3021.03 2502.99 96817 88172.2 21321.3 9401.83 66851 57223.7 9627.25 11919.4 8644.82 7245.53 6795.65 1399.29 1219.62 1450.94 518.036 1052.05 758.036 164.637 294.015 1286.3 4559.85 2007.87 1164.27 2551.97 2397.43 449.875 560.127 470.83 843.607 154.538 348.31 169.727 109.801 791.163 604.14 52.4443 2354.38 89.2965 179.672 118.543 561.774 26.1762 42.3661 2328.21 43.051 25.6434 765.519 106.08 330.888 36.3031 35.9953 40.0368 59.9255 17.4214
internal_count=268644 261267 13710 11972 247557 228251 66023 27363 162228 140022 22206 38660 19306 14569 12767 4737 4536 8422 1738 3550 2963 451 587 7971 7377 4844 3366 2533 2012 1802 2124 1884 1478 521 385 1353 788 1283 1242 195 1789 240 201 472 890 103 352 1686 223 77 1206 448 189 169 49 220 565 196
is_linear=0
shrinkage=0.1


Tree=8
num_leaves=57
num_cat=0
split_feature=39 74 130 31 115 86 114 125 37 77 128 30 36 44 115 32 122 108 117 57 112 131 125 106 47 127 105 41 45 38 30 90 113 95 8 71 106 51 61 36 105 81 35 5 123 110 125 109 116 74 41 36 41 49 105 8
split_gain=597.605 745.389 631.998 769.182 680.27 1232.56 617.609 1293.23 1198.8 652.444 673.708 533.137 1966.77 697.865 494.207 456.629 442.721 429.147 416.606 382.322 381.966 302.902 263.501 244.429 222.556 509.603 331.113 301.144 213.348 250.93 181.565 166.915 352.308 141.199 139.004 131.621 131.064 199.438 128.107 219.8 176.14 99.9437 91.576 84.3012 72.3131 65.8136 31.0305 76.276 4.40701 0.679511 0.12664 0.0696558 0.0597005 0.0227749 0.0159096 0.0141589
threshold=1.0381267070770266 -0.94030675292015065 1.0000000180025095e-35 1.0135555863380434 -0.98161193728446949 -1.2456299066543577 -0.9832182228565215 -1.57694536447525 0.97235018014907848 -1.2112843990325926 1.0000000180025095e-35 1.0582565069198611 0.91536325216293346 1.0762624740600588 -1.0083931088447569 0.9630575180053712 -1.1929834485054014 -0.82009467482566822 -0.95312225818634022 0.8572089970111848 -0.84099796414375294 1.0000000180025095e-35 -1.714786648750305 -0.95629450678825367 1.2247294783592226 -2.1272187232971187 -0.84226965904235829 1.115338981151581 1.1090542674064638 1.0022677779197695 1.0404576659202578 -1.1107048988342283 -0.97362008690834034 -0.96618905663490284 0.67127880454063427 -0.21977829188108441 -0.90500339865684498 1.1944730877876284 0.74689128994941723 0.97043508291244518 -0.76874783635139454 -0.315784141421318 0.9045449197292329 0.69353774189949047 -1.7072966098785398 -1.0304252505302427 -2.1603136062622066 -1.1124554872512815 -1.2821770310401914 -0.43350657820701594 1.1123638153076174 0.98072767257690441 1.1097711324691775 1.213276267051697 -0.94186386466026295 0.26689697802066809
decision_type=2 2 2 2 2 2 2 2 2 2 2 2 2 2 2 2 2 2 2 2 2 2 2 2 2 2 2 2 2 2 2 2 2 2 2 2 2 2 2 2 2 2 2 2 2 2 2 2 2 2 2 2 2 2 2 2
left_child=1 2 3 11 5 30 9 28 15 31 14 12 -1 -13 -11 -9 33 -10 21 -7 -18 -5 -12 41 25 26 35 -28 42 -30 -4 34 -33 -6 -3 -25 46 44 40 -40 -27 49 -8 -20 -38 -39 47 -26 -48 50 51 -2 53 -51 -54 -52
right_child=23 6 4 18 16 19 7 8 17 10 22 13 -14 -15 -16 -17 20 -19 43 -21 -22 -23 -24 24 36 38 27 -29 29 -31 -32 32 -34 -35 -36 -37 37 45 39 -41 -42 -43 -44 -45 -46 -47 48 -49 -50 52 55 -53 54 -55 -56 -57
leaf_value=0.030093929577224506 -0.13896777713027478 0.15505781101464677 0.11260555790810817 0.111637559444273 -0.13079072181542623 0.10647920771819271 -0.14118507200657301 -0.01282948570548248 0.17450647806839328 0.073101768714405865 -0.082292760572993826 0.093759420539271374 0.10649652798906124 0.15557769407975885 0.0040996354417957856 0.070674755486199906 0.04916099272568461 -0.073442726820410226 -0.12702898934387846 -0.0013231244722355024 -0.12321855103956521 -0.022215988476231598 0.024098878843838278 0.11077098013652505 0.15207649240690529 0.15681017689611029 -0.038329973969118018 0.11049104300330866 -0.11426913255657936 -0.012030703483609949 0.24362598934918692 0.12773056456304674 -0.072265255824385075 -0.013884377580670602 -0.15407466846401657 -0.12290440746544812 -0.12361125263456524 0.090150969174650888 -0.00075345344410997672 0.12798048377395557 -0.078105236284251089 0.30670714403848798 0.13511326794567846 -0.016464157914491899 0.10598195200059723 0.16668755417088288 0.23984721747043505 0.027020740654127212 0.19157373667648045 -0.12359987817439566 -0.16010113972044523 -0.15373724420723556 -0.1147082508158815 -0.13108374231642725 -0.12473133403774261 -0.15248714891723703
leaf_weight=5868.2739534080029 13.417018070816995 1220.1999303400517 133.15702991187572 346.11820976436138 183.29159040749073 609.69096215069294 14.391149435192345 1377.9412621483207 920.44948120415211 37992.201543141156 332.86714263260365 32288.400689825416 7911.8932155109942 1935.6297988295555 1067.1223959624767 1247.9222039282322 3724.2838389128447 75.532169967889786 219.21278870105743 714.54219123721123 133.13966173306108 330.48630151152611 774.29715265333652 601.18370177596807 1560.5684459283948 1128.7720029056072 511.74218690395355 185.17128694057465 617.89924479275942 392.58892942219973 514.21123425662518 397.29267562925816 113.17078249156475 236.77068418264389 14.721283093094824 25.111313194036484 51.481501966714859 309.88872422277927 175.74530336260796 540.62212003022432 32.846691444516182 5.6307663917541495 72.066237807273865 100.61067979037762 18.701705947518349 176.25185022503138 34.543928444385529 50.346612885594368 41.789992690086365 6.81600746512414 5.3754651099443418 4.1905509382486335 5.6576132401823997 10.07985597848892 2.1992320492863646 4.4760186374187469
leaf_count=19823 68 2025 288 655 835 1389 74 5574 1585 107893 1477 64744 16727 2749 3361 2880 10774 335 1000 2384 1418 1045 2447 1068 845 1693 2055 321 2999 1566 463 845 495 831 65 118 221 604 655 1003 129 2 136 310 31 248 14 116 31 45 23 19 51 56 16 20
internal_value=0 0.0770859 0.084944 0.0887635 0.0549948 0.103593 0.0677754 0.033477 0.0622874 0.071637 0.0690361 0.0905686 0.0739605 0.0972557 0.0712166 0.0268553 0.0325948 0.155703 0.0018013 0.0483102 0.0432113 0.046257 -0.00788759 0.110919 0.113092 0.096166 0.0486334 0.00121206 -0.0616481 -0.0745481 0.216676 0.13149 0.0833911 -0.0648957 0.151373 0.101402 0.137242 0.0951498 0.129657 0.0963984 0.150168 -0.0935641 0.0891224 -0.0922473 -0.0624316 0.1179 0.15112 0.148168 0.213419 -0.136731 -0.147563 -0.142483 -0.124716 -0.128065 -0.117514 -0.156642
internal_weight=0 101880 55249.7 49000.6 6249.09 1971.6 46630.7 4718.79 3621.85 41911.9 40166.5 48004.2 13780.2 34224 39059.3 2625.86 4277.49 995.982 996.428 1324.23 3857.42 676.605 1107.16 5502.61 5444.77 3201.19 1323.21 696.913 1096.95 1010.49 647.368 1745.38 510.463 420.062 1234.92 626.295 2243.57 556.324 1877.99 716.367 1161.62 57.8425 86.4574 319.823 70.1832 486.141 1687.25 1610.92 76.3339 52.2118 27.4591 17.6076 24.7527 16.8959 7.85685 9.85148
internal_count=268644 259192 125435 107053 18382 4524 133757 15149 10374 118608 115178 104043 36550 67493 111254 8454 13858 1920 3010 3773 12192 1700 3924 9452 9152 7042 3562 2376 4775 4565 751 3430 1340 1666 2090 1186 2110 1104 3480 1658 1822 300 210 1310 252 852 1006 961 45 298 130 87 168 101 67 43
is_linear=0
shrinkage=0.1


Tree=9
num_leaves=60
num_cat=0
split_feature=39 103 45 132 74 130 135 28 123 43 117 31 111 125 110 40 52 111 122 122 109 52 110 31 29 108 73 39 52 46 116 103 105 55 133 95 34 72 4 127 123 35 111 33 46 51 104 59 50 122 73 115 72 106 51 52 73 41 74
split_gain=530.927 653.744 754.767 862.162 1115.24 756.692 674.557 672.601 710.928 757.071 519.365 689.827 581.759 574.248 669.439 643.139 435.924 392.681 422.405 338.938 591.03 333.062 297.396 274.505 346.206 246.175 431.572 364.032 306.408 241.04 238.602 231.742 196.925 183.255 151.864 146.062 129.864 165.655 118.244 107.775 107.123 100.37 131.071 81.43 85.6272 75.388 84.7492 64.6524 56.8005 56.5495 55.5141 55.5127 101.779 45.924 38.3844 9.83379 0.554244 0.0934296 0.0187658
threshold=1.0357086062431338 -0.7855146825313567 1.1311101317405703 1.0000000180025095e-35 -0.92775666713714589 1.0000000180025095e-35 1.0000000180025095e-35 1.1408700942993166 -1.3419514298439024 1.1066008210182192 -1.5332451462745664 0.85842198133468639 -1.2486210465431211 -1.5559616088867185 -0.89883366227149952 1.0403299331665041 1.1471530795097353 -1.2697488665580747 -2.0244644880294795 -1.3504415750503538 -1.0546166300773618 1.1179261803627016 -1.1661263108253477 0.94539394974708568 1.1496635079383852 -1.0552899837493894 -0.69566085934638966 1.0490896701812746 1.1437681913375857 1.2431269884109499 -1.4101492166519163 -0.78644096851348866 -0.9146340787410735 1.0550733804702761 1.0000000180025095e-35 -0.88439613580703724 0.94536140561103832 -0.54700517654418934 0.45190507173538214 -1.9090126156806944 -2.1969407796859737 0.9624234437942506 -0.96442332863807667 0.85168269276618969 1.2431269884109499 1.1270490288734438 -0.7660154104232787 0.85164859890937816 1.2131191492080691 -2.0133162736892696 -0.67931556701660145 -1.4645804166793821 -0.32643367350101465 -0.8850039243698119 1.173064172267914 1.1421312689781191 -0.35890007019042963 1.1097711324691775 -0.39850671589374537
decision_type=2 2 2 2 2 2 2 2 2 2 2 2 2 2 2 2 2 2 2 2 2 2 2 2 2 2 2 2 2 2 2 2 2 2 2 2 2 2 2 2 2 2 2 2 2 2 2 2 2 2 2 2 2 2 2 2 2 2 2
left_child=1 2 3 4 5 -1 -6 8 9 -4 12 43 17 14 -13 -15 49 18 -3 20 -9 -19 -18 24 -5 28 36 29 34 31 40 -28 -25 -10 51 -21 37 38 -27 -39 48 42 -29 44 -12 46 -38 -47 -30 -14 -43 52 -2 -31 -42 -53 57 -32 -58
right_child=25 10 7 23 6 -7 -8 19 33 -11 11 13 16 15 -16 -17 22 21 -20 35 -22 -23 -24 32 -26 26 27 41 30 53 56 -33 -34 -35 -36 -37 45 39 -40 -41 54 50 -44 -45 -46 47 -48 -49 -50 -51 -52 55 -54 -55 -56 -57 58 -59 -60
leaf_value=0.075914464926429004 0.14050006894144124 -0.082757642261767933 -0.022616163704578592 -0.010728332574561929 0.036656494105709703 0.038793045766473556 0.094626167362282881 0.17011774835630908 0.14268882383962289 0.077003994285468891 -0.10572519849499742 0.038478942867659106 0.17205815616332915 0.048212250647237824 -0.059277773899477859 0.14723371565782303 -0.12446883865983341 0.1317375804687754 0.14970798691471571 0.14725522248102216 0.06766861813545702 -0.048167954155445274 0.13387667950405027 0.14222058695580464 0.10939021470134631 0.15423073227504275 0.083157491964463787 0.073448878453178143 -0.14681209628151867 0.1643133007150121 -0.13807032087390436 -0.054478587921623446 0.093799856738324111 0.0047873781673640169 0.20491444060503627 0.23243068168833181 0.099516912161991378 0.010393927821352695 0.061994412964153416 0.17603880702310382 0.088066358019238178 0.16449621142377496 -0.080356040239034296 0.26922428438854246 0.096616490106234715 0.16803572929653526 -0.10737454203570469 0.12085071729871391 0.18032070524361885 0.072800287175680128 0.094753233291304736 -0.14162885987768642 -0.14242049121978062 0.013577959736987309 0.1434651171941376 -0.033475353879992391 -0.1290443295356076 -0.15632034595727673 -0.120840457074192
leaf_weight=50403.154824394733 28.138052135705948 96.527663707733154 1028.9065852165222 384.87950809299946 16459.62309281528 6162.6268444024026 2286.1230528503656 842.91640220582485 1354.0272787958384 2950.2128583192825 381.79720405489206 7056.9541382938623 927.3335055410862 2027.7910081669688 777.71668151021004 969.51323452591896 95.308280404657125 128.63698853552341 410.88899891078472 1673.3384802490473 1696.3648663312197 514.43213229253888 83.682100996375084 2120.696235537529 637.1935328990221 345.80108726769686 157.05929730832577 532.08177320659161 19.96998226642609 91.037596508860588 4.6667034327983838 553.26658725365996 1390.7372097671032 103.74863575398922 25.190747007727623 228.86580535769463 99.800126254558563 317.25447230786085 232.39300225675106 44.829230725765228 133.70160934329033 170.06108260154724 61.847312554717064 6.2454892247915259 22.126217149198055 492.67965689301491 24.699461460113525 707.22861367464066 7.2290080040693274 61.185405790805817 347.02426008880138 56.906522139906883 23.198545627295971 25.980091407895088 1937.4436317682266 9.8642537444829923 3.2805796265602103 7.0322456657886505 18.578216731548313
leaf_count=109100 38 437 3595 1433 49634 18248 5373 1341 2073 7321 5257 23159 634 5594 3557 1717 825 218 769 2463 4239 2551 200 2733 879 505 362 1171 128 51 24 2361 2961 301 30 188 175 1101 491 44 208 180 272 8 157 520 103 1179 8 121 615 285 134 146 1207 31 20 31 138
internal_value=0 0.0675476 0.0706405 0.0674144 0.0648649 0.0718702 0.0437261 0.0967161 0.0731317 0.0512446 0.0470827 0.0381961 0.0901822 0.0430164 0.028775 0.0802419 0.139913 0.0397155 0.105485 0.125586 0.101677 -0.0121804 -0.00368639 0.109767 0.0641575 0.0970596 0.0827172 0.0480809 0.123555 -0.00213827 0.133069 -0.024046 0.123043 0.132874 -0.0179934 0.157503 0.112363 0.0839427 0.117158 0.0309023 0.1373 0.0854778 0.0574328 -0.0891008 -0.0946413 0.13254 0.0584717 0.140225 -0.059866 0.165914 0.117691 -0.0655367 0.0126508 0.130847 0.139889 -0.125651 -0.131474 -0.14904 -0.122072
internal_weight=0 103284 89723.4 79845 75311.5 56565.8 18745.7 9878.38 5436.9 3979.12 13560.1 11242.1 2318 10832 7834.67 2997.3 1167.51 1150.49 507.417 4441.49 2539.28 643.069 178.99 4533.51 1022.07 6478.24 4203.04 1938.36 2275.2 827.344 2131.9 710.326 3511.43 1457.78 143.298 1902.2 2264.69 940.278 578.194 362.084 2098.34 1111.01 593.929 410.169 403.923 1324.41 124.5 1199.91 27.199 988.519 517.085 118.107 51.3366 117.018 2071.15 66.7708 33.5577 11.6989 21.8588
internal_count=268644 257086 211882 190361 182355 127348 55007 21521 13290 10916 45204 39449 5755 34027 26716 7311 1780 3975 1206 8231 5580 2769 1025 8006 2312 11558 9276 5158 2282 2920 1764 2723 5694 2374 518 2651 4118 2141 996 1145 1551 2238 1443 5422 5414 1977 278 1699 136 755 795 488 172 197 1415 316 213 55 158
is_linear=0
shrinkage=0.1


Tree=10
num_leaves=57
num_cat=0
split_feature=41 31 0 50 108 58 133 106 136 31 134 32 105 23 112 76 76 56 29 74 133 64 32 59 33 103 41 122 105 108 45 126 31 46 109 5 88 71 70 40 51 45 33 37 108 47 57 74 123 102 74 71 106 71 50 127
split_gain=492.216 512.716 697.722 634.574 632.493 801.15 754.227 911.977 584.436 808.153 763.283 1623.61 1057.75 635.112 628.875 1213.24 606.112 600.792 563.432 473.85 470.07 443.607 352.603 697.505 335.05 244.48 143.51 128.339 123.027 120.816 125.604 119.812 103.457 274.317 125.121 102.542 69.7681 55.4706 84.4733 79.0554 50.1314 57.4938 44.6828 29.293 22.85 20.667 19.7477 11.8548 21.7535 0.673829 0.754645 0.672625 0.111976 0.046591 0.0298823 0.0131155
threshold=1.1123638153076174 0.99795258045196544 0.6100202500820161 0.93180119991302501 -1.028769254684448 0.93304055929183971 1.0000000180025095e-35 -0.91807720065116871 1.0000000180025095e-35 1.0028417706489565 1.0000000180025095e-35 0.95814901590347301 -0.86443367600440968 1.3260728120803835 -0.97691518068313588 -1.1303082108497617 -1.1133642196655271 0.93624222278594982 1.1382754445075991 -0.9620240032672881 1.0000000180025095e-35 0.085897292941808714 0.96324631571769725 0.77627512812614452 0.82615807652473461 -0.8537163734436034 1.1074873208999636 -2.0244644880294795 -0.89559021592140187 -1.0536866188049314 1.2125547528266909 -1.8288475275039671 0.95025822520256054 1.2431269884109499 -1.1124554872512815 0.80592182278633129 -1.2028349637985227 -0.33788922429084772 -0.13961853832006452 1.0826771259307864 1.173064172267914 1.2149530649185183 0.82233038544654857 0.97714391350746166 -1.0506823658943174 1.2201605439186098 0.9636768400669099 -0.3766233623027801 -2.2265536785125728 -0.57658249139785755 -0.39850671589374537 -0.2309124022722244 -0.90941208600997914 -0.17726881802082059 1.2018365859985354 -3.3055721521377559
decision_type=2 2 2 2 2 2 2 2 2 2 2 2 2 2 2 2 2 2 2 2 2 2 2 2 2 2 2 2 2 2 2 2 2 2 2 2 2 2 2 2 2 2 2 2 2 2 2 2 2 2 2 2 2 2 2 2
left_child=1 2 4 18 5 24 21 -8 10 22 14 12 -12 19 16 -16 -3 -13 35 -11 -20 -6 23 -10 -1 -15 -7 47 36 30 45 -24 33 44 -35 -4 -5 39 -39 -34 41 -32 -30 -42 -31 51 -47 49 54 50 -2 -29 -52 55 -49 -51
right_child=27 8 3 28 6 26 7 -9 9 13 11 17 -14 25 15 -17 -18 -19 20 -21 -22 -23 31 -25 -26 -27 -28 29 42 32 40 -33 37 34 -36 -37 -38 38 -40 -41 43 -43 -44 -45 -46 46 -48 48 -50 53 52 -53 -54 -55 -56 -57
leaf_value=-0.054162597848895246 -0.17568446607167099 0.13219990853347302 0.1312213907062586 0.15842789124929046 -0.038883283573910889 -0.094723900134798047 0.02673791699938019 -0.092472330705871866 0.087310523665385387 0.16226336875058472 0.16705420501677315 -0.094322806731583025 0.083845764708929835 0.058988959595577588 0.049388344423709117 -0.072915726382371163 0.064145923993870868 0.035866755748749708 0.076806006484148689 0.10161625995859365 -0.11599027260480432 0.049850571200742419 0.048925466586947068 -0.013893185255992355 0.078195477199786007 -0.066659024947559958 0.016284241345695966 -0.16817651038944881 0.19884877870388162 -0.023741807281927669 0.10485276398204824 0.14397476598297446 0.18633768716935736 0.16200326979062812 -0.013521576963302973 -0.11239519344467759 0.10580676443036337 0.15001145188085269 0.068802686948403441 0.00085540621551738493 0.13552668254589553 -0.15398865704932424 0.13606032183719138 0.052369559510344055 -0.13597745936773228 0.10568835376237676 -0.091851492487378061 -0.11596282784988149 0.19470144382119436 -0.10840356722567229 -0.11639656672614254 -0.1261606865163479 -0.14353872399795148 -0.12850386245836096 -0.13105469945858503 -0.11771746578675163
leaf_weight=194.64894791692495 5.233428843319416 1577.5963599383831 18.89745320007205 322.30229279398918 572.59004097431898 314.27223364636302 3134.0341379493475 806.97597802430391 1273.4395845234394 1891.7687656134367 1966.960307136178 527.54956606030464 6841.7006655484438 829.28043784201145 19668.112437222153 845.97233481705189 7678.6771585345268 1080.3715076446533 4889.0801549628377 4038.7045340836048 129.82162016630173 35117.476541601121 188.4036350697279 1463.8522755801678 10963.505128223449 190.41518847644329 185.02227587625384 7.9885935783386213 303.18232513964176 24.234015539288521 25.298329576849937 447.88286404311657 29.745765954256058 117.59451763704419 62.036606479436159 201.57901263609529 1154.5213152915239 304.38937656581402 221.15204827487469 101.00780454277992 1393.0142147913575 12.986331090331076 181.00499285757542 43.689502127468586 72.129135880619287 10.022197917103769 10.222398094832895 2.4305643178522587 3.5985223874449712 7.574061777442691 4.6265348047018051 7.284642830491066 2.2636708840727788 1.6434060223400635 2.8507970832288265 1.8889683224260796
leaf_count=959 24 2389 56 302 2967 2436 10092 3601 2290 1860 1843 1977 13074 1665 45817 3116 17574 2749 8906 6350 797 94803 407 4406 26943 617 671 35 185 85 26 605 34 115 238 4226 1631 302 407 260 746 45 203 82 372 9 46 21 5 119 40 49 14 13 23 17
internal_value=0 0.0603315 0.053958 0.0831078 0.0498656 0.0703411 0.0438428 0.00232798 0.0677118 0.0889345 0.0622598 0.0855584 0.102426 0.108427 0.0541077 0.0443447 0.0757447 -0.00684768 0.0649459 0.120962 0.071819 0.048427 0.0487757 0.0331887 0.0758866 0.0355258 -0.0535879 0.105431 0.131633 0.108042 0.125514 0.115831 0.0797343 0.028365 0.101385 -0.0915144 0.117291 0.101337 0.115838 0.0430517 0.129988 0.0170526 0.175376 0.132998 -0.107752 -0.0603146 0.00594169 -0.0931892 0.00508701 -0.130756 -0.147057 -0.148137 -0.125314 -0.112962 -0.124109 -0.110263
internal_weight=0 109000 58488.9 7200.39 51288.5 11657.4 39631.1 3941.01 50510.7 10323.7 40186.9 10416.6 8808.66 6950.17 29770.4 20514.1 9256.27 1607.92 5239.38 5930.47 5018.9 35690.1 3373.58 2737.29 11158.2 1019.7 499.295 2474.91 1961.01 2442.8 1510.51 636.286 932.289 275.994 179.631 220.476 1476.82 656.295 525.541 130.754 1474.99 38.2847 484.187 1436.7 96.3632 35.5178 20.2446 32.11 8.87988 23.2301 12.1236 15.2732 6.89021 11.1064 5.28136 9.46303
internal_count=268644 265517 158778 16306 142472 31009 111463 13693 106739 18200 88539 19643 14917 10492 68896 48933 19963 4726 13985 8210 9703 97770 7708 6696 27902 2282 3107 3127 2321 2851 1038 1012 1813 810 353 4282 1933 1003 709 294 899 71 388 828 457 139 55 276 49 227 78 84 54 149 44 136
is_linear=0
shrinkage=0.1


Tree=11
num_leaves=57
num_cat=0
split_feature=39 58 108 116 132 29 51 74 53 106 105 104 105 53 108 126 113 53 109 124 40 122 52 71 73 61 44 49 72 127 72 107 109 124 70 42 49 75 131 122 118 103 57 51 41 60 109 133 61 100 111 5 123 106 39 32
split_gain=489.144 680.182 595.68 740.544 491.788 772.928 622.15 952.366 540.647 480.096 405.22 392.321 365.706 741.436 356.711 693.253 465.663 451.024 339.055 337.316 311.819 282.992 350.808 244.349 236.019 214.942 243.105 201.421 302.729 192.371 191.789 172.109 170.879 170.59 169.34 165.981 152.045 139.414 136.115 133.684 176.773 113.631 94.3122 79.6412 97.0283 94.933 77.4008 69.0886 58.6454 55.0601 43.0102 40.9706 42.186 31.1383 0.832202 0.151818
threshold=1.0273091197013857 0.8974788784980775 -1.0461162924766538 -1.4912068843841551 1.0000000180025095e-35 1.2415571808815005 1.1333327889442446 -0.93287187814712513 1.0906385779380801 -0.90793225169181813 -0.79803135991096485 -0.79683801531791676 -0.85867184400558461 1.067954480648041 -1.0622702836990354 -1.842026352882385 -1.0042320489883421 1.1051917076110842 -1.1301145553588865 -1.3239520192146299 1.0794226527214053 -1.3700152039527891 1.1746029853820803 -0.24296476691961286 -0.35890007019042963 0.73402765393257152 1.1509864926338198 1.1991738677024844 -0.27401348948478693 -1.9052801132202146 -0.52932965755462635 -1.0143614411354063 -1.1479740142822263 -1.5662568807601926 -0.14479861408472058 1.1081080436706545 1.1829211711883547 -0.99587485194206227 1.0000000180025095e-35 -0.99241694808006276 -0.91550952196121205 -0.7416357398033141 0.95050126314163219 1.1709656119346621 1.1074873208999636 0.8212619721889497 -1.1124554872512815 1.0000000180025095e-35 0.75622278451919567 -0.98741576075553883 -1.2486210465431211 1.0000000180025095e-35 -2.2265536785125728 -0.92698386311531056 1.0357086062431338 0.96857240796089183
decision_type=2 2 2 2 2 2 2 2 2 2 2 2 2 2 2 2 2 2 2 2 2 2 2 2 2 2 2 2 2 2 2 2 2 2 2 2 2 2 2 2 2 2 2 2 2 2 2 2 2 2 2 2 2 2 2 2
left_child=1 4 30 27 5 6 7 -1 12 31 23 -8 13 -6 17 16 21 46 -14 -12 33 22 -16 -5 43 38 29 50 -29 -27 -3 -10 42 -18 -11 -23 -34 -22 41 49 -41 -17 -32 45 -45 -19 47 53 -28 -7 -4 52 -26 -2 -53 -40
right_child=14 2 3 10 8 39 11 -9 9 34 19 -13 18 -15 15 25 20 24 -20 -21 37 35 -24 -25 51 26 48 28 -30 -31 32 -33 36 -35 -36 -37 -38 -39 55 40 -42 -43 -44 44 -46 -47 -48 -49 -50 -51 -52 54 -54 -55 -56 -57
leaf_value=0.058374411194689307 -0.14022415914524131 0.25114743754147589 0.03680062146257481 0.025327774398150749 0.09269361207781493 0.052198072370592964 0.098157022724918039 0.035548566094851484 0.075726303851909746 -0.068239171695418127 -0.053425031181127451 -0.023029727786059693 -0.079183784377896749 -0.013075875321110476 0.022020868386654166 0.1343008225542914 -0.12791581078747624 0.091706479726692325 0.16669797784095283 0.11252263212747374 0.14225086533877279 0.017791221323406818 0.092799427576081478 0.12024369500001693 -0.13676183430658084 -0.04477932050521119 0.12488501623180998 -0.13016719785160022 0.1340669780662116 0.077534273994495945 -0.14743377750509812 -0.077375881551119186 0.024083887897105943 -0.012155340640162207 0.16941680832171918 0.1460884033267271 -0.1001327733306149 -0.14995107429093801 -0.14907411567975343 0.14461333204487162 -0.064969194655383825 -0.14239052727790411 0.14198622999043806 0.17545304327509856 0.1203356301848658 -0.12396422808685643 0.27186207165657539 0.11768495977125551 0.064224665777744841 -0.1228998701712182 0.15220440076590624 -0.14904567499127006 0.13272468122865375 0.0042563466409860215 -0.11878655453643142 -0.17107896676026763
leaf_weight=58064.469005860388 91.686683245003223 19.456900075078011 34.131339237093925 2663.4096378087997 5152.3040303587914 19.151625469326973 4027.8080744296312 26676.900482837111 87.893402278423309 36.409458845853806 1051.1704971827567 286.11066461913288 60.368530124425888 760.59123058617115 2413.1214318014681 1524.1151719242334 270.45779831707478 261.03226557374001 789.67430003359914 138.64378943294287 111.76648085564375 129.38559536635876 986.56401208043098 301.97874028980732 9.1879471540451068 241.95658178627491 580.56283983588219 73.375260706990957 105.98958228901029 274.4237115085125 14.12538495659828 446.02499923110008 116.94408275187016 240.5043161213398 169.84277379512787 457.03068351745605 626.14571848884225 19.12184926867485 4.3406044095754615 55.554936915636063 146.02897694706917 14.988384708762167 55.49074625223875 401.07381386309862 1568.2204132415354 22.14076991379261 6.2147453874349585 14.205389156937597 219.68432481586933 288.31603732705116 600.16620328277349 13.58022405207157 15.795004054903982 17.815237037837505 27.482668794691563 11.291809365153311
leaf_count=126492 467 21 88 8221 9020 52 7886 74739 241 162 6304 1068 255 2585 7263 2267 1413 505 798 273 141 351 2002 484 60 987 768 657 195 556 66 1876 343 885 124 607 3246 93 20 60 494 77 99 456 1112 96 6 28 457 1373 377 66 25 67 223 47
internal_value=0 0.0524446 0.019182 0.0322958 0.0544324 0.0523722 0.0530746 0.0511887 0.0790247 -0.00211582 0.0152125 0.0901196 0.0879052 0.0790882 0.0756666 0.0648466 0.0408977 0.108807 0.149236 -0.0340879 -0.0381517 0.0536264 0.0425603 0.0349935 0.118967 0.103446 0.0737151 0.119537 0.025973 0.0202227 -0.059121 -0.0521723 -0.0665491 -0.0734286 0.127464 0.117781 -0.0805841 0.0995623 0.128624 -0.0704992 -0.0072099 0.131606 0.0832618 0.124431 0.131561 0.0748436 -0.0725015 -0.0898015 0.108233 -0.111993 0.145995 -0.0673596 0.033616 -0.116718 -0.128794 -0.164969
internal_weight=0 102868 5801.03 4968.87 97067.4 89564.3 89055.3 84741.4 7503.11 740.171 4155.2 4313.92 6762.94 5912.9 9947.75 7499.32 4627.95 2448.44 850.043 1189.81 641.85 3986.1 3399.69 2965.39 2318.51 2871.36 1316.63 813.662 179.365 516.38 832.163 533.918 812.706 510.962 206.252 586.416 743.09 130.888 1554.74 509.052 201.584 1539.1 69.6161 2252.47 1969.29 283.173 129.922 123.707 800.247 307.468 634.298 66.0458 24.983 109.502 41.0629 15.6324
internal_count=268644 247599 20374 16599 227225 212164 210185 201231 15061 2403 15282 8954 12658 11605 21045 17934 12755 3111 1053 6577 2532 10223 9265 8705 2543 5179 2768 1317 852 1543 3775 2117 3754 2298 286 958 3589 234 2411 1979 554 2344 165 2169 1568 601 568 562 1225 1425 465 374 85 534 289 67
is_linear=0
shrinkage=0.1


Tree=12
num_leaves=60
num_cat=0
split_feature=40 30 19 103 134 31 31 73 29 98 58 70 71 70 26 132 52 72 108 29 81 30 102 39 52 26 106 124 41 53 126 104 106 3 36 41 72 91 99 105 6 80 92 41 133 12 70 29 48 32 16 48 40 80 51 31 106 5 74
split_gain=428.736 487.997 828.605 525.276 584.823 914.926 570.874 513.922 736.532 472.84 446.226 430.278 472.648 425.261 432.282 416.659 596.473 399.103 380.012 371.628 328.083 317.215 268.591 246.695 232.198 215.991 215.348 296.661 261.518 201.992 201.066 178.911 174.346 171.428 123.331 116.911 102.759 90.3405 100.094 65.0803 90.6845 63.404 62.0558 58.8222 52.3192 51.457 45.0171 57.1351 43.6199 41.2433 41.8301 41.0809 39.901 35.8166 31.6252 23.9713 18.9018 28.6296 1.05043
threshold=1.0716754198074343 1.0636475682258608 1.2734405994415285 -0.84032484889030445 1.0000000180025095e-35 0.99570488929748546 1.0059306025505068 -0.93598195910453785 1.2415571808815005 -0.99504351615905751 0.91731807589530956 -0.069741997867822633 -0.35666072368621821 -0.12341960892081259 1.2996558547019961 1.0000000180025095e-35 1.0675157904624941 -0.6069195270538329 -1.0536866188049314 1.1241300106048586 -0.20791798084974286 1.0207305550575259 -0.8307298719882964 0.95674881339073192 1.033897936344147 1.562660336494446 -0.90429475903511036 -1.649754464626312 1.1123638153076174 1.1150088906288149 -2.2738535404205318 -0.78862199187278736 -0.94733938574790943 0.60580053925514232 0.96506226062774669 1.0269912481307986 -0.49432110786437983 -0.97317779064178456 -0.85493168234825123 -0.79803135991096485 0.052236232906579978 -1.0431256294250486 -0.94535765051841725 1.1202707886695864 1.0000000180025095e-35 0.71693596243858349 -0.19858393073081967 1.0940442681312563 1.234244763851166 0.94471487402915966 0.93208688497543346 1.2275258898735049 1.0732948780059817 -1.1983066797256468 1.1601005196571352 0.97567594051361095 -0.91999945044517506 0.22615217417478564 -0.44266913831233973
decision_type=2 2 2 2 2 2 2 2 2 2 2 2 2 2 2 2 2 2 2 2 2 2 2 2 2 2 2 2 2 2 2 2 2 2 2 2 2 2 2 2 2 2 2 2 2 2 2 2 2 2 2 2 2 2 2 2 2 2 2
left_child=1 2 10 4 7 9 -7 33 -9 -6 13 12 -12 14 -1 16 19 22 -15 -4 -13 25 23 -5 -23 -17 29 28 31 34 -18 41 54 -3 44 -24 49 38 -19 40 -30 -28 55 -41 52 -39 47 -34 -33 50 -29 -48 -2 -51 -31 -38 57 -36 -56
right_child=26 3 15 17 5 6 -8 8 -10 -11 11 20 -14 18 -16 21 30 37 -20 -21 -22 24 35 -25 -26 -27 27 36 39 32 -32 48 46 -35 56 -37 42 45 -40 43 -42 -43 -44 -45 -46 -47 51 -49 -50 53 -52 -53 -54 -55 58 -57 -58 -59 -60
leaf_value=0.045397949040980948 0.0052921881245721163 -0.14492353767144953 -0.098628110961070492 -0.0090758633044518439 0.16736142253591083 0.11864637380699156 -0.050080400467574497 0.052998972360413787 -0.085362144487811015 -0.11056847229849241 0.041167181524020269 0.12368771123673024 -0.045044895882389628 0.0091181313773964663 0.12042304785636632 -0.13328773412729761 -0.12187904440168268 -0.07266927261831839 0.12499500561997212 -0.011681819587213616 -0.11305386919906327 0.07503485025479259 -0.078335609180346322 0.069737720847685189 -0.097324693004292834 0.10867439728761963 0.077780439828263409 0.079589860903562126 0.13056173281421093 0.19267020705221916 0.057028673879479047 -0.11958740598201423 -0.16676391962606199 0.10477451847076734 0.17525335671014231 0.037550883499234293 0.12383242599118699 0.10341275200331423 0.20676831467174728 -0.063225897800872718 0.045885399660217985 -0.06634554489314487 0.13581207764254552 0.052283829196802495 0.12263192628269839 -0.15622389970526426 0.099850281763788254 0.1356189773679016 -0.0092906346009681961 0.10280781711232981 -0.17367058126893731 0.12796361599364003 -0.13312663918796755 0.1707379123133374 -0.15379433199374898 -0.11810998043884538 0.18855540840317764 -0.055426912679333168 -0.11848768464406062
leaf_weight=54821.083104800433 29.954630523920059 27.851844519376755 577.29138451069593 1074.4772140532732 76.824903666973114 3548.0950566977262 212.53865951299667 32673.784281842411 389.32074294984341 301.22437706589699 1123.8901476785541 445.92447961121798 1464.637260813266 366.49614970386028 778.89826565980911 141.19364302232862 65.654368609189987 14.075176000595091 1242.4126479364932 3311.5509092025459 67.383035002276301 1525.4860846847296 492.20023781061172 630.02514499425888 82.381464421749115 49.942114040255547 113.64473067224026 17.69510214030743 182.65945795178413 3.2165493965148917 1453.8238503020257 192.53788983076811 12.979371935129167 2145.1464930474758 10.783063068985941 105.7597364783287 4.5793391019105902 18.505912274122242 143.58142878115177 76.461148887872696 411.19146602600813 41.73197677731514 16.412465274333954 104.12109719589353 12.985544458031653 12.992388397455214 1052.9118229299784 12.04986062645912 44.061089958995581 788.5807708799839 10.328033521771429 1026.5243348106742 68.332128070294857 86.09115406870842 16.255414322018623 38.729077130556107 24.537726536393166 10.737636990845202 17.496823452413082
leaf_count=135690 87 134 3356 2873 47 4213 622 69581 1654 1118 3468 901 8410 1032 1523 684 309 49 1193 10589 837 2902 1770 1253 306 67 249 26 145 1 3595 979 55 2655 8 243 9 30 106 447 853 149 21 293 18 57 1129 13 185 1194 44 589 359 67 74 183 17 34 149
internal_value=0 0.0473427 0.0420831 0.0558249 0.0586426 0.094203 0.10911 0.0544658 0.0513698 -0.0540892 0.0459127 0.00897224 -0.00761323 0.0479156 0.046449 0.0100371 -0.00383009 0.0112973 0.0985992 -0.0245888 0.0926101 0.0517258 -0.000174042 0.0200555 0.0662038 -0.0700651 0.0790842 0.0561669 0.0222578 0.100307 0.0492983 -0.0442983 0.108342 0.101574 -0.00905433 -0.057839 0.0972633 0.150931 0.181821 0.0559448 0.0719305 0.0390702 -0.0297753 0.00337533 -0.066017 -0.00368192 0.112124 -0.0211873 -0.0990472 0.105668 -0.0137502 0.113729 -0.090941 0.109494 -0.106939 -0.0925275 0.128561 0.0601567 -0.135492
internal_weight=0 109384 67518 41866.4 39374.8 4138.68 3760.63 35236.1 33063.1 378.049 60310.7 3101.83 2588.53 57208.9 55600 7207.32 5408.32 2491.62 1608.91 3888.84 513.308 1799 2302.46 1704.5 1607.87 191.136 4427.59 2128.82 1166.41 2298.76 1519.48 391.976 2141.43 2173 157.331 597.96 962.416 189.155 157.657 774.433 593.851 155.377 59.7209 180.582 111.272 31.4983 2104.47 25.0292 236.599 902.695 28.0231 2079.44 98.2868 874.672 36.9688 43.3084 46.0584 21.5207 33.7522
internal_count=268644 261267 174862 86405 80024 6000 4835 74024 71235 1165 153054 13616 11878 139438 137213 21808 17849 6381 2225 13945 1738 3959 6139 4126 3208 751 7377 4844 3300 2533 3904 1562 2010 2789 523 2013 1544 242 155 1738 998 398 213 740 464 87 1786 68 1164 1331 70 1718 446 1261 224 192 59 42 223
is_linear=0
shrinkage=0.1


Tree=13
num_leaves=62
num_cat=0
split_feature=39 30 47 132 38 57 134 29 73 71 104 25 123 103 34 108 125 93 53 96 24 39 69 75 104 74 106 127 43 23 84 38 29 72 92 36 117 31 105 130 70 106 38 131 84 126 51 28 70 116 135 106 32 123 41 40 106 117 39 133 39
split_gain=416.876 561.599 647.918 618.032 571.852 568.734 834.862 526.86 564.01 503.603 440.032 390.423 384.07 381.613 332.509 319.079 541.844 437.317 357.986 313.636 309.506 423.272 302.638 207.057 193.579 188.782 178.802 160.399 195.925 142.968 138.693 128.797 127.114 122.173 112.623 108.17 108.013 104.789 103.596 101.962 114.195 91.7866 88.7082 83.4625 78.4514 76.1408 70.583 59.6979 74.1579 58.4461 58.2556 46.531 38.4475 40.371 28.4354 27.4473 65.8707 20.1198 1.02154 0.232405 0.162957
threshold=1.0273091197013857 1.0404576659202578 1.1497448086738589 1.0000000180025095e-35 0.88789764046669017 0.93847241997718822 1.0000000180025095e-35 1.2415571808815005 -0.80034026503562916 -0.20833215117454526 -0.79764798283576954 1.2429509162902834 -1.4515269398689268 -0.98855549097061146 0.83619362115859996 -1.0622702836990354 -1.6896556019783018 -0.95278775691986073 1.1051917076110842 -0.78400355577468861 1.2356037497520449 1.0424799323081972 -0.0067061688750982276 -1.0811797976493833 -0.90231695771217335 -0.39850671589374537 -0.79019820690155018 -1.9166448116302488 1.1402091979980471 1.3550515174865725 -0.75835207104682911 0.97626391053199779 1.1094311475753786 -0.5235161781311034 -1.0610929727554319 0.96506226062774669 -1.3395376801490781 0.99382987618446361 -0.81728211045265187 1.0000000180025095e-35 -0.67907485365867604 -0.95629450678825367 1.0151428580284121 1.0000000180025095e-35 -1.2896573543548582 -1.8556093573570249 1.1709656119346621 1.0512902140617373 -0.20828766375780103 -1.0737474560737608 1.0000000180025095e-35 -0.91354244947433461 0.83813536167144786 -2.2265536785125728 1.1097711324691775 1.0629815459251406 -0.92698386311531056 -1.5286645293235777 1.0357086062431338 1.0000000180025095e-35 1.0368815660476687
decision_type=2 2 2 2 2 2 2 2 2 2 2 2 2 2 2 2 2 2 2 2 2 2 2 2 2 2 2 2 2 2 2 2 2 2 2 2 2 2 2 2 2 2 2 2 2 2 2 2 2 2 2 2 2 2 2 2 2 2 2 2 2
left_child=1 4 3 7 13 6 22 8 -3 11 12 -7 19 39 -11 18 17 49 47 -4 21 -19 -6 -14 30 41 33 28 -28 -26 -5 45 50 43 -9 -29 -34 -8 -22 40 -1 57 -35 -18 -33 -12 -43 55 59 -17 -15 -41 53 -27 -51 56 -2 -20 -54 -49 -57
right_child=15 2 10 24 5 9 37 34 -10 14 31 -13 23 32 -16 16 26 20 25 -21 38 -23 -24 -25 29 52 27 35 -30 -31 -32 44 36 42 -36 -37 -38 -39 -40 51 -42 46 -44 -45 -46 -47 -48 48 -50 54 -52 -53 58 -55 -56 60 -58 -59 -60 -61 -62
leaf_value=0.091904804152098452 -0.13823140266103565 0.048305465972286993 0.031431862218247182 0.10525489069063286 0.045068316405900428 -0.016176580201397148 -0.1104838286949303 -0.020905329172121512 0.030180063331509827 -0.067031756501229417 -0.14413339259995428 0.050499036744542231 -0.11242842554225432 -0.11294801937305494 0.10113922610711404 0.13770867064034301 0.10513123079985405 -0.011302285837389734 0.10757876922561725 0.13522480305388032 0.10536441990796475 0.05685955094845057 0.11376518559546561 0.11793585524094563 0.15503164302721037 -0.13264888437357009 -0.12003127689510296 0.011994877002660394 0.082766949223579675 0.018452438841621888 -0.15964227078927187 -0.0052532928032912058 0.13156905072399191 -0.11338861428837364 -0.11850134418818087 0.12715117867284823 -0.045308865474636431 0.036542532289469541 -0.10689004355616649 -0.1547581484429803 -0.023084025608696431 0.064630171157723779 0.05638990696293026 -0.097514855126137584 -0.15287593198693422 0.23107306438523623 0.11897604067199297 -0.13438079611156858 0.16843974171128726 -0.13996016833984218 0.068014304699550734 0.16978373083162263 -0.1500044467297191 0.12752427882806858 0.12793852743577241 -0.14020883513116247 0.25794194886940736 -0.14017389717660847 -0.11628333717892664 -0.1633477856914532 -0.1305196572299091
leaf_weight=148.20439303666353 12.080773249268534 50116.615486264229 1387.8628235161304 2189.9956036359072 11435.381786830723 4585.8350300453603 381.31106385588646 276.24488550424576 26112.66579733789 138.15481464192271 7.3656714409589794 1086.2355127930641 39.64875890314579 413.97109741903841 789.12175074592233 8.3208201527595502 2285.9455208852887 1664.1646726094186 4.019947454333308 368.41519615054131 683.90951277315617 2013.1001956164837 679.38238395750523 2451.0792301148176 90.13794270157814 9.5600655451416987 117.7074860483408 146.93560133874416 80.028145179152489 511.90984426438808 19.945186406373978 54.846608638763428 36.48984032869339 40.947604462504387 206.72302068769932 183.36109954118729 641.01034650579095 55.536386430263519 23.79494509100914 4.6969402283430091 206.97944287210703 274.62307839840651 123.87826350331306 20.506587237119675 104.76027318835258 20.354499325156212 1841.4812583550811 8.0759747177362424 19.784559950232506 168.15914209932089 18.588178049772978 74.320507805794477 14.672688350081442 15.855857059359549 4.0576367974281302 47.117244452238083 6.4309273958206168 17.755810171365738 23.169732786715031 4.2154675871133795 27.482411623001099
leaf_count=297 61 103293 3329 2305 28583 17517 1691 933 66329 1713 35 2953 140 6127 1215 11 3520 6222 5 500 1149 4190 811 3173 101 65 613 423 134 1163 86 149 72 190 1043 201 2400 161 95 24 794 575 220 78 472 23 1497 45 30 883 58 109 70 26 5 234 7 95 210 18 173
internal_value=0 0.0415622 0.0451991 0.0431247 0.0268074 0.0315277 0.0440234 0.0414369 0.0420965 0.00776154 0.0824008 -0.0034078 0.0890167 -0.0317312 0.0760835 0.06304 0.0530799 0.0313877 0.0954284 0.0532046 0.0376676 0.0260126 0.0489208 0.114269 0.0891696 0.104784 0.0860995 0.0332786 -0.0379542 0.0389009 0.102864 -0.0675915 -0.0628214 0.0973857 -0.062679 0.0759228 -0.0357823 -0.0917924 0.0982278 0.0477527 0.0248963 0.109821 0.0142119 0.10333 -0.102148 0.131375 0.111923 -0.0690623 0.0485928 -0.121142 -0.105172 0.150492 -0.0654672 0.0296615 -0.133648 -0.109593 -0.000601581 -0.0944371 -0.129358 -0.144315 -0.136639
internal_weight=0 104654 83958.6 79524.2 20695.2 19151 12551.6 76712.2 76229.3 6599.35 4434.33 5672.07 4247.01 1544.26 927.277 9891.14 7564.82 4565.51 2326.33 1756.28 4384.97 3677.26 12114.8 2490.73 2811.99 2201.14 2999.31 528.032 197.736 602.048 2209.94 187.327 1110.06 2471.28 482.968 330.297 677.5 436.847 707.704 434.201 355.184 2137.88 164.826 2306.45 159.607 27.7202 2116.1 125.187 32.076 180.538 432.559 79.0174 63.2583 25.4159 172.217 93.1114 18.5117 21.7758 37.8424 12.2914 74.5997
internal_count=268644 247599 183074 175253 64525 54644 31246 171598 169622 23398 7821 20470 7142 9881 2928 21045 17934 12555 3111 3829 11656 10412 29394 3313 3655 2543 5379 1371 747 1264 2391 679 8657 4008 1976 624 2472 1852 1244 1224 1091 2172 410 3598 621 58 2072 568 93 899 6185 133 371 91 888 475 68 100 280 63 407
is_linear=0
shrinkage=0.1


Tree=14
num_leaves=60
num_cat=0
split_feature=41 31 0 136 32 74 31 134 104 109 78 71 135 108 101 32 133 33 115 0 76 38 118 32 17 104 129 108 52 50 32 47 108 89 47 106 51 71 21 70 54 1 46 123 52 72 100 103 99 49 51 104 36 31 23 58 48 90 53
split_gain=360.847 359.923 557.829 516.784 689.371 1111.11 581.177 865.146 798.688 763.049 678.962 509.106 728.43 743.64 496.043 437.889 411.401 457.561 540.021 371.484 363.918 304.713 248.552 216.253 196.029 155.212 141.708 118.907 114.456 110.117 102.022 110.386 95.2601 84.4457 80.5459 65.9896 52.7874 49.1299 95.0444 66.8701 73.4667 48.7411 44.1305 44.1263 50.0776 39.9019 39.8209 52.399 35.9097 32.6154 17.0448 14.2148 10.904 10.4659 10.3384 9.19128 3.56764 2.16855 0.897262
threshold=1.1123638153076174 0.99806782603263866 0.60125103592872631 1.0000000180025095e-35 0.96324631571769725 -0.95471301674842823 1.00433886051178 1.0000000180025095e-35 -0.85566696524620045 -0.92522704601287831 -1.2301912903785703 -0.62585195899009693 1.0000000180025095e-35 -1.0301501750946043 -0.9411540925502776 0.95273026823997509 1.0000000180025095e-35 0.78532901406288158 -0.91099232435226429 0.54882696270942699 -1.1383758187294004 0.97911983728408825 -0.94919317960739125 0.96040016412734996 1.5544273853302004 -0.79764798283576954 1.0000000180025095e-35 -1.0536866188049314 1.0522728562355044 1.1928245425224306 0.9483613669872285 1.2489108443260195 -1.0402975082397459 -0.72037047147750843 1.2225104570388796 -0.92913934588432301 1.1982951760292055 -0.33788922429084772 1.1922993063926699 -0.13961853832006452 1.0871859192848208 0.62336328625679027 1.2184512019157412 -2.1969407796859737 1.1713186502456667 -0.55218553543090809 -0.61561137437820423 -0.74868822097778309 -0.74520829319953907 1.22073370218277 1.1634699702262881 -0.78667736053466786 0.93279218673706066 0.93331339955329906 1.0489183068275454 0.96519419550895702 1.2155941128730776 -0.24909113347530362 1.1110872030258181
decision_type=2 2 2 2 2 2 2 2 2 2 2 2 2 2 2 2 2 2 2 2 2 2 2 2 2 2 2 2 2 2 2 2 2 2 2 2 2 2 2 2 2 2 2 2 2 2 2 2 2 2 2 2 2 2 2 2 2 2 2
left_child=1 2 11 6 5 15 7 21 -9 20 -11 14 13 -13 24 -5 17 18 -4 -14 -8 -3 -16 -7 -1 28 -19 29 -6 35 31 34 55 -34 51 42 -36 38 48 50 -41 -18 58 44 57 -27 47 -45 -32 -48 -39 -29 54 -43 -37 -33 -54 -31 -2
right_child=27 3 16 4 25 23 9 8 -10 10 -12 12 19 -15 22 -17 41 26 -20 -21 -22 -23 -24 -25 -26 45 -28 30 -30 43 37 32 33 -35 36 52 -38 39 -40 40 -42 53 -44 46 -46 -47 49 -49 -50 -51 -52 -53 56 -55 -56 -57 -58 -59 -60
leaf_value=0.048540180816948386 -0.1309528113799231 0.026291777736344158 0.048088181770528586 0.04360071986723088 -0.13852423224142738 -0.027518011063002785 0.11153784522427733 0.13176908865119569 0.058338753688942958 0.01448806923486912 -0.090445116473946832 0.048958778347968898 0.047184505020875567 0.01907966373234897 -0.016781001652173142 0.10512407899239856 0.30392470456575083 0.090978997896748598 -0.11154438321399077 0.099039445140471125 0.042282299214535163 0.05720221500545402 -0.093339446820338554 0.030308724438201307 -0.11610318271268341 -0.17833789421798418 -0.17226053609694431 0.02926082808204214 0.10673326336544707 -0.22955844507461501 0.012441915195095209 0.153342613667694 0.077334079754227347 -0.10305505700149505 -0.14904361279141407 -0.18429960632774425 -0.027983003319773971 0.076926573156664679 0.12249405345275273 -0.11871712495810023 0.071094277832508962 -0.025239651785345582 0.09163593664364722 -0.14986686158186344 0.13474573768167994 0.051074443120081282 0.090287004358870215 0.13077236814376886 -0.17511933173110084 0.12445108179790419 0.13953033880272189 0.14619801060499577 -0.19809190563592402 -0.11853554688692364 0.025319245395305851 0.083483213320113547 -0.32169765259259342 -0.13522162297086512 -0.19575708767571431
leaf_weight=1237.02431082353 5.9918010830879194 11476.048869397491 4512.5938689857721 2149.3225551396608 19.144609868526459 1595.6896888762712 882.88161806762218 1876.9184128493071 7026.3906615823507 9499.6317662745714 659.42638298869133 11301.162436712533 4656.8943891488016 31679.207102052867 1386.3208721876144 2505.3910221755505 2.8899239748716345 3230.5425091311336 222.36009853892028 1964.2519629299641 5396.2011275142431 4416.5536827594042 610.94719122163951 1087.409021243453 76.805673168972135 24.074571162462234 20.58015063777566 22.921783521771431 3127.0880013853312 3.2087992578744879 17.624184086918831 73.385649710893631 59.579552486538887 45.977802332490683 58.235315315425396 6.756206329911949 94.411935597658157 55.25080294907093 37.822681829333305 23.002108499407768 179.65829400718212 13.144078642129896 34.004528626799583 13.628379892557861 10.410540234297512 11.066741466522215 465.04442600160837 12.999008670449255 24.256735563278198 700.13442856818438 204.31494016945362 19.021797239780426 4.6418687254190427 141.10589659959078 3.6100048124790192 25.335165180265903 4.6988302767276764 10.127307131886484 3.3205957189202309
leaf_count=2643 45 26056 8666 4057 65 4683 1177 1603 13300 22562 2346 28833 10755 89343 3776 3078 2 4121 4311 2816 11797 8771 3112 2257 380 100 103 46 3815 16 37 35 109 279 295 50 359 76 36 85 280 81 34 92 12 22 390 6 102 371 157 22 23 886 7 46 22 80 15
internal_value=0 0.0381083 0.0329079 0.0442435 0.0640278 0.0471716 0.0391963 0.0488626 0.0738187 0.0246152 0.00767684 0.0291581 0.0316924 0.026936 -0.00880715 0.0767156 0.057273 0.0604259 0.0405916 0.062568 0.0520201 0.0348818 -0.0401996 -0.00408193 0.0389152 0.102907 0.0893126 0.0788254 0.105241 0.0986805 0.0518415 0.0134571 0.0648013 -0.00123833 -0.0404432 -0.0302032 -0.0741679 0.0800931 0.00758446 0.0925961 0.0495505 -0.102962 0.0388154 0.105363 -0.0296152 -0.106091 0.108052 -0.0128639 -0.0961905 0.110816 0.126205 0.0822929 -0.18191 -0.110586 -0.1113 0.135414 -0.260272 -0.15792 -0.154061
internal_weight=0 112809 61055.8 51753.2 10519.2 7337.81 41234.1 24795.9 8903.31 16438.1 10159.1 52912.6 49601.5 42980.4 3311.1 4654.71 8143.22 7986.08 4734.95 6621.15 6279.08 15892.6 1997.27 2683.1 1313.83 3181.37 3251.12 2219.38 3146.23 1278.58 940.799 398.869 204.278 105.557 194.591 63.0238 152.647 541.93 79.7036 462.226 202.66 157.14 43.3169 1215.55 23.7466 35.1413 1191.81 26.6274 41.8809 1165.18 259.566 41.9436 19.7069 154.25 10.3662 98.7208 9.3407 13.3361 9.3124
internal_count=268644 265517 159828 105689 18077 14075 87612 49730 14903 37882 24908 141658 131747 118176 9911 7135 18170 17201 12977 13571 12974 34827 6888 6940 3023 4002 4224 3127 3880 1163 1964 1191 469 388 722 196 654 773 175 598 365 969 94 967 108 122 859 98 139 761 233 68 102 967 57 81 45 96 60
is_linear=0
shrinkage=0.1


Tree=15
num_leaves=61
num_cat=0
split_feature=39 110 117 60 70 73 75 108 127 94 53 24 40 0 122 36 106 74 114 56 61 44 122 51 72 34 31 26 105 49 106 54 5 80 119 70 0 108 122 53 51 108 0 62 36 39 49 75 123 122 33 70 40 55 57 31 39 40 59 36
split_gain=349.906 434.355 426.247 596.105 467.373 321.621 301.237 273.029 458.275 382.716 300.713 263.989 312.498 263.002 384.71 225.759 208.456 169.192 124.575 124.339 123.246 133.348 147.454 122.931 162.311 121.067 101.404 96.8832 88.2016 81.8233 80.5075 79.5399 156.891 75.3346 70.2408 62.8514 66.6649 69.8597 61.8818 60.7726 52.0667 42.566 41.5718 34.1631 31.8198 28.0533 27.5767 19.2551 18.9951 18.8192 14.788 12.2628 12.1423 11.2616 1.87031 1.21659 0.719057 0.228482 0.0752276 0.0888111
threshold=1.0273091197013857 -1.1882627010345457 -1.538024306297302 0.78639283776283275 -0.16491661220788953 -0.93598195910453785 -0.58749562501907338 -1.0622702836990354 -1.9908767342567442 -0.92889514565467823 1.1074790954589846 1.2356037497520449 1.0794226527214053 -0.20025412738323209 -1.9948700070381162 0.89072221517562877 -0.8960072100162505 -0.39850671589374537 -1.3993993401527403 0.91406452655792247 0.73402765393257152 1.1509864926338198 -1.1912010312080381 1.1689953207969668 -0.27401348948478693 0.86287757754325878 0.91353893280029308 1.230129659175873 -0.83098909258842457 1.1723366975784304 -0.95496070384979237 1.0546714663505556 0.54481643438339245 -0.23785074800252912 -1.1136211156845091 -0.13455665111541745 -0.062850035727024064 -1.064389646053314 -2.0133162736892696 1.0919750332832339 1.1709656119346621 -0.87766593694686879 0.26812066137790685 0.69192066788673412 0.91419899463653576 0.95469292998313915 1.1258217096328738 -0.67972850799560536 -2.26810610294342 -1.8926382660865781 0.86711612343788158 -0.10746973380446433 1.0629815459251406 1.065162777900696 0.96838921308517467 0.99721333384513866 1.0357086062431338 1.0732948780059817 0.80312073230743419 0.83164417743682872
decision_type=2 2 2 2 2 2 2 2 2 2 2 2 2 2 2 2 2 2 2 2 2 2 2 2 2 2 2 2 2 2 2 2 2 2 2 2 2 2 2 2 2 2 2 2 2 2 2 2 2 2 2 2 2 2 2 2 2 2 2 2
left_child=1 6 23 4 5 -4 15 10 9 42 35 12 -11 45 -15 58 -6 30 25 47 31 22 -22 38 54 29 -21 -13 -27 -8 49 32 -10 -26 -23 36 50 -38 48 -40 -32 -33 43 -9 53 -5 -20 -17 -3 -12 -2 -48 -37 -19 -25 -44 -46 -54 59 -1
right_child=7 2 3 13 16 -7 18 8 20 11 17 27 -14 14 -16 19 -18 44 46 26 21 34 -24 24 33 28 -28 -29 -30 -31 40 41 -34 -35 -36 52 37 -39 39 -41 -42 -43 55 -45 56 -47 51 -49 -50 -51 -52 -53 57 -55 -56 -57 -58 -59 -60 -61
leaf_value=-0.14720568239756607 0.22551154209537319 0.091571688872560661 0.067266248603533849 0.15449616852832695 0.14810446700563371 0.033338082646188982 0.011830588627680383 0.12955156205023011 0.016523971431058278 0.003622638288460189 0.11004386345406175 0.092971797596628464 0.062102550163914597 0.089193184866176389 -0.010567933556292179 0.042749813266420723 -0.16509826109177025 -0.035409069311387056 0.11745123229576807 -0.083911617995758844 -0.012788996159855591 -0.17990539376341766 0.13791005743557486 -0.16573756074016927 0.14347683016795273 -0.0091908061225241307 0.14814098419460067 -0.095564266103192852 0.14345251424285502 -0.094498203311762591 0.058621363059288611 0.14914184358767454 0.14353137246764533 -0.11630993533697061 0.089370425388090979 -0.014970254676273807 -0.13716011233510103 0.13041999953174577 0.15621991711243782 -0.13162760115133132 0.1072035232381936 0.10216526874369219 -0.14237939807997999 -0.15074114669711802 -0.142365692461143 -0.10321400214867134 -0.13539663737627297 -0.15904259469030033 0.13209395206910807 -0.13685646594009412 0.076962117372170014 -0.028182078125733492 -0.13942485105576671 0.13548957391787139 -0.11774629998168684 -0.16702522843900416 -0.11496662124631392 -0.12576565577922458 -0.14393407246020687 -0.15916530718362989
leaf_weight=8.0938157737255079 9.9153911173343676 144.19615392386913 2877.4454163014889 4.2903126310557118 455.28673847205937 96323.557111632079 93.816713064908981 10.634157434105875 265.86211884021759 2892.2455128319561 3.7388336211442974 735.34719733893871 1335.7882480174303 441.65924108028412 3098.182678565383 6.2953466176986721 22.290642244741321 8.4385541379451734 4.6364264339208594 20.858677551150322 376.9298280775547 9.8488859385251981 78.440258398652077 10.174405515193937 68.091719448566437 259.1919131949544 193.7452869862318 28.304978623986244 44.32903878390789 316.62954519316554 253.11991636455059 266.70180927217007 153.36811158061028 13.351176723837851 589.80955436825752 9.6029787510633451 35.29679786413908 13.484593436121939 11.958018511533739 18.970948964357376 1717.0656112879515 696.90924100577831 112.09480894356966 7.3566721305251113 16.174289226531982 273.14374900981784 186.67756993696094 19.000575378537178 584.92593079805374 17.711582370102406 20.67450675368309 11.314545165747402 45.656436994671822 7.100215531885623 40.229743935167789 24.38621960580349 23.487786583602428 16.73498984053731 5.6447280049324027 26.665519505739212
leaf_count=38 9 172 7353 20 484 219054 250 9 605 9427 4 1188 2331 573 10819 15 229 31 8 87 1196 41 84 46 41 893 295 92 60 1772 494 246 164 127 835 33 189 25 5 68 1494 984 587 40 85 3246 905 82 345 100 46 47 231 11 423 105 234 125 27 115
internal_value=0 0.0332186 0.0339054 0.0333122 0.0347973 0.0343222 -0.0266802 0.0529881 0.0439938 0.0270747 0.0840195 0.031872 0.0220986 -0.0054693 0.00187907 0.0640391 0.133486 0.0940776 -0.054423 0.100869 0.0797087 0.0539671 0.0131698 0.10274 0.0136031 -0.0347832 0.125586 0.0859837 0.0131027 -0.0701944 0.0988641 0.099348 0.0629874 0.100889 0.0849478 -0.0519903 0.00938043 -0.0631932 0.118203 -0.0203376 0.100962 0.115167 -0.127948 0.0149364 -0.0786178 -0.0992287 -0.123624 -0.108823 0.12408 -0.0938214 0.125113 -0.12927 -0.119649 0.0426806 -0.127434 -0.146783 -0.12614 -0.135761 -0.154642 -0.15638
internal_weight=0 105585 104388 103496 99678.6 99201 1196.9 9782.23 7584.03 5146.16 2198.2 4991.69 4228.03 3817.28 3539.84 280.304 477.577 2046.84 916.596 239.9 2437.87 1055.03 455.37 891.898 131.847 713.967 214.604 763.652 303.521 410.446 1991.64 1382.84 419.23 81.4429 599.658 151.366 79.3713 48.7814 760.051 30.929 1970.19 963.611 154.472 17.9908 55.2008 277.434 202.629 25.2959 729.122 21.4504 30.5899 197.992 71.9944 15.5388 50.4041 136.481 39.6621 62.3914 40.4041 34.7593
internal_count=268644 247599 243005 241778 227120 226407 4594 21045 17934 13779 3111 13038 11758 14658 11392 659 713 2453 3935 479 4155 2156 1280 1227 637 2975 382 1280 953 2022 2092 1999 769 168 876 658 269 214 590 73 1988 1230 741 49 361 3266 960 97 517 104 55 952 389 42 469 692 319 356 180 153
is_linear=0
shrinkage=0.1


Tree=16
num_leaves=63
num_cat=0
split_feature=38 106 126 36 127 38 107 127 41 82 31 89 74 30 102 45 28 135 132 42 30 130 108 41 106 22 75 112 127 21 126 50 108 101 52 54 62 43 59 125 114 69 48 126 106 100 64 54 99 108 82 13 68 112 104 20 53 116 124 76 123 59
split_gain=312.296 456.578 872.582 730.726 808.711 704.787 459.085 451.913 448.96 416.25 414.539 360.734 359.133 561.346 535.067 495.037 913.38 621.663 795.96 432.456 770.608 396.397 387.466 354.076 332.766 329.523 253.947 236.087 390.63 211.483 201.174 191.697 187.728 263.648 312.752 243.084 180.467 165.524 163.782 153.634 153.273 142.811 126.746 114.566 108.858 104.542 101.642 176.518 85.8453 79.609 184.229 79.3137 62.0619 76.4252 58.9626 57.5917 49.1316 79.4209 53.7939 45.4689 27.4864 15.1508
threshold=0.99506694078445446 -0.838739514350891 -1.711006700992584 0.91774228215217601 -1.6719867587089536 0.97816151380538952 -0.85609185695648182 -1.8801671862602232 1.0865101218223574 -1.37866735458374 0.99525326490402233 -1.2457447648048399 -0.95390620827674855 1.0968917608261111 -0.93865519762039173 1.1071678996086123 1.1571984291076662 1.0000000180025095e-35 1.0000000180025095e-35 1.0222936868667605 1.0619148612022402 1.0000000180025095e-35 -0.89600732922554005 1.0417206883430483 -0.90500339865684498 1.5918073654174807 -1.1653168201446531 -0.94795572757720936 -2.0052330493926998 1.2210289239883425 -1.8090046048164365 1.1203904747962954 -1.0622702836990354 -0.74464562535285939 1.1746029853820803 1.0778402090072634 0.66493776440620433 1.1186738610267641 0.85281249880790722 -1.5988724827766416 -0.94390630722045887 -0.0183947030454874 1.1555655598640444 -1.6000268459320066 -0.95364606380462635 -0.86631649732589711 0.44638746976852423 1.0376283526420595 -0.78533223271369923 -0.87124326825141896 -1.3170397877693174 0.75143110752105724 0.11071500554680826 -0.94795572757720936 -0.84202575683593739 1.1284171938896181 1.0806774497032168 -0.96682944893836964 -1.4076820015907285 -1.1512668728828428 -1.3419514298439024 0.83254003524780285
decision_type=2 2 2 2 2 2 2 2 2 2 2 2 2 2 2 2 2 2 2 2 2 2 2 2 2 2 2 2 2 2 2 2 2 2 2 2 2 2 2 2 2 2 2 2 2 2 2 2 2 2 2 2 2 2 2 2 2 2 2 2 2 2
left_child=1 12 6 9 5 -5 46 8 10 11 29 -4 13 19 25 17 23 18 -14 20 -1 -18 -21 -17 -19 -15 -6 28 -12 30 -2 -11 35 38 -35 54 41 43 -34 -29 -16 56 61 51 -37 -45 59 -48 -31 50 -8 -38 53 -39 -10 -54 57 -9 -58 -3 -51 -43
right_child=7 2 3 4 26 -7 49 36 32 31 27 -13 15 14 40 16 21 24 -20 22 -22 -23 -24 -25 -26 -27 -28 39 -30 48 -32 -33 33 34 -36 44 37 52 -40 -41 -42 42 -44 45 -46 -47 47 -49 -50 60 -52 -53 55 -55 -56 -57 58 -59 -60 -61 -62 -63
leaf_value=-1.1922294734889529e-05 -0.086311684157512447 0.026590601845708123 -0.0069708717694504574 -0.023857565128497502 0.14933775880855632 0.04825727393910919 0.14410188436521662 0.10626576330302683 0.097435128199698601 -0.072821649484216641 -0.0039735455454005834 0.078125197214596098 0.0023740179821512054 0.072410975839604833 -0.029456799716570666 -0.0051814048793564181 0.075873658046914372 0.035800873900343755 0.058815434715670571 0.10918851431144463 0.043696118955737807 -0.0073030080926527342 0.051234856603976579 0.031424664481607259 0.10522562856550639 -0.068038598922396068 0.068444465668296595 -0.12518955086533473 0.08354370315288269 -0.098083001480184201 -0.0052959914134196699 0.038424204951584044 0.098750912046533815 -0.0061325579928840773 0.073784015824922708 -0.12286701220876646 0.079727478188401382 0.069764949822771344 0.043934085670399393 0.025291516203199735 -0.10536684000628267 -0.0047531613060850563 0.12971445138995863 -0.055552052225123195 0.095326025597345307 0.15046881257619196 0.14108875653902847 -0.0040021535040107234 0.12373002010516528 -0.13993579475335161 -0.090504513036580567 -0.13803195462130305 -0.059056817963801189 -0.10144129728908223 -0.064655120267950325 0.1215588886683998 0.10122008686212741 -0.0029008074755896966 0.14908828895427695 -0.15123350230280252 -0.083990607959729319 -0.16249421053050264
leaf_weight=4707.5191286858171 628.68584485352039 19.762054711580276 2728.4846890177578 2438.1691690832376 458.00390268862247 3051.1448315680027 36.87721075117588 401.59291929006577 27.036128342151642 1142.5177211929113 880.2736956179142 609.42735610902309 18222.813543891534 789.55812172591686 721.99975273758173 3278.4972368553281 6049.5057620406151 2246.7821507155895 2895.6201011240482 1584.8085390627384 28184.063676819205 632.90907350182533 4240.3736219108105 13617.846783136949 996.68950420618057 211.87668337672949 2541.7912186533213 140.17795199155807 1212.5046459287405 20.81055648624897 598.08346641808748 179.19253464601934 951.60379110276699 1560.3480699285865 713.67350254952908 23.189299214631319 20.46364963054657 100.8257812410593 1275.7828678041697 131.48439593613148 421.14299961924553 7.2992511540651313 30.182089626789093 48.277628272771835 1637.1501209922135 50.283949747681618 103.1159340441227 448.81700499728322 107.9787667542696 414.0789319910109 362.45288386940956 91.57749830186367 19.019557595252991 35.16771636903286 132.07205091416836 245.93297497928143 429.57224476337433 79.902762830257416 517.6970027089119 52.789624579250813 111.45829758048058 36.723692789673805
leaf_count=12565 2802 47 10476 6676 580 6409 48 581 53 4841 2323 1125 49549 1181 2130 9435 11246 5026 5440 1916 52237 1780 7972 35821 1654 787 4788 633 1960 78 2059 442 1293 4799 1155 202 43 158 2760 340 1589 19 31 139 1591 51 136 2345 177 1986 1434 410 56 126 591 302 646 197 561 241 444 162
internal_value=0 0.0295392 0.0132137 0.0215775 0.039043 0.0162263 -0.0577669 0.0464831 0.0376347 -0.0102418 0.0100711 0.00856575 0.0322414 0.0391297 -0.0106713 0.0263703 0.0366993 0.0163732 0.0101129 0.0418882 0.0374405 0.0679958 0.0670018 0.0243218 0.0571345 0.0426956 0.0807951 0.035347 0.0467318 -0.0340165 -0.0468143 -0.0577394 0.0538566 0.0429001 0.0189483 0.0809636 0.0884998 0.0427012 0.0673534 -0.0523568 -0.0574227 0.107135 -0.0281252 -0.0290825 0.0922786 0.0495553 0.00847769 0.0231047 0.0878881 -0.102496 -0.0688392 -0.0982595 0.0804067 0.0254913 -0.0371123 0.108593 0.11416 0.0881499 0.127381 -0.102797 -0.128071 -0.13634
internal_weight=0 103500 14698.1 13148.7 8489.11 5489.31 1549.35 12155.4 10040.9 4659.62 3720 3337.91 88802 40861.3 2144.58 47940.7 23578.8 24361.9 21118.4 38716.8 32891.6 6682.41 5825.18 16896.3 3243.47 1001.43 2999.8 2364.44 2092.78 1355.56 1226.77 1321.71 6320.86 4501.41 2274.02 1819.45 2114.52 611.549 2227.39 271.662 1143.14 1502.97 74.205 210.603 1660.34 98.5616 624.485 551.933 128.789 924.867 399.33 112.041 400.946 135.993 159.108 264.953 1428.76 481.496 947.269 72.5517 525.537 44.0229
internal_count=268644 242346 42018 35337 18453 13085 6681 26298 22816 16884 10372 11601 200328 80377 5687 119951 58282 61669 54989 74690 64802 13026 9888 45256 6680 1968 5368 5256 4283 5116 4861 5283 12444 10007 5954 2437 3482 1285 4053 973 3719 2197 212 643 1793 190 2769 2481 255 3912 1482 453 642 284 644 358 1985 778 1207 288 2430 181
is_linear=0
shrinkage=0.1


Tree=17
num_leaves=55
num_cat=0
split_feature=33 106 124 38 126 36 110 26 128 86 45 73 30 105 75 37 15 84 109 131 106 72 71 128 73 41 3 124 126 42 117 34 32 38 103 36 22 45 7 51 129 104 117 122 99 127 74 60 0 31 6 21 105 102
split_gain=268.609 340.235 793.706 872.947 508.81 618.111 480.519 398.855 382.566 645.439 358.305 349.017 407.435 659.443 336.23 328.902 234.591 215.106 291.02 210.503 207.329 193.525 190.626 264.744 183.616 212.397 171.696 170.049 167.513 140.312 114.112 111.003 106.597 103.147 102.36 179.166 100.811 95.0505 91.1879 168.781 179.477 73.9072 65.9836 128.264 46.3107 42.3782 41.84 30.2912 28.2496 22.1469 18.7465 2.44092 0.299208 0.270134
threshold=0.94880828261375438 -0.838739514350891 -1.4513337612152097 0.97911983728408825 -1.5695157647132871 0.91576927900314342 -0.89883366227149952 1.2031775712966921 1.0000000180025095e-35 -1.284611642360687 1.1531708240509035 -0.93598195910453785 1.0948267579078677 -0.92588230967521656 -1.1407951712608335 0.97065505385398876 1.0158679485321047 -1.2418166399002073 -0.89473754167556752 1.0000000180025095e-35 -0.83464753627777089 -0.67471107840538014 -0.36182670295238489 1.0000000180025095e-35 -0.7089484930038451 1.0876020789146426 0.65369659662246715 -1.4932506680488584 -1.2695886492729185 0.92787480354309093 -1.0730628371238706 0.93737933039665233 0.9654807746410371 0.90009251236915599 -0.77064102888107289 0.98072767257690441 1.2665945887565615 1.0761470794677737 0.59609159827232372 1.1270490288734438 1.0000000180025095e-35 -0.73962342739105214 -1.0817182660102842 -1.3445349335670469 -0.79317069053649891 -1.7630968093872068 -0.92775666713714589 0.76998239755630504 0.40318769216537481 0.99348220229148876 0.60569956898689281 1.2173516750335696 -0.80513516068458546 -0.78399372100830067
decision_type=2 2 2 2 2 2 2 2 2 2 2 2 2 2 2 2 2 2 2 2 2 2 2 2 2 2 2 2 2 2 2 2 2 2 2 2 2 2 2 2 2 2 2 2 2 2 2 2 2 2 2 2 2 2
left_child=1 8 10 4 6 -6 -4 15 11 16 20 26 14 -14 -13 -5 37 18 -11 24 30 -18 23 -12 38 42 28 -24 -1 -28 -3 -22 -9 -19 44 -36 46 -10 39 40 -2 -41 43 -26 -27 48 47 50 -40 -44 -21 -47 53 -48
right_child=19 2 3 7 5 -7 -8 32 9 17 22 12 13 -15 -16 -17 21 33 -20 36 31 -23 27 -25 25 34 29 -29 -30 -31 -32 -33 -34 -35 35 -37 -38 -39 45 41 -42 -43 49 -45 -46 51 52 -49 -50 -51 -52 -53 -54 -55
leaf_value=0.10630274179561972 0.050999195201037684 0.097910332397155797 0.028980484022136124 0.015895051529027416 -0.0081470728222110371 0.048827198454159615 -0.067024989825237954 0.12298735872802646 -0.06817244141132292 0.030316977693407174 0.056511558077752926 -0.0085639305675162449 0.048713743862650628 -0.046560584468456463 0.031971553600488527 0.077268995347709521 0.046970388893463111 -0.13394331463559636 -0.075464424709427894 -0.18725359429751154 -0.099474983075147488 -0.15462997853204069 -0.060543150612772739 -0.10944578109419 -0.075793285351930528 0.0012109144939436729 0.066146556973650988 0.068449375819602171 -0.051842453697666338 0.13489031920618688 -0.029913018166824859 -0.0228153012966512 0.035321795289944273 -0.05304888939147271 -0.01361872987890258 0.074086586027820339 0.1349443895385212 0.14556736102834417 0.17311424521200533 0.088228325843222016 -0.071943921225627816 -0.14051941786813282 -0.042214235952009051 0.12777088320741412 0.10442912738882298 -0.053360524910702249 -0.1749123920683299 0.1495709983788179 0.093408744417314241 -0.150026062545809 0.044378741987260301 0.026942400921653922 -0.15271141811817335 -0.19395771396059125
leaf_weight=97.568522393703461 767.77853424102068 88.116240993142128 798.55231234431267 1964.0491431616247 3858.9226768929511 3759.1223090104759 1501.7740353494883 997.15612882375717 22.218669652938843 763.10828423500061 746.3170926310122 2097.9323088396341 1250.8617529124022 1732.9627521187067 83114.323194107041 1572.073655501008 400.5384684689343 198.1961774379015 394.54405949264765 9.1176592409610766 974.3441086448729 54.040527749806643 540.78884018585086 110.33531068265438 103.50280812382698 50.57947700470686 1873.9335715267807 126.01245185732841 213.63130713999271 352.81449264287949 336.75118114054203 234.30991241335869 161.11453214287758 769.97239806503057 500.98183804750443 435.2992045879364 16.683248251676559 327.17952385544777 133.41424752771854 1555.0268442109227 140.46404899656773 14.253970481455324 26.047637559473515 44.158898755908012 309.15503695607185 9.8645481318235415 48.672064691781998 7.3804026246070853 66.696799486875534 70.962420955300331 5.664814978837966 6.142049327492713 5.1703369915485373 8.7927446514368039
leaf_count=130 1484 175 1841 4805 14702 7503 4868 1164 66 1621 1849 5248 2865 5348 185067 2871 777 747 1244 37 4357 210 3215 453 368 110 2856 299 647 258 1020 872 318 2531 1614 632 21 325 101 2157 456 79 122 52 384 28 203 6 107 347 11 13 24 36
internal_value=0 0.0271986 0.0145125 0.0243359 0.00752084 0.0199669 -0.0336969 0.0598628 0.0296054 -0.00596048 -0.0309569 0.0307538 0.0297017 -0.00662023 0.0309736 0.0431804 0.0703616 -0.0348252 -0.0057348 0.0525682 -0.0634913 0.0230041 0.00392806 0.0351365 0.0559793 0.0284449 0.0673151 -0.0361661 -0.00226019 0.0770386 -0.00340284 -0.0846137 0.110793 -0.069609 0.0445775 0.0271575 -0.0897609 0.131975 0.0717282 0.066294 0.0319855 0.0861506 -0.0570086 -0.0149165 0.0899164 0.134025 -0.13397 -0.0158834 0.146548 -0.121078 -0.0984894 -0.0225467 -0.175753 -0.177827
internal_weight=0 111434 17769.7 14612.8 9918.37 7618.04 2300.33 4694.39 93663.8 2929.8 3156.98 90734 88196.1 2983.82 85212.3 3536.12 803.977 2125.82 1157.65 4335.81 1633.52 454.579 1523.45 856.652 4234.33 1540.69 2537.95 666.801 311.2 2226.75 424.867 1208.65 1158.27 968.169 1296.02 936.281 101.481 349.398 2693.64 2477.52 908.243 1569.28 244.672 147.662 359.735 216.118 84.798 22.1629 200.111 97.0101 14.7825 16.0066 62.6351 57.4648
internal_count=268644 260252 50312 38072 28914 22205 6709 9158 209940 7521 12240 202419 198528 8213 190315 7676 1378 6143 2865 8392 6424 987 5816 2302 8054 3629 3891 3514 777 3114 1195 5229 1482 3278 2740 2246 338 391 4425 4176 1940 2236 889 420 494 249 317 54 208 469 48 41 263 239
is_linear=0
shrinkage=0.1


Tree=18
num_leaves=52
num_cat=0
split_feature=116 101 31 2 136 31 31 109 134 24 30 20 134 75 72 69 58 103 36 118 107 71 75 112 124 108 105 82 106 44 118 84 117 63 8 97 42 51 52 90 35 35 34 4 105 33 41 52 61 46 58
split_gain=263.092 412.672 291.945 454.217 435.786 567.31 479.123 664.453 560.681 474.326 418.985 433.02 364.268 653.443 389.884 237.351 221.686 195.707 149.072 139.144 122.567 123.416 81.6393 78.806 184.597 76.5037 95.8377 116.734 75.7291 61.0809 58.9201 59.5472 48.1352 47.0452 37.4638 33.4927 27.997 27.5044 19.6006 18.2126 14.2051 37.4065 11.2963 8.45697 2.97281 2.35661 1.97857 1.34676 0.554536 0.0977547 0.0897027
threshold=-1.4958918690681455 -0.54037097096443165 0.99795258045196544 0.66984733939170849 1.0000000180025095e-35 1.0028417706489565 1.0059306025505068 -0.92456313967704762 1.0000000180025095e-35 1.3189407587051394 1.0366796851158144 1.5100303292274477 1.0000000180025095e-35 -1.0455152392387388 -0.7700802981853484 0.010237346868962051 0.82735508680343639 -0.98855549097061146 0.91227284073829662 -1.6227979660034177 -0.99393951892852772 -0.24910508841276166 -0.51408106088638295 -1.3029465079307554 -2.3681856393814082 -1.0331159234046934 -0.82547903060913075 -0.26329724490642542 -0.92806071043014515 1.1959142684936526 -1.5842031836509702 -0.18943402916193006 -1.538024306297302 0.57936212420463573 0.14448858797550204 -0.492272138595581 1.1261405944824221 1.1634699702262881 1.1634404659271242 -0.40966591238975519 0.87529000639915477 0.87692102789878856 0.86412763595581066 -0.084876753389835344 -0.78973296284675587 0.87018421292305004 1.1097711324691775 1.1337810158729555 0.76802366971969616 1.2060167193412783 0.89661481976509105
decision_type=2 2 2 2 2 2 2 2 2 2 2 2 2 2 2 2 2 2 2 2 2 2 2 2 2 2 2 2 2 2 2 2 2 2 2 2 2 2 2 2 2 2 2 2 2 2 2 2 2 2 2
left_child=15 2 3 12 6 16 8 -8 -4 -7 17 -12 14 -14 -2 18 -6 -5 32 25 21 28 35 24 -24 26 27 -17 -20 -25 31 37 40 -34 -23 -21 -22 -3 -39 -32 47 -42 44 -28 -41 -37 -38 -1 -33 -50 -35
right_child=1 30 4 10 5 9 7 -9 -10 -11 11 -13 13 -15 -16 19 -18 -19 20 22 36 34 23 29 -26 -27 43 -29 -30 -31 39 48 33 50 -36 45 46 38 -40 42 41 -43 -44 -45 -46 -47 -48 -49 49 -51 -52
leaf_value=-0.15107113184383553 -0.0093931766984419046 -0.067984290224003707 0.022777719206220758 0.049226932359702942 0.051582884857514111 0.075756255160215114 0.036306697953553367 -0.011070098715035358 0.051760904536809219 0.0035534579641684654 0.10155010348756173 0.037264739419147118 -0.074830272607732409 0.012609386751499689 0.022342112806558349 0.098670719900168763 -0.0020254899136372038 -0.096961438355348137 0.077517645515705447 0.1309424234022078 0.10417233562276809 0.051907643768959601 0.034873965844907158 0.11312649193638696 0.098548201495125318 0.12667956589940324 -0.024476989166082572 -0.092583013979629286 0.25079324715019652 -0.064720064579639899 0.058208018110679306 -0.16483037072127604 0.13457522061902893 -0.14690993386066406 -0.15332072138171332 -0.13479967682464136 -0.1368666456253686 0.15765187752713092 -0.022712706618903525 -0.13892925918858332 0.046366335633332839 -0.1167862669704029 0.025235655726908147 -0.13146196871316188 -0.10813625251564714 -0.22043292767508771 -0.19474606676079578 -0.12482603634199803 -0.12935786522836648 -0.10907339494428568 -0.1272291574646118
leaf_weight=34.071497961878777 4232.6508851442486 11.003102228045462 19870.402055103332 134.95032322406769 1147.2516699135303 5981.8396944999695 5127.301823079586 7004.1974272727966 10050.646192610264 1073.0633302181959 1406.2911858707666 4110.5195822864771 1158.8812230378389 3255.6146588027477 45338.977218296379 78.625280097126961 2354.5004541426897 284.91696291044354 92.049648880958557 5.2418480366468456 4.9769821316003791 13.91442349553108 994.18994309008121 543.09001372754574 839.97681611776352 36.438086163252592 8.2924576252698881 53.717450626194477 34.742193877696991 20.023428175598383 6.6532415077090254 2.060141950845721 17.631301462650303 5.9486127346754056 24.656538277864456 19.076222456991676 27.48631951212883 25.18949193879962 7.919393239542841 36.385800786316395 18.857530497014523 55.152116239070892 6.1017894819378844 67.797105733305216 226.61308429390192 3.8647692352533332 7.5225213915109626 45.881251636892557 2.6289420723915127 24.673401582986116 3.7923353314399719
leaf_count=157 10407 28 43194 423 1933 8169 10445 17622 17352 2327 1362 7823 3816 9381 112818 133 5776 4560 169 3 11 27 2317 483 879 32 57 256 31 121 37 9 31 28 118 118 158 38 52 233 59 286 20 480 4023 17 36 317 22 426 24
internal_value=0 0.0245039 0.0248408 0.0200683 0.0302767 0.0484419 0.0257167 0.00895341 0.0325133 0.0647741 0.0463228 0.0536517 0.0171811 -0.010345 0.0196324 0.0542348 0.0155378 -0.0499748 -0.018989 0.0648381 0.0393575 0.077348 0.0720912 0.0740804 0.0640343 -0.00700397 -0.0303745 0.0210415 0.124997 0.106803 -0.0840324 -0.00445867 -0.0850622 0.03713 -0.0792849 -0.0971162 -0.117754 0.0689894 0.11451 -0.105235 -0.106786 -0.0752153 -0.109276 -0.119802 -0.112396 -0.149226 -0.149303 -0.13601 -0.114802 -0.111027 -0.139248
internal_weight=0 112881 112532 59922.8 52609.2 10556.7 42052.5 12131.5 29921 7054.9 5936.68 5516.81 53986.1 4414.5 49571.6 3057.02 3501.75 419.867 386.683 2670.33 205.349 165.363 2425.46 2397.28 1834.17 244.87 208.432 132.343 126.792 563.113 349.228 73.4745 181.335 27.3722 38.571 28.1828 39.9858 44.112 33.1089 275.754 153.962 74.0096 269.101 76.0896 262.999 22.941 35.0088 79.9527 29.3625 27.3023 9.74095
internal_count=268644 262296 257408 150590 106818 18205 88613 28067 60546 10496 14168 9185 136422 13197 123225 6348 7709 4983 1452 4896 550 345 3938 3800 3196 958 926 389 200 604 4888 575 902 83 145 138 205 118 90 4313 819 345 4276 537 4256 135 194 474 457 448 52
is_linear=0
shrinkage=0.1


Tree=19
num_leaves=62
num_cat=0
split_feature=2 96 31 108 82 51 136 70 134 32 73 101 33 29 30 75 127 71 2 74 20 82 70 94 113 76 31 30 133 103 129 55 33 132 118 30 54 41 40 130 41 25 116 4 82 75 2 45 75 117 121 97 18 52 73 68 35 16 32 73 31
split_gain=269.113 551.671 361.375 475.932 422.293 424.667 414.972 560.407 581.39 538.475 715.374 435.509 355.381 387.994 481.141 279.763 244.801 234.504 320.182 223.664 217.755 206.939 217.148 192.972 231.764 315.21 191.126 176.467 331.26 156.478 153.137 141.775 138.356 136.729 128.236 125.313 124.908 119.531 110.449 101.806 96.0429 87.1094 85.0804 143.827 84.5346 71.745 65.711 62.6021 55.4535 46.2899 46.0084 43.6481 63.4954 41.3032 39.2708 29.679 29.6344 24.6592 18.8822 0.688781 0.380845
threshold=0.62670940160751354 -1.0406767129898069 0.99932470917701732 -1.0374862551689146 -1.4379439353942869 1.1418268084526064 1.0000000180025095e-35 -0.35303467512130732 1.0000000180025095e-35 0.95988121628761303 -0.79386031627655018 -0.88193294405937184 0.78532901406288158 1.2049338817596438 1.0968917608261111 -1.0907193422317503 -1.7735111713409422 -0.65586334466934193 0.66984733939170849 -1.0631297826766966 1.6371268630027773 -0.26329724490642542 -0.11800220981240271 -1.0889039039611814 -0.91713944077491749 -1.1899432539939878 1.012838661670685 1.0968917608261111 1.0000000180025095e-35 -0.92251065373420704 1.0000000180025095e-35 0.92635393142700206 0.90594941377639782 1.0000000180025095e-35 -0.90277040004730214 1.0888164043426516 1.0059996843338015 0.93095389008522045 0.82594385743141185 1.0000000180025095e-35 0.81611108779907238 1.6460245847702029 -0.91593274474143971 0.66128239035606395 -1.3377178907394407 -1.1617857813835142 0.68360945582389843 1.034560561180115 -1.1527545452117918 -0.91171604394912709 -0.98570123314857472 -1.0276614427566526 1.1902241110801699 1.1634404659271242 -0.93598195910453785 -0.24702468514442441 0.89617556333541881 1.1553341746330263 0.95137766003608715 -0.93598195910453785 1.0135555863380434
decision_type=2 2 2 2 2 2 2 2 2 2 2 2 2 2 2 2 2 2 2 2 2 2 2 2 2 2 2 2 2 2 2 2 2 2 2 2 2 2 2 2 2 2 2 2 2 2 2 2 2 2 2 2 2 2 2 2 2 2 2 2 2
left_child=1 19 3 21 36 -6 7 8 -4 10 -8 -9 13 15 17 38 -11 18 -15 32 40 22 -3 26 27 37 30 28 -25 -29 39 -32 34 54 57 -19 -5 -26 55 -14 -17 -22 43 60 -36 47 -27 -44 -45 50 -28 58 -53 -23 -16 -2 -47 -1 -34 -51 -21
right_child=12 2 6 4 5 -7 9 11 -10 16 -12 -13 23 14 33 20 -18 35 -20 42 41 53 -24 24 25 46 49 29 -30 -31 31 -33 51 -35 44 -37 -38 -39 -40 -41 -42 -43 45 48 -46 56 -48 -49 -50 59 -52 52 -54 -55 -56 -57 -58 -59 -60 -61 -62
leaf_value=0.15177330010537327 -0.16805610392571491 0.028363192267598526 0.033107525696022544 -0.11105297383604601 0.005248381652532436 0.030379475451995167 0.040674384526922278 -0.058371794870029275 0.099554229815263739 0.051492829017589219 -0.062094468936606029 0.018236230199164257 0.093381324041993674 -0.032660973465703361 -0.036869521118483288 0.037956812703151696 0.096491655753561556 0.11458183175038993 0.046084672480178474 -0.17727189371383822 -0.14161756229955219 -0.10112921334244621 0.060324476592419823 0.060941323903229122 0.050431027938103723 -0.12450432867360056 -0.12351147896453357 0.036171257658237164 -0.089122223697658598 -0.049649421820865632 -0.15258615196184117 0.15186250791808981 0.029148312007827894 0.12188663268513066 -0.037772242566673178 -0.049854858696704911 0.061284625091091886 -0.22228724143169865 0.083718631426404344 -0.078149835884352647 -0.10558649372740088 0.0018490405172476691 -0.15910431789039789 0.20668848293384526 -0.1884137224480503 -0.15306749703877015 0.0089219191367712388 -0.047438002333356266 0.010225465763213653 -0.21386144298241991 0.10132070493010739 0.024545106800764702 0.16565795919997287 0.024910852000187812 -0.10815490229958452 -0.10026927938846718 0.095212789167285442 0.027678607791424916 -0.17305621218316625 -0.18071709860042867 -0.15900348894384442
leaf_weight=32.890031278133392 157.36913207173347 8337.2386931777 7356.5370112508535 43.002406466752291 35663.594922382385 8286.2587362118065 3761.188627243042 764.8756857663393 1603.8965825289488 3015.4332073777914 826.12007603049278 24894.496069192886 1672.6510791368783 645.66315098851919 106.52247855067253 515.48848838731647 2018.026071742177 519.02398829907179 2578.1345178484917 26.364099308848381 135.99513525888324 132.41015812009573 2853.1959235146642 4405.1886091679335 398.11802887916565 213.07992163300514 19.780774936079979 678.88219202309847 152.18383771926165 309.23013298213482 49.835372323170304 22.069483578205109 10.785709112882616 33.532543256878853 181.27459029853344 50.88845356553793 1911.3831030875444 16.747348710894585 24.001761004328728 35.331882361322641 51.246029511094093 61.442703679203987 64.540357336401939 16.900038525462151 46.886830344796181 218.54036900401115 44.644606575369835 226.02687774226069 95.855976149439812 10.082872018218042 16.858834639191628 55.698880434036255 74.58579970896244 32.35209745913744 281.51438611745834 109.55269579403102 4.9155445992946616 31.206297785043716 8.0762352496385557 16.580065056681633 20.120829224586487
leaf_count=26 1121 21022 14960 158 94495 23096 6409 2247 1550 4861 2749 53818 1812 1645 306 1043 2137 554 4298 108 634 785 4829 6520 631 705 70 1443 646 1007 198 17 21 20 498 144 3609 69 38 110 190 157 252 10 197 858 90 680 211 41 21 126 66 234 1375 3472 9 57 34 68 87
