tree
version=v4
num_class=1
num_tree_per_iteration=1
label_index=0
max_feature_idx=136
objective=binary sigmoid:1
feature_names=Column_0 Column_1 Column_2 Column_3 Column_4 Column_5 Column_6 Column_7 Column_8 Column_9 Column_10 Column_11 Column_12 Column_13 Column_14 Column_15 Column_16 Column_17 Column_18 Column_19 Column_20 Column_21 Column_22 Column_23 Column_24 Column_25 Column_26 Column_27 Column_28 Column_29 Column_30 Column_31 Column_32 Column_33 Column_34 Column_35 Column_36 Column_37 Column_38 Column_39 Column_40 Column_41 Column_42 Column_43 Column_44 Column_45 Column_46 Column_47 Column_48 Column_49 Column_50 Column_51 Column_52 Column_53 Column_54 Column_55 Column_56 Column_57 Column_58 Column_59 Column_60 Column_61 Column_62 Column_63 Column_64 Column_65 Column_66 Column_67 Column_68 Column_69 Column_70 Column_71 Column_72 Column_73 Column_74 Column_75 Column_76 Column_77 Column_78 Column_79 Column_80 Column_81 Column_82 Column_83 Column_84 Column_85 Column_86 Column_87 Column_88 Column_89 Column_90 Column_91 Column_92 Column_93 Column_94 Column_95 Column_96 Column_97 Column_98 Column_99 Column_100 Column_101 Column_102 Column_103 Column_104 Column_105 Column_106 Column_107 Column_108 Column_109 Column_110 Column_111 Column_112 Column_113 Column_114 Column_115 Column_116 Column_117 Column_118 Column_119 Column_120 Column_121 Column_122 Column_123 Column_124 Column_125 Column_126 Column_127 Column_128 Column_129 Column_130 Column_131 Column_132 Column_133 Column_134 Column_135 Column_136
feature_infos=[-1.7844352722167969:2.1475074291229248] [-1.6962581872940063:2.0597634315490723] [-1.6161398887634277:1.9801409244537354] [-1.5440802574157715:1.9086390733718872] [-1.4800789356231689:1.8452587127685547] [-1.4241359233856201:1.7899996042251587] [-1.3852788209915161:1.7937201261520386] [-1.3575865030288696:1.9274762868881226] [-1.3260828256607056:1.9831451177597046] [-1.2853907346725464:2.0549979209899902] [-1.2320997714996338:2.0165181159973145] [-1.1626077890396118:2.064321756362915] [-1.0779223442077637:2.1106562614440918] [-0.97803342342376709:2.1760303974151611] [-0.86829191446304321:2.2759943008422852] [-0.75375783443450928:2.3805651664733887] [-0.63882678747177124:2.4481546878814697] [-0.65620064735412598:2.4658794403076172] [-0.66012513637542725:2.4600694179534912] [-0.66667592525482178:2.4321010112762451] [-0.66619455814361572:2.3612079620361328] [-0.67410272359848022:2.2960772514343262] [-0.78228282928466797:2.1994528770446777] [-0.70636492967605591:2.1797337532043457] [-0.67781645059585571:2.1696581840515137] [-0.94777458906173706:2.0883691310882568] [-1.274228572845459:1.9448176622390747] [-1.700652003288269:1.7314887046813965] [-1.9202775955200195:1.5598906278610229] [-2.2033448219299316:1.3473584651947021] [-2.6534385681152344:1.1459542512893677] [-2.9375624656677246:1.0414414405822754] [-2.8964071273803711:1.0182701349258423] [-2.6209216117858887:1.0153312683105469] [-1.9672813415527344:1.0222163200378418] [-1.2877312898635864:1.0987448692321777] [-0.66409575939178467:1.3781088590621948] [-0.67049169540405273:1.4172744750976562] [-0.67192721366882324:1.4686216115951538] [-0.67710685729980469:1.427788257598877] [-0.67391806840896606:1.3506048917770386] [-0.67713803052902222:1.3033223152160645] [-0.67526406049728394:1.4334096908569336] [-0.67822211980819702:1.6771683692932129] [-0.67593681812286377:1.8418123722076416] [-0.67998087406158447:1.9795904159545898] [-0.67735743522644043:1.8671952486038208] [-0.68056988716125488:1.8940913677215576] [-0.67851173877716064:2.0411467552185059] [-0.68057990074157715:2.1347439289093018] [-0.67868822813034058:2.3221406936645508] [-0.68411111831665039:2.3866791725158691] [-0.6882440447807312:2.3278176784515381] [-0.69760811328887939:2.41339111328125] [-0.68820065259933472:2.0181429386138916] [-0.66555494070053101:1.7058380842208862] [-0.63047897815704346:1.5109990835189819] [-0.79989981651306152:1.3641012907028198] [-0.9627259373664856:1.3483799695968628] [-0.83332031965255737:1.3266682624816895] [-0.62303602695465088:1.3006186485290527] [-0.62908732891082764:1.6912268400192261] [-0.65896600484848022:1.8743280172348022] [-0.67422842979431152:1.7138135433197021] [-0.93073725700378418:1.3433690071105957] [-1.1747497320175171:1.0751444101333618] [-1.3727543354034424:0.99085426330566406] [-1.6710461378097534:0.88367986679077148] [-1.7223098278045654:0.75060045719146729] [-1.8947262763977051:0.59843027591705322] [-1.6609858274459839:0.44751104712486267] [-1.6099838018417358:0.31280896067619324] [-1.5802557468414307:0.20973041653633118] [-1.5674382448196411:0.13722024857997894] [-1.3374539613723755:0.30397361516952515] [-1.5611182451248169:0.9557119607925415] [-1.741243839263916:1.4404212236404419] [-1.902489185333252:1.2026444673538208] [-2.032371997833252:1.1271375417709351] [-2.1171634197235107:0.66064220666885376] [-2.168381929397583:0.36351838707923889] [-2.1978850364685059:0.27734678983688354] [-2.2107267379760742:0.32789856195449829] [-2.208972692489624:0.37759476900100708] [-2.1915850639343262:0.42312100529670715] [-2.1574652194976807:0.46151745319366455] [-2.1063995361328125:0.49370381236076355] [-2.0390708446502686:0.51996833086013794] [-1.9571486711502075:0.67684948444366455] [-1.8642418384552002:0.55988889932632446] [-1.767259955406189:0.64909452199935913] [-1.7565661668777466:1.0685811042785645] [-1.6500253677368164:1.4172115325927734] [-1.5946441888809204:1.627358078956604] [-1.530011773109436:1.6652539968490601] [-1.4861346483230591:1.6182962656021118] [-1.4531639814376831:1.5607637166976929] [-1.4315723180770874:1.5581306219100952] [-1.414076566696167:1.5645072460174561] [-1.522296667098999:1.5648646354675293] [-2.0638625621795654:1.5687597990036011] [-2.4585905075073242:1.5680602788925171] [-2.604130744934082:1.5700795650482178] [-2.5047333240509033:1.5662518739700317] [-2.1062953472137451:1.5671930313110352] [-1.4475361108779907:1.5604219436645508] [-1.2213733196258545:1.5625878572463989] [-1.1215335130691528:1.561995267868042] [-1.168958306312561:1.5723429918289185] [-1.225764274597168:1.5757462978363037] [-1.369315505027771:1.5825309753417969] [-1.5506553649902344:1.5858457088470459] [-2.1400496959686279:1.5904537439346313] [-2.4733853340148926:1.5896482467651367] [-2.4821960926055908:1.5896980762481689] [-1.9469403028488159:1.5865405797958374] [-1.577265739440918:1.5868538618087769] [-1.6321159601211548:1.7016431093215942] [-1.6864286661148071:2.5795986652374268] [-1.7459897994995117:2.8008601665496826] [-1.820858359336853:2.5472877025604248] [-1.9280952215194702:1.7488086223602295] [-2.15055251121521:1.6308574676513672] [-2.3790585994720459:1.6220458745956421] [-2.6580204963684082:1.6080794334411621] [-2.9761693477630615:2.1645474433898926] [-3.3559722900390625:3.0688047409057617] [-3.8503069877624512:4.2020993232727051] [0:1] [0:1] [0:1] [0:1] [0:1] [0:1] [0:1] [0:1] [0:1]
tree_sizes=4134 3836 4612 4528 4628 4306 4625 4521 6927 6191 6627 6440 6102 6758 6220 6831 5487 6577 6892 5278 6483 5498 6254 6625 5267 6901 5891 6864 6037 6878 6159 6787 6957 6059 5778 6132 6751 6255 5920 6286 5453 6488 5313 6840 6790 5596 6519 6219 6476 6260 6669 4431 5605 6364 6695 6031 6191 6910 6457 5577 3761 6931 5619 5547 5293 3959 6787 6892 6378 6709 3882 6641 6589 6811 5549 6942 5656 6821 6549 4848 5267 6685 6821 6933 6838 6907 6107 4734 6712 5553 4293 6782 5895 6166 5621 5035 6581 6109 6667 6163 5697 6964 6904 4290 6773 6977 6478 4093 5940 6252 6471 6818 6540 6811 4206 6321 5888 5435 5341 6370 5907 5790 6590 6576 6780 6045 4517 5326 5920 5600 6795 6350 6500 6743 5818 6612 6017 5698 5161 6091 6912 5473 5330 6828 6714 6547 5220 6346 5658 6442 5331 5645 5090 6705 6895 5045 5915 6944 6838 5787 6456 4833 6245 5701 6727 5798 6764 5830 6348 6075 6883 6939 6267 4318 6002 6167 6930 4624 6274 6988 6045 6662 4086 6766 6966 5252 6570 5960 6769 6106 5431 6228 6716 5259 6593 4968 5717 6691 6702 6472

Tree=0
num_leaves=38
num_cat=0
split_feature=114 125 41 58 70 106 31 132 31 30 80 51 130 30 44 131 104 75 71 74 79 27 51 30 48 4 36 31 30 2 100 93 107 39 48 0 0
split_gain=19567.7 12849.5 15706.4 8643.28 9479.63 6413.9 6161.52 5989.79 4537.65 6651.84 6339.51 5069.13 4304.7 4036.57 3932.22 2946.34 2397.84 2158.79 3207.57 2100.18 2072.44 1552.84 1351.17 1051.84 1049.51 873.942 746.464 534.708 411.231 368.63 242.458 205.023 190.698 107.285 61.6927 1.13687e-13 8.88178e-16
threshold=-0.82228845357894886 -1.5713826417922971 1.1095497012138369 0.92615586519241344 -0.11885643377900122 -0.89899006485939015 0.99653145670890819 1.0000000180025095e-35 0.99895513057708751 1.0685007572174074 -1.1709460616111753 1.1201638579368594 1.0000000180025095e-35 1.0451201796531679 1.1183702945709231 1.0000000180025095e-35 -0.72128787636756886 -0.64517125487327565 -0.17679620534181592 -0.39724716544151301 -0.34398730099201197 1.3951945900917055 1.1730691790580752 1.0756009221076968 1.1885427832603457 0.75528347492218029 0.97585234045982372 0.993818759918213 1.036623001098633 0.80501177906990062 -0.88592547178268422 -1.0279682278633115 -0.84701943397521962 1.0344446301460268 1.0930553674697878 0.60630401968956005 0.51371976733207714
decision_type=2 2 2 2 2 2 2 2 2 2 2 2 2 2 2 2 2 2 2 2 2 2 2 2 2 2 2 2 2 2 2 2 2 2 2 2 2
left_child=1 2 3 4 6 19 -1 8 9 11 -11 -3 15 21 -14 -10 26 24 -19 22 -6 28 -4 25 -5 -15 -7 35 -9 -23 34 -25 -18 -21 36 -2 -29
right_child=27 7 5 17 20 16 -8 13 12 10 -12 -13 14 23 -16 -17 32 18 -20 33 -22 29 -24 31 -26 -27 -28 30 -30 -31 -32 -33 -34 -35 -36 -37 -38
leaf_value=-2.0623721028214872 -2.6638682107641918 -2.064475061770068 -1.9509088451453618 -2.5395440240209459 -1.5365197117787608 -2.0085594871905044 -1.9166235306217416 -2.6040612941059615 -1.7582686198107282 -1.7762096819988653 -2.1321977238578431 -1.8129312811304243 -2.042073981573207 -1.8115182592843633 -1.3180051853536485 -1.9023671079673996 -2.5891994441814496 -2.5547805201857647 -1.9089424239436124 -1.7407000651966535 -2.2161214399752045 -1.9386292353206196 -1.3035775866908414 -1.2330818392763208 -2.0543675806248132 -1.4425384021653311 -1.6527171563429155 -2.6638682107641918 -2.0703465138508417 -1.3046774302139525 -1.4799431322464642 -1.414003544354751 -1.7407000651966535 -2.6638682107641918 -1.9467217455020673 -2.6638682107641918 -2.6638682107641918
leaf_weight=7135.841918386519 89.887374527752399 3280.5462749004364 34.339362777769566 51.822431556880474 541.78073751181364 106.18207786232233 4886.9784436151385 43.090545497834682 6429.9786804243922 3573.9257673695683 581.66388245671988 1059.9956362918019 1112.8355935513973 102.80029980838299 80.423289604485035 1820.7283059582114 51.77089661359787 425.2361352071166 93.877569794654846 1.395798087120055 48.923764653503895 17.767334289848804 528.5741299316287 164.8085370361805 319.2318374440074 170.91708092391491 132.53198709338903 1.9380920901894572 21.710349231958389 18.960639670491219 5.4418829157948476 101.03375501185656 2.7915961742401114 12.831506252288817 1.7967826575040815 265.38495483249426 1.670769043266773
leaf_count=67184 1345 30950 288 716 2473 947 39441 621 42502 24215 5851 7541 10269 730 205 14455 739 5935 751 9 530 147 1277 291 2982 632 747 29 206 46 22 347 18 192 15 3971 25
internal_value=-2.55611 -1.90763 -1.97863 -2.00517 -1.98391 -1.5669 -2.00313 -1.85271 -1.86344 -1.91647 -1.82604 -2.00305 -1.81574 -1.55237 -1.99327 -1.79007 -1.9477 -2.30633 -2.43799 -1.37339 -1.59281 -2.13082 -1.34307 -1.44352 -2.12213 -1.58112 -1.811 -2.64275 -2.42525 -1.61135 -1.95114 -1.30184 -2.54579 -2.5733 -2.4255 -2.66387 -2.66387
internal_weight=0 32955.3 14374.1 13503.7 12613.5 870.417 12022.8 18581.2 17940.1 8496.13 4155.59 4340.54 9443.97 641.089 1193.26 8250.71 293.277 890.168 519.114 577.141 590.705 101.529 562.913 539.56 371.054 273.717 238.714 366.12 64.8009 36.728 10.8475 265.842 54.5625 14.2273 5.40564 355.272 3.60886
internal_count=268644 263237 124229 120012 109628 4217 106625 139008 135988 68557 30066 38491 67431 3020 10474 56957 2451 10384 6686 1766 3003 1020 1565 2000 3698 1362 1694 5407 827 193 91 638 757 201 69 5316 54
is_linear=0
shrinkage=1


Tree=1
num_leaves=35
num_cat=0
split_feature=114 5 73 39 103 71 47 126 105 109 3 42 31 125 100 111 127 119 110 3 120 0 92 46 51 99 117 112 71 31 102 0 0 1
split_gain=5885.98 2538.07 2018.59 1901.12 2933.4 2519.75 2405.75 1691.11 1680.61 529.839 519.339 705.881 473.321 339.288 346.118 302.021 296.202 223.468 380.582 123.325 126.547 121.701 119.264 80.1877 53.66 51.6644 15.6698 145.276 0.12623 0.0397057 0.00285415 5.68434e-14 1.42109e-14 1.42109e-14
threshold=-0.82228845357894886 -0.036579146981239312 -0.93596699833869923 1.035598933696747 -0.78644713759422291 -0.19079953432083127 1.1496374607086184 -1.8417006134986875 -0.79892653226852406 -0.86371687054634083 0.65416547656059276 0.92485249042510997 1.0076941847801211 -1.2184464931488035 -0.97911030054092396 -0.80045828223228443 -3.3052557706832881 -1.6664860844612119 -1.1654233932495115 -0.1932718828320503 -1.7366825342178343 0.4985454678535462 -1.2006322145462034 1.0803133845329287 1.1600054502487185 -0.44480182230472559 -1.5373661518096922 -1.2800800204277036 -0.17679620534181592 0.993818759918213 -0.64557167887687672 0.67068254947662365 0.57440191507339489 0.52559852600097667
decision_type=2 2 2 2 2 2 2 2 2 2 2 2 2 2 2 2 2 2 2 2 2 2 2 2 2 2 2 2 2 2 2 2 2 2
left_child=1 16 10 4 6 -6 -4 8 -5 -9 13 12 -12 21 -15 23 17 18 24 30 -21 -3 -13 -2 -1 -22 27 -19 -28 31 -18 32 33 -17
right_child=15 2 3 7 5 -7 -8 9 -10 -11 11 22 -14 14 -16 29 19 26 -20 20 25 -23 -24 -25 -26 -27 28 -29 -30 -31 -32 -33 -34 -35
leaf_value=0.36413248247925822 -0.10696781187162421 0.27758081775925025 0.32668611251327023 0.40330942784386736 0.25249679720618551 0.54657853688669877 0.40910921326485505 0.60831972399797352 0.19723989570737671 0.39255508470120504 0.45151236131475658 0.40951226191796258 -0.1163103683917542 0.337887858445172 0.035240558111087797 -0.10696781187162432 -0.11642031224021675 -0.10974966070273517 0.64365008662177781 -0.10851251993053453 0.46404017542537174 0.68424771929906569 0.68678481638228805 0.4215882755594364 -0.1110731933443421 0.8845285393869573 -0.10787338896753984 0.53445357959150863 -0.11476303392539405 -0.12131314681217785 -0.11112775719221948 -0.10696781187162432 -0.10696781187162432 -0.10696781187162432
leaf_weight=2.6964145377278355 3.5928781703114536 9.8578698933124524 39645.477797038853 2367.5254997089505 6858.5512853041291 304.27966507524252 3888.5498088300228 448.15702784061432 475.20559769868851 152.55185710638762 1030.5010701790452 17.18918501585722 14.892278172075747 142.24132703989744 51.457959428429604 78.738838545978069 2.2044158577919006 29.413890838623047 11.892790362238882 2.7198656052351007 6.6911962777376175 29.029928140342236 159.08813650906086 14.271731831133364 20.010820850729942 5.1872933506965602 93.868588097393513 3.9735627025365821 37.104806430637836 1.9410575553774823 1.8947181627154375 240.17477124929428 1.217924803495406 2.3140571266412726
leaf_count=14 59 54 186042 6297 41056 623 17197 1352 3099 724 2726 67 124 670 386 1293 19 390 23 39 32 48 226 39 242 24 1394 14 332 14 23 3944 20 38
internal_value=0 0.330964 0.332298 0.329175 0.324291 0.264989 0.334048 0.401076 0.368862 0.553526 0.448562 0.474637 0.443423 0.311604 0.257487 -0.0850086 -0.00984902 -0.0456104 0.185375 0.370689 0.50678 0.58116 0.659747 0.315287 -0.054644 0.647666 -0.0942357 -0.0330807 -0.109825 -0.107054 -0.113974 -0.106968 -0.106968 -0.106968
internal_weight=0 55812.2 55594.6 54140.3 50696.9 7162.83 43534 3443.44 2842.73 600.709 1454.26 1221.67 1045.39 232.587 193.699 342.251 217.658 198.961 34.6 18.6975 14.5984 38.8878 176.277 17.8646 22.7072 11.8785 164.361 33.3875 130.973 324.387 4.09913 322.446 82.2708 81.0529
internal_count=268644 263237 260691 256390 244918 41679 203239 11472 9396 2076 4301 3143 2850 1158 1056 5407 2546 2409 279 137 95 102 293 98 256 56 2130 404 1726 5309 42 5295 1351 1331
is_linear=0
shrinkage=0.1


Tree=2
num_leaves=42
num_cat=0
split_feature=114 74 39 49 132 109 64 30 70 117 103 108 82 79 30 110 26 125 105 39 21 73 31 71 31 27 36 111 105 127 73 103 102 31 31 46 32 8 14 15 16
split_gain=3171.54 1900.69 2001.93 1858.1 2148.09 1946.86 1686.21 1235.37 1134.52 1272.29 1130.42 981.241 1243.13 895.143 772.825 750.467 719.479 718.411 1060.24 993.413 631.289 556.233 415.688 323.086 322.22 267.68 448.325 228.045 126.46 114.613 67.8874 53.7239 35.9294 27.2907 0.0284195 0.0241557 7.45756e-05 5.68434e-14 7.10543e-15 3.55271e-15 3.55271e-15
threshold=-0.82228845357894886 -0.94037163257598866 1.0314394831657412 1.1946809291839602 1.0000000180025095e-35 -1.1243482828140257 0.50409242510795604 1.1032800674438479 -0.21489700675010678 -1.5429958701133726 -0.93506839871406544 -0.86008960008621205 -1.3743198513984678 -1.3416153192520139 1.0532907843589785 -0.87390962243080128 1.2829481959342959 -1.643812298774719 -0.79892653226852406 1.0442785024642947 1.5895273089408877 -0.35799634456634516 1.0012155175209048 -0.42622244358062739 1.0074959993362429 1.1290012001991274 0.97043126821517955 -0.80045828223228443 -0.76612845063209523 -1.7685923576354978 -0.8967761993408202 -0.97002559900283802 -0.83132636547088612 0.99804791808128368 0.993818759918213 1.0810706019401553 0.94030389189720165 1.1487913131713869 1.3803811669349673 1.3142986893653872 1.5994396209716799
decision_type=2 2 2 2 2 2 2 2 2 2 2 2 2 2 2 2 2 2 2 2 2 2 2 2 2 2 2 2 2 2 2 2 2 2 2 2 2 2 2 2 2
left_child=1 7 3 4 6 -6 -3 11 23 -10 20 13 15 22 -15 -13 -14 18 21 -20 24 -4 -1 -5 -9 26 -19 32 -27 -12 -31 -22 33 35 37 36 -2 -29 39 -39 -40
right_child=27 2 17 8 5 -7 -8 10 9 -11 29 12 16 14 -16 -17 -18 25 19 -21 31 -23 -24 -25 -26 28 -28 34 -30 30 -32 -33 -34 -35 -36 -37 -38 38 40 -41 -42
leaf_value=0.18649606227790461 -0.10626096570272479 0.20447091090587766 0.28588137274212122 0.13138582345192037 0.12421542468325671 0.30379456941088623 0.043433234934064952 0.34479430485880713 0.19253518108308743 -0.030183332017221925 0.43347309971766307 0.32753734419343067 0.11782779111411062 0.20156694160419977 0.26281514998777222 0.22958695529548595 0.23908927135797589 0.031193394843125766 0.040641098514464333 0.25159602951635257 0.084623068077207195 -0.045017608053665892 0.3852664016163353 0.32554865574971459 0.0018195549774444341 0.4025092371643047 0.37877676177591657 -0.10626096570272506 0.16226725114190615 -0.10585655614921435 0.006782754616140258 -0.11910257612539928 0.32417489428333168 0.26884086191840972 -0.11889908879419178 -0.12208073812770792 -0.10735627620105354 -0.10626096570272503 -0.10626096570272506 -0.10626096570272506 -0.10626096570272503
leaf_weight=121.48227335512638 1.5525719374418288 22155.194472357631 3702.6598122343421 138.78654097020626 717.85060748457909 3796.5629325285554 669.87369401752949 214.10604775696993 395.11327561736107 731.07511473447084 4.6406744867563239 937.43120578676462 1494.138585858047 2251.0976775810122 24284.208219245076 4723.7448348775506 727.5542573556304 59.789889678359032 390.94061161205173 520.35259809717536 18.544676050543785 51.506917275488377 785.56114714592695 224.05676908791065 31.410891152918339 576.5410348623991 97.821687489748001 241.7576302587986 22.776249729096889 160.31387877464294 80.312060087919235 42.862118273973465 14.08362155407667 3.3368664793670177 1.7901590168476094 1.6857863813638685 1.0366802960634229 9.4817786179482955 16.745597325265408 15.747515365481375 9.8699216023087519
leaf_count=512 28 95144 8645 721 4045 12366 4245 457 2099 6805 8 2544 7244 9261 75890 18838 2859 368 2729 2126 93 397 1473 876 188 1100 228 4360 105 1079 465 327 20 21 14 12 17 171 302 284 178
internal_value=0 0.23362 0.216771 0.206286 0.212211 0.275239 0.199745 0.249706 0.0975015 0.0479555 0.101288 0.252026 0.220929 0.260958 0.257619 0.245807 0.157538 0.272516 0.257854 0.161097 0.229191 0.281341 0.358645 0.251282 0.300915 0.362883 0.246921 -0.0833546 0.393379 -0.0587684 -0.0682617 -0.057578 0.229567 0.0545214 -0.106338 -0.112765 -0.1067 -0.106261 -0.106261 -0.106261 -0.106261
internal_weight=0 70128.3 34250.9 28828.5 27339.5 4514.41 22825.1 35877.4 1489.03 1126.19 552.19 35325.2 7882.87 27442.3 26535.3 5661.18 2221.69 5422.39 4665.46 911.293 306.924 3754.17 907.043 362.843 245.517 756.929 157.612 317.088 599.317 245.267 240.626 61.4068 21.6955 7.61191 295.393 4.27504 2.58925 293.602 51.8448 25.2293 26.6155
internal_count=268644 263237 141999 126301 115800 16411 99389 121238 10501 8904 2617 118621 31485 87136 85151 21382 10103 15698 13897 4855 1065 9042 1985 1597 645 1801 596 5407 1205 1552 1544 420 98 78 5309 57 45 5295 935 455 480
is_linear=0
shrinkage=0.1


Tree=3
num_leaves=41
num_cat=0
split_feature=114 31 0 108 133 43 133 20 50 73 134 105 136 134 82 32 136 97 30 124 106 126 95 107 32 111 92 3 73 118 101 120 43 49 108 38 5 108 33 0
split_gain=2015.97 1086.24 1601.31 1539.4 1345.08 1755.39 1323.41 1002.54 993.696 1170.52 1234.39 1999.24 1200.53 888.977 706.954 636.602 1649.38 890.603 606.957 591.001 588.241 526.978 524.506 368.952 186.394 142.775 83.4307 61.2253 39.3368 32.9513 13.8867 0.0373629 0.00951579 0.00751841 0.00674713 0.00589977 0.00480772 0.00376733 6.10328e-10 5.68434e-14
threshold=-0.82228845357894886 0.99804791808128368 0.60630401968956005 -1.0358834862709043 1.0000000180025095e-35 1.0654482841491701 1.0000000180025095e-35 1.5106515884399416 1.142767131328583 -0.78592264652252186 1.0000000180025095e-35 -0.86436003446578968 1.0000000180025095e-35 1.0000000180025095e-35 -0.26307925581932062 0.96418204903602611 1.0000000180025095e-35 -0.88978129625320423 1.093864440917969 -1.3613480925559995 -0.9946935474872588 -1.8462886214256284 -0.88643562793731678 -0.85524308681488026 0.94810992479324352 -0.93753710389137257 -0.24164103716611859 0.67330214381217968 -0.9020320177078246 -0.85386586189270008 -0.97603607177734364 -0.88868415355682362 1.0274393558502199 1.1595830321311953 -0.78762266039848317 0.98698273301124584 0.63966068625450145 -0.83838406205177296 0.89746570587158214 0.48844215273857122
decision_type=2 2 2 2 2 2 2 2 2 2 2 2 2 2 2 2 2 2 2 2 2 2 2 2 2 2 2 2 2 2 2 2 2 2 2 2 2 2 2 2
left_child=1 2 3 14 13 -6 7 25 9 10 12 -12 -3 -5 20 17 -17 -11 -9 21 -1 22 -10 -23 32 -4 -16 -8 -26 -30 -29 -31 38 37 -34 -35 -33 -21 39 -2
right_child=24 8 6 4 5 -7 27 18 19 15 11 -13 -14 -15 26 16 -18 -19 -20 33 -22 23 -24 -25 28 -27 -28 30 29 31 -32 36 34 35 -36 -37 -38 -39 -40 -41
leaf_value=0.0034697433823501871 -0.10562979700239127 0.17504797856217616 0.26206935821453442 0.16649510093262046 0.034320316137761771 0.18155260916278859 0.38625223623655969 0.22154561639618364 -0.053561123653195979 0.081033255482250446 0.34763786206463015 0.20860731156671167 0.23394215442395941 0.1088161394423045 0.055350114041126192 0.15119071136015455 0.29708650610244985 0.16552800909887364 0.1271276920911095 -0.13079006475719962 0.20683413160181774 0.33863156712776882 0.23210201770698546 0.19358067024473447 0.32355015403686083 0.32572148412724822 -0.11313258739959892 -0.0011950874974873584 0.20314841419829666 -0.12946987012029801 -0.11990794670234273 -0.11603676955694722 -0.11585045840278706 -0.13201976669860868 -0.10655690529284366 -0.13649424467083507 -0.10844918236604953 -0.12711663829682227 -0.105627332541119 -0.10562979700239127
leaf_weight=144.65483381971717 63.575576841831207 14316.101556107402 610.35855945199728 23679.12807842344 2031.4644257426262 1346.531103245914 2.5410755574703208 3313.0949765592813 70.666379176080227 1791.3420727550983 1372.332280471921 4198.9367678165436 4564.8650681003928 3012.0166976228356 51.424076952040195 2755.8069120645523 1077.9926419109106 4108.5995346307755 856.95109432935715 17.583580628037456 8501.4463636763394 962.41060635447502 710.65823761373758 214.43039084225893 11.052741236984732 833.76929046213627 68.597444020211697 10.79076052457094 7.5074150413274765 2.1329257637262344 113.48147199302912 1.8170412033796295 1.5546133518218994 12.635400369763376 1.5702146440744391 3.8430705964565268 1.545272000133991 3.318787455558776 1.0087413191795338 201.2217463850975
leaf_count=863 1260 45489 933 87022 10959 5158 6 7533 382 7192 1663 10868 9835 13308 333 9610 2210 14445 2771 98 25879 1478 1789 591 9 1074 743 65 25 19 831 20 14 69 29 20 23 20 20 3988
internal_value=0 0.180948 0.170499 0.163212 0.152462 0.0930098 0.219795 0.227011 0.193821 0.189817 0.201492 0.242854 0.189287 0.159986 0.200086 0.160489 0.192214 0.139874 0.202143 0.262413 0.203432 0.269932 0.206265 0.312202 -0.0818393 0.298819 -0.040945 -0.0996641 0.184851 0.0669512 -0.1096 -0.119117 -0.105694 -0.131466 -0.11118 -0.133063 -0.11255 -0.130207 -0.10563 -0.10563
internal_weight=0 80757.8 44576.3 38835.3 30069.1 3378 5740.99 5614.17 36181.5 34186 24452.2 5571.27 18881 26691.1 8766.12 9733.74 3833.8 5899.94 4170.05 1995.55 8646.1 1958.17 781.325 1176.84 292.986 1444.13 120.022 126.813 24.0554 13.0027 124.272 5.49524 268.931 37.3808 3.12483 16.4785 3.36231 20.9024 265.806 264.797
internal_count=268644 263237 157478 144265 116447 16117 13213 12311 105759 101312 67855 12531 55324 100330 27818 33457 11820 21637 10304 4447 26742 4240 2171 2069 5407 2007 1076 902 96 87 896 62 5311 207 43 89 43 118 5268 5248
is_linear=0
shrinkage=0.1


Tree=4
num_leaves=42
num_cat=0
split_feature=114 2 33 96 71 31 20 30 29 117 73 109 116 111 73 106 73 48 53 114 74 132 7 4 70 30 103 133 103 129 118 111 46 79 55 31 46 31 118 32 31
split_gain=1393.9 778.596 1098.15 878.516 742.913 1178.32 694.359 746.21 672.841 665.67 624.95 515.678 984.619 566.467 507.803 491.652 461.063 673.095 408.389 321.574 315.428 300.78 265.714 252.33 522.157 428.676 378.875 306.582 227.512 226.718 207.504 159.371 82.7095 16.3104 17.8648 0.0288681 0.00801018 0.000804505 0.000207507 6.39276e-07 4.57908e-09
threshold=-0.82228845357894886 0.62998205423355114 0.83839252591133129 -1.0410352349281309 -0.24419823288917539 0.9973181188106538 1.5426116585731509 1.0948299765586855 1.2073219418525698 -1.5017105937004087 -0.90557885169982899 -1.0124526023864744 -1.4952027201652525 -1.2478365898132322 -0.93286728858947743 -0.88185811042785633 -0.86716210842132557 0.99733480811119091 1.0574652552604678 -0.91921278834342945 -1.0527559518814085 1.0000000180025095e-35 0.7301807999610902 0.7256058156490327 -0.47382222115993494 1.0921652913093569 -0.92123484611511219 1.0000000180025095e-35 -0.93244254589080799 1.0000000180025095e-35 -0.92464497685432423 -0.80045828223228443 0.92685088515281688 -1.4624672532081602 0.98636895418167125 0.993818759918213 1.0803133845329287 0.99781164526939403 -0.85386586189270008 0.94810992479324352 0.96796509623527538
decision_type=2 2 2 2 2 2 2 2 2 2 2 2 2 2 2 2 2 2 2 2 2 2 2 2 2 2 2 2 2 2 2 2 2 2 2 2 2 2 2 2 2
left_child=1 2 11 20 5 -5 23 8 10 -6 -8 12 13 -1 28 -14 18 -18 -13 -10 30 -16 -22 24 26 -26 -3 29 -9 -25 -4 33 -29 -2 36 38 37 -35 -33 40 -40
right_child=31 6 3 4 9 -7 7 14 19 -11 -12 16 15 -15 21 -17 17 -19 -20 -21 22 -23 -24 27 25 -27 -28 32 -30 -31 -32 35 -34 34 -36 -37 -38 -39 39 -41 -42
leaf_value=0.020316493582465373 0.21304574874238844 0.19565521249426587 0.30421523165570341 0.13033462009841562 0.20210818358482854 0.15682886690702247 -0.023508056944126457 0.21257795403808069 0.19341440434176232 0.00061821843853128314 0.1504204556518344 0.073178756099034764 0.04501034457539195 0.25840317046018729 -0.035589065685317382 -0.099821251282946014 0.23904945825091964 0.093490482396262051 0.17391494292897436 0.078645364287927844 -0.08828911754118729 0.24488567957355356 0.10005710404145528 0.23470549062547172 0.23034619180557497 0.084922442965367217 0.099974934096661666 -0.12574492309692117 -0.016868692056894646 -0.048996934555722987 0.076017580897728601 -0.10632316649122504 0.10381441948437489 -0.10506112802330354 0.18969937120495858 -0.1181987188243766 -0.11612005953868193 -0.10855999856568406 -0.10506545572865084 -0.10498321065990231 -0.10505854430681678
leaf_weight=152.72710633650422 17.309702284634117 703.45011066645384 43.750859037041664 29078.50614477694 3401.1519544571638 39711.041388310492 334.95182027667761 203.19842606037855 2774.308774009347 172.27027293294668 539.06517779827118 1940.6747143343091 736.06352772936225 289.08560268580914 430.21674378961325 343.89154336228967 653.49894831329584 618.22452480345964 507.73100513219833 267.69233916699886 235.51055879890919 41.964618876576424 109.836227029562 1971.1884703338146 1824.8437516093254 228.03191862255335 1005.3028160780668 26.576812729239464 54.889426082372665 28.576656855642796 446.66467032581568 1.3182254545390595 38.333064019680023 1.6048341915011404 3.9941351413726807 1.6869553141295899 1.2676478698849676 1.1128736957907674 239.94791945815086 0.94944163784384628 0.96245568618178268
leaf_count=1062 21 1500 48 103711 5198 106042 1468 373 5458 909 1385 7079 3556 520 2262 3588 1431 2327 1314 827 1195 30 343 2475 3174 727 2932 175 236 122 1635 24 135 35 14 14 12 16 5229 21 21
internal_value=0 0.147014 0.143595 0.146761 0.147939 0.145629 0.172625 0.14379 0.161096 0.192395 0.0837654 0.0993803 0.0503403 0.176101 0.0509882 -0.00110857 0.119441 0.168289 0.0940686 0.183315 0.0448225 -0.0106622 -0.0283863 0.195619 0.180201 0.214193 0.139364 0.223709 0.16378 0.230651 0.0963755 -0.0804791 0.00982324 0.158519 0.0402364 -0.105162 -0.109556 -0.106494 -0.105072 -0.105065 -0.105065
internal_weight=0 88913.2 78440.6 73198.7 72363 68789.5 10472.6 4646.29 3916.02 3573.42 874.017 5241.9 1521.77 441.813 730.269 1079.96 3720.13 1271.72 2448.41 3042 835.762 472.181 345.347 5826.3 3761.63 2052.88 1708.75 2064.68 258.088 1999.77 490.416 270.154 64.9099 25.2892 7.97949 244.865 3.98536 2.71771 243.178 241.86 240.91
internal_count=268644 263237 239958 219081 215860 209753 23279 12039 9138 6107 2853 20877 8726 1582 2901 7144 12151 3758 8393 6285 3221 2292 1538 11240 8333 3901 4432 2907 609 2597 1683 5407 310 98 77 5309 63 51 5295 5271 5250
is_linear=0
shrinkage=0.1


Tree=5
num_leaves=39
num_cat=0
split_feature=114 39 74 105 130 31 113 84 125 0 127 133 0 118 127 117 107 108 127 93 47 82 75 32 42 122 81 32 133 32 74 115 43 30 5 51 111 17
split_gain=1014.48 708.66 1160.67 735.119 689.737 730.834 711.364 1329.09 695.494 661.293 1484.29 1108.23 555.978 548.527 515.046 376.125 296.278 288.937 638.571 322.136 257.04 254.652 249.648 137.928 120.737 85.6274 39.6286 24.0982 24.0281 23.1753 0.715554 0.0472015 0.0146075 0.0077949 0.00495107 2.18931e-05 7.60431e-07 5.68434e-14
threshold=-0.82228845357894886 1.0380405187606814 -0.93535593152046193 -0.77929228544235218 1.0000000180025095e-35 1.0155969858169558 -0.94213733077049244 -1.2862560153007505 -1.4361777305603025 0.33229108154773718 -1.9573693871498106 1.0000000180025095e-35 0.39111372828483587 -1.6014150977134702 -1.8994345664978025 -0.95520624518394459 -1.0189857482910154 -1.058152377605438 -2.0986914634704585 -0.92313626408576954 1.2149947285652163 -0.17794337123632428 -0.62575381994247425 0.94810992479324352 1.1158760786056521 -2.0123301744461055 -0.28982008993625635 0.95112335681915294 1.0000000180025095e-35 0.95900845527648937 -0.39724716544151301 -0.82617986202239979 1.0274393558502199 1.0462419986724856 0.63966068625450145 1.0669219493865969 -0.80045828223228443 1.1763426661491396
decision_type=2 2 2 2 2 2 2 2 2 2 2 2 2 2 2 2 2 2 2 2 2 2 2 2 2 2 2 2 2 2 2 2 2 2 2 2 2 2
left_child=1 2 4 9 5 12 7 -6 -8 10 -4 -11 -1 21 -15 -7 26 20 19 -19 22 -5 -18 32 -20 -22 28 -25 30 31 -3 -29 35 -34 -33 36 -2 -38
right_child=23 16 3 13 6 15 8 -9 -10 11 -12 -13 -14 14 -16 -17 17 18 24 -21 25 -23 -24 27 -26 -27 -28 29 -30 -31 -32 34 33 -35 -36 -37 37 -39
leaf_value=0.16873739250145947 -0.10464214706696713 -0.14468143962513744 0.1142266325505556 0.27568927994655479 0.21875796392662022 0.074759783069853494 -0.049568003952853594 0.080466254257523046 0.084213369029046678 0.10808386866544849 0.21005575955730113 0.043914993641508186 0.13247912305484352 -0.060981145210529969 0.095634108189290024 -0.11078565333954112 0.27217791213602049 -0.074613944013142516 0.16255160050167555 0.11335359889348139 0.05122840131287968 -0.12105386249569471 -0.1420178045496355 0.208160333029976 0.21970539094101277 0.20629868042900124 0.24745077948300331 -0.13098814905318121 0.087822197597991244 0.21131358579706641 -0.11814935815149347 -0.11561784179017079 -0.10617450409567571 -0.11654019088692975 -0.10748310373061287 -0.10508031645631738 -0.10456025052066026 -0.10456025052066026
leaf_weight=4722.370972789824 1.1397101990878571 22.565774187445637 18078.10968189314 110.10033934563398 1107.0129089951515 336.20850792527199 468.91542202979326 1867.0797137916088 2268.7857791632414 14678.333561480045 1775.0032811611891 3295.7300346046686 40483.457811839879 567.55189024657011 333.28860284388065 161.845119535923 22.117317199707031 96.657278195023537 706.46907965093851 1607.3865031972528 36.407827731221914 18.964792501181364 42.541301026940346 17.096937544643882 775.18382812291384 1622.2036267966032 3.3993238583207122 2.4193572774529475 5.6151278764009467 3.393890842795372 18.496732428669933 1.8798929564654794 1.3634777888655656 1.550351846963167 1.2428333573043344 0.81379199028015037 128.5965025536716 89.262573942542076
leaf_count=10861 27 113 58984 125 2025 995 2238 6363 7880 44256 3289 13475 96398 4747 1149 829 31 541 1530 4254 124 167 214 26 1486 985 8 21 16 4 154 24 29 14 21 18 3083 2140
internal_value=0 0.123009 0.120988 0.107944 0.130845 0.134939 0.0980819 0.131941 0.0612992 0.110214 0.122794 0.0963178 0.136267 0.0245862 -0.00303739 0.0144658 0.159814 0.162283 0.14444 0.102692 0.195269 0.217392 -0.000336799 -0.0791986 0.192454 0.202895 -0.082192 0.138603 -0.106198 0.00552098 -0.13273 -0.120503 -0.104656 -0.11169 -0.11238 -0.104563 -0.104561 -0.10456
internal_weight=0 95231.8 90272.8 38857.1 51415.7 45703.9 5711.79 2974.09 2737.7 37827.2 19853.1 17974.1 45205.8 1029.91 900.84 498.054 4959.04 4908.97 3185.7 1704.04 1723.27 129.065 64.6586 248.759 1481.65 1658.61 50.077 26.0329 46.6776 8.93597 41.0625 5.54208 222.726 2.91383 3.12273 219.813 218.999 217.859
internal_count=268644 263237 253781 126192 127589 109083 18506 8388 10118 120004 62273 57731 107259 6188 5896 1824 9456 9165 7811 4795 1354 292 245 5407 3016 1109 291 96 283 70 267 66 5311 43 45 5268 5250 5223
is_linear=0
shrinkage=0.1


Tree=6
num_leaves=42
num_cat=0
split_feature=114 73 38 106 125 49 104 127 46 33 71 30 38 44 114 29 7 3 58 56 62 122 104 102 108 4 57 43 115 75 70 72 111 79 31 9 31 48 32 41 51
split_gain=763.63 627.713 988.53 827.782 1010.05 851.081 1073.38 736.022 985.577 808.994 725.049 623.808 1314.87 653.427 910.785 514.916 553.609 544.065 464.516 461.935 448.219 407.016 406.588 465.203 386.29 381.012 353.482 261.641 244.139 187.411 171.043 153.1 120.747 9.96038 12.4357 0.0379415 0.0200491 0.000507929 0.000204013 2.1236e-08 3.08944e-11
threshold=-0.82228845357894886 -0.80949184298515309 0.99427029490470897 -0.82511517405509938 -1.5269312262535093 1.1923936009407046 -0.76601684093475331 -1.878095209598541 1.2134733796119692 0.94809463620185863 -0.17679620534181592 1.0589103102684023 0.95088961720466625 1.0712606906890871 -0.99164071679115284 1.2416940927505495 0.87036332488060009 0.69298651814460765 0.89247471094131481 0.9521467685699464 0.66327211260795604 -1.0944554209709165 -0.79683232307434071 -0.95090216398239125 -1.0564241409301756 0.59786224365234386 0.90740141272544872 1.1154976487159731 -0.97697359323501576 -1.1747650504112241 -0.18774426728487012 -0.68965396285057057 -0.80045828223228443 -1.4624672532081602 0.99804791808128368 0.71144101023674022 0.993818759918213 1.0801734924316408 0.94810992479324352 0.74484154582023632 0.86718624830245983
decision_type=2 2 2 2 2 2 2 2 2 2 2 2 2 2 2 2 2 2 2 2 2 2 2 2 2 2 2 2 2 2 2 2 2 2 2 2 2 2 2 2 2
left_child=1 11 3 5 28 6 -3 8 9 -4 -7 12 22 15 31 17 -17 -13 -6 29 30 -21 23 -1 -10 -24 -16 -22 -5 -14 -9 -15 33 -2 35 -35 38 -37 39 40 -34
right_child=32 2 7 4 18 10 -8 20 24 -11 -12 13 19 14 26 16 -18 -19 -20 21 27 -23 25 -25 -26 -27 -28 -29 -30 -31 -32 -33 36 34 -36 37 -38 -39 -40 -41 -42
leaf_value=0.10978446025447455 0.16465376939143006 0.094823246624683402 0.05792199849959101 -0.0030130597283749001 0.092577253824309549 0.010715731734015953 0.18033349833559281 0.22500870347200896 0.18099022430619879 0.12746568881454087 0.21090054732466537 0.11257241343835565 0.29240698842848079 -0.024167597274342787 0.1320780468221841 -0.072739180953396473 0.12395390652121462 0.14838994354358001 -0.037142352757496853 0.073068903446822306 -0.03488118462768322 0.16955376443964376 0.0064551254686958555 0.038219217711067295 0.10281489590755313 0.28508106987696191 -0.025057217507102214 0.14004573316129496 -0.10838898986460828 0.16330154825655949 0.10669767251784845 0.24213178567350899 -0.1041075059283611 -0.12692870436091502 0.13817853294866059 -0.10410254762795111 -0.11564969675203843 -0.10733166728323867 -0.10522474329475909 -0.10409377638216788 -0.10410686626259538
leaf_weight=1164.0102599263191 18.235244322568182 37053.623744122684 3488.7586559429765 527.49288452789187 2198.5938183963299 1781.9508458338678 1528.5231756418943 1180.518052443862 2263.1469230204821 3213.5260734781623 201.37399758398533 27485.550676725805 120.29598020017147 22.031151473522186 801.17173823714256 295.62767720222473 277.33697916567326 5014.6577461883426 315.68807628750801 1421.2823528051376 110.10320442914963 631.46300360560417 73.555947214365005 4135.0453913733363 877.03155278414488 147.48796458542347 174.30546340346336 382.7271604090929 377.00174664705992 1720.8516143709421 136.30396161973476 1075.851435944438 197.41000454127789 1.3921941593289369 4.584440466016531 1.1735208332538607 1.5186971239745606 0.8328106366097926 1.6477041989564885 1.1334205158054818 0.75784850120544334
leaf_count=2990 21 107525 11962 2575 6236 9830 2081 1731 1918 7663 308 63597 145 84 1745 1492 564 8016 1282 4283 440 1485 300 14239 2305 211 650 805 1884 3442 387 1062 5209 10 21 31 14 15 36 30 20
internal_value=0 0.104889 0.097805 0.0909443 0.0436888 0.0949269 0.0982109 0.123703 0.112926 0.0912659 0.0310412 0.113733 0.0908712 0.119856 0.174314 0.116442 0.0224679 0.118099 0.0762899 0.135369 0.182316 0.102749 0.0594825 0.0539395 0.159156 0.192364 0.104 0.100965 -0.0469347 0.171737 0.212762 0.236788 -0.0780549 0.123872 0.0307165 -0.114245 -0.104203 -0.105443 -0.104117 -0.104107 -0.104108
internal_weight=0 100197 55636.4 43984.2 3418.78 40565.5 38582.1 11652.1 9842.46 6702.28 1983.32 44560.5 9413.99 35146.5 2073.36 33073.2 572.965 32500.2 2514.28 3893.89 1809.65 2052.75 5520.1 5299.06 3140.18 221.044 975.477 492.83 904.495 1841.15 1316.82 1097.88 228.686 26.2182 7.98297 3.39853 202.468 2.00633 200.949 199.301 198.168
internal_count=268644 263237 158932 131721 11977 119744 109606 27211 23848 19625 10138 104305 27095 77210 3541 73669 2056 71613 7518 9355 3363 5768 17740 17229 4223 511 2395 1245 4459 3587 2118 1146 5407 98 77 56 5309 46 5295 5259 5229
is_linear=0
shrinkage=0.1


Tree=7
num_leaves=41
num_cat=0
split_feature=114 40 59 117 71 110 110 73 48 28 132 129 127 102 135 82 108 98 53 120 32 111 90 33 104 37 32 32 42 104 107 78 115 105 79 43 64 5 111 46
split_gain=589.358 536.68 869.431 701.833 609.606 535.705 790.116 501.281 537.958 952.912 844.927 360.975 346.702 299.159 231.937 216.216 203.312 371.531 276.55 153.71 106.843 105.137 92.8252 69.6574 115.071 50.7703 16.8946 17.3475 0.989176 0.493284 0.321747 0.0962528 0.0502956 0.0452163 0.039222 0.0146615 0.0045458 0.00436885 1.53201e-05 1.64675e-10
threshold=-0.82228845357894886 1.0715841650962832 0.85179704427719127 -1.5373661518096922 -0.35120014846324915 -1.1824598312377927 -1.2103152871131895 -0.93999475240707386 1.16049200296402 1.1304361820220949 1.0000000180025095e-35 1.0000000180025095e-35 -3.3052557706832881 -0.59011363983154286 1.0000000180025095e-35 -0.17794337123632428 -1.0532597303390501 -0.76929897069931019 1.1136052012443545 -0.90186920762062062 0.94810992479324352 -1.0754297971725462 -1.0562773942947385 0.8370712697505952 -0.71154958009719838 0.95622831583023082 0.95112335681915294 0.95900845527648937 1.1421120762825014 -0.72128787636756886 -0.97309964895248402 -0.38895539939403528 -0.82617986202239979 -0.79892653226852406 -0.73178929090499867 1.0274393558502199 0.40710529685020452 0.63966068625450145 -0.80045828223228443 0.75525283813476574
decision_type=2 2 2 2 2 2 2 2 2 2 2 2 2 2 2 2 2 2 2 2 2 2 2 2 2 2 2 2 2 2 2 2 2 2 2 2 2 2 2 2
left_child=1 2 7 5 11 6 -4 19 10 -10 -9 -5 -6 14 16 -7 18 -18 -3 22 35 -21 -1 24 -15 -26 -22 32 34 31 -30 -25 -28 -31 -16 38 -37 -34 -2 -40
right_child=20 13 3 4 12 15 -8 8 9 -11 -12 -13 -14 23 28 -17 17 -19 -20 21 26 -23 -24 29 25 -27 27 -29 30 33 -32 -33 37 -35 -36 36 -38 -39 39 -41
leaf_value=0.1593815523904325 -0.10404395763485473 -0.0098056056764246405 0.17915071636606394 0.043073871335833507 -0.11197608561521222 0.18786792898743424 -0.029910877828747736 0.085690751383430908 0.088880987060842909 0.16247566912803363 0.1288688391680238 0.12366995845003592 0.011224121498381189 0.31931238096415343 -0.15076292263544244 -0.12326129910537971 0.1568905273161515 0.069532588334811837 0.15855339159585805 -0.15394023774194948 0.16807611642850659 0.10534234682136889 -0.071807359246419497 -0.14715742028490433 -0.1120020603615513 0.34258092241998206 -0.13230200258559063 0.16782722318519827 -0.19174777551575625 -0.12544458728163066 -0.1599317319879496 -0.12804767099303113 -0.11553713869466049 -0.11764220859343222 -0.13808899979726669 -0.11426301032453941 -0.10553255564757121 -0.10766636194576527 -0.10370139713385076 -0.10369984728502635
leaf_weight=1492.513436794281 1.3150161951780308 102.14884680509567 306.05778832733631 1779.7619537040591 257.63904884830117 673.46169871464372 441.63219253718853 78807.256306104362 4768.3710849285126 2788.1067531108856 4808.5564755946398 807.99922051280737 2014.0418254062533 11.264711800962685 4.1115095764398575 23.102255325764418 856.14412119984627 1128.6493459641933 2174.8944782838225 16.022100567817688 17.61075567826629 654.03858713805676 17.571751832962036 9.2883037775754911 23.101584710180763 2.7492623552680007 2.1952434629201907 3.5205233097076416 11.736254766583444 9.6319469884037954 4.3590450733900061 3.6800287663936606 1.6788635365664926 32.452574960887432 6.0126278847455996 1.7143237330019467 0.91456872597336758 1.2160541266202924 179.39107172936201 0.68810854852199455
leaf_count=1834 36 365 557 6266 2948 652 2144 201558 12644 5593 9743 1966 8317 21 19 186 1543 2892 1752 71 26 1313 77 45 275 7 21 4 48 61 20 25 24 264 31 19 24 21 5212 20
internal_value=0 0.0906948 0.089189 0.0532446 0.035054 0.11445 0.0556659 0.0916162 0.090483 0.116035 0.0881738 0.0682391 -0.00274843 0.124953 0.128785 0.177549 0.130609 0.107215 0.151001 0.139004 -0.076902 0.0991425 0.156691 -0.0533019 0.0525758 -0.0636567 0.111949 -0.00284468 -0.167726 -0.124683 -0.183131 -0.141735 -0.120887 -0.119428 -0.143236 -0.103811 -0.111226 -0.112231 -0.103704 -0.103701
internal_weight=0 104036 99656.1 6303.7 4859.44 1444.25 747.69 93352.4 91172.3 7556.48 83615.8 2587.76 2271.68 4380.22 4288.06 696.564 4261.84 1984.79 2277.04 2180.15 210.245 670.061 1510.09 92.1684 37.1156 25.8508 26.2214 8.61068 26.2194 55.0529 16.0953 12.9683 5.09016 42.0845 10.1241 184.023 2.62889 2.89492 181.394 180.079
internal_count=268644 263237 255869 23036 19497 3539 2701 232833 229538 18237 211301 8232 11265 7368 6670 838 6552 4435 2117 3295 5407 1384 1911 698 303 282 96 70 118 395 68 70 66 325 50 5311 43 45 5268 5232
is_linear=0
shrinkage=0.1


Tree=8
num_leaves=63
num_cat=0
split_feature=31 132 135 0 75 105 46 31 31 105 39 56 136 32 73 31 134 30 106 32 36 106 133 70 23 1 130 30 127 33 75 41 116 107 124 117 95 53 41 72 31 22 103 103 31 73 31 104 119 39 71 108 107 72 122 108 66 29 47 41 32 109
split_gain=526.361 752.981 1010.93 712.976 1280.37 1075.27 1251.08 709.901 677.401 620.081 605.128 714.883 566.81 1441.45 1693.34 886.063 1103.91 985.732 877.374 523.995 497.205 489.701 489.074 479.427 412.831 481.841 394.33 387.286 358.021 487.162 356.539 508.242 393.341 311.231 310.505 870.404 577.841 297.039 286.674 378.923 309.532 285.6 242.329 228.111 184.674 178.54 166.435 134.881 129.378 126.511 101.57 99.4921 125.382 98.2078 96.8513 91.4849 77.1916 40.5591 26.9638 26.5396 23.0286 0.0105967
threshold=0.99804791808128368 1.0000000180025095e-35 1.0000000180025095e-35 0.27815395593643194 -1.0013456940650938 -0.89036253094673146 1.1382281184196474 0.97472503781318676 0.97186589241027843 -0.92214661836624134 1.0393121242523196 1.0194912552833559 1.0000000180025095e-35 0.9600341022014619 -0.80117338895797718 1.0044431090354922 1.0000000180025095e-35 1.0682016611099245 -0.87215313315391529 0.96071678400039684 0.95836597681045543 -0.90784791111946095 1.0000000180025095e-35 -0.11357627063989638 1.3269280195236208 0.51974633336067211 1.0000000180025095e-35 1.0968273878097536 -1.7720163464546201 0.93494620919227611 -1.0690444111824033 1.0383797883987429 -0.96864035725593556 -0.9719177484512328 -1.4439282417297361 -1.0291295051574705 -0.95406919717788685 1.1136052012443545 1.010148882865906 -0.63565480709075917 1.0172020792961123 1.6035389900207522 -0.79313096404075611 -0.84397923946380604 1.0036135315895083 -0.78901749849319447 1.0074959993362429 -0.85830357670783985 -1.1202552318572996 0.97941029071807872 -0.35120014846324915 -1.0841309428215025 -0.99711662530899037 -0.59055384993553151 -1.2386438846588133 -1.045707583427429 0.28059421479702001 1.2303344011306765 1.2224093079566958 0.99044230580329906 0.94865921139717113 -1.1243482828140257
decision_type=2 2 2 2 2 2 2 2 2 2 2 2 2 2 2 2 2 2 2 2 2 2 2 2 2 2 2 2 2 2 2 2 2 2 2 2 2 2 2 2 2 2 2 2 2 2 2 2 2 2 2 2 2 2 2 2 2 2 2 2 2 2
left_child=1 2 3 5 20 22 -7 9 10 57 11 23 15 14 24 16 34 19 38 -18 -5 -13 -1 -3 25 -14 -6 -11 29 48 32 -32 -20 50 35 -2 -36 58 40 -40 -17 -35 -31 -19 56 54 -26 51 -15 -47 -9 61 -53 -46 -16 -39 -30 -4 -12 -49 -61 -10
right_child=12 8 7 4 26 6 -8 33 47 27 37 21 13 28 45 18 17 43 30 -21 -22 -23 -24 -25 46 -27 -28 -29 44 42 31 -33 -34 41 36 -37 -38 55 39 -41 -42 -43 -44 -45 53 49 -48 59 -50 -51 -52 52 -54 -55 -56 -57 -58 -59 -60 60 -62 -63
leaf_value=-0.011483218472291506 0.067195190816443859 0.070606492918735872 -0.13259334976372927 0.055015005843146531 -0.0030763551848944286 -0.081270906895498152 0.072678007428831765 0.00083375689906684382 -0.13197650721818807 0.076014646976210465 -0.14349807989857055 0.14509436878230234 0.095641128508997003 -0.11704556881550612 -0.15748491401813106 0.081837828043092822 0.11021639239503758 0.19045583782239839 0.084177124928693864 -0.017890559967360328 0.10661446818125771 -0.050374138768134819 0.14209520265730111 0.1241599783793379 0.079620921310183917 0.19266007965751694 0.10069620787886127 -0.069326926719266616 0.055411935022591521 0.15697232904620231 -0.038902182317835175 0.059735386507523261 0.029843901006091762 0.11824848834817028 0.076807304625295392 -0.10433976088724835 0.14494891848074692 0.14979787451964124 0.17512428544102773 0.084142892492723553 -0.011638474694639946 -0.1357197034967742 0.025223499265909777 -0.080038218602960051 0.19473531475866693 -0.090799981181599057 -0.015728049446596084 0.094083697698761654 0.062621441349176646 -0.0090525837024576453 0.23033440280625711 0.23522543630500614 0.15244891205554023 -0.0043492745119715339 0.028001806176640699 0.017992517239556659 0.2084062063931289 -0.042408828770790961 0.10828051184264763 -0.14524006776568837 0.10211571168124596 -0.13815592985394953
leaf_weight=224.14039101451635 4703.3140363395214 6611.2872207108885 140.75888983905315 17490.488067833707 4826.2703720778227 591.63469454646111 4898.4466990083456 299.52795469760895 5.3239648342132568 5532.5506604425609 39.568216823041439 158.47747834771872 1295.3593270629644 42.764340683817863 29.795668676495552 4875.0758689939976 6417.8894514292479 1839.1099207252264 2237.2006452679634 336.00349660217762 2090.6506900116801 670.12387315928936 2768.861400231719 2237.3754333890975 1467.5186472535133 846.38456748425961 396.2437557131052 189.62131085991859 151.5022175014019 2062.7374693006277 1210.5153646022081 918.92733165621758 3294.5507191494107 6617.9798947125673 8317.4759163018316 315.66547702997923 1463.4263881444931 1687.5297163054347 759.13199657201767 1153.1113718003035 382.00151886045933 44.577442869544029 149.74350076913834 31.714385956525803 1672.7867692410946 458.49178695678711 209.16059452295303 10.557687848806379 638.43326890468597 322.45481306314468 20.611003577709198 215.96449540555477 1198.3877243846655 25.150810539722443 509.69778272509575 54.356509480625391 42.153208419680595 77.229104205965996 4.7657780051231375 19.081349432468418 4.6885835975408545 5.7964221984148008
leaf_count=882 12019 17415 678 54191 18884 3820 14081 1065 29 12941 199 321 2395 185 129 11143 12464 1534 4926 1131 4851 5326 6215 3834 2895 732 1025 806 362 2947 4225 2335 9318 12446 19649 1372 2404 1148 1018 2745 1321 238 409 111 1536 1827 596 24 1609 1056 27 237 1526 73 1275 204 40 315 9 89 8 29
internal_value=0 0.0725331 0.0665655 0.0573496 0.0487906 0.0823751 0.0560878 0.0903038 0.0938712 0.0648922 0.0857012 0.0758303 0.0866137 0.107909 0.0711324 0.0810892 0.0931988 0.121636 0.0619623 0.103843 0.0605242 -0.012989 0.130594 0.0841474 0.104889 0.133982 0.0047971 0.0711983 0.147403 0.125288 0.0384332 0.0036633 0.0518178 0.111921 0.0766269 0.0564066 0.0870027 0.139179 0.0871056 0.120261 0.0750454 0.116549 0.148055 0.18587 0.181234 -0.0264836 0.0677264 0.158029 0.0513423 -0.0570463 0.0156093 0.162746 0.165088 0.191786 0.0177576 0.145685 0.0887144 -0.100643 -0.116433 -0.0378498 -0.0964495 -0.135197
internal_weight=0 59132.9 46209.6 33286.7 24803.7 8483.08 5490.08 12922.9 12923.3 5940.16 11463.5 9677.26 48179.2 9924.13 5138.86 38255.1 23424.6 8624.72 14830.5 6753.89 19581.1 828.601 2993 8848.66 3818.42 2141.74 5222.51 5722.17 4785.27 2893.68 7661.19 2129.44 5531.75 6982.7 14799.9 5018.98 9780.9 1786.22 7169.32 1912.24 5257.08 6662.56 2212.48 1870.82 1891.59 1320.44 1676.68 1459.8 681.198 780.947 320.139 1425.47 1414.35 1697.94 539.493 1741.89 193.655 217.988 44.334 34.3276 23.7699 11.1204
internal_count=268644 162863 132465 103949 78951 24998 17901 28516 30398 14740 28456 26896 105781 18066 10905 87715 50684 15240 37031 13595 59042 5647 7097 21249 6618 3127 19909 13747 7161 5150 20804 6560 14244 13776 35444 13391 22053 1560 16227 3763 12464 12684 3356 1645 2011 4287 3491 1942 1794 2883 1092 1821 1763 1609 1404 1352 402 993 208 121 97 58
is_linear=0
shrinkage=0.1


Tree=9
num_leaves=57
num_cat=0
split_feature=41 30 45 58 39 132 46 36 50 124 102 125 94 36 58 107 122 23 61 30 117 70 50 121 109 124 29 71 31 97 45 110 42 102 103 70 39 74 41 46 16 107 59 45 49 68 33 28 119 74 106 104 103 111 54 91
split_gain=492.592 629.591 979.032 889.945 703.381 656.761 612.795 550.508 678.621 576.194 530.429 515.928 916.28 614.76 636.167 525.984 334.57 264.7 260.661 243.898 233.222 226.831 188.641 169.544 149.731 337.067 148.582 134.401 128.531 124.996 124.17 113.799 96.9638 74.1697 69.7275 117.219 65.7863 60.7163 66.7069 54.8276 52.9013 49.6373 74.4848 42.726 37.2136 30.4386 9.90824 22.155 9.34032 1.46003 0.851999 0.767646 0.00820108 0.00576901 0.00380476 0.00510639
threshold=1.1120777726173403 1.0445609092712405 1.1309421658515932 0.85991773009300243 0.91038319468498241 1.0000000180025095e-35 1.1134164929389956 0.92487967014312755 1.12963342666626 -1.4304888248443601 -0.98555240035057057 -1.5767163038253782 -0.96853637695312489 0.95055636763572704 0.89080679416656505 -0.95672187209129322 -1.3531090617179868 1.25614869594574 0.73264089226722728 1.0322746038436892 -1.1086198687553404 -0.27420823276042933 1.1346815228462221 -1.8581170439720152 -1.115777790546417 -2.0448355674743648 1.1798946261405947 -0.50678279995918263 0.98482990264892589 -0.83974802494049061 1.2122148275375368 -0.57486069202423085 1.104487478733063 -0.93863561749458302 -0.6495566964149474 -0.091456912457942949 0.99085369706153881 -0.83980250358581532 1.1201458573341372 1.243488669395447 1.4891907572746279 -0.97674635052680958 0.90075126290321361 1.2099463343620303 1.2039518952369692 0.14404477924108508 0.83975178003311168 0.91046395897865307 -1.6587536931037901 -0.39724716544151301 -0.9318946599960326 -0.73485079407691944 -0.63655060529708851 -1.2478365898132322 1.0829303264617922 -0.23136889934539792
decision_type=2 2 2 2 2 2 2 2 2 2 2 2 2 2 2 2 2 2 2 2 2 2 2 2 2 2 2 2 2 2 2 2 2 2 2 2 2 2 2 2 2 2 2 2 2 2 2 2 2 2 2 2 2 2 2 2
left_child=1 4 3 5 10 6 -3 8 -5 -9 26 12 32 14 -13 -14 20 22 -15 33 21 -4 -18 46 30 41 31 -21 -7 -19 43 -1 -6 -12 39 -36 -22 45 -39 -32 -28 42 -26 50 -43 -27 47 52 -45 51 -25 -48 -2 -54 -51 -56
right_child=23 2 16 7 11 28 -8 9 -10 -11 19 13 15 18 -16 -17 17 29 -20 27 36 -23 -24 24 25 37 40 -29 -30 -31 34 -33 -34 -35 35 -37 -38 38 -40 -41 -42 44 -44 48 -46 -47 49 -49 -50 54 -52 -53 53 -55 55 -57
leaf_value=0.029637826338590564 -0.11818612087247138 0.069167107676243275 0.044858476171429795 -0.028658153395387371 -0.13437217057881271 0.11158627097478423 0.10393664607595204 0.01623961544895676 0.071409115640805751 0.095196001656209409 -0.041516140642535254 0.07732465029488754 0.070663425083849193 0.14583589491448426 -0.026284178935336907 0.039798719726495797 -0.039318953681021715 0.15487384122859915 0.062062249099553338 -0.024588695174737177 0.17141038860977478 0.12859509102500485 0.11199945758958951 -0.14166481357116087 -0.19580324058950491 0.055544805589780956 0.24964529510183908 0.092393851739801303 0.16543960667026331 0.24136358749793707 0.13551654099544191 0.18403695915073212 0.10210612060542107 -0.11170877134726907 -0.11904996268117139 0.3079134306312804 -0.12959689238335723 0.051574300134608946 0.12277633651371521 0.1904835720148744 0.11409185328607568 0.15580859260432134 0.11377378763846968 0.11733380740497586 -0.14869029257814448 0.19679603726963346 -0.19438476872618859 0.18431059454644849 -0.010390578559207827 -0.11686740684534627 -0.19027145892973285 -0.14164457468235833 -0.10988566999298424 -0.11668640287202668 -0.12361171817379885 -0.11797814471835984
leaf_weight=480.1014992557466 2.1220403835177413 56226.183546863496 563.74833202362061 2027.0703125298023 285.12331292778254 2126.4857900291681 5571.2038490474224 1598.3434363752604 1018.0853824913502 2191.5502144694328 238.61524190194905 4977.6597267799079 10829.977705143392 1700.9651213437319 672.71185102686286 11264.087365981191 98.75394769012928 1664.4282691627741 475.17307928204536 356.60727675259113 8.2261888682842237 759.09165455400944 497.05726300179958 12.271917209029199 11.473644345998762 18.118822380900383 47.860373258590698 135.53846207261086 559.86624397337437 185.74296420812607 1278.1623295545578 53.006803503260016 18.461832404136658 407.8245351370424 23.91890125721693 8.7942237518727762 61.866838708519936 218.36020843684673 331.07987884432077 211.49220972508192 72.254897072911263 4.2673202753067008 24.089686550199986 11.188305556774141 67.494915667921305 96.554145857691765 6.8250478208065033 3.3391384631395331 11.726362466812132 2.8251002281904238 5.1068708300590506 4.6333569884300214 6.4769845567643625 1.5448707714676855 3.841091573238371 2.7687330245971697
leaf_count=1905 18 130030 1507 6933 1439 2784 11681 4629 2519 4440 1616 12395 28404 2650 2429 36222 329 2189 1146 1335 16 1333 774 76 47 44 42 344 515 146 825 92 37 5250 201 21 268 499 495 89 107 8 30 11 404 88 29 2 29 24 22 27 85 17 25 22
internal_value=0 0.0684145 0.0734169 0.070769 0.0566712 0.0744058 0.0723017 0.0364579 0.00479729 0.0618971 -0.00420433 0.0602802 0.0525569 0.0823823 0.0649894 0.0549279 0.122611 0.144889 0.127543 -0.0454156 0.0834905 0.0929095 0.0869189 0.11452 0.117767 0.0817196 0.067628 0.00762866 0.12281 0.163557 0.135563 0.0449897 -0.119991 -0.0857991 0.140149 -0.00426999 -0.0942704 0.108292 0.094479 0.14332 0.168104 -0.0827087 0.0138963 -0.0377051 -0.130583 0.174478 -0.105943 -0.0391121 0.0519721 -0.149071 -0.155948 -0.173059 -0.112658 -0.111195 -0.119939 -0.121252
internal_weight=0 107174 75157.7 71318.8 32016 64483.7 61797.4 6835.05 3045.16 3789.89 1791.81 30224.2 22397.7 7826.51 5650.37 22094.1 3838.92 2445.98 2176.14 1138.59 1392.93 1322.84 595.811 2368.48 2334.1 771.439 653.224 492.146 2686.35 1850.17 1562.66 533.108 303.585 646.44 1522.37 32.7131 70.093 664.113 549.44 1489.65 120.115 107.326 35.5633 40.2935 71.7622 114.673 34.3764 13.483 22.9147 20.8933 17.3788 11.4584 10.1439 8.02186 9.43492 6.60982
internal_count=268644 265506 170093 163531 95413 145010 141711 18521 9452 9069 10691 84722 66102 18620 14824 64626 6562 3438 3796 8545 3124 2840 1103 3138 2889 1615 2146 1679 3299 2335 1274 1997 1476 6866 1136 222 284 1126 994 914 149 489 77 138 412 132 249 122 40 127 98 56 120 102 71 47
is_linear=0
shrinkage=0.1


Tree=10
num_leaves=61
num_cat=0
split_feature=39 126 94 124 113 125 37 106 41 125 35 33 30 33 10 117 36 117 92 37 124 110 43 27 32 71 36 101 60 42 58 77 121 70 31 54 39 107 51 123 72 70 130 63 130 129 25 125 43 48 98 74 37 82 105 51 122 94 38 106
split_gain=482.394 732.305 1214.49 717.154 1110.88 575.887 487.221 687.307 710.85 621.848 600.88 461.517 441.409 439.732 411.003 398.705 250.34 302.997 250.111 210.79 482.916 332.144 217.998 198.342 196.552 191.99 320.888 198.023 181.605 178.661 323.837 173.827 164.017 150.922 133.113 126.587 122.065 112.293 340.013 111.927 90.5376 75.3833 75.2912 71.3717 51.9635 47.4817 47.47 29.5881 28.2337 28.1231 24.3311 21.2724 19.641 1.09531 0.336544 0.606432 0.15387 0.0103624 0.00441162 0.00218416
threshold=1.0380405187606814 -1.6456277966499326 -0.98857241868972767 -1.4327389001846311 -0.96242377161979664 -1.5989223122596739 0.95726600289344799 -0.83793708682060231 1.0281068086624148 -1.4361777305603025 0.90772506594657909 0.82778948545455944 1.0619035363197329 0.92931473255157482 0.73334291577339183 -0.95959198474884022 0.95727232098579418 -0.99445492029190052 -1.0344159007072447 0.97612386941909801 -1.6490891575813291 -0.99191284179687489 1.1660643815994265 1.1921137571334841 0.94892004132270824 -0.33421541750431055 0.9805874526500703 -0.73551714420318592 0.80965811014175426 1.0865880846977236 0.89247471094131481 -1.2875929474830625 -1.8581170439720152 -0.19017926603555677 1.0049540400505068 1.0769192576408388 1.0442785024642947 -0.97789296507835377 1.2035640478134157 -1.5825383663177488 -0.48788599669933314 -0.18537746369838712 1.0000000180025095e-35 0.53692358732223522 1.0000000180025095e-35 1.0000000180025095e-35 1.3001015782356264 -1.8147950768470762 1.0368767976760866 1.2129755020141604 -0.81443312764167775 -0.63746172189712513 0.96601420640945446 -0.26307925581932062 -0.81224948167800892 1.170953154563904 -1.1877096295356748 -0.27411635220050806 1.0031201839447024 -0.89414772391319264
decision_type=2 2 2 2 2 2 2 2 2 2 2 2 2 2 2 2 2 2 2 2 2 2 2 2 2 2 2 2 2 2 2 2 2 2 2 2 2 2 2 2 2 2 2 2 2 2 2 2 2 2 2 2 2 2 2 2 2 2 2 2
left_child=1 2 14 4 11 -6 7 8 12 15 -11 -4 -3 18 16 -9 17 -1 -5 32 21 24 47 -10 42 27 36 41 29 30 -8 -15 53 -18 46 51 -27 49 -39 -24 -28 -22 -21 -26 -29 -31 -16 -23 -36 -37 56 -34 -53 54 55 -2 -30 58 -55 -59
right_child=19 6 3 13 5 -7 28 9 23 10 -12 -13 -14 31 34 -17 33 -19 -20 20 25 22 39 -25 43 26 40 44 50 45 -32 -33 35 -35 48 37 -38 38 -40 -41 -42 -43 -44 -45 -46 -47 -48 -49 -50 -51 -52 52 -54 57 -56 -57 -58 59 -60 -61
leaf_value=-0.020301571071929064 -0.14699812867996156 0.048294598426398355 -0.010782480972570459 0.032753112317355955 -0.11890648612943107 0.010431035477120702 0.11442350683280585 0.0073038711750571016 0.072702861253853918 0.026177155328595544 0.087300954143623682 0.055780711255697148 0.073342247412750028 0.027588683318285224 0.20957340179303682 -0.1197540158203841 0.18090335204943758 -0.11258168491598075 0.12017129384986232 -0.026352651338420154 0.098343806055247937 -0.12373745858755957 -0.15756742595309314 0.16060116784970535 -0.16512590875518154 -0.10094890639394918 0.16737874423065277 -0.14385954252723948 -0.17108207545841114 0.13471054125519116 -0.0042079278345416391 0.14124246790447667 0.12786492214343168 -0.054929646191346243 -0.16361269284258284 0.045353379888835199 0.031608760081300792 -0.15514160046903336 0.13656045021628291 0.14804387210057376 -0.0797639535726751 0.14447828866867329 0.079227556701268631 0.096349976404442372 0.11431295976410681 0.20146727097649944 0.10247591859856515 -0.041832125071776319 0.1032259819103713 0.13422765781120755 0.088929654755576293 0.05887547736864699 -0.14524835096451341 -0.12248448957772462 -0.13593930247499622 -0.19813191435984867 -0.15060155742696202 -0.1159736857670972 -0.11731329393283602 -0.11129517277989726
leaf_weight=1441.8491666316986 4.937297545373438 8837.8155941367149 1068.0587903298438 1066.0365927517414 508.97967109270394 1063.7653429359198 1993.4532991498709 1297.2860286384821 335.58288484811783 3718.7042610943317 2833.9516942165792 42117.160324953496 34504.112472429872 146.27684955298901 75.092229038476944 305.04604808986187 83.090787827968597 472.38721396028996 472.28444942831993 279.19821739941835 544.18894103914499 192.42840756475925 14.896595194935797 1092.3476498425007 10.624926477670668 94.458002559840679 206.19238376617432 34.469166412949562 4.2934360206127193 195.49748374521732 260.13314428180456 1681.5514118820429 4.6011200398206702 40.295795425772667 18.101136103272442 36.399910032749176 262.56618338823318 56.299995303153992 137.67408892139792 61.288809642195702 15.971039265394209 1014.3767388239503 89.096802480518818 596.8361020386219 10.074794188141821 234.16545979678631 92.205103084445 57.22083868086338 5.077530324459075 1630.3521212339401 4.8121419697999945 5.9230543375015285 23.090242855250835 4.1701399907469749 3.8721468001604107 4.3741637617349625 25.19655142351985 2.5295576006174088 2.729587234556675 1.6479390300810317
leaf_count=4384 25 22185 6006 2667 2609 3396 3654 3787 684 14766 6027 110779 68195 392 54 1326 69 2062 680 909 941 838 66 1249 46 458 224 172 18 282 877 2348 9 149 77 86 751 282 276 78 58 1484 222 1037 25 189 142 199 11 1005 8 14 113 30 24 19 116 22 23 20
internal_value=0 0.0598717 0.051134 0.0544757 0.051128 -0.0314258 0.0677787 0.0656583 0.070522 0.0389573 0.0526125 0.0541345 0.0682348 0.0989894 -0.0210436 -0.0168849 -0.0341751 -0.0430741 0.0595916 0.0905054 0.0758469 0.0276384 -0.059779 0.139944 0.0568298 0.1046 0.0552537 0.122428 0.109074 0.111997 0.10073 0.132147 0.117123 0.103885 0.119431 0.120432 -0.00346206 0.123906 0.0518954 0.0882874 0.149612 0.12837 -0.000811011 0.0917766 -0.085467 0.171093 0.150547 -0.104964 -0.105159 0.132287 -0.119562 -0.071897 -0.103577 -0.141239 -0.160716 -0.171019 -0.153583 -0.118059 -0.120439 -0.114128
internal_weight=0 105995 50352.2 48124.1 44758 1572.75 55642.4 52924.8 44769.9 8154.99 6552.66 43185.2 43341.9 3366.15 2228.1 1602.33 2037.62 1914.24 1538.32 5402.49 3483.89 1301.59 325.835 1427.93 975.756 2182.3 579.188 1603.11 2717.55 2683.25 2253.59 1827.83 1918.6 123.387 190.476 1894.34 357.024 1860.73 193.974 76.1854 222.163 1558.57 368.295 607.461 44.544 429.663 167.297 249.649 23.1787 1666.75 34.3021 33.6144 29.0133 24.2608 13.1836 9.31146 29.49 11.0772 6.89973 4.1775
internal_count=268644 259188 135825 128877 122790 6005 123363 118219 92313 25906 20793 116785 90380 6087 6948 5113 6664 6446 3347 9456 7508 3395 1181 1933 2214 4113 1491 2622 5144 5002 4531 2740 1948 218 284 1785 1209 1649 558 144 282 2425 1131 1083 197 471 196 1037 88 1091 142 136 127 163 68 44 134 95 53 42
is_linear=0
shrinkage=0.1


Tree=11
num_leaves=59
num_cat=0
split_feature=40 126 109 0 31 127 94 2 119 115 122 38 0 124 5 133 105 135 42 129 116 123 41 124 111 95 106 124 41 51 99 105 129 72 136 38 60 123 117 98 35 100 75 46 89 68 67 58 92 69 85 74 47 52 56 41 41 27
split_gain=428.136 628.787 1039.37 722.932 687.652 626.698 1061.81 524.167 508.936 431.685 557.08 502.279 391.967 825.723 565.121 801.781 553.128 494.15 318.56 338.996 297.73 258.038 235.774 368.483 430.924 216.294 213.751 313.72 313.185 221.119 222.601 207.061 154.815 124.092 113.706 103.16 100.134 100.081 84.2086 70.8002 68.0964 62.3346 91.9448 56.2359 43.9007 96.3878 35.4188 34.8602 30.9123 23.2859 17.0948 2.22094 0.894193 0.848228 0.488502 0.299923 0.0507278 0.0429877
threshold=1.0715841650962832 -1.7975429296493528 -0.90463766455650318 0.35082466900348669 0.99895513057708751 -1.7823944091796873 -0.99431639909744252 0.52055880427360546 -1.0146998763084409 -0.91766196489334095 -1.1025667190551756 0.95445373654365551 0.30026446282863622 -1.5778503417968748 0.56451407074928295 1.0000000180025095e-35 -0.89101332426071156 1.0000000180025095e-35 1.104487478733063 1.0000000180025095e-35 -1.0448727011680601 -1.3297108411788938 1.0760563015937807 -1.5449054837226865 -0.9295189082622527 -0.9017311930656432 -0.9042534828186034 -1.6490891575813291 1.1151052713394167 1.2035640478134157 -0.75610265135765065 -0.90067702531814564 1.0000000180025095e-35 -0.49453604221343989 1.0000000180025095e-35 1.0330948829650881 0.86036339402198803 -2.1960865259170528 -1.0563550591468809 -0.47162026166915888 0.88382646441459667 -0.48330590128898615 -0.48168517649173731 1.2134733796119692 -1.0632604360580442 0.11771580949425699 0.23139105737209323 0.92242050170898449 -0.94548535346984852 0.086853269487619414 -1.2011016011238096 -0.42413957417011255 1.2125024199485781 1.1453658342361452 0.99190738797187816 1.1095497012138369 1.1095497012138369 1.0696781873703005
decision_type=2 2 2 2 2 2 2 2 2 2 2 2 2 2 2 2 2 2 2 2 2 2 2 2 2 2 2 2 2 2 2 2 2 2 2 2 2 2 2 2 2 2 2 2 2 2 2 2 2 2 2 2 2 2 2 2 2 2
left_child=1 2 12 4 18 6 21 -8 20 11 -11 -7 13 16 17 -16 -1 -14 19 -3 -6 -5 34 47 -25 -15 31 28 29 30 -28 39 37 44 50 55 -31 40 -20 51 -33 42 -30 -39 45 -29 -46 -24 -37 -43 -4 52 -2 57 -10 -35 -53 -34
right_child=26 3 22 5 8 9 7 -9 54 10 -12 -13 14 25 15 -17 -18 -19 38 -21 -22 -23 23 24 -26 -27 27 33 41 36 -32 32 53 35 -36 48 -38 43 -40 -41 -42 49 -44 -45 46 -47 -48 -49 -50 -51 -52 56 -54 -55 -56 -57 -58 -59
leaf_value=0.073886598708649789 -0.14978154635706872 0.022734618100298885 -0.14190924995433218 0.078922962624086379 0.16763280976305017 0.05974799916003231 0.035361288717093292 0.081533471265090307 -0.16509048776537308 -0.018971248873909129 0.050517794090867797 0.089099093299129295 0.0047385033180063537 -0.016521282075239778 0.096717149550436282 0.0023757459864811839 0.03582681799561007 0.094899189411689192 -0.097911249013656221 0.089991452803302202 0.1017367179730841 -0.064448570249571027 -0.13171468538304784 0.10617401242125764 -0.11059362992702067 0.15072770614592843 0.060648707017938112 -0.049348617465141527 0.063846447271498075 0.16894787124885391 -0.094179355645142529 0.20478111398516954 -0.1420345707585822 -0.14068666646591838 0.17959224173804766 0.012036754759965311 -0.049523991782729641 0.0569402071409034 0.1256892622406503 0.21341975201643759 -0.14409946454934705 -0.11396953414255628 0.15905976401877869 0.12069368674654422 0.09389168071497811 0.11482495570655504 0.19897944392889655 -0.045303439210271974 0.19192601272235146 0.13463631241712481 -0.0098470051162374995 -0.12699146700654459 -0.19063365733058871 -0.19300296373702316 -0.14599209495691531 -0.16724963576407326 -0.11672431819991308 -0.15336508885178335
leaf_weight=5644.3627526387572 11.298507064580916 1962.7949044555426 312.58539079874754 140.738122433424 1327.1687833964825 38567.453272789717 11456.785977900028 3130.5628853142262 19.084059402346611 1336.0717706829309 8450.934258338064 6868.741982281208 6536.70436437428 83.764236971735954 2360.3388170450926 1456.8792811483145 11804.300509046763 670.21754656732082 17.235000565648079 1212.2698977906257 1418.4703072384 1161.9076854586601 219.89940002560616 279.82020707428455 136.41928713768721 1005.8001890182495 126.3911001086235 37.774263456463814 444.37280759960413 74.943220488727093 350.01937982067466 7.2788121327757862 12.164958298206335 29.668964222073555 11.698872730135916 21.152262464165688 29.135118462145329 148.62280842661858 739.90232688933611 6.2815622240304938 24.17897954583168 21.947857506573204 131.41574573516846 2003.3534619212151 46.833181574940681 671.14549590647221 101.75803807377815 59.269705705344677 17.419294789433479 4.5484631061553946 10.119121141731737 11.876922622323042 10.190594941377638 4.7539977878332129 44.909551560878754 4.9614908695220938 8.0901503860950452 4.6201745569705954
leaf_count=13235 55 6677 1542 307 1318 80084 29002 6671 81 4289 22804 12723 20237 239 4915 5102 36147 1485 61 2591 2183 4219 1127 576 702 1335 279 107 903 111 1541 11 60 149 17 53 175 368 1055 3 152 249 93 1556 73 1058 86 295 12 20 45 72 44 20 212 21 76 21
internal_value=0 0.0532399 0.0410926 0.058013 0.0893092 0.055046 0.0375454 0.0452702 0.127092 0.0600817 0.0410315 0.0641851 0.0445328 0.0534124 0.0296008 0.0607108 0.0481385 0.0131231 0.0623131 0.0484139 0.133589 -0.0489587 -0.0576648 -0.0244843 0.0351301 0.13787 0.0851781 0.062335 0.0281584 -0.0242563 -0.0531037 0.106609 0.11107 0.105767 -0.126666 -0.0192073 0.10779 0.113702 0.120599 -0.0994382 -0.0633743 0.0786764 0.0855776 0.116291 0.116436 0.106077 0.165858 -0.113369 0.0932765 -0.0712929 -0.137768 -0.146843 -0.169154 -0.155714 -0.151688 -0.144492 -0.122831 -0.145153
internal_weight=0 108447 30592.2 77855 6741.83 71113.2 15890 14587.3 2809.63 55223.2 9787.01 45436.2 29562.4 18538.2 11024.1 3817.22 17448.7 7206.92 3932.2 3175.06 2745.64 1302.65 1029.81 695.409 416.239 1089.56 4366.2 2113.49 1182.77 580.489 476.41 2252.71 2204.97 930.713 334.403 73.202 104.078 2183.43 757.137 47.7377 31.4578 602.285 575.789 2151.98 857.511 708.92 148.591 279.169 38.5716 26.4963 322.705 41.4562 21.4891 21.5391 63.9936 34.6305 19.9671 16.7851
internal_count=268644 261276 86999 174277 14178 160099 40199 35673 3794 119900 27093 92807 82695 50956 31739 10017 49382 21722 10384 9268 3501 4526 4304 2700 1278 1574 7368 4930 3371 2106 1820 2438 2188 1559 1604 235 286 2087 1116 250 163 1265 996 1924 1324 1165 159 1422 65 269 1587 247 99 101 293 170 148 81
is_linear=0
shrinkage=0.1


Tree=12
num_leaves=56
num_cat=0
split_feature=117 127 124 35 71 117 130 70 9 29 132 136 42 109 19 105 39 46 80 111 46 46 107 42 131 93 43 73 52 78 112 39 117 75 108 58 7 33 41 106 58 73 79 57 70 38 72 79 54 71 109 10 49 58 57
split_gain=406.452 701.185 456.856 628.535 688.694 625.54 446.196 421.074 412.029 717.709 462.088 341.251 345.178 329.506 299.13 290.532 233.874 225.193 217.296 221.545 400.014 560.88 391.875 260.926 185.59 176.773 167.8 75.2264 44.9644 35.796 48.9205 33.3044 28.7353 66.2217 15.285 6.98693 15.8501 1.84669 0.663747 0.988481 0.877135 0.56438 0.494698 0.328227 0.258714 0.222649 0.202311 0.194957 0.087961 0.0824935 0.0751463 0.0375075 0.0179675 0.0126873 0.00228756
threshold=-1.5373661518096922 -3.3052557706832881 -1.5382551550865171 0.9420607089996339 -0.37996266782283777 -1.0761936902999876 1.0000000180025095e-35 -0.11885643377900122 0.57011747360229503 1.0915718674659731 1.0000000180025095e-35 1.0000000180025095e-35 1.1173131465911867 -1.1383853554725645 1.1571516990661623 -0.76860147714614857 1.0158185958862307 1.1347529292106631 -0.23577006161212918 -1.2478365898132322 1.2134733796119692 1.1898756027221682 -0.98018068075180043 1.137850344181061 1.0000000180025095e-35 -0.32911895215511316 1.1436632275581362 -0.40392319858074183 1.1435837745666506 -0.49713622033596033 -1.325664162635803 1.0170828700065615 -1.5429958701133726 -0.49228054285049433 -1.0532597303390501 0.92064335942268383 0.091597974300384535 0.83975178003311168 1.1095497012138369 -0.89779141545295704 0.92615586519241344 -0.39633949100971216 -0.34398730099201197 0.97012618184089672 -0.11885643377900122 0.9956897795200349 -0.27234734594821924 -0.34398730099201197 1.0780404806137087 -0.17679620534181592 -1.0877915024757383 0.1893107742071152 1.1923936009407046 0.92427220940589916 0.98118722438812267
decision_type=2 2 2 2 2 2 2 2 2 2 2 2 2 2 2 2 2 2 2 2 2 2 2 2 2 2 2 2 2 2 2 2 2 2 2 2 2 2 2 2 2 2 2 2 2 2 2 2 2 2 2 2 2 2 2
left_child=7 35 5 4 6 8 -4 13 9 -3 -10 12 -7 16 -6 24 29 -13 19 20 21 -9 -22 28 -5 27 -17 -18 -21 30 -1 -27 38 45 -25 37 43 42 40 -40 -15 -39 44 47 -2 -34 53 -37 -48 -45 -50 -31 -44 -20 -55
right_child=1 2 3 15 14 11 -8 18 10 -11 -12 17 -14 32 -16 26 25 -19 46 23 22 -23 -24 34 -26 31 -28 -29 -30 51 -32 -33 33 -35 -36 36 -38 41 39 -41 -42 -43 52 49 -46 -47 48 -49 50 -51 -52 -53 -54 54 -56
leaf_value=0.22380379661486416 -0.13332318841359506 0.036453581819054885 0.053682955933615099 0.1077982576500771 -0.058715145565650217 -0.08872287883156027 0.029764266020472021 0.14611307890566741 0.01739973405824843 0.080780792123492873 0.077089366067917151 0.1763451048633069 0.046173579560858533 -0.14037478680476678 0.14559569434983502 -0.011126910935449735 0.15717913437046033 -0.095406655227779261 -0.11832926756271903 0.16008240596605394 0.11680472354618739 -0.12255312395585534 -0.046011231713219317 0.090238269696579179 -0.12883647561830686 0.15713119699733344 0.14338813639398129 -0.069240496213431924 0.10097512132244497 -0.13435911756392035 -0.1432246597857629 -0.14317835006015034 -0.13611252208446475 0.14276217947996048 -0.13580784524897688 -0.13544832775978977 0.065014193143034318 -0.16107944864816168 -0.19882507347923001 -0.14175174628733367 -0.12297220520753505 -0.20613946620679435 -0.12456037964952282 -0.10895103087865168 -0.15495972113561995 -0.16204723324827891 -0.13695392217849922 -0.11479226502851576 -0.11986586935426054 -0.11431113647088989 -0.13419147699649506 -0.14445854991898655 -0.11645362497968409 -0.11014798626345124 -0.1073505948529484
leaf_weight=6.9932485669851303 8.9258833080530149 12031.839569285512 67361.366479644552 2931.0512798652053 769.36124989017844 766.48569202423096 8820.4641785137355 125.64914204180241 9765.9599848389626 5244.9036280661821 1495.5787396430969 113.99580180644989 252.07080945372581 61.701875790953636 79.020268689841032 362.30462628602982 188.41206243634224 41.629617527127266 1.7138676568865765 757.886574447155 1490.2078872472048 203.63790177181363 164.1062969379127 3.270961955189704 33.522441267967224 4.2119536176323882 87.198777228593826 15.91312889754772 155.02889620885253 3.9723317921161643 7.5545922815799695 29.964665174484253 17.714340716600422 13.217866651713846 34.998492870479822 8.1022075340151805 5.2344775050878516 5.20462866127491 3.6269640028476742 18.580600909888744 54.584491670131683 5.9658175110816938 6.8026278614997882 162.63599234074354 14.510636776685713 4.0709494650363913 4.8124430477619198 10.478677354753016 21.978948637843136 34.868525173515081 4.3936734944581977 49.503538146615028 4.5710941106081009 8.3591968603432161 4.4952661395072928
leaf_count=9 49 32559 144315 4774 3340 3339 24543 113 29323 11342 3059 169 656 305 112 1237 277 160 14 426 1384 805 949 4 131 8 100 60 311 22 36 154 97 29 228 47 15 23 15 104 369 24 44 2355 65 19 26 99 175 347 27 233 39 105 74
internal_value=0 0.0474703 0.0478628 0.0517767 0.0499158 0.0372663 0.0509136 0.0822745 0.0402095 0.0499105 0.0253268 -0.0342664 -0.0553389 -0.00464606 -0.0396851 0.0937633 0.0576863 0.103652 0.0962733 0.0996446 0.0806186 -0.0200356 0.100654 0.139321 0.105122 0.104335 0.0188473 0.139545 0.150045 -0.105872 0.0332085 -0.106168 -0.114772 -0.0338203 -0.116487 -0.114297 -0.106928 -0.149767 -0.135231 -0.151073 -0.132206 -0.185145 -0.138415 -0.111093 -0.146719 -0.140959 -0.119976 -0.123799 -0.124521 -0.109897 -0.122253 -0.143708 -0.121302 -0.110247 -0.10917
internal_weight=0 110424 110157 80444.3 77030.2 29712.5 76181.8 3460.56 28538.3 17276.7 11261.5 1174.18 1018.56 480.023 848.382 3414.08 306.526 155.625 2980.54 2934.79 1983.6 329.287 1654.31 951.185 2964.57 238.502 449.503 204.325 912.915 68.0237 14.5478 34.1766 173.497 35.0032 38.2695 267.301 221.32 45.9807 138.494 22.2076 116.286 11.1704 34.8102 216.085 23.4365 21.7853 45.7534 18.5809 31.1851 197.505 26.3726 53.4759 11.3737 14.5683 12.8545
internal_count=268644 262266 259159 178552 172310 80607 168858 6378 76283 43901 32382 4324 3995 1737 3452 6242 799 329 4641 4220 3251 918 2333 969 4905 499 1337 337 737 300 45 162 938 145 232 3107 2863 244 793 119 674 47 197 2848 114 116 421 146 228 2702 202 255 83 193 179
is_linear=0
shrinkage=0.1


Tree=13
num_leaves=62
num_cat=0
split_feature=41 31 0 133 134 54 31 33 113 71 0 31 130 37 58 37 57 31 131 73 45 119 125 101 126 118 109 124 19 121 56 45 71 40 71 42 101 46 107 36 72 73 102 45 6 38 51 105 101 100 106 83 105 132 74 107 30 53 105 102 19
split_gain=393.824 461.949 664.235 551.198 540.242 704.791 664.906 482.861 563.732 446.75 711.903 396.51 381.206 567.155 609.406 686.692 403.965 395.151 551.35 413.322 522.022 431.299 353.497 338.375 283.639 260.566 125.539 242.942 121.899 112.182 106.28 100.055 50.8715 81.8629 72.1359 109.448 67.5887 45.9651 192.798 41.2504 40.9372 86.4458 33.855 28.5756 27.4972 18.3668 11.3341 15.1601 7.41727 23.3729 2.25712 1.87559 1.3717 0.979114 0.967139 0.314483 0.249935 0.217971 0.128302 0.0628472 0.00589845
threshold=1.1120777726173403 0.9973181188106538 0.61063876748085033 1.0000000180025095e-35 1.0000000180025095e-35 1.0552946925163271 0.99293527007102977 0.78495267033576976 -0.91119554638862599 -0.62270188331603993 0.54666885733604442 0.99585488438606273 1.0000000180025095e-35 0.95474958419799816 0.85329782962799083 0.92908343672752391 0.90124964714050304 1.013522267341614 1.0000000180025095e-35 -0.80868193507194508 1.1127319335937502 -1.0791370272636411 -1.5660738945007322 -0.94427356123924244 -1.8123800158500669 -0.96611782908439625 -1.115777790546417 -2.0448355674743648 1.4818986058235171 -1.8581170439720152 0.92853811383247387 1.2122148275375368 -0.33798104524612421 1.0825836062431338 -0.30741000175476069 1.153454661369324 -0.7690695822238921 1.243488669395447 -0.97552636265754689 0.9665299952030183 -0.37177434563636774 -0.45579022169113154 -0.80947157740592945 1.2099463343620303 0.31719611585140234 0.9956897795200349 1.1946347355842593 -0.81224948167800892 -0.97603607177734364 -0.9734547734260558 -0.89899006485939015 -0.33969014883041376 -0.79892653226852406 1.0000000180025095e-35 -0.39724716544151301 -0.98373869061470021 1.0948299765586855 1.1267490983009341 -0.79892653226852406 -0.57672190666198719 0.82052519917488109
decision_type=2 2 2 2 2 2 2 2 2 2 2 2 2 2 2 2 2 2 2 2 2 2 2 2 2 2 2 2 2 2 2 2 2 2 2 2 2 2 2 2 2 2 2 2 2 2 2 2 2 2 2 2 2 2 2 2 2 2 2 2 2
left_child=1 2 4 7 9 11 -7 8 -4 23 -11 -6 17 14 15 -14 42 19 25 21 -21 -3 -16 -1 -18 -19 29 40 -9 46 -20 43 33 44 39 -36 -35 38 -33 -34 50 -42 -15 53 -29 -39 54 -48 49 -5 57 -45 -43 -31 55 -2 -50 -28 -52 -49 -56
right_child=26 12 3 48 5 6 -8 28 -10 10 -12 -13 13 16 22 -17 24 18 30 20 -22 -23 -24 -25 -26 -27 27 32 -30 31 -32 37 34 36 35 -37 -38 45 -40 -41 41 52 -44 51 -46 -47 47 59 56 -51 58 -53 -54 -55 60 -57 -58 -59 -60 -61 -62
leaf_value=0.043470331971051358 -0.17384675824092255 0.10191606013437503 0.057873209868131881 -0.14123243209217942 -0.067336691331301143 0.0025537565855467395 0.14532983325635263 0.1205492893352457 -0.090183047622756266 0.034547663405499543 0.082566860541131909 0.021161102123109315 0.0059705393308219423 0.14473569842154241 -0.13747455141805254 0.1105103704521808 -0.010845632239837385 0.067644364570955504 -0.04046457300595422 0.031700988146226704 0.061601966683705656 0.058770277108128967 -0.018569599952414459 -0.016588445887394613 0.085629983796906034 -0.12703110337328619 -0.1722747363090309 0.055475108830170733 0.076409938074971095 -0.12682997916295716 -0.1315988305657014 0.11111721417082557 0.0074206443321113971 0.097239012009327969 -0.033491409434905473 0.11143748592038485 -0.061555389043499359 0.23328608201100473 -0.13617053254561354 0.13331950111209875 0.095413220200607635 -0.15143147208087884 0.25350611414353991 -0.0088617959227233253 0.22186660051603929 0.14388509472467947 0.17340454631963029 -0.13296545633811765 -0.137236213621033 0.12244582405733001 -0.14880501480997521 0.050699058075565268 -0.11379786115610124 -0.1765324470652182 -0.11247553804517077 -0.13649858209849006 -0.12820510818851072 -0.19678068456070819 -0.13081270086622401 -0.10785192112481867 -0.11770477878229767
leaf_weight=1426.4765206631273 6.2478379458189011 2629.7928927987814 4216.4980815201998 10.718017324805258 1555.774139046669 979.67115186527371 488.97426149249077 1567.9422461614013 273.87314919382334 39948.56245960854 3345.9764316529036 750.50788043439388 2703.4195092879236 37.48068805038929 341.4822902828455 818.61281581223011 413.45594021677971 927.10339531302452 552.01757308840752 13236.89642688632 10446.709508568048 19471.007567156106 933.55808797478676 2739.9715181943029 1158.9656648635864 74.260840952396393 4.6843477934598949 17.347283571958542 1041.1247977912426 7.0769786313176164 166.57980544865131 1090.6941825002432 28.694930985569954 38.745507270097733 95.439097166061401 114.76727931201458 86.970940083265305 26.33184614405036 32.466637130826712 279.65860703587532 27.713698990643024 22.284261882305145 120.98211853206158 10.163279049098493 23.233607098460197 180.52451832219958 3.1456139087677002 1.6905639395117757 46.537931472063065 4.8980227261781684 12.322179153561594 11.019625127315519 17.130273219197989 9.0090206414461136 3.175660889595747 3.5274079181253946 89.725959658622742 16.119173392653465 5.8425211608409873 2.4271259717643252 6.7249142341315746
leaf_count=3220 28 3746 7850 53 5879 3217 735 1514 4393 107854 5628 2082 7689 51 1441 1444 1176 1725 1728 30557 20686 35774 3009 8651 2013 305 20 38 1580 56 669 760 77 42 265 138 271 37 231 280 38 108 50 25 15 108 1 11 239 12 57 15 213 42 36 29 536 65 36 39 57
internal_value=0 0.0425208 0.0363622 0.0646898 0.0323531 -0.00405696 0.05009 0.0687224 0.0488431 0.035249 0.0382588 -0.0385378 0.0491871 0.0265286 0.00882312 0.0302683 0.0755986 0.0523008 0.0052449 0.0540685 0.0448901 0.0639042 -0.0504148 0.00397402 0.0602625 0.0532073 0.085384 0.0535613 0.102936 0.103437 -0.0615906 0.107419 0.0753749 0.0272473 0.0908089 0.045636 -0.0126153 0.111947 0.103969 0.121604 -0.087246 -0.0399187 0.227779 -0.0541829 0.150739 0.155265 -0.0986478 0.00811021 -0.123808 -0.0585289 -0.168774 0.0221225 -0.135075 -0.154666 -0.138057 -0.16037 -0.131289 -0.191263 -0.143018 -0.118163 -0.116027
internal_weight=0 112520 58487.2 7251.32 51235.9 3774.93 1468.65 7099.44 4490.37 47461 43294.5 2306.28 54032.3 6527.96 4797.07 3522.03 1730.88 47504.4 1719.96 45784.4 23683.6 22100.8 1275.04 4166.45 1572.42 1001.36 2185.18 790.954 2609.07 1394.23 718.597 1367.29 684.857 166.297 518.56 210.206 125.716 1330.02 1123.16 308.354 106.096 67.1282 158.463 37.2689 40.5809 206.856 26.9391 7.2633 151.88 15.616 38.9682 21.1829 39.4145 16.086 19.6758 9.77525 136.264 20.8035 18.1647 4.11769 9.90058
internal_count=268644 265506 153443 16177 137266 11913 3952 15337 12243 125353 113482 7961 112063 16873 13583 9133 3290 95190 4427 90763 51243 39520 4450 11871 3189 2030 3138 1663 3094 1475 2397 1274 1126 366 760 403 313 1136 991 357 537 359 101 138 53 145 201 51 840 65 178 40 321 98 150 57 775 85 93 50 93
is_linear=0
shrinkage=0.1


Tree=14
num_leaves=57
num_cat=0
split_feature=117 92 30 129 52 71 44 56 59 32 136 136 129 124 70 32 109 118 103 39 80 111 46 46 107 42 103 73 52 78 85 117 75 38 25 108 10 38 56 41 106 58 5 1 38 72 71 58 54 109 52 58 105 57 39 106
split_gain=371.052 573.143 365.437 642.626 758.275 569.755 498.136 654.413 508.735 455.574 1188.78 486.649 455.043 404.948 351.001 290.202 273.096 207.488 191.951 187.788 180.264 190.56 326.795 459.639 335.407 207.509 149.829 124.848 45.1269 31.0803 41.3146 26.0908 54.1549 15.2614 22.3274 11.6864 2.31753 1.23735 0.489996 0.48191 0.74847 0.643924 0.170727 0.162325 0.15785 0.156833 0.0897841 0.0857201 0.065493 0.0572456 0.0270552 0.00985835 0.00909124 0.00191163 0.00152955 0.00116711
threshold=-1.5373661518096922 -0.28897818922996515 1.0532907843589785 1.0000000180025095e-35 1.1064103841781618 -0.48960871994495386 1.0912854671478274 0.95108970999717724 0.80924937129020702 0.96302136778831493 1.0000000180025095e-35 1.0000000180025095e-35 1.0000000180025095e-35 -1.5517274141311643 -0.11885643377900122 0.95985975861549389 -1.1383853554725645 -0.98326134681701649 -0.79313096404075611 1.0158185958862307 -0.23577006161212918 -1.2478365898132322 1.2134733796119692 1.1898756027221682 -0.98135834932327259 1.137850344181061 -0.68464910984039296 -0.40392319858074183 1.1420656442642214 -0.49713622033596033 -0.36703796684741968 -1.5429958701133726 -0.49228054285049433 0.99427029490470897 1.0241923928260805 -1.0532597303390501 0.13991248607635501 0.99641764163970958 1.0117283463478091 1.1095497012138369 -0.89779141545295704 0.92615586519241344 0.060604237020015723 -0.23620022833347318 0.9956897795200349 -0.27234734594821924 -0.17679620534181592 0.92615586519241344 1.0780404806137087 -1.0877915024757383 1.1363005638122561 0.92427220940589916 -0.78251326084136952 0.98118722438812267 1.0183306932449343 -0.85493332147598255
decision_type=2 2 2 2 2 2 2 2 2 2 2 2 2 2 2 2 2 2 2 2 2 2 2 2 2 2 2 2 2 2 2 2 2 2 2 2 2 2 2 2 2 2 2 2 2 2 2 2 2 2 2 2 2 2 2 2
left_child=14 2 9 6 5 -5 7 -4 -8 10 12 13 -2 -11 16 -12 19 -6 -13 29 21 22 23 -16 -24 28 27 -21 -23 30 -1 39 44 36 52 -27 43 -28 42 41 -41 -18 -38 46 -33 51 -3 -45 -47 -50 -31 -22 -35 -53 -40 -54
right_child=1 33 3 4 17 -7 8 -9 -10 11 15 18 -14 -15 20 -17 31 -19 -20 26 45 25 24 -25 -26 35 37 -29 -30 50 -32 32 -34 34 -36 -37 38 -39 54 40 -42 -43 -44 47 -46 48 -48 -49 49 -51 -52 53 55 -55 -56 -57
leaf_value=-0.14391315653533035 0.026697597033711697 -0.10574809815753555 0.044701808959033945 0.012185436755088576 0.13848263782708145 -0.084253642780679372 0.092446781976793541 -0.018069702042449818 0.0099617214115522556 0.00033069184321156696 -0.058375733530274254 0.10436900349613959 0.061716899709691776 0.049941728271351071 0.12890570762326856 0.012523528629095086 -0.13635758651474791 -0.14572181428129044 -0.0030266627101847008 0.14159983106106241 -0.1168446450358611 0.14578266230871648 0.1050987520998127 -0.11570137250804675 -0.041476129659561489 0.074837195838592316 -0.13490441343403295 -0.09523004318414649 0.090236447156228222 -0.14037921689504337 0.18999984201069756 -0.13274040146291011 0.11780938223149401 -0.11945064942086142 0.23460642330243986 -0.13109402219130781 -0.13649795091606093 -0.19763511560936409 -0.11305570393907416 -0.18737741788046841 -0.13714351295584265 -0.12105108092686954 -0.15404691532412287 -0.11964653636224275 -0.1550740146988849 -0.13346574764004782 -0.11177527018005838 -0.11094721176628626 -0.11829044398330156 -0.13113476341565866 -0.13470562242705708 -0.10941610347032743 -0.11165902315340107 -0.1067589245935823 -0.11606472053726379 -0.10758844443828881
leaf_weight=7.3137568235397339 28938.204970983788 123.1270787678659 54114.816440165043 1824.5080613791943 414.92020210623741 922.27679730951786 3848.6818661689758 1713.4220956414938 928.01849865913391 2079.7754731848836 1930.9506870359182 1763.8418088108301 4256.2962186969817 7875.6239431425929 124.84636533260345 823.54725302755833 58.841150864958763 27.383385196328163 183.76271823048592 193.96921347081661 1.6054736152291287 711.11883279681206 1390.714791148901 199.70143682137132 175.85936432890594 3.0144104659557334 21.266178928315643 25.144699454307556 184.1316752396524 40.499465242028236 7.5105051249265653 16.815254658460621 13.973845846951006 1.5512129068374632 3.1512975692749023 32.110843166708946 24.949406959116459 3.689950466156005 6.5853967517614347 3.5842292159795788 17.19773406535387 51.573788821697235 7.1273767352104178 14.735546194016932 3.8983218967914572 4.5779246166348484 30.922912927344441 48.966443825513124 20.651734344661239 4.1706893891096106 10.606008663773535 7.855091664940117 1.6932702921330927 4.1314863450825214 2.2722203433513641 1.20607192069292
leaf_count=35 79262 2780 112822 4245 383 3037 6307 4929 2202 5773 7827 2301 9417 16943 113 2060 305 134 486 258 14 400 1347 805 986 4 120 105 337 198 10 97 29 13 1 228 138 16 66 15 104 369 33 117 19 26 338 592 175 27 57 105 20 74 20 20
internal_value=0 0.0378203 0.0381698 0.0431249 -0.00062835 -0.0201955 0.0454272 0.0427753 0.0764216 0.0315641 0.0259495 0.0485209 0.0311879 0.0395775 0.0716429 -0.0371781 -0.00788683 0.120887 0.0942359 0.0475284 0.0848554 0.087952 0.0697237 -0.0216064 0.0886447 0.125004 0.0879801 0.114422 0.134358 -0.102223 0.0252592 -0.111445 -0.0343162 -0.108714 0.0309389 -0.113421 -0.112818 -0.14418 -0.134648 -0.131837 -0.145807 -0.129208 -0.140397 -0.108714 -0.136944 -0.118369 -0.106958 -0.11296 -0.122475 -0.120449 -0.139202 -0.109486 -0.113272 -0.1085 -0.113828 -0.109966
internal_weight=0 111912 111646 63794 3189.09 2746.78 60604.9 55828.2 4776.7 47852 35949 11903 33194.5 9955.4 3340.37 2754.5 475.884 442.304 1947.6 310 2864.49 2821.5 1891.12 324.548 1566.57 930.376 244.07 219.114 895.251 65.9297 14.8243 165.884 34.6874 266.288 7.60185 35.1253 258.686 24.9561 40.9344 131.197 20.782 110.415 32.0768 217.752 20.7136 42.9924 154.05 63.702 29.4003 24.8224 51.1055 13.5921 4.45056 11.9866 8.85762 2.89934
internal_count=268644 262266 258128 134059 7799 7282 126260 117751 8509 124069 98566 25503 88679 22716 6378 9887 1737 517 2787 799 4641 4220 3251 918 2333 969 499 363 737 300 45 938 145 4138 54 232 4084 136 257 793 119 674 171 3827 116 421 3118 709 228 202 255 193 53 179 86 40
is_linear=0
shrinkage=0.1


Tree=15
num_leaves=63
num_cat=0
split_feature=39 29 45 73 29 58 71 60 70 109 39 53 37 109 109 108 127 94 51 101 46 98 122 73 70 33 104 7 119 31 71 74 124 105 43 123 111 109 32 62 49 38 12 108 40 54 43 58 59 73 50 58 119 36 43 41 33 105 38 40 32 40
split_gain=371.822 519.812 843.767 520.243 502.551 457.402 379.77 735.914 562.329 973.135 470.022 420.875 420.726 362.127 291.539 277.811 403.329 372.432 285.034 372.596 278.433 261.49 344.205 200.937 197.828 190.999 180.415 152.323 143.8 135.199 133.377 130.548 128.777 126.753 161.985 187.893 111.101 101.841 91.3186 81.4947 127.287 79.9042 73.9035 59.3587 57.6191 58.1827 50.478 90.8666 50.1989 46.4778 46.2314 29.2056 27.2344 20.5075 18.5396 28.5201 6.75065 1.76071 1.70119 0.763112 0.286605 0.274029
threshold=1.0314394831657412 1.0930674672126772 1.1309421658515932 -0.93596699833869923 1.2416940927505495 0.86116221547126781 -0.21411920338869092 0.79817458987236034 -0.14522112160921094 -1.1243482828140257 1.014014780521393 1.1248959898948672 0.90529587864875805 -1.1478472948074339 -1.1243482828140257 -1.0617561936378477 -2.0594370365142818 -0.90373554825782765 1.2035640478134157 -0.75980448722839344 1.2134733796119692 -0.74044254422187794 -1.3531090617179868 -0.75894245505332936 -0.1352996230125427 0.81792989373207103 -0.80010885000228871 0.87036332488060009 -1.652441620826721 1.012205243110657 -0.39319793879985804 -0.39724716544151301 -2.394070982933044 -0.76860147714614857 1.1436632275581362 -1.3457291722297666 -1.2285928726196287 -1.115777790546417 0.9398925006389619 0.68110585212707531 1.1749801039695742 0.98233672976493847 0.67375275492668163 -0.99314966797828663 1.0715841650962832 1.1019716262817385 1.1542398333549502 0.85146570205688488 0.85567870736122142 -0.61867284774780262 1.1882008314132693 0.93331214785575878 -0.95482578873634327 0.91333436965942394 1.1639166474342348 1.1072379350662234 0.84554263949394237 -0.79892653226852406 1.005108714103699 1.0715841650962832 0.96788749098777782 1.0749937891960146
decision_type=2 2 2 2 2 2 2 2 2 2 2 2 2 2 2 2 2 2 2 2 2 2 2 2 2 2 2 2 2 2 2 2 2 2 2 2 2 2 2 2 2 2 2 2 2 2 2 2 2 2 2 2 2 2 2 2 2 2 2 2 2 2
left_child=1 6 3 29 5 -5 7 8 10 -10 -1 14 30 -14 32 20 17 57 19 -19 24 22 23 -4 46 -16 -24 -6 36 38 -9 44 -8 39 35 -35 -13 -20 -3 42 -41 43 -18 -23 45 -22 47 -2 -48 -43 -46 -36 -31 -33 58 -56 -30 60 -26 -59 -17 -55
right_child=15 2 21 4 27 -7 11 12 9 -11 -12 28 13 -15 25 16 33 18 37 -21 31 41 26 -25 54 -27 -28 -29 56 52 -32 53 -34 34 51 -37 -38 -39 -40 40 -42 49 -44 -45 50 -47 48 -49 -50 -51 -52 -53 -54 61 55 -57 -58 59 -60 -61 -62 -63
leaf_value=0.0092802883480334018 0.16757918642645209 0.076232129444454691 -0.025777351378072084 0.036012413707895229 -0.11644068182656504 0.0088798133106672266 -0.12485459527762517 -0.013025049085657214 -0.10659987284566066 0.17064720133394215 0.043317076539743683 -0.042168231399648683 0.1198887845218565 -0.04939918434756093 -0.11680043006392352 -0.15372932703980527 0.13157504197619871 0.074056226161344121 0.14586142357605641 -0.0099904341295001184 0.13304169701546695 0.18170550675027558 0.10248220414203001 0.055808882674178328 -0.16523378930499441 0.1215666319198417 -0.048557085184255576 0.0097383885710097835 -0.11494498347120637 0.027837069098826096 0.24048563921964028 0.090673659093892356 0.15521446315177184 -0.12013972945286935 0.14443343479932588 0.058269396250497811 0.1546422617253983 0.059588559419181411 0.1466762683508783 -0.048105379731791964 0.075101810422176951 -0.16513307445472436 0.081653303923894971 0.02971539161428904 0.00076529242731382321 0.28315474061566298 0.16118438502836907 -0.15613383011417223 -0.056472734607885725 0.150190954103117 0.10178964745093638 0.018711472222639865 -0.15202010114483089 -0.13956426562004751 0.023638178385025188 -0.14517673748799148 -0.048051556271644487 -0.13086572252657205 -0.13264280086804819 -0.15262450665456317 -0.16969891345675528 -0.11895042094023077
leaf_weight=12624.668780274689 14.792076826095579 2310.1345111913979 370.86544707417488 69900.220123384148 288.53059895336628 6819.3463439010084 78.343064125627279 29.158200904726982 162.51777991652489 572.86242005228996 5978.4067356437445 68.274093199521303 133.33902727812529 2414.1234642788768 34.799049684777856 24.461734354496002 369.32781483232975 738.93043568730354 215.50024359673262 1843.1950269117951 184.20384082198143 323.14276628196239 2256.2513699382544 1622.7442703694105 35.424607962369919 988.32142450660467 81.957270190119743 143.13578769564629 132.16841678507626 11.784903869032858 71.998211398720741 5.1538735628128043 20.770035356283188 115.78430902957916 86.71349261701107 120.42935055494308 49.462776854634285 374.80206722021103 199.9495456777513 112.45835144072771 329.63597819209099 11.646986231207849 1504.6945218741894 27.914997160434723 46.76919512450695 30.029273822903633 60.155118122696877 20.955912113189697 12.861722663044928 7.8082786947488776 1440.6332830116153 23.481019079685211 29.477455794811249 9.8144761174917239 19.290289506316185 20.796697374433279 17.030013740062714 61.53291542828083 29.232953656464815 21.838920682668686 20.789168417453766 18.804904483258724
leaf_count=38716 14 3513 1105 152100 1327 17908 347 108 679 548 14017 508 189 10510 397 109 442 1322 207 5614 199 296 2942 3388 156 910 253 377 1812 29 161 18 15 596 83 250 109 893 151 375 562 49 2355 75 103 26 85 93 46 8 1165 50 144 52 47 118 103 354 171 100 87 158
internal_value=0 0.0332383 0.036893 0.0344645 0.0329953 0.0336007 0.0200421 0.0168383 0.023609 0.109376 0.0202186 0.0707504 -0.0325963 -0.0405383 0.0975953 0.0556975 0.0449857 0.0216298 0.0283931 0.0140613 0.0884749 0.078056 0.0711594 0.0406316 -0.0192846 0.113459 0.0971881 -0.0746011 -0.042109 0.0788922 0.167412 0.101733 -0.0661636 0.0739429 0.0175248 -0.029181 0.0405144 0.091084 0.0818436 0.082381 0.0437608 0.158687 0.0914918 0.16962 0.105597 0.154083 0.0751773 -0.0221854 0.122845 -0.0385793 0.0986131 0.117644 -0.100651 -0.0929517 -0.117372 -0.0639412 -0.10731 -0.145185 -0.150499 -0.136565 -0.161066 -0.12602
internal_weight=0 107781 84404.9 79702.6 77151.2 76719.6 23376.2 21987.1 19338.5 735.38 18603.1 1389.17 2648.62 2547.46 1122.23 7912.49 5963.58 3301.05 3172.43 2582.13 1948.92 4702.33 4331.82 1993.61 213.509 1023.12 2338.21 431.666 266.935 2551.35 101.156 1735.41 99.1131 2662.52 346.408 236.214 117.737 590.302 2510.08 2316.12 442.094 370.513 1874.02 351.058 1701.64 214.233 108.765 35.748 73.0168 19.4553 1487.4 110.195 41.2624 33.7733 104.745 40.087 149.198 128.623 64.6576 83.3718 45.2509 28.6194
internal_count=268644 252794 183665 175549 171712 170008 69129 64928 53960 1227 52733 4201 10968 10699 1669 15850 13399 8686 8036 6936 2451 8116 7688 4493 730 1307 3195 1704 2532 3837 269 1721 362 4713 979 846 617 1100 3664 3734 937 428 2797 371 1493 225 238 107 131 57 1268 133 173 228 492 165 1915 650 327 454 196 210
is_linear=0
shrinkage=0.1


Tree=16
num_leaves=50
num_cat=0
split_feature=41 125 94 0 123 117 44 58 39 30 43 35 82 118 127 41 45 92 99 92 0 131 136 2 31 130 85 74 99 135 121 109 124 45 109 131 71 49 107 53 107 51 105 106 74 103 107 105 23
split_gain=339.408 365.738 935.996 571.982 478.044 846.046 433.532 594.243 744.133 802.498 356.826 334.357 320.124 313.406 534.952 485.131 300.985 305.008 275.868 218.765 210.941 205.619 182.348 167.256 167.144 163.878 155.332 150.001 208.772 101.534 87.766 96.9296 161.209 83.318 73.9451 66.5392 43.3532 37.3522 36.7739 32.7189 22.2544 6.99047 13.7091 1.05495 0.952415 0.515379 0.136089 0.0562386 0.00474204
threshold=1.1120777726173403 -1.5244182348251341 -0.98575285077095021 0.45444071292877203 -1.3357192277908323 -1.0291295051574705 1.0995331406593325 0.85812589526176464 0.97268617153167736 1.0619035363197329 1.1164764761924746 0.8057372272014619 -1.4448564052581785 -1.0000619292259214 -1.7685923576354978 1.0669262409210207 1.0905538797378542 -1.0463203787803648 -0.84655749797821034 -1.0387308001518247 0.44301183521747595 1.0000000180025095e-35 1.0000000180025095e-35 0.48454412817955023 1.0049540400505068 1.0000000180025095e-35 -1.202492296695709 -0.95629790425300587 -0.85402050614356984 1.0000000180025095e-35 -1.8581170439720152 -1.115777790546417 -2.0448355674743648 1.2122148275375368 -0.91140004992485035 1.0000000180025095e-35 -0.33798104524612421 1.2239737510681155 -0.97674635052680958 1.0046155452728274 -1.0030459761619566 1.1946347355842593 -0.81224948167800892 -0.92278975248336781 -0.39724716544151301 -0.65983563661575306 -0.96400368213653553 -0.79563525319099415 0.98168379068374645
decision_type=2 2 2 2 2 2 2 2 2 2 2 2 2 2 2 2 2 2 2 2 2 2 2 2 2 2 2 2 2 2 2 2 2 2 2 2 2 2 2 2 2 2 2 2 2 2 2 2 2
left_child=1 2 3 22 5 11 7 8 9 -3 -7 -4 25 27 15 -15 17 -6 -10 -18 -14 -16 26 -24 34 -9 -1 28 -8 30 41 33 38 40 -5 -29 -34 -35 -33 -26 -32 44 -43 -31 45 -2 -45 -44 -46
right_child=29 6 4 24 16 10 13 12 18 -11 -12 -13 20 14 21 -17 19 -19 -20 -21 -22 -23 23 -25 39 -27 -28 35 -30 43 31 32 36 37 -36 -37 -38 -39 -40 -41 -42 42 47 46 48 -47 -48 -49 -50
leaf_value=-0.088730207634061586 -0.17611306559149548 0.0077210901021393169 -0.018608470518847172 0.056656252324179313 0.1029476077625 -0.075743790515479401 0.09450060553496481 0.080006349949977767 0.078843439199411988 0.039478850242250244 0.01316921089583787 0.028907108065285271 -0.01356445058940064 -0.10661914829948554 0.071030213585461577 0.08459042689024858 0.059884794065142459 -0.055868782112013717 -0.13437713126482129 0.12329444258014632 -0.13036305504116327 -0.03829700242489828 -0.06828545885183078 0.038352709506119159 0.025017358762992797 -0.09195799861826072 0.014574908933553218 0.11972573257563078 -0.076991574941534038 -0.20600488378586107 -0.016648555041128936 0.014408835007717797 0.020473442624202125 0.08083539429332906 0.16983321022999875 0.023382067991612902 0.079463390607391104 0.11651187379259727 -0.12209099494430985 -0.17244049252021398 -0.21024667111036896 0.15018383965712423 -0.13172215751932378 -0.16674813040689698 -0.1103169822930245 -0.12691435405722526 -0.14056568289861268 -0.10818892862897889 -0.11572936169296553
leaf_weight=1237.4711366295815 6.4142791852355003 10256.309144753963 1530.4593281187117 94.437598779797554 176.811533883214 1149.0584366731346 216.24144546687603 513.79703579843044 4253.2663165777922 35491.118421599269 743.36482874304056 45774.589623246342 2737.9900276064873 383.44530214369297 2747.3253284581006 202.90562327206135 2459.5501698851585 382.59154695272446 61.557820096611977 698.63210326433182 163.88259761035442 183.52301368117332 271.04853536188602 321.58647154271603 12.95377457141876 62.117116816341877 164.95392099022865 1260.0113521516323 105.6804189234972 7.8998351246118546 26.402653004974127 29.329784065485001 164.298205524683 593.93365685641766 148.51479747891426 76.009865641593933 515.42160561680794 580.07793642580509 60.343379486352205 23.827879458665848 7.660349413752555 2.866955041885376 1.2646099925041197 4.2220152318477631 2.1209529154002684 3.1871984805911797 3.7470355443656427 5.1546949930489045 6.8370572067797184
leaf_count=4511 29 30660 5152 155 263 4395 323 1042 6769 68269 2162 114990 7555 1512 5174 310 4579 1126 231 679 663 539 890 738 30 244 356 1472 347 33 98 60 359 584 103 168 753 538 385 99 38 1 8 18 28 31 23 87 65
internal_value=0 0.0305042 0.0246596 -0.03815 0.0273597 0.0247469 0.035998 0.0333265 0.0361032 0.0323589 -0.0408178 0.0273698 -0.00664466 0.0636364 0.0467406 -0.0404514 0.0619366 -0.0056714 0.0758015 0.0739119 -0.0201606 0.0641844 -0.0569265 -0.0104195 0.0957638 0.0614586 -0.0765794 0.0994796 0.0382032 0.0718449 0.0738387 0.0763213 0.0485787 0.0939898 0.12584 0.114244 0.0652047 0.0984631 -0.0774454 -0.1029 -0.0601864 -0.102459 -0.0316261 -0.180109 -0.137901 -0.159782 -0.154437 -0.112825 -0.114448
internal_weight=0 113905 55189.9 2274.79 52915.1 49197.5 58715.2 53540 50062.3 45747.4 1892.42 47305 3477.79 5175.14 3517.2 586.351 3717.59 559.403 4314.82 3158.18 2901.87 2930.85 1995.06 592.635 279.734 575.914 1402.43 1657.94 321.922 2021.18 2005.31 1977.47 769.393 1208.07 242.952 1336.02 679.72 1174.01 89.6732 36.7817 34.063 27.8457 9.28626 15.8689 18.5595 9.60148 7.96905 6.4193 8.95801
internal_count=268644 265506 140228 6882 133346 126699 125278 115433 105929 98929 6557 120142 9504 9845 7535 1822 6647 1389 7000 5258 8218 5713 6495 1628 387 1286 4867 2310 670 3138 3064 2815 1557 1258 258 1640 1112 1122 445 129 136 249 96 74 153 60 41 95 93
is_linear=0
shrinkage=0.1


Tree=17
num_leaves=60
num_cat=0
split_feature=39 74 108 135 36 104 4 53 107 107 61 118 126 30 101 0 70 105 45 31 51 125 3 125 31 64 6 82 122 37 31 47 127 72 105 41 34 106 62 35 105 69 129 106 52 73 0 110 107 24 50 107 132 73 48 105 73 74 124
split_gain=310.242 380.968 385.244 701.107 464.414 569.555 530.348 396.515 1117.87 946.48 830.873 384.225 609.64 470.795 664.541 442.276 362.639 359.34 342.035 334.051 354.438 285.688 258.748 253.982 252.888 234.931 229.018 196.969 191.387 168.82 165.169 159.736 285.906 178.763 223.686 202.553 149.328 113.244 112.679 166.031 130.72 108.956 107.36 103.151 132.586 74.6563 65.697 61.0791 32.0987 21.9319 19.6019 100.941 17.2182 14.2029 12.6341 6.77109 1.71275 1.2477 0.883804
threshold=1.0380405187606814 -0.91243693232536305 -1.0287922024726865 1.0000000180025095e-35 0.89191934466362011 -0.88491863012313832 0.54684519767761242 1.1087396740913393 -0.98018068075180043 -0.99256789684295643 0.72534117102622997 -1.0860103964805601 -1.7591333389282224 1.0957967042922976 -0.95205980539321888 0.6018243432044984 -0.069542519748210893 -0.88404920697212208 1.2007724642753603 0.99653145670890819 1.1023622155189516 -1.511090815067291 0.52438238263130199 -1.7055645585060117 0.99023398756980907 0.39802955090999609 0.60965749621391307 -1.2065947055816648 -1.3270644545555113 0.88346168398857128 0.97881421446800243 1.2246371507644656 -2.1279532909393306 -0.3207822442054748 -0.84232768416404713 1.1151052713394167 0.83267337083816539 -0.94842228293418873 0.68110585212707531 0.95181748270988475 -0.76860147714614857 -0.023314593359827992 1.0000000180025095e-35 -0.9042534828186034 1.1747226119041445 -0.72755411267280568 0.070996973663568511 -0.95965757966041554 -0.98135834932327259 0.95183685421943676 1.2020379900932314 -0.99368801712989796 1.0000000180025095e-35 -0.37088263034820551 1.2129755020141604 -0.90257790684700001 -0.35799634456634516 -0.39724716544151301 -1.5148387551307676
decision_type=2 2 2 2 2 2 2 2 2 2 2 2 2 2 2 2 2 2 2 2 2 2 2 2 2 2 2 2 2 2 2 2 2 2 2 2 2 2 2 2 2 2 2 2 2 2 2 2 2 2 2 2 2 2 2 2 2 2 2
left_child=1 11 7 4 5 -4 -6 8 10 18 -3 19 22 15 -15 -14 -11 24 -9 23 21 -21 27 26 -5 -24 -1 -13 -22 -19 -25 32 33 34 42 -36 -10 49 40 45 47 -41 -2 50 48 -40 -46 -34 -45 -33 51 -39 -52 54 -35 57 -55 -51 -42
right_child=31 2 3 17 6 -7 -8 9 36 16 -12 12 13 14 -16 -17 -18 29 -20 20 28 -23 25 30 -26 -27 -28 -29 -30 -31 -32 37 38 53 35 -37 -38 43 39 41 58 -43 -44 44 46 -47 -48 -49 -50 55 52 -53 -54 56 -56 -57 -58 -59 -60
leaf_value=0.054916331096185322 0.066402854262969851 0.036333335740852526 0.0059678103385579417 -0.041276961896414131 0.0085315456245129741 -0.058450271354188933 0.06927273365974497 -0.0081130073284792544 -0.13967259906357249 -0.076279351497178141 -0.08009870142155702 -0.080184209377458279 0.029261835245145109 0.052262816034195664 -0.048710450480120904 0.056383516198852818 0.10825153098388192 0.16997726540051239 0.10983905382348419 0.032753303345956004 0.022876430682004192 0.13007501983557371 -0.1307796456899287 -0.099891183638448761 0.05532618917733715 0.17466755375486598 0.26664987690619851 0.069087850744057308 0.13154475624687473 0.081068189374039507 0.010137169619676614 0.08854526600106695 0.1356491026464379 -0.15627591397987733 -0.05299913853155977 0.065643245568850206 0.12186449782103011 0.092111074836663892 0.0080076041348916462 -0.19053426726442496 -0.13315684615397627 0.065179089124122749 -0.11972875203409539 0.047204357789053665 0.038080706968620918 -0.13101614876794065 0.12105961387854865 0.077380429777746895 -0.11468894523259197 -0.17898724221150591 0.066244037231506833 -0.12817478997295034 0.11180470929098692 -0.1745075398314182 -0.31214007720413456 -0.29757935428878896 -0.11928828961355105 -0.12243540256369119 -0.17587112167134669
leaf_weight=309.5263931453228 599.86318466067314 7772.458005130291 3627.9380950462073 368.18429815769196 14684.328033715487 2207.7670155894011 1593.4388938993216 387.33187975734472 22.136768594384193 1208.174059227109 665.36818571388721 832.65623626857996 58715.220876909792 1054.9793744832277 1705.4748797118664 6698.5145979579538 116.79158604517579 307.44240347668529 673.01067984849215 1725.7413880974054 189.21100687980652 365.51432971656322 34.995064899325371 159.68669331818819 1026.4788955003023 89.786645337939262 61.182194784283638 98.897098407149315 1129.9374670833349 699.42519984394312 936.89365920424461 3.5184326618909862 221.84347654879093 9.2839139401912707 578.25058162212372 191.57339495420456 1580.6690245121717 313.88859807699919 81.850281551480293 17.136261627078056 7.4140984117984798 602.955222427845 32.676635280251503 15.517811030149458 300.63939842581749 73.145709946751595 139.77307902276516 951.40800420939922 58.103899117559195 8.3815504014492053 94.216527506709099 22.277834489941597 693.56854436546564 7.8106029555201557 11.824123375117777 4.0588738322257969 20.001469301059842 7.2986483126878747 13.974280685186384
leaf_count=792 1006 18690 10187 1176 40021 9983 3108 1264 119 6286 2459 3061 124852 1891 5073 14275 270 423 855 3610 394 409 135 601 2106 87 33 207 1205 1455 2573 7 204 48 2026 304 1588 272 189 70 42 1148 139 23 688 366 156 1417 255 36 136 70 448 40 60 19 170 58 59
internal_value=0 0.0269399 0.018644 0.0113735 0.00580045 -0.0184029 0.0144775 0.0329878 0.0416946 -0.00366218 0.027152 0.0310752 0.0291639 0.030332 -0.0101209 0.0320392 -0.0600135 0.0626904 0.0667524 0.0582022 0.0753676 0.0497634 -0.0462231 0.0183048 0.0298234 0.0890048 0.0898611 -0.0643369 0.115958 0.108216 -0.00588543 0.0522061 0.0398519 0.00617276 0.0127278 -0.0234746 0.118252 0.0776471 0.0646666 0.0349731 0.0839318 0.0581124 0.0567874 0.0807582 0.0436509 -0.0576005 0.0644156 0.0883981 -0.0805655 -0.141464 0.097729 0.0775127 0.106356 -0.181737 -0.243587 -0.182463 -0.134796 -0.152664 -0.161065
internal_weight=0 111049 36940.9 24515 22113.5 5835.71 16277.8 12425.9 10040.6 2385.31 8437.83 74108.2 69230.5 68174.2 2760.45 65413.7 1324.97 2401.53 1060.34 4877.69 3410.4 2091.26 1056.34 1467.29 1394.66 124.782 370.709 931.553 1319.15 1006.87 1096.58 5082.25 3421.01 1451.28 1402.36 769.824 1602.81 1661.24 1969.73 775.087 1194.64 620.091 632.54 1637.99 514.034 154.996 440.412 1173.25 73.6217 23.2575 1123.95 336.166 787.785 48.9201 21.108 19.7391 27.8121 15.6802 21.3884
internal_count=268644 259188 99990 68459 63299 20170 43129 31531 22856 8675 21149 159198 149581 146091 6964 139127 6556 5160 2119 9617 5618 4019 3490 3999 3282 222 825 3268 1599 1878 3174 9456 7288 3793 3475 2330 1707 2168 3495 1773 1722 1218 1145 2048 1122 555 844 1621 278 120 926 342 584 318 108 113 210 94 101
is_linear=0
shrinkage=0.1


Tree=18
num_leaves=63
num_cat=0
split_feature=40 31 30 129 96 74 136 32 73 31 134 30 106 29 122 74 6 127 32 134 77 133 37 79 75 42 108 50 98 41 70 42 106 30 0 47 45 69 29 44 72 57 121 71 17 120 43 36 103 98 98 102 1 37 75 7 53 81 121 46 73 73
split_gain=278.139 321.254 465.616 578.471 444.621 500.895 411.76 878.237 1094.61 658.949 759.515 899.242 609.332 411.241 343.429 468.307 342.889 341.409 339.667 335.161 330.553 316.915 297.058 285.939 262.785 194.55 169.667 162.857 151.292 249.071 155.346 147.562 145.159 138.006 121.154 100.268 81.7493 80.601 80.3609 105.872 72.4388 82.8694 63.1629 62.3877 57.787 55.5815 45.3804 41.8656 37.6095 37.0158 47.1392 33.4344 82.1341 33.1314 29.189 24.7391 6.44911 3.00462 1.73077 2.02224 0.527825 0.236462
threshold=1.0700457692146303 0.99769350886344921 1.0790340304374697 1.0000000180025095e-35 -0.99634698033332814 -0.99367025494575489 1.0000000180025095e-35 0.95985975861549389 -0.79466870427131642 1.004824221134186 1.0000000180025095e-35 1.0676150918006899 -0.87215313315391529 1.2355294823646548 -1.1372362375259397 -0.97320985794067372 0.81572195887565624 -1.7618024945259092 0.96229642629623424 1.0000000180025095e-35 -1.2785356044769285 1.0000000180025095e-35 0.92406675219535839 -1.427599251270294 -1.1656892895698545 0.91905316710472118 -1.0638728737831114 1.1882008314132693 -0.77246245741844166 1.1151052713394167 -0.14024267345666883 1.1323868036270144 -0.94717273116111744 1.0516496300697329 0.51371976733207714 1.2404724359512331 1.0975813269615176 -0.0033933006925508376 1.0506355166435244 1.1694748401641848 -0.50013014674186695 0.94208332896232616 -1.8581170439720152 -0.22609995305538175 0.9029560685157777 -1.7366825342178343 1.145277798175812 0.91683566570281994 -0.73182711005210865 -0.91800749301910389 -0.91008207201957692 -0.71605935692787159 -0.05835392884910106 0.99975863099098217 -1.0419459939002989 0.29455654323101049 1.1306543350219729 -1.1831074357032774 -1.8581170439720152 1.2134733796119692 -0.33958938717842096 -0.35799634456634516
decision_type=2 2 2 2 2 2 2 2 2 2 2 2 2 2 2 2 2 2 2 2 2 2 2 2 2 2 2 2 2 2 2 2 2 2 2 2 2 2 2 2 2 2 2 2 2 2 2 2 2 2 2 2 2 2 2 2 2 2 2 2 2 2
left_child=1 2 4 13 5 22 9 8 20 10 23 -12 25 21 15 -6 -15 18 -9 -16 -8 -4 -1 -3 -14 -11 27 43 38 30 31 -30 56 -19 -7 -32 -10 44 39 54 46 -42 47 51 -31 -39 -40 -34 -44 57 -51 55 -53 -41 -28 -2 -29 -5 61 -60 -58 -45
right_child=26 6 3 49 14 34 7 17 36 12 11 -13 24 16 19 -17 -18 33 -20 -21 -22 -23 -24 -25 -26 -27 28 32 29 37 35 -33 42 -35 -36 -37 -38 45 40 53 41 -43 48 58 -46 -47 -48 -49 -50 50 -52 52 -54 -55 -56 -57 60 -59 59 -61 -62 -63
leaf_value=-0.044658865983285563 0.13550179267434884 0.1023550738429774 0.050299862912805506 -0.19435393207055224 -0.038170374269970303 -0.01796855545224749 0.089309542123451963 -0.011368581270582019 -0.097992586395248951 -0.040763502946257767 0.040844282753687039 0.11362354550708012 0.057513963577395168 -0.11109204085426294 0.040763724598858991 0.016194146979790602 0.022769490363436326 0.023708915267369277 0.072595323530592115 -0.16603345128755365 0.025682658670065795 -0.013639319697987252 0.06421691368579438 0.020278672955127211 -0.016578859819683361 0.032569296251184494 0.026010239853464619 -0.25744494836750553 -0.047636349816677727 -0.17378389523020632 -0.093850095886264237 0.053470896499271593 0.064367065442336641 0.11918456363791796 0.096779305994282347 0.04511082303113953 -0.042160550093928301 -0.13266298629275855 0.056631899504524241 -0.084654724373403989 0.12431180253025027 -0.16860008718152461 0.14496217564968189 -0.14730513938090226 0.014928641420221917 0.076252442704342463 0.10256672239803087 -0.1532369392988113 0.090242162968851056 0.055372688323962853 -0.16273822229749452 0.049551291485282298 -0.1575640242643121 0.091640590224200069 -0.16122190769856956 -0.045782080234155823 -0.15447054313716266 -0.15883041751892038 -0.14172792480687241 -0.21829473242901459 -0.11753404814102009 -0.12042970743290349
leaf_weight=2763.8297472912818 27.518462970852852 435.11837286129594 9649.0037081241608 80.335056245326996 1659.2041341364384 118.84539482370019 1086.9663944840431 587.66690893471241 563.73527733981609 381.21890899538994 7710.3278630524874 2177.0565516501665 513.85273867845535 311.65124031156301 6643.2871268223971 35206.168235662393 495.75040935724974 165.91461120545864 2674.4933702796698 79.30826324224472 3281.4921983480453 842.90836398303509 275.58578794077039 17326.974363464862 6994.0273827165365 7091.5140005648136 10.553942099213598 4.68932877480984 236.26630927622318 18.436670586466789 291.89700722135603 371.03031887114048 18.597388938069344 1730.0473375320435 407.53751489520073 63.160799456760287 490.37460419535637 12.977987565100191 381.58614361286163 12.662763699889181 15.852134197950361 24.721718773245811 140.98903831839561 6.4858356937766075 135.36786398291588 679.38613152503967 492.86334733664989 16.854135975241661 1151.0718266069889 16.839667126536369 24.075877070426941 51.325991064310074 30.539605841040611 67.400862082839012 39.450196072459221 10.362433165311812 5.2362055182457015 33.839308694005013 6.1987900957465154 7.777369499206543 14.81509609892964 6.6105167139321583
leaf_count=11419 33 645 16100 324 4950 338 1352 1524 1978 1066 14576 1994 979 1319 15388 95863 1161 328 3975 334 6191 2975 599 38476 17974 14362 21 21 838 86 1333 766 45 1583 606 277 1537 135 657 41 17 110 80 35 288 1051 625 109 1041 35 104 93 145 87 182 36 26 151 34 33 134 59
internal_value=0 0.0242607 0.0191535 0.037238 0.0147605 -0.0191897 0.029886 0.0475433 0.0194442 0.0255036 0.034655 0.0568692 0.0086129 0.0398708 0.0175378 0.0137474 -0.0289001 0.077083 0.0574695 0.0383241 0.0415144 0.0451631 -0.034787 0.0222893 -0.0115078 0.0288282 0.0500266 0.0772666 0.0357168 0.0182133 -0.0165852 0.0141355 0.0881272 0.11083 0.0708718 -0.0691305 -0.0720194 0.0577899 0.0660065 -0.00754248 0.0764613 -0.0541599 0.0926 -0.0227633 -0.00769248 0.0723364 0.082522 -0.0390848 0.0962132 -0.15458 -0.07297 0.00823167 -0.0277122 0.0637579 -0.121704 0.085911 -0.15187 -0.183825 -0.15986 -0.184335 -0.12718 -0.133739
internal_weight=0 111819 58608.2 11454.4 47153.8 3565.8 53210.8 10580.7 5422.57 42630.1 27649.5 9887.38 14980.6 11299.3 43588 36865.4 807.402 5158.12 3262.16 6722.6 4368.46 10491.9 3039.42 17762.1 7507.88 7472.73 4352.69 1499.07 2853.61 1808.52 962.354 607.297 1352.25 1895.96 526.383 355.058 1054.11 846.169 1045.09 130.068 915.023 40.5739 1327.51 146.819 153.805 692.364 874.449 35.4515 1292.06 155.09 40.9155 119.746 81.8656 80.0636 50.0041 37.8809 24.7406 114.174 27.0725 13.9762 20.0513 13.0964
internal_count=268644 260206 151666 22169 129497 12962 108540 18468 11058 90072 55691 16570 34381 21555 116535 100813 2480 7410 5499 15722 7543 19075 12018 39121 18953 15428 8438 1924 6514 4774 3214 1604 1456 1911 944 1610 3515 1560 1740 331 1409 127 1275 468 374 1186 1282 154 1121 614 139 307 238 128 203 69 181 475 161 67 160 94
is_linear=0
shrinkage=0.1


Tree=19
num_leaves=48
num_cat=0
split_feature=132 30 29 31 135 51 107 71 31 105 136 31 24 31 134 106 32 39 52 108 105 51 70 91 109 53 122 107 30 100 43 31 4 71 114 82 68 114 2 4 105 55 21 55 75 3 46
split_gain=278.286 489.113 391.918 354.733 417.13 561.504 983.315 427.213 414.859 399.504 333.03 826.481 631.869 541.647 641.615 467.7 302.792 268.277 419.016 861.796 779.119 913.012 769.372 259.037 249.445 156.649 111.202 43.4281 71.4134 41.2224 44.048 40.5969 124.724 84.6157 35.026 21.9755 19.1599 16.2376 18.6268 54.9148 12.7165 11.1918 7.7184 14.3998 4.54607 1.0657 0.814987
threshold=1.0000000180025095e-35 1.0667440891265871 1.2504008412361147 0.9973181188106538 1.0000000180025095e-35 1.0987569093704226 -0.96672990918159474 -0.422540932893753 0.97472503781318676 -0.92214661836624134 1.0000000180025095e-35 1.0028139948844912 1.3189012408256533 1.0042006373405459 1.0000000180025095e-35 -0.87215313315391529 0.96264934539794933 1.0393121242523196 1.1338660120964053 -1.070432662963867 -0.83921518921852101 1.1383606791496279 -0.069542519748210893 -1.1549546122550962 -1.1243482828140257 1.1136052012443545 -2.0237841606140132 -0.90649610757827748 1.0760154128074648 -0.49808020889759058 1.1847557425498965 0.99153253436088573 0.66140243411064159 -0.53415051102638234 -0.97677746415138234 -1.2119684219360349 0.23038178682327273 -1.1130039691925047 0.7471442222595216 0.80093151330947887 -0.90130236744880665 1.0402334332466128 1.4023793339729311 0.88782763481140148 -0.98452165722846974 0.70969989895820629 1.2182836532592776
decision_type=2 2 2 2 2 2 2 2 2 2 2 2 2 2 2 2 2 2 2 2 2 2 2 2 2 2 2 2 2 2 2 2 2 2 2 2 2 2 2 2 2 2 2 2 2 2 2
left_child=2 17 3 4 5 7 -7 -1 9 -6 13 16 -13 14 -5 -15 -12 18 20 26 21 -2 -21 -10 -22 41 -20 31 45 30 -27 32 33 -3 -34 -4 -31 -37 40 -40 -39 46 44 -44 -33 -29 -19
right_child=1 27 35 10 8 6 -8 -9 23 -11 11 12 -14 15 -16 -17 -18 25 19 22 24 -23 -24 -25 -26 29 -28 28 -30 36 -32 42 34 -35 -36 37 -38 38 39 -41 -42 -43 43 -45 -46 -47 -48
leaf_value=-0.0019541569441623862 0.038222439592933012 -0.11219314730257478 0.11084423601715993 0.020249052009530921 -0.12625388986048811 0.072303150438024419 0.010670955358872648 -0.083739592386105149 0.10004301550069439 0.015619344973850461 -0.010011162642833308 0.075589039041515094 -0.0086304076667038845 0.026281195673527592 0.052419696003670524 -0.0069499790069668292 0.059502760997936735 -0.13809300651325365 -0.070664874931659946 -0.071151139261917171 -0.058528988656034578 -0.072494313297307184 0.076953674068471423 0.039426820690272653 0.11641190541082352 0.072054330427309576 0.08746663373005327 -0.2169960289677948 0.079254693929742173 -0.099532570193876943 0.11729795045025491 0.13196754339828079 0.085060067914100451 0.16102185663092922 0.12496883149419996 0.017952687679432002 0.15340843382322167 -0.14707180684310625 0.08798264468217587 -0.15568743704851939 -0.024461886509612132 0.0037934603853962204 0.14312008356009806 0.065650941423778447 0.17919778142460679 -0.28325256954088673 -0.1859024668696341
leaf_weight=13971.86549144052 4983.9304896444082 48.316586792469025 4.2296408861875525 17372.497692223638 205.12267835438251 3054.7756533175707 16965.83273851499 669.28909531608224 789.48041576147079 6130.5966991595924 2955.5067107528448 5928.701481461525 1048.374514311552 8113.1838504523039 9639.3219609111547 8860.6239503920078 795.21401420235634 29.599208388477564 47.098705891519785 1702.4472586866468 87.015978261828423 875.68322286009789 441.76575961522758 6587.705540060997 1287.295627810061 881.14127392321825 797.06239572167397 5.1946655213832873 21.103359237313271 17.79570630565286 284.71545612812042 34.078834384679794 764.28151166439056 14.810134246945379 308.75660642981529 8.2645118683576566 3.6006304696202269 151.32006254047155 14.887088999152182 24.420020252466202 8.959847614169119 6.0582602694630614 82.265640705823898 33.873285070061684 50.697404935956001 4.5573776066303253 4.0538446903228751
leaf_count=43117 10674 163 6 38264 861 6080 45583 2915 820 13336 7212 8164 2299 16659 16236 21968 1256 173 208 9309 316 3126 1689 12457 1131 1013 1116 21 20 144 193 24 780 12 161 33 7 767 30 114 26 17 37 42 26 20 19
internal_value=0 0.0366129 0.0209905 0.0212699 0.0150313 0.0091906 0.0200749 -0.0056928 0.0297948 0.0110261 0.0267857 0.0425834 0.0629342 0.0229327 0.0317293 0.00893394 0.00472692 0.0298606 0.0245573 -0.00694271 0.0375701 0.0216765 -0.0406375 0.0459138 0.105335 0.0740442 0.0786439 0.093128 -0.0241634 0.080579 0.0831033 0.0958347 0.0885072 -0.0480943 0.0965434 -0.11481 -0.056967 -0.119402 -0.125089 -0.0634004 -0.140218 -0.121328 0.137271 0.120525 0.160212 -0.247959 -0.143852
internal_weight=0 12817.2 103300 103088 48374.7 34661.8 20020.6 14641.2 13712.9 6335.72 54713.4 10727.8 6977.08 43985.6 27011.8 16973.8 3750.72 11449.3 10222.3 2988.37 7233.93 5859.61 2144.21 7377.19 1374.31 1226.96 844.161 1367.94 30.8554 1187.25 1165.86 1337.08 1136.16 63.1267 1073.04 212.081 21.3963 207.852 199.587 39.3071 160.28 39.7113 200.915 116.139 84.7762 9.75204 33.6531
internal_count=268644 30441 238203 237227 125169 97695 51663 46032 27474 14197 112058 18931 10463 93127 54500 38627 8468 29135 27569 12322 15247 13800 10998 13277 1447 1566 1324 1306 61 1357 1206 1245 1116 175 941 976 151 970 937 144 793 209 129 79 50 41 192
is_linear=0
shrinkage=0.1


Tree=20
num_leaves=59
num_cat=0
split_feature=33 73 108 133 106 47 53 124 126 43 30 134 56 132 30 135 122 46 73 38 117 124 38 46 58 107 107 46 106 131 108 117 61 11 107 71 108 124 40 46 72 46 127 114 114 53 30 98 0 60 97 136 35 18 106 70 33 32
