tree
version=v4
num_class=1
num_tree_per_iteration=1
label_index=0
max_feature_idx=136
objective=binary sigmoid:1
feature_names=Column_0 Column_1 Column_2 Column_3 Column_4 Column_5 Column_6 Column_7 Column_8 Column_9 Column_10 Column_11 Column_12 Column_13 Column_14 Column_15 Column_16 Column_17 Column_18 Column_19 Column_20 Column_21 Column_22 Column_23 Column_24 Column_25 Column_26 Column_27 Column_28 Column_29 Column_30 Column_31 Column_32 Column_33 Column_34 Column_35 Column_36 Column_37 Column_38 Column_39 Column_40 Column_41 Column_42 Column_43 Column_44 Column_45 Column_46 Column_47 Column_48 Column_49 Column_50 Column_51 Column_52 Column_53 Column_54 Column_55 Column_56 Column_57 Column_58 Column_59 Column_60 Column_61 Column_62 Column_63 Column_64 Column_65 Column_66 Column_67 Column_68 Column_69 Column_70 Column_71 Column_72 Column_73 Column_74 Column_75 Column_76 Column_77 Column_78 Column_79 Column_80 Column_81 Column_82 Column_83 Column_84 Column_85 Column_86 Column_87 Column_88 Column_89 Column_90 Column_91 Column_92 Column_93 Column_94 Column_95 Column_96 Column_97 Column_98 Column_99 Column_100 Column_101 Column_102 Column_103 Column_104 Column_105 Column_106 Column_107 Column_108 Column_109 Column_110 Column_111 Column_112 Column_113 Column_114 Column_115 Column_116 Column_117 Column_118 Column_119 Column_120 Column_121 Column_122 Column_123 Column_124 Column_125 Column_126 Column_127 Column_128 Column_129 Column_130 Column_131 Column_132 Column_133 Column_134 Column_135 Column_136
feature_infos=[-1.8014661073684692:2.1873281002044678] [-1.7160434722900391:2.0962586402893066] [-1.6382262706756592:2.0136351585388184] [-1.5680137872695923:1.9394575357437134] [-1.5054070949554443:1.8737261295318604] [-1.4504051208496094:1.8164401054382324] [-1.4123568534851074:1.7788288593292236] [-1.3844102621078491:1.7939627170562744] [-1.3517893552780151:2.0758624076843262] [-1.3099035024642944:2.0974209308624268] [-1.2559221982955933:1.9997674226760864] [-1.1870334148406982:1.9951491355895996] [-1.1039742231369019:2.0742456912994385] [-1.0067610740661621:2.1771299839019775] [-0.90047705173492432:2.2525746822357178] [-0.78966546058654785:2.3293297290802002] [-0.67814630270004272:2.4095718860626221] [-0.65620064735412598:2.4415178298950195] [-0.66012513637542725:2.4600694179534912] [-0.66667592525482178:2.4321010112762451] [-0.66607785224914551:2.3619022369384766] [-0.67318671941757202:2.2960772514343262] [-0.67701548337936401:2.1994528770446777] [-0.68310725688934326:2.1030042171478271] [-0.68053698539733887:2.0889520645141602] [-0.94777458906173706:1.9925726652145386] [-1.274228572845459:1.8694267272949219] [-1.700652003288269:1.7025836706161499] [-1.9454965591430664:1.5450669527053833] [-2.1668190956115723:1.3473584651947021] [-2.5042393207550049:1.1459542512893677] [-2.6755003929138184:1.0691677331924438] [-2.8964071273803711:1.0182701349258423] [-2.6209216117858887:1.0153312683105469] [-1.9672813415527344:1.0222163200378418] [-1.2877312898635864:1.0987448692321777] [-0.66342759132385254:1.3781088590621948] [-0.67049169540405273:1.4357191324234009] [-0.67177027463912964:1.5244829654693604] [-0.67615479230880737:1.3697364330291748] [-0.67375040054321289:1.309401273727417] [-0.67598330974578857:1.2273765802383423] [-0.67399483919143677:1.2687077522277832] [-0.67822211980819702:1.5027958154678345] [-0.67549598217010498:1.6759111881256104] [-0.67900896072387695:1.7528411149978638] [-0.67573755979537964:1.7343066930770874] [-0.67946159839630127:1.6915385723114014] [-0.67738151550292969:1.7336448431015015] [-0.68010765314102173:1.7715651988983154] [-0.67633002996444702:1.8198304176330566] [-0.68167710304260254:2.1010029315948486] [-0.68698889017105103:2.2836933135986328] [-0.69497156143188477:2.324758768081665] [-0.68557995557785034:2.0119130611419678] [-0.66462117433547974:1.663224458694458] [-0.62813276052474976:1.3767448663711548] [-0.79989981651306152:1.3468891382217407] [-0.9627259373664856:1.3174220323562622] [-0.83332031965255737:1.3004671335220337] [-0.58463895320892334:1.2900781631469727] [-0.6056399941444397:1.6912268400192261] [-0.63139909505844116:1.8743280172348022] [-0.66095739603042603:1.7138135433197021] [-0.81091159582138062:1.3433690071105957] [-1.0305129289627075:1.0751444101333618] [-1.2528316974639893:0.99085426330566406] [-1.6713657379150391:0.88485002517700195] [-1.8910553455352783:0.75389385223388672] [-2.0949718952178955:0.60495084524154663] [-1.9126988649368286:0.45876148343086243] [-1.723555326461792:0.33052113652229309] [-1.5802557468414307:0.23037496209144592] [-1.5674382448196411:0.15855956077575684] [-1.3374539613723755:0.23297213017940521] [-1.5821062326431274:0.72586905956268311] [-1.8401819467544556:1.144742488861084] [-2.0371255874633789:0.97778910398483276] [-2.1728529930114746:1.0076425075531006] [-2.2573421001434326:0.66064220666885376] [-2.3058340549468994:0.36351838707923889] [-2.3315773010253906:0.28676301240921021] [-2.3403120040893555:0.33890664577484131] [-2.3343968391418457:0.39074629545211792] [-2.3124566078186035:0.43792322278022766] [-2.2730567455291748:0.47703936696052551] [-2.2140905857086182:0.50853937864303589] [-2.1362462043762207:0.53271615505218506] [-2.0426793098449707:0.59374678134918213] [-1.9374580383300781:0.56802195310592651] [-1.8240519762039185:0.65060514211654663] [-1.7103197574615479:1.0689502954483032] [-1.6472604274749756:1.4172115325927734] [-1.5846540927886963:1.6290324926376343] [-1.5245249271392822:1.6652539968490601] [-1.4861346483230591:1.6182962656021118] [-1.4547033309936523:1.5607637166976929] [-1.4384253025054932:1.5597559213638306] [-1.4264529943466187:1.5645072460174561] [-1.5819015502929688:1.5648646354675293] [-2.0638625621795654:1.5687597990036011] [-2.4585905075073242:1.5680602788925171] [-2.604130744934082:1.5700795650482178] [-2.5047333240509033:1.5662518739700317] [-2.1062953472137451:1.5674868822097778] [-1.3859066963195801:1.5623446702957153] [-1.2213733196258545:1.563502311706543] [-1.1155441999435425:1.561995267868042] [-1.1656886339187622:1.5723429918289185] [-1.225186824798584:1.5757462978363037] [-1.369315505027771:1.5835809707641602] [-1.6010570526123047:1.5861003398895264] [-2.1400496959686279:1.5903582572937012] [-2.4733853340148926:1.5886306762695312] [-2.4821960926055908:1.5883719921112061] [-1.9469403028488159:1.5826603174209595] [-1.5772113800048828:1.5835590362548828] [-1.6319060325622559:1.7016431093215942] [-1.6864286661148071:2.5795986652374268] [-1.7459897994995117:2.8008601665496826] [-1.8207311630249023:2.5472877025604248] [-1.9280952215194702:1.7180403470993042] [-2.15055251121521:1.5744708776473999] [-2.3790585994720459:1.5728672742843628] [-2.6463632583618164:1.5717638731002808] [-2.951240062713623:1.9929251670837402] [-3.3342947959899902:2.7791450023651123] [-3.8502705097198486:3.7871904373168945] [0:1] [0:1] [0:1] [0:1] [0:1] [0:1] [0:1] [0:1] [0:1]
tree_sizes=6530 5715 6598 5660 5851 5768 6209 5769 6669 5939 6660 6782 6037 6989 6901 7007 6218 5880 6986 7018 6958 6485 6810 7018 7003 5507 6296 6969 6142 6847 6992 6044 7016 6732 6358 6795 6980 6157 6435 4664 6298 4674 6849 6992 6083 4542 5825 6399 3359 5559 5244 6396 6507 6862 6880 4313 6831 5935 6841 6771 6394 6951 5940 6971 6985 6964 6411 6193 7012 6860 6994 5916 5756 6957 7009 6950 6573 6080 6993 4426 6287 5413 5766 4538 6006 6407 6934 6732 6731 5982 6464 6977 6986 7014 5994 6498 5676 4936 6151 6052 6602 6713 4766 6449 6967 5457 5203 6719 6957 6204 6925 6760 6716 6869 6857 5285 6467 4803 6837 6769 6510 6605 6971 6773 6227 5545 6283 5458 6308 5406 6518 6380 5647 6979 6834 6028 5600 6103 4121 5918 6471 6971 7006 6734 5804 7004 6604 6724 5415 6819 5045 6711 6310 6976 6288 5987 6142 6849 4851 6532 6402 6617 6414 6374 6291 6967 6995 6920 6144 6775 6947 6780 6825 6581 6533 6822 5945 5248 4337 5599 5718 6302 6637 6492 6553 6769 6944 5634 6924 6806 6521 5872 6544 5720 5944 4741 6814 6934 5664 6238

Tree=0
num_leaves=59
num_cat=0
split_feature=36 53 104 70 102 69 6 102 103 100 32 102 4 32 91 134 69 70 78 32 136 69 102 103 135 102 134 129 100 102 133 114 69 70 127 32 102 70 29 118 56 51 101 69 41 105 135 1 30 100 19 69 3 71 33 28 113 25
split_gain=11443.8 4108.63 4292.14 3738.37 2886.42 2483.29 2473.13 1942.84 1939.94 1377.4 1368.2 1346.23 960.452 811.9 824.842 1049.87 789.137 662.032 758.035 653.405 615.249 594.613 1041.76 583.405 553.908 497.768 475.172 402.324 380.056 376.999 307.382 296.371 280.238 279.5 273.717 258.454 249.651 248.63 232.567 172.13 165.034 130.992 126.274 236.598 120.538 117.92 112.818 110.583 105.25 97.9342 97.2079 76.383 70.0016 53.9672 48.2748 11.394 10.9438 4.54747e-13
threshold=0.91659829020500194 1.001568675041199 -0.73956453800201405 -0.25466640293598169 -0.87482342123985279 -0.156351663172245 0.93971145153045665 -0.80145376920700062 -0.83549502491950978 -0.95513567328453053 0.95958825945854198 -0.82424819469451893 0.72529858350753795 0.9670051932334901 -0.98296636343002308 1.0000000180025095e-35 -0.030552080832421776 -0.51253804564476002 -1.2449761033058164 0.95205271244049083 1.0000000180025095e-35 -0.032797358930110924 -0.77578559517860401 -0.68479984998702992 1.0000000180025095e-35 -0.81841790676116932 1.0000000180025095e-35 1.0000000180025095e-35 -0.93330213427543629 -0.76857498288154591 1.0000000180025095e-35 -0.93205717206001271 -0.11063810437917708 -0.27780160307884211 -3.3562337160110469 0.95958825945854198 -0.81894922256469715 -0.096659678965806947 1.2301896810531618 -1.2966117262840269 0.94635078310966503 1.1586588025093081 -0.76453310251235951 -0.012725905515253542 1.0896991491317751 -0.79995980858802784 1.0000000180025095e-35 -0.69229847192764271 1.0805059075355532 -0.96560221910476673 1.2279500365257265 -0.0065983515232801429 0.223760761320591 -0.43620057404041285 0.95714920759201061 1.2710915803909304 -0.98987871408462513 1.3919677138328554
decision_type=2 2 2 2 2 2 2 2 2 2 2 2 2 2 2 2 2 2 2 2 2 2 2 2 2 2 2 2 2 2 2 2 2 2 2 2 2 2 2 2 2 2 2 2 2 2 2 2 2 2 2 2 2 2 2 2 2 2
left_child=1 6 4 7 27 8 9 10 -6 12 30 -7 49 14 21 23 20 38 -19 -17 29 22 -5 -16 33 32 -27 28 -3 -15 36 -14 -12 50 45 -35 -2 40 -11 -32 -36 -39 54 -44 -22 -4 55 -47 -29 -1 -9 -23 -26 -54 -18 57 -57 -8
right_child=3 2 34 13 5 11 46 24 -10 17 25 -13 31 16 15 19 42 18 -20 -21 44 51 -24 -25 52 26 -28 48 -30 -31 39 -33 -34 35 37 -37 -38 41 -40 -41 -42 -43 43 -45 -46 47 -48 -49 -50 -51 -52 -53 53 -55 -56 56 -58 -59
leaf_value=-0.63827916869755197 -0.63332710098059219 -0.64379432389038904 -0.56188506365720392 -0.63294411948826235 -0.758153689327702 -0.68029743498201534 -0.97036497696871482 -0.92292760699388821 -0.85079490441146843 -0.83704696635210052 -0.74913603535089546 -0.74545585315000384 -0.74482613903993455 -0.74327406180522704 -0.65746499976402295 -0.8915789296479566 -0.59167735828784418 -0.83813815362641486 -0.78021092978879192 -0.68068177441747335 -0.61083913086148356 -0.60678768922336201 -0.72986116281955504 -0.78304313221268684 -0.88702087156135134 -0.83636110497127758 -0.68390000165417697 -0.58622921997877142 -0.70069401652093677 -0.86662615845725233 -0.91455166042895442 -0.8420878187526194 -0.66814221169768873 -0.79207780269380268 -0.56043988615796714 -0.8889787942494749 -0.69084455143534496 -0.92240415118687236 -0.91364354257725511 -0.70424400288970257 -0.92400612515683189 -0.78503000523866695 -0.76400128473816198 -0.63045744409350446 -0.83574644700012357 -0.4980558297587363 -0.51612345617095978 -0.95562132018534918 -0.68363607222016598 -0.69312099332820198 -0.68173907883565066 -0.57115557321374333 -0.75750102982498391 -0.55146251240597999 -0.6972300024770125 -0.77357713823585617 -0.97036497696871482 -0.97036497696871482
leaf_weight=650.3910459280014 1648.5393236279488 1786.7620575428009 7.8334015905857077 7188.1706357002258 9036.2147113978863 5425.7645666599274 812.39167061448097 409.53534007072449 3014.4095846712589 2046.9562655389309 1676.7551142573357 7629.7490133047104 706.32487472891808 1604.2853514552116 4718.6748014092445 362.62167689204216 473.18178495764732 3069.8450739383698 8553.0975963175297 246.95287463068962 370.62225931882858 1491.7431564927101 1311.4452958106995 401.42141115665436 8.2269607782363874 1038.7068764567375 254.51431503891945 628.30750113725662 3422.3560824096203 293.02414333820343 73.710224956274033 563.02906373143196 573.23815843462944 949.92904677987099 12.823789954185484 387.54440268874168 1391.67898234725 85.778592228889465 491.59299668669701 82.448961555957794 473.29468059539795 363.79581713676453 182.74424797296524 484.13309147953987 25.467099010944366 5.3230358362197867 5.5347615778446189 682.0881829559803 134.71262234449387 652.08981120586395 17.421295404434204 1008.2115177214146 15.03207680583 82.386697292327881 47.696949332952499 5.8071736097335815 5.5048692822456342 42.345148324966431
leaf_count=1857 4661 5157 19 20308 31893 16774 3837 1825 12210 8133 5833 26384 2440 5528 13982 1552 1227 12216 31249 764 1001 3995 4420 1473 35 4123 792 1610 10973 1213 325 2253 1733 3534 31 1653 4385 382 2165 266 2112 1339 651 1361 101 11 12 3165 419 2063 54 2498 53 195 152 21 26 200
internal_value=-0.826612 -0.762991 -0.742027 -0.683965 -0.733729 -0.748592 -0.801943 -0.739145 -0.781327 -0.793389 -0.714122 -0.718377 -0.726064 -0.660457 -0.651314 -0.68208 -0.704395 -0.805615 -0.795511 -0.80614 -0.738659 -0.635288 -0.647898 -0.66731 -0.829326 -0.756917 -0.806356 -0.671243 -0.681177 -0.762325 -0.666684 -0.787967 -0.728501 -0.842643 -0.900156 -0.820156 -0.659656 -0.864843 -0.85188 -0.803513 -0.914415 -0.811241 -0.638236 -0.667052 -0.6253 -0.947682 -0.966169 -0.952078 -0.603427 -0.665736 -0.913086 -0.592418 -0.60691 -0.583255 -0.601343 -0.969045 -0.869342 -0.970365
internal_weight=0 50314.1 32709.2 28820.1 31078.3 25106.1 17604.9 8609.67 12050.6 16733.3 6739.59 13055.5 2571.83 20210.4 16729.2 5729.67 3481.15 14161.5 11622.9 609.575 2293.4 10999.6 8499.62 5120.1 1870.08 3543.21 1293.22 5972.14 5209.12 1897.31 3196.38 1269.35 2249.99 1764.43 1630.94 1337.47 3040.22 935.693 2538.55 156.159 486.118 449.574 1187.76 666.877 396.089 695.245 871.584 687.411 763.02 1302.48 426.957 2499.95 105.646 97.4188 520.879 866.049 11.312 854.737
internal_count=268644 178951 112479 89693 105420 87261 66472 29467 44103 62376 22118 43158 8613 60226 48992 17771 11234 53763 43465 2316 7843 31221 24728 15455 7349 12481 4915 18159 16130 6741 9637 4693 7566 7066 7059 5187 9046 3864 10298 591 2143 1721 3391 2012 1102 3195 4096 3176 2029 3920 1879 6493 283 248 1379 4084 47 4037
is_linear=0
shrinkage=1


Tree=1
num_leaves=52
num_cat=0
split_feature=53 103 70 102 6 31 129 93 108 102 69 103 71 36 104 52 134 32 70 31 31 104 70 6 104 104 98 124 68 131 30 102 53 127 135 110 70 122 107 122 97 106 132 111 92 28 113 70 35 0 2
split_gain=8333.55 4880.89 3307.92 3603.06 2466 2172.42 1419.29 1212.48 1061.34 1003.03 1821.76 1240.08 890.541 807.743 722.3 1246.85 544.372 480.49 473.482 454.913 354.301 296.631 436.501 215.369 184.799 165.091 153.414 144.687 309.706 139.824 128.389 161.652 117.259 98.5303 91.1974 74.7279 59.3995 45.847 41.1876 39.3281 36.4335 26.0695 23.2002 20.9793 19.0558 10.5725 9.42192 9.0736 7.28608 1.17448 0.000270778
threshold=1.0310827493667605 -0.66914519667625416 -0.25874784588813776 -0.81129223108291615 0.93971145153045665 1.0029560327529909 1.0000000180025095e-35 -1.1236479282379148 -0.90735390782356251 -0.80005592107772816 -0.050424180924892419 -0.78081756830215443 -0.45880411565303797 0.92712822556495678 -0.87235727906227101 1.0084744691848757 1.0000000180025095e-35 0.9578516185283662 -0.31106987595558161 1.0096601247787478 1.0009263157844546 -0.72151637077331532 -0.10231186822056769 0.086285982280969634 -0.92802593111991871 -0.81823280453681935 -0.83581355214118946 -2.4751369953155513 0.21594879031181338 1.0000000180025095e-35 1.0875973105430605 -0.86353471875190724 0.99578353762626659 -3.2048164606094356 1.0000000180025095e-35 -0.92738682031631459 -0.06954582035541533 -1.9751602411270139 -0.97680044174194325 -2.023586511611938 -1.0215082168579099 -0.88241076469421376 1.0000000180025095e-35 -0.97506579756736744 -1.0765917897224424 1.2710915803909304 -0.98987871408462513 -0.10796581581234931 0.67147669196128856 0.088198214769363417 0.58061397075653087
decision_type=2 2 2 2 2 2 2 2 2 2 2 2 2 2 2 2 2 2 2 2 2 2 2 2 2 2 2 2 2 2 2 2 2 2 2 2 2 2 2 2 2 2 2 2 2 2 2 2 2 2 2
left_child=4 2 3 5 6 8 7 19 -2 20 11 -11 29 -12 15 -9 -7 -14 -16 32 26 22 42 33 43 -22 -4 39 37 -5 31 -26 -1 -24 45 -32 -30 -29 -25 41 -21 -23 -3 48 -45 49 -47 -44 -8 -6 -51
right_child=1 21 9 12 34 16 24 14 -10 10 13 -13 17 -15 18 -17 -18 -19 -20 40 25 27 23 38 30 -27 -28 28 36 -31 35 -33 -34 -35 -36 -37 -38 -39 -40 -41 -42 -43 47 44 -46 46 -48 -49 -50 50 -52
leaf_value=0.042232109726373555 0.087719529013531444 0.065117563581075552 0.20491203588651263 -0.063515726925961344 -0.081984016661238335 0.049683838592272773 0.18079592011788692 0.02429197625751834 0.14925652733854886 0.11639745670821944 0.1044222445137182 0.036270739356615705 0.054337353159721137 0.16628569386269176 -0.0069606330798790035 0.082380616920056313 0.14340813389863333 -0.023274545823122803 0.046610388377110096 0.220264287565512 0.16506091161660347 0.032279569579476856 0.17726614457282652 0.21893053109472307 0.17621900950283642 0.11591970092288569 0.1530249966852279 -0.10331517740667739 -0.074191352764853558 0.10356166700846628 0.012683371283639198 0.082363206211112386 0.10401810810225079 0.0099308736090305081 0.25120861678357415 0.138028376291881 0.13069878736372781 -0.011283134732891401 -0.059008755266052794 0.18673416216516789 0.16190049412960086 -0.12772446479057162 -0.13270785802194907 0.23024796884136578 0.097631399559404655 0.046725946314512379 -0.13789446435784242 -0.061699057752191394 0.2879942338116242 -0.13871803559086879 -0.13789446435784239
leaf_weight=431.42220301926136 4196.4563251286745 6.6812168061733237 2478.7056927978992 1294.6343423873186 3.7742891311645499 6208.3856358081102 6.8876851797103873 11190.757515728474 8438.9780309796333 5694.1785468161106 2833.9508814513683 2922.9917427152395 3354.1288406401873 8268.8713129907846 6116.1006781607866 5516.7908316850662 688.43283034861088 1046.5740480422974 2259.3067234605551 299.09565332531929 1622.8852419555187 10.350924879312513 150.76447834074497 5.6570484787225714 615.532879114151 1181.2583521008492 739.93498800694942 380.55514667928219 16.756663665175438 52.10558807849884 126.24532416462898 261.45938949286938 1066.4300653040409 45.901219040155411 6.1186904758214942 76.314373582601547 90.940430521965027 63.105318084359169 92.70748969912529 4.0695231705903998 166.49887262284756 627.23606154322624 158.94756205379963 63.69239753484726 13.056091651320456 5.9253850877285004 5.1814998984336835 20.292556837201118 79.798584744334221 4.0122660100460044 797.95098435878754
leaf_count=1543 13603 25 6012 5506 17 21402 18 41501 23931 16973 8838 10230 11686 21911 23703 18118 1997 4223 7814 714 4343 39 428 15 1657 3531 2049 1742 74 168 470 861 3311 176 12 231 282 259 399 11 460 3082 762 151 42 21 26 90 163 20 4004
internal_value=0 0.103883 0.109395 0.0837007 0.0372195 0.10418 0.0421835 0.0373817 0.128819 0.134627 0.123719 0.089218 0.0141041 0.150495 0.0314579 0.0434727 0.0590393 0.0358797 0.00749041 0.113058 0.170345 -0.0641394 0.00215961 0.077786 0.146667 0.14436 0.192984 -0.0908672 -0.0532985 -0.0570515 0.131664 0.148238 0.0862221 0.138211 -0.13342 0.0599071 0.0988198 -0.0902247 -0.0430242 -0.123149 0.199393 -0.125127 -0.117849 0.245765 0.207688 -0.136301 -0.0394018 -0.124669 0.279477 -0.137637 -0.137899
internal_weight=0 52696.4 51022.5 25279.7 29112.4 19532.3 28289.4 27046.4 12635.4 25742.8 19720 8617.17 5747.44 11102.8 25083 16707.5 6896.82 4400.7 8375.41 1963.45 6022.78 1673.97 480.952 295.03 1242.99 2804.14 3218.64 1193.01 551.358 1346.74 1079.55 876.992 1497.85 196.666 822.963 202.56 107.697 443.66 98.3645 641.657 465.595 637.587 185.921 163.435 76.7485 816.844 11.1069 179.24 86.6863 805.738 801.963
internal_count=268644 163787 156403 82516 104857 60933 100757 97164 37534 73887 57952 27203 21583 30749 91136 59619 23399 15909 31517 6028 15935 7384 1895 1018 3593 7874 8061 5489 2357 5674 3219 2518 4854 604 4100 701 356 2001 414 3132 1174 3121 877 374 193 4088 47 852 181 4041 4024
is_linear=0
shrinkage=0.1


Tree=2
num_leaves=60
num_cat=0
split_feature=53 103 53 69 101 71 31 129 94 103 72 100 100 103 69 103 103 76 69 31 134 104 70 32 31 52 32 6 104 101 29 124 71 66 43 100 135 105 114 127 122 20 4 104 53 22 103 132 101 106 132 12 101 91 70 43 76 105 101
split_gain=6442.1 4001.32 2243.55 1874.58 2803.64 1662.86 1223.37 1192.76 1104.43 916.13 824.795 1355.71 808.067 707.327 1213.22 776.18 611.855 496.262 423.233 314.873 260.182 258.753 361.236 251.626 222.333 204.471 182.463 163.874 158.079 149.81 131.158 130.972 265.613 91.3519 87.124 75.969 229.82 74.9036 71.8589 71.4329 61.2461 59.0116 54.3987 47.089 41.9281 40.9372 101.874 34.5929 28.7497 23.6184 20.4051 15.4753 14.6834 12.6846 8.53537 6.85574 8.66869 4.11357 2.90742
threshold=1.042535185813904 -0.66914519667625416 0.78842329978942882 -0.089550588279962526 -0.82628959417343129 -0.45880411565303797 1.0032902359962466 1.0000000180025095e-35 -1.0889452695846555 -0.79617127776145924 -0.6310543119907378 -0.85728916525840748 -0.83112555742263783 -0.79241606593132008 -0.048656038939952843 -0.77053192257881153 -0.71104288101196278 -1.0935320854187009 -0.12919326126575467 1.0107534527778628 1.0000000180025095e-35 -0.72151637077331532 -0.10231186822056769 0.96325725317001354 0.99644678831100475 1.0409074425697329 0.95662796497344982 0.086285982280969634 -0.81565961241722096 -0.85466787219047535 1.2500036954879763 -2.4751369953155513 -0.20801869779825208 0.44700898230075842 1.0449388027191164 -0.96286052465438832 1.0000000180025095e-35 -0.91140756011009205 -0.92774432897567738 -3.1823942661285396 -1.9751602411270139 1.7766647934913637 0.61861491203308117 -0.80458074808120716 1.1167933344841006 1.4078330397605898 -0.92529231309890736 1.0000000180025095e-35 -0.95831444859504689 -0.88241076469421376 1.0000000180025095e-35 1.1792811751365664 -0.86472204327583302 -1.072454512119293 -0.10796581581234931 0.72654175758361828 -1.1206126213073728 -0.91817948222160328 -0.94963526725769032
decision_type=2 2 2 2 2 2 2 2 2 2 2 2 2 2 2 2 2 2 2 2 2 2 2 2 2 2 2 2 2 2 2 2 2 2 2 2 2 2 2 2 2 2 2 2 2 2 2 2 2 2 2 2 2 2 2 2 2 2 2
left_child=2 3 17 4 6 26 20 8 19 -7 11 -10 -12 23 15 -15 -16 38 -8 25 -2 22 50 37 45 -4 -6 39 -25 34 35 47 40 -34 -26 36 -19 -5 48 -24 -33 -37 -21 -31 -29 52 -47 -23 -1 -49 -3 -50 -9 -32 -52 57 -57 -40 -55
right_child=1 21 7 13 5 9 18 24 10 -11 12 -13 -14 14 16 -17 -18 30 -20 42 -22 31 27 28 29 -27 -28 44 -30 43 53 32 33 -35 -36 41 -38 -39 55 -41 -42 -43 -44 -45 -46 46 -48 49 51 -51 54 -53 -54 58 -56 56 -58 -59 -60
leaf_value=0.1640558937545305 0.13890197354465916 0.05696001829606704 0.058214019166980692 0.10726638246602485 -0.025810289300207307 0.079851141098423964 0.040798126863898762 0.2195144501738111 0.033621717012777663 0.0067487331262006209 0.10235281531453028 -0.041522002212665332 0.032048621172602758 0.093286611586444884 0.13981706533994778 0.0058072927265799797 0.077379290656216404 -0.033960105750606595 0.10598239902802642 -0.0019491797990911484 0.074250551666346906 0.12784376704479525 0.13808831615395123 0.15243816817237923 0.10677771760114566 0.11897027993750023 -0.11142131190932217 -0.095606968809047635 0.099133240876817602 0.049702763600916286 -0.0014887573861736367 -0.12021270849960458 -0.054701596198654751 0.096985734656671652 0.22150693893601625 0.0084671774250924415 0.28585937869228506 0.1689067665955909 -0.083465348840957659 -0.056951013356544011 -0.013656367285581457 -0.09042853404806106 0.17474142240370441 -0.059961936191213254 0.037913167115789875 0.20263527930399322 0.10049572611468123 0.028675165833162198 -0.031555752089340458 -0.12277879949126268 -0.12705731845527371 -0.143581806519049 0.16627179626284738 -0.10201446064858564 -0.05712667933540342 -0.12456900221976204 0.013607067023168183 -0.13382388686534205 -0.13707312175691327
leaf_weight=6.6214243322610846 7987.5427508056164 6.863761141896247 1352.4522203058004 208.55299670994282 1723.9821272194386 7032.4455962181091 2419.7715044766665 167.42582562565804 20476.792828604579 2266.9519194066525 3073.5453709959984 2719.8434478342533 3492.7224529832602 3829.0270954966545 8929.5385705828667 1379.7434934079647 1904.148895740509 57.262437134981155 1692.9786468744278 18.040068447589874 675.08235718309879 5.6787864416837683 185.16466948390007 1018.6709987670183 840.98142123222351 938.16570128500462 290.96976484358311 56.031000390648842 1225.7987583875656 198.97907879948616 9.5516775101423246 288.89872322976589 58.505173787474632 123.53671281039715 71.844057843089104 382.62909412384033 36.978244215250015 3601.9803415089846 16.542223200201988 20.897494077682495 66.324759036302567 71.632570147514343 510.68856653571129 48.747328296303749 40.531348064541817 192.16316382586956 198.5422315299511 10.479545205831526 65.269834071397781 589.48962219059467 149.88321356475353 15.20331124961376 75.000586792826653 40.941406160593033 19.754017353057861 12.086499541997911 7.2721426039934149 834.82756724953651 56.023065626621246
leaf_count=19 21201 25 4448 576 6877 22096 8212 355 72648 8277 9272 10809 12207 11293 22932 5003 5862 233 5007 64 2099 17 516 2544 2441 2657 1303 261 3507 658 37 1430 257 393 165 1490 74 8600 78 88 275 327 1219 190 153 422 588 39 268 3076 762 72 196 179 90 56 28 4403 270
internal_value=0 0.09431 0.0382967 0.0997314 0.0804364 0.0441856 0.112541 0.0437049 0.0393344 0.0620307 0.0336679 0.024811 0.0649567 0.120766 0.109775 0.0701143 0.128843 -0.0769731 0.0676307 0.0991538 0.133864 -0.0600645 0.0016225 0.149888 0.123095 0.0830979 -0.038173 0.0679346 0.123326 0.0970908 -0.00989589 -0.0859246 -0.0499829 0.048236 0.115807 0.00982329 0.091531 0.165533 -0.122845 0.118309 -0.100317 -0.0071277 0.168713 0.0281231 -0.0395629 0.170762 0.150732 -0.117808 -0.0362396 -0.120133 -0.112075 -0.0527202 0.203043 -0.111439 -0.118914 -0.131507 -0.0726627 -0.132845 -0.12227
internal_weight=0 47809.2 35988.8 46187.2 24089.7 11314.3 12775.4 34375.9 32582.3 9299.4 29762.9 23196.6 6566.27 22097.5 16042.5 5208.77 10833.7 1612.84 4112.75 2819.35 8662.63 1622.04 479.126 6055 1793.68 2290.62 2014.95 302.625 2244.47 1160.55 655.018 1142.91 537.265 182.042 912.825 548.502 94.2407 3810.53 957.823 206.062 355.223 454.262 528.729 247.726 96.5623 633.132 390.705 605.648 87.0946 599.969 176.501 80.4731 242.426 106.516 169.637 870.728 19.3586 851.37 96.9645
internal_count=268644 142771 125873 135389 75072 38553 36519 118339 113324 30373 104936 83457 21479 60317 45090 16296 28794 7534 13219 8388 23300 7382 1895 15227 5015 7105 8180 1018 6051 3454 2610 5487 2355 650 2606 2124 307 9176 4924 604 1705 1817 1283 848 414 1561 1010 3132 359 3115 877 340 551 486 852 4565 84 4481 449
is_linear=0
shrinkage=0.1


Tree=3
num_leaves=51
num_cat=0
split_feature=53 103 70 102 6 31 100 4 102 69 32 71 21 103 101 52 37 32 134 103 32 133 72 114 69 108 101 70 69 106 107 56 3 31 97 28 125 29 132 56 135 90 72 102 75 28 113 80 53 76
split_gain=5098.1 2866.86 2370.57 2803.94 1641.67 1296.65 918.236 781.132 763.668 1387.2 906.431 758.129 706.376 1013.6 589.513 540.004 512.609 483.764 466.677 316.618 281.019 280.623 367.018 261.07 241.901 236.416 235.1 379.16 187.753 162.342 151.546 184.174 150.264 125.154 120.507 97.4868 86.3515 73.2324 72.1334 70.2001 63.7019 46.0733 91.2078 40.3052 35.3429 9.86331 8.04237 7.31862 0.0345092 0.0101725
threshold=1.0206748247146609 -0.66914519667625416 -0.26939423382282252 -0.82069966197013844 0.93971145153045665 1.0034029483795168 -0.95359003543853749 0.73746278882026683 -0.80481329560279835 -0.066285863518714891 0.96198192238807689 -0.45959073305129999 1.4908761978149416 -0.87966468930244435 -0.8583182394504546 1.0155066251754763 0.94240713119506847 0.9578516185283662 1.0000000180025095e-35 -0.83789780735969532 0.96217247843742382 1.0000000180025095e-35 -0.79811459779739369 -0.93038874864578236 -0.13569832593202588 -0.9090263545513152 -0.50668600201606739 -0.096659678965806947 -0.081184647977352128 -0.98674550652503956 -0.97069975733757008 1.0153983831405642 0.68940475583076488 0.97734421491622936 -0.85778692364692677 1.1913915276527407 -2.6768563985824581 1.2416827082633974 1.0000000180025095e-35 0.94635078310966503 1.0000000180025095e-35 -0.22299656271934507 -0.30709241330623621 -0.60173159837722767 -0.52853742241859425 1.2710915803909304 -0.98987871408462513 -0.31776709854602808 0.78842329978942882 -1.088843762874603
decision_type=2 2 2 2 2 2 2 2 2 2 2 2 2 2 2 2 2 2 2 2 2 2 2 2 2 2 2 2 2 2 2 2 2 2 2 2 2 2 2 2 2 2 2 2 2 2 2 2 2 2
left_child=4 2 3 5 6 14 7 32 20 10 -10 24 13 15 -2 -8 -11 -13 -7 -15 34 22 -14 25 -5 -9 27 39 -22 -23 36 -32 35 -34 -4 -1 -29 -25 44 -3 45 42 -40 -41 -28 48 -47 -43 49 -6
right_child=1 26 8 11 40 18 12 23 9 16 -12 17 21 19 -16 -17 -18 -19 -20 -21 28 29 -24 37 -26 -27 38 30 -30 -31 31 -33 33 -35 -36 -37 -38 -39 41 43 -42 47 -44 -45 -46 46 -48 -49 -50 -51
leaf_value=-0.079098409292948313 0.11910825744148641 0.26410670982575229 0.14988183130967583 -0.054691081922112354 -0.12889524303453581 0.036410049879298093 0.038906608320220804 -0.0052180994223106694 0.077007284044429802 0.043627947659609589 -2.7972718518689863e-06 0.047086705170396127 -0.062295580127412077 0.01844638568190787 0.076847787121254188 0.096853739361184965 0.11425157152356513 -0.029443682091097902 0.12511655742373626 -0.026327694896885408 0.084379157469448365 0.061715440646720146 0.011296414341084731 -0.030762710369403951 0.026337842709446641 0.11999547203724935 -0.061962306207475365 0.17841210397485072 0.14015307532503618 -0.095013060252445825 -0.09508069011559088 0.047256138424487698 0.1063443655835159 0.015883944140448785 0.10983314689909773 0.12973432386624262 0.0078185699394307511 -0.12817280460631705 -0.12685298734161096 -0.052358100046871116 0.18635548123406526 -0.088272339775047434 0.1006541187299004 -0.11986343909113331 0.21325684236187961 0.045100086372712914 -0.13045374556591188 -0.12642401163335334 -0.13576592134184762 -0.13119802136739639
leaf_weight=22.671652317047119 6377.9471186101437 5.3633163571357718 3911.3719281852245 1981.5878529250622 676.71584855020046 6533.9654082357883 4714.4292464703321 355.40701444447041 6387.8002399504185 1107.8065558820963 2009.134410738945 3555.1233382374048 852.66448891162872 6855.0717973858118 6841.6992961466312 2440.756953895092 14221.158811435103 1075.9533718526363 652.27423599362373 2052.1685666739941 1882.9128606170416 75.230800092220306 3302.2768840640783 331.94193291664124 452.5799613147974 261.91507339477539 8.5811046957969683 90.210331127047539 888.31364664435387 543.9360373467207 136.18021051585674 273.43719007074833 373.63767626881599 258.93149794638157 929.9793805629015 1593.7865148633718 44.215014949440956 100.55884259939194 44.908996164798737 125.44673076272011 6.5220634490251532 56.653788477182388 29.000893414020538 299.88221676647663 10.226907119154928 5.9537559449672699 4.6457874029874784 446.9779942035675 7.5318106561899176 19.743018880486488
leaf_count=87 16915 10 9299 8368 3891 21750 16436 1315 19107 3563 6801 11703 3650 24446 20411 7133 36916 4125 1793 8072 5385 255 12158 1314 1602 776 38 214 2132 2354 661 979 1143 907 2496 4268 151 478 245 593 12 296 103 1582 22 21 26 2494 39 109
internal_value=0 0.0777347 0.0812962 0.0598524 0.0239264 0.0786512 0.0283686 0.0773895 0.100094 0.0912514 0.0585811 0.00555732 0.0206075 0.0306455 0.0972368 0.0586734 0.109148 0.0293061 0.0444617 0.00813074 0.127653 -0.0131651 -0.00380591 0.0061665 -0.0396255 0.047907 -0.0555801 -0.0253226 0.102257 -0.07597 0.03017 -6.47499e-05 0.110636 0.0693159 0.142189 0.126805 0.122301 -0.0534111 -0.105036 -0.0954198 -0.124752 -0.111312 -0.0375833 -0.0999534 0.0876888 -0.127592 -0.0318453 -0.122132 -0.129033 -0.128961
internal_weight=0 60380.7 58809.6 27471.1 24856.5 20405.9 24135.4 3298.85 31338.5 23725.9 8396.93 7065.24 20836.5 16062.4 13219.6 7155.19 15329 4631.08 7186.24 8907.24 7612.58 4774.11 4154.94 1049.82 2434.17 617.322 1571.08 974.735 2771.23 619.167 544.043 409.617 2249.03 632.569 4841.35 1616.46 134.425 432.501 596.35 430.692 721.112 577.542 73.9099 425.329 18.808 714.59 10.5995 503.632 703.991 696.459
internal_count=268644 179754 172366 86667 88890 60869 84792 10288 85699 66387 25908 25798 74504 56087 37326 23569 40479 15828 23543 32518 19312 18417 15808 3883 9970 2091 7388 4190 7517 2609 2005 1640 6405 2050 11795 4355 365 1792 3198 2185 4098 3138 348 2175 60 4086 47 2790 4039 4000
is_linear=0
shrinkage=0.1


Tree=4
num_leaves=53
num_cat=0
split_feature=53 103 6 83 31 134 82 129 38 92 72 100 134 100 128 70 102 101 105 33 69 104 70 71 31 31 32 102 66 106 31 22 80 71 132 135 135 122 93 104 104 35 105 29 121 72 48 28 113 1 40 43
split_gain=4072.69 2498.07 1557.58 1340.84 1681.05 1286.08 1239.12 901.971 867.668 805.969 668.271 902.01 648.021 540.872 459.671 445.66 432.145 389.709 361.844 272.728 226.188 208.922 377.196 196.454 196.429 157.108 134.385 115.181 115.164 116.692 114.237 75.5243 67.5629 96.4138 72.0016 54.9659 50.8369 56.9749 44.4263 43.3924 39.0363 38.403 31.0812 84.145 28.8116 18.0252 9.47962 9.35987 6.99952 1.52914 0.950563 0.0822448
threshold=1.042535185813904 -0.66914519667625416 0.93971145153045665 -1.2123647928237913 0.99920660257339489 1.0000000180025095e-35 -1.1636858582496641 1.0000000180025095e-35 0.96373412013053905 -1.1520572900772093 -0.62554696202278126 -0.84944671392440785 1.0000000180025095e-35 -0.83112555742263783 1.0000000180025095e-35 -0.29195171594619745 -0.8427383005619048 -0.8256121277809142 -0.85908856987953175 0.92393574118614208 -0.015466232784092425 -0.70067009329795826 -0.10231186822056769 -0.4506485909223556 1.0111857652664187 0.99644678831100475 0.96128216385841381 -0.84815210103988636 0.44700898230075842 -0.88736340403556813 0.99685209989547741 1.4259739518165591 -0.31776709854602808 -0.20066613703966138 1.0000000180025095e-35 1.0000000180025095e-35 1.0000000180025095e-35 -1.8693004846572874 -1.1313751339912412 -0.80527418851852406 -0.71221670508384693 0.87314012646675121 -0.93983340263366688 1.2227710485458376 -1.7923593521118162 -0.4514299184083938 0.90612962841987621 1.2710915803909304 -0.98987871408462513 0.26097452640533453 1.0345783829689028 0.72654175758361828
decision_type=2 2 2 2 2 2 2 2 2 2 2 2 2 2 2 2 2 2 2 2 2 2 2 2 2 2 2 2 2 2 2 2 2 2 2 2 2 2 2 2 2 2 2 2 2 2 2 2 2 2 2 2
left_child=2 3 7 4 14 15 8 9 -7 24 11 -11 17 -12 26 16 -5 -6 -17 -8 -16 22 36 -14 30 42 -2 31 29 -24 -1 -27 33 44 -34 47 45 -38 -26 -29 -30 -35 46 -44 -23 -3 -9 49 -49 -4 -36 -51
right_child=1 21 35 5 12 6 19 25 -10 10 13 -13 23 -15 20 18 -18 -19 -20 -21 -22 32 28 -25 38 27 -28 39 40 -31 -32 -33 34 41 50 -37 37 -39 -40 -41 -42 -43 43 -45 -46 -47 -48 48 -50 51 -52 -53
leaf_value=0.10229125741117324 0.12858961735123819 0.057726351497439987 -0.04298552323940006 0.083072415946474298 0.072655504377461586 -0.024979947312999254 -0.098769779407431701 0.11004552387537905 0.11691749871770139 0.02328505976357554 0.090117953230698197 -0.039925954786836582 0.07956142413247301 0.028599033307192337 0.074348515017235564 0.095963468127005958 0.010274662969125527 0.034767340980064669 0.061798578725020752 -0.010167312084670165 0.12942298372176128 -0.11802259524557795 0.077005287423468322 0.16475332608239068 0.15983944571357767 0.10867035019776779 0.10452879194587861 0.044199292030249436 0.18868336929738985 -0.03065114538496206 0.055475306623271214 0.018579326434772236 0.19939996948670477 0.076985981984781404 -0.080688901984198369 0.16902073236144788 0.3127793841806854 -0.13710136370362253 0.083014247920338832 -0.054969077493518995 0.064667279106346287 -0.083503422680912598 0.13991416341937804 -0.030184309465277639 -0.016726783662843914 -0.11884447496620953 0.20590662340992838 0.039914283659144734 -0.12673228906911629 -0.12548103004938183 -0.12454597116348046 -0.14183137799983012
leaf_weight=700.50674647092819 8899.6723771095276 5.8981289267539969 2.2504357546567908 1300.6217374205589 6004.3170555084944 746.31209744513035 956.77222681045532 11.848304972052572 1019.7302125692368 22653.826588526368 2466.3521271646023 2507.3511827886105 425.08837543427944 3398.3425299525261 3735.0873581022024 5857.8247928470373 2185.9597027301788 4955.1889301538467 6584.6089766025543 545.46584764122963 931.72622638940811 130.44366653263569 158.8234543800354 745.22239722311497 314.14975267648697 769.5384156703949 3140.3926436305046 276.50426557660103 51.085923701524734 275.04659044742584 2036.4905379414558 105.8508605659008 6.9994198083877555 60.325506135821342 5.0021606981754294 6.4735195189714423 5.9730691909790039 5.3244372606277448 98.990479558706284 52.501122891902924 50.443148016929626 19.804660096764565 540.60962061583996 30.735653877258301 35.781519800424576 292.43895763158798 79.759219095110893 6.0491353273391724 4.320697143673895 650.08593013882637 410.82315576076508 3.0911117494106284
leaf_count=1948 21576 24 10 3691 17270 2704 3996 29 2726 79061 6990 10033 1235 11569 10199 15906 7951 15446 19066 1952 2118 732 479 1728 675 2036 7825 869 121 1207 6210 347 13 217 29 12 13 27 270 202 166 83 1273 114 158 1645 144 21 26 4018 2468 16
internal_value=0 0.0737952 0.0298496 0.0777819 0.0914139 0.0573048 0.000163807 0.0326625 0.056953 0.0289648 0.0240715 0.016986 0.0630779 0.0544703 0.111987 0.0690289 0.0374309 0.0555249 0.0778832 -0.066598 0.0853441 -0.0526695 -0.0196148 0.133809 0.0771591 0.100338 0.122314 0.078818 0.0311932 0.00875781 0.0674574 0.0977767 -0.0944105 -0.0527829 -0.118665 -0.120964 -0.107469 0.100754 0.141432 0.0283745 0.127068 0.03732 0.139434 0.130764 -0.0962177 -0.115354 0.193508 -0.123784 -0.0295207 -0.125275 -0.124018 -0.125558
internal_weight=0 49548.2 36715.6 48034 28836.7 19197.3 3268.28 36043.4 1766.04 34176 31025.9 25161.2 12129.8 5864.69 16706.9 15929 3486.58 10959.5 12442.4 1502.24 4666.81 1514.21 845.034 1170.31 3150.14 1867.35 12040.1 1204.39 535.399 433.87 2737 875.389 669.18 246.355 422.825 672.271 309.635 11.2975 413.14 329.005 101.529 80.1302 662.953 571.345 166.225 298.337 91.6075 665.797 10.3698 655.427 415.825 653.177
internal_count=268644 142771 125873 135389 77397 57992 11378 121770 5430 116756 107653 89094 35679 18559 41718 46614 11642 32716 34972 5948 12317 7382 3682 2963 9103 5014 29401 3454 1973 1686 8158 2383 3700 1190 2510 4103 1709 40 945 1071 287 300 1560 1387 890 1669 173 4091 47 4044 2497 4034
is_linear=0
shrinkage=0.1


Tree=5
num_leaves=52
num_cat=0
split_feature=53 103 69 102 91 70 101 103 102 69 102 69 32 5 21 135 73 72 103 102 31 134 30 70 102 114 135 91 30 71 127 25 106 56 82 29 120 29 29 74 41 121 109 107 101 32 105 6 100 105 0
split_gain=3367.88 1792.94 1755.43 2083.46 1130.56 965.872 740.136 718.599 695.053 1138.35 671.96 1321.59 581.988 554.086 534.917 674.163 619.595 504.937 442.332 389.478 388.572 312.84 288.577 194.12 323.047 168.976 318.899 130.568 127.512 127.476 319.081 99.8691 83.4617 133.938 81.5437 62.6323 60.3731 55.5094 46.959 32.6863 31.7287 19.1956 16.6049 9.46009 7.78145 5.1119 5.06924 0.648303 0.0166038 0.000765857 0.000377034
threshold=1.0106973052024844 -0.65994805097579945 -0.11360304430127142 -0.82953587174415577 -1.2646146416664121 -0.29375499486923212 -0.9457491636276244 -0.81039845943450917 -0.86938944458961476 -0.17832390964031217 -0.79566922783851612 -0.066285863518714891 0.96198192238807689 0.76749342679977428 1.5380786061286928 1.0000000180025095e-35 -0.83910763263702381 -0.60874077677726735 -0.69160532951354969 -0.88957059383392323 1.0009263157844546 1.0000000180025095e-35 1.0980978608131411 -0.55827343463897694 -0.92188954353332508 -0.93375176191329945 1.0000000180025095e-35 -1.0195891857147215 1.1061401367187502 -0.20801869779825208 -3.419450998306274 1.4668476581573489 -0.88549295067787159 1.0153983831405642 -0.37893967330455774 1.147885859012604 -1.6910477876663206 1.2416827082633974 1.2416827082633974 -0.48070557415485377 1.1053034067153933 -1.7923593521118162 -1.0969862341880796 -0.91406285762786854 -0.54083257913589466 0.84055715799331676 -0.77356564998626698 0.93971145153045665 -0.97878503799438465 -0.91817948222160328 0.65062037110328685
decision_type=2 2 2 2 2 2 2 2 2 2 2 2 2 2 2 2 2 2 2 2 2 2 2 2 2 2 2 2 2 2 2 2 2 2 2 2 2 2 2 2 2 2 2 2 2 2 2 2 2 2 2
left_child=4 2 3 8 45 17 13 -7 22 -10 20 12 -12 28 15 19 -17 -5 -13 -8 27 -22 -2 38 -25 26 -15 -4 35 34 36 -30 40 -34 39 -6 46 -27 -16 41 -32 -3 -41 44 -36 47 -31 48 -1 -49 -51
right_child=1 29 10 5 6 7 14 -9 9 -11 11 18 -14 25 23 16 -18 -19 -20 -21 21 -23 -24 24 -26 37 -28 -29 31 30 32 -33 33 -35 43 -37 -38 -39 -40 42 -42 -43 -44 -45 -46 -47 -48 49 -50 50 -52
leaf_value=-0.15044979228342298 0.092606515116083407 -0.1010154537945674 0.12346563933704069 -0.043641674776853157 0.037762298213859978 0.060311791658481745 0.029186179727413337 -0.010867952503754719 0.011302261242841704 0.071682216285217107 0.043572785926878008 0.088919899641082462 -0.035732937207533483 -0.012219781568322135 -0.057583358304990687 0.029332314363188835 0.11630557349435414 0.027262485835335803 0.027038364537486301 -0.010201796507917683 0.070328385397790863 0.15392151044521418 -0.10718653956119889 0.032103341324977899 -0.044213155287170153 -0.022671224890404525 0.12685752421907989 0.088282867778350954 0.1509927902895134 -0.00010064705804233286 0.17896936859424151 -0.047737803303591564 -0.1056705843067493 0.046843250983867865 -0.08615308407314598 0.1135882157093478 0.1768631685753479 -0.11219598373724325 -0.11529744816120631 0.21680060726421427 0.047314163585101758 -0.0027684630772931706 0.010787961894291813 0.0054957492917563668 -0.12064561001147178 0.0097932461319943653 -0.12170225294499988 -0.12354692964046438 -0.14284009924215083 -0.12350327012878236 -0.12239202885593894
leaf_weight=4.6211900860071182 6859.2156781256199 31.146502196788788 4781.2244971692562 3387.7779432088137 117.42148466408253 4271.4366717636585 4112.1982420086861 2123.3819079697132 4649.1819320172071 9508.2149763405323 4592.9578910470009 14033.274913594127 1158.8149357438087 452.64870567619801 514.23252163827419 3064.4704850912094 1117.9029694497585 1427.6142000406981 1258.7263631820679 6445.2573290765285 4632.835187703371 495.58549869060516 73.063905462622643 926.92297145724297 1381.1001054793596 287.63959200680256 259.32425779104233 1353.3958932161331 34.433326348662376 3.4738560914993277 44.040512904524803 95.201846793293953 78.399903744459152 216.84829124808311 79.115132510662079 1507.0540047734976 7.0279348641633979 91.225450530648232 194.22745037078857 8.2131854742765409 31.325684815645218 55.010258078575134 7.4716197252273551 6.6469770073890677 377.42078070342541 2.9179545789957038 260.76606342196465 5.8621093332767478 7.5548150837421399 3.0698669105768195 564.4417916983366
leaf_count=21 18150 173 11051 13485 360 12607 13711 7593 15593 27254 13863 35707 4100 1692 2207 10620 3257 5004 4106 23880 12766 1103 285 3295 5484 1140 727 3525 83 18 98 349 426 785 419 4011 13 438 958 23 89 237 30 33 2297 14 1694 38 36 20 3776
internal_value=0 0.0602701 0.062526 0.0460406 0.0144321 0.0112052 0.018336 0.0366768 0.0645573 0.0518539 0.0790078 0.0684569 0.027595 0.065689 0.010749 0.0186008 0.0525793 -0.0226208 0.0838263 0.00514008 0.0987211 0.0784064 0.0905008 -0.0276185 -0.0135638 0.00972619 0.0384368 0.115704 0.100491 -0.0604908 -0.029999 0.00504845 0.0303209 0.00634488 -0.0951304 0.108107 -0.11241 -0.0442275 -0.0734059 -0.0141135 0.124247 -0.0382857 0.118664 -0.112944 -0.114668 -0.122237 -0.120104 -0.122895 -0.145728 -0.12241 -0.122398
internal_weight=0 65813.6 64606.7 32299.9 21189.7 11210.2 20601.3 6394.82 21089.7 14157.4 32306.8 21043.8 5751.77 2844.95 17756.3 14739.8 4182.37 4815.39 15292 10557.5 11263 5128.42 6932.28 3016.48 2308.02 1090.84 711.973 6134.62 1754.11 1206.91 641.882 129.635 370.614 295.248 565.024 1624.48 271.268 378.865 708.46 101.842 75.3662 86.1568 15.6848 463.183 456.536 588.468 264.24 585.55 12.176 573.374 567.512
internal_count=268644 192527 186192 99971 76117 38689 72212 20200 61282 42847 86221 57776 17963 8800 63412 51468 13877 18489 39813 37591 28445 13869 18435 11944 8779 3997 2419 14576 4803 6335 3123 432 1398 1211 3212 4371 1725 1578 3165 463 187 410 53 2749 2716 3905 1712 3891 57 3834 3796
is_linear=0
shrinkage=0.1


Tree=6
num_leaves=56
num_cat=0
split_feature=69 104 103 52 102 70 45 101 91 32 70 106 102 136 5 69 129 32 102 76 37 70 69 104 113 134 134 101 31 30 134 27 99 69 102 134 75 26 113 129 124 56 90 71 97 92 24 1 135 61 60 29 58 29 91
split_gain=2760.74 2032.92 1317.31 1503.03 931.711 963.389 708.606 711.609 620.611 890.47 791.114 637.451 622.852 586.953 554.595 551.478 446.081 405.829 371.253 332.388 328.463 326.317 321.337 470.252 327.108 277.508 251.08 241.803 238.086 226.881 200.181 200.008 183.001 169.26 184.141 195.434 143.904 129.578 110.446 90.5916 80.4298 75.8779 83.1835 155.303 72.1516 68.91 56.2366 43.7311 41.5716 36.4398 33.9055 30.1259 29.5808 25.0141 2.1037
threshold=-0.12919326126575467 -0.72151637077331532 -0.82629019021987904 1.0281761288642886 -0.86679044365882862 -0.33662335574626917 0.74341651797294628 -0.93522557616233815 -1.0174579620361326 0.9611145853996278 -0.20043621957302091 -0.90787938237190235 -0.77794200181961048 1.0000000180025095e-35 0.75502860546112072 -0.35980118811130518 1.0000000180025095e-35 0.95396128296852123 -0.84741762280464161 -1.2796315550804136 0.94320800900459301 -0.30913925170898432 1.0000000180025095e-35 -0.7942230999469756 -1.3899559974670408 1.0000000180025095e-35 1.0000000180025095e-35 -0.82174980640411366 0.99796327948570263 1.099515497684479 1.0000000180025095e-35 1.1791310310363772 -0.79991722106933583 -0.14533394575119016 -0.82128697633743275 1.0000000180025095e-35 -0.99227046966552723 1.3213027715682986 -0.92647135257720936 1.0000000180025095e-35 -1.1364492177963255 1.0287662744522097 -0.22299656271934507 -0.20801869779825208 -0.80297297239303578 -1.0411854982376096 1.2821684479713442 -0.69229847192764271 1.0000000180025095e-35 0.57942301034927379 0.72333228588104259 1.1278244853019717 0.78345832228660595 1.0163519382476809 -1.0681201815605161
decision_type=2 2 2 2 2 2 2 2 2 2 2 2 2 2 2 2 2 2 2 2 2 2 2 2 2 2 2 2 2 2 2 2 2 2 2 2 2 2 2 2 2 2 2 2 2 2 2 2 2 2 2 2 2 2 2
left_child=2 8 3 6 25 18 38 14 9 19 12 22 -11 -7 -8 -9 20 21 -6 40 -13 30 23 -10 -24 29 31 -28 -21 -5 37 -23 -12 44 35 -35 -18 -4 45 41 -2 48 43 -43 52 -1 -36 -44 53 -32 -46 -27 -19 -3 -40
right_child=1 39 17 4 5 13 7 15 11 10 32 16 -14 -15 -16 -17 36 33 -20 28 -22 26 24 -25 -26 51 27 -29 -30 -31 49 -33 -34 34 46 -37 -38 -39 54 -41 -42 42 47 -45 50 -47 -48 -49 -50 -51 -52 -53 -54 -55 -56
leaf_value=0.055271587259565026 0.022202199011429037 -0.10744734861966275 -0.0039365606781850493 0.080895361783927311 0.017193311947580885 0.062306935220597104 0.081311001170695701 -0.0441341020771664 0.073615630656707495 0.05137473929236757 0.1230175195295798 -0.014820240998675469 -0.035785701029021746 -0.0034087632777515722 0.0096017116636066754 0.013419029934001375 -4.7170148035035697e-05 0.039140830367684953 -0.045096072347161349 0.11268189999956375 0.035831286183370302 -0.05500694013131241 -0.014255740585360534 -0.014298674547497725 0.1269720519243567 0.13487252004477709 0.047502176724015521 -0.065555401902745211 0.082892109035259773 -0.097315715746792042 0.15839571763531829 0.05917078338318596 0.076358230883916633 -0.022040122614296279 -0.11427538301766749 0.12357305941988778 0.11021775547805655 -0.090804511193336782 -0.12203784298739735 0.17856961182198949 -0.11755921551451964 -0.078275119926873263 0.17049903238297387 0.065521924955212668 0.16058853751383612 -0.074335456406339873 -0.050441299017462839 -0.10100081056803328 0.11736142562177464 -0.10482321118738119 -0.13822435361368723 -0.114868346202641 -0.10952364501242594 0.14140582879495958 -0.09544248763932775
leaf_weight=65.345333859324455 326.23504267632961 518.73869995772839 1352.2159008383751 8321.3607473224401 2757.152405500412 8826.8855433315039 2577.971914768219 1944.821405723691 4497.7248657345772 7496.1162025034428 1647.8605040311813 1650.7836826741695 920.55660361051559 1606.5105445533991 1854.250786036253 11567.634560316801 136.88453713059425 13.717464342713354 1465.3995200544596 6555.43678560853 5704.1294808834791 171.04184666275978 183.81958298385143 703.61324793100357 1521.2674231529236 5.1329328417778006 312.16696627438068 480.14351673424244 4541.5334056466818 72.056444019079208 5.3456498533487311 1489.2477502077818 1715.8263471126556 409.68235367536545 186.79637552797794 118.92939043045044 874.50381326675415 196.69538310170174 402.55709341168404 14.258238300681112 47.123574182391167 168.61922925710678 6.0934759378433219 135.43054108321667 15.223286449909212 110.21238319575787 528.43519915640354 224.83027376234531 8.5054620951414091 326.24398185312748 5.0592311620712271 81.886063888669014 551.03049038350582 4.0709221214056006 32.114894196391106
leaf_count=219 986 3376 5388 22085 9112 25918 7365 7883 12108 21249 3647 5811 3083 5210 6721 40488 417 51 5617 15292 17033 741 580 2238 3494 12 990 1993 11816 287 17 4569 4226 1390 825 297 2044 934 2785 29 321 935 11 432 41 515 2046 1470 28 1531 26 337 2443 9 173
internal_value=0 0.0634535 0.0277603 0.0341389 0.0511426 0.0358776 0.0129368 0.0165406 0.067248 0.077535 0.0582242 0.0515874 0.0418417 0.0521882 0.0513109 0.00513552 0.0330254 -0.0153967 -0.00442367 0.0973677 0.0244627 0.00127598 0.0740731 0.061723 0.111747 0.0775235 0.0253054 -0.0210112 0.10049 0.0793654 -0.0300639 0.0474083 0.0992165 -0.0548987 -0.034035 0.0107206 0.0952941 -0.0149679 -0.0930359 -0.0718259 0.00456217 -0.0751742 -0.0485896 -0.0142247 -0.0992574 -0.0260937 -0.0671128 -0.0938366 -0.101942 -0.10058 0.0860532 -0.100137 -0.105913 -0.10551 -0.120073
internal_weight=0 39604 47853.3 41691.3 23136.4 14655.9 18554.9 17944.7 38523.4 23250.7 11780.4 15272.7 8416.67 10433.4 4432.22 13512.5 8366.3 6161.97 4222.55 11470.3 7354.91 4333.1 6906.43 5201.34 1705.09 8480.44 2452.6 792.31 11097 8393.42 1880.5 1660.29 3363.69 1828.87 1243.84 528.612 1011.39 1548.91 610.23 1080.55 373.359 1066.29 534.974 304.05 585.03 175.558 715.232 230.924 531.315 331.59 20.2825 87.019 564.748 522.81 434.672
internal_count=268644 110635 158009 134727 68578 45857 66149 62457 104345 60620 32205 43725 24332 31128 14086 48371 25305 23282 14729 28415 22844 16163 18420 14346 4074 22721 8293 2983 27108 22372 7870 5310 7873 7119 4558 1687 2461 6322 3692 6290 1307 6261 2848 1367 2561 734 2871 1481 3413 1548 67 349 2494 3385 2958
is_linear=0
shrinkage=0.1


Tree=7
num_leaves=52
num_cat=0
split_feature=53 103 6 82 31 134 33 129 94 72 101 135 128 103 70 70 70 70 103 91 115 70 104 31 69 31 6 105 101 53 32 43 135 80 71 121 132 38 1 135 23 21 115 135 111 54 69 28 50 0 45
split_gain=2314.12 1364.71 991.791 813.899 1064.85 1062.93 766.725 692.936 494.972 575.709 922.483 600.485 370.822 362.156 536.506 536.099 357.465 348.456 755.019 266.275 258.396 225.954 466.333 180.767 167.898 133.669 133.41 117.679 115.925 114.132 100.395 61.3612 59.3632 53.3267 74.602 49.6944 49.5652 44.1376 43.6993 41.9601 34.1675 36.0908 32.6398 44.4456 12.6979 10.1576 9.96557 9.03623 8.03659 3.03268 0.341419
threshold=1.0463936924934389 -0.67700961232185353 0.93971145153045665 -1.2085670828819273 0.99854740500450145 1.0000000180025095e-35 0.92424148321151745 1.0000000180025095e-35 -1.0936305522918699 -0.63338720798492421 -0.84954446554183949 1.0000000180025095e-35 1.0000000180025095e-35 -0.79905667901039112 -0.24078546464443204 -0.26563142240047449 -0.26655553281307215 -0.13537889719009397 -0.71104288101196278 -0.99419337511062611 -1.4881651401519773 -0.10796581581234931 -0.70067009329795826 1.0088238120079043 -0.015466232784092425 0.99644678831100475 0.10174146667122842 -0.80405521392822255 -0.8466910421848296 0.99578353762626659 0.96325725317001354 1.0442343354225161 1.0000000180025095e-35 -0.31776709854602808 -0.20066613703966138 -1.8366789221763609 1.0000000180025095e-35 0.9780946969985963 -0.69229847192764271 1.0000000180025095e-35 1.272773325443268 1.2943036556243899 -1.3332643508911131 1.0000000180025095e-35 -1.0614615082740781 1.1359230279922488 0.021289310418069366 1.2710915803909304 0.7298240363597871 -0.12588545680046079 0.89494487643241893
decision_type=2 2 2 2 2 2 2 2 2 2 2 2 2 2 2 2 2 2 2 2 2 2 2 2 2 2 2 2 2 2 2 2 2 2 2 2 2 2 2 2 2 2 2 2 2 2 2 2 2 2 2
left_child=2 3 7 4 12 17 19 8 23 10 -10 -11 30 15 -15 -6 -8 18 -5 -7 -19 36 26 29 -14 40 27 -23 31 -1 -2 -27 -25 34 -24 -28 42 -30 -35 47 -9 -42 43 -3 -44 46 -38 49 -49 -4 -51
right_child=1 21 39 5 13 6 16 25 9 11 -12 -13 24 14 -16 -17 -18 20 -20 -21 -22 22 33 32 -26 28 35 -29 37 -31 -32 -33 -34 38 -36 -37 45 -39 -40 -41 41 -43 44 -45 -46 -47 -48 48 -50 50 -52
leaf_value=0.0060452413457540944 0.098900353158345805 -0.042435268611544751 0.037774033351123788 0.048629094774595143 0.035046157671257502 -0.007590926917080654 -0.045062734251501736 -0.064434303609957902 0.016921053871907597 0.032386595989270461 -0.039286661096794184 0.136662782904413 0.050705434314778086 -0.051022574738825544 0.042081737935902037 0.082758773699592988 0.077679373542239291 -0.043157713630070094 -0.098087572306373522 -0.094964113198670569 0.095350858078516648 0.096268039234926217 -0.10009033223326985 0.11019831640693062 0.098134728973636925 0.064397422470519272 -0.096092863905687442 0.0094388089201620975 -0.0096412256737210683 0.061252502335076453 0.074415296472566644 0.12785178764987404 -0.14889714826325412 0.15945615669024005 0.027359287642431358 0.019481213589263857 -0.1308330885596336 0.19248643498210166 -0.1157062823653635 0.14624381687778518 0.18880383789208127 0.10943840652607628 -0.10407491137126951 0.23433318717691806 0.016703865756365371 0.051218947986440069 -0.094429338164182433 -0.094560037933280716 0.091193464302771851 -0.11803550392781902 -0.15427697358061837
leaf_weight=508.93147791922092 9428.3929905593395 14.073503017425537 1.2492980659008015 12197.497848063707 5409.3409416228533 540.08822011947632 329.28603115677834 10.598774701356886 22687.244923055172 7881.9432578831911 3351.1968272477388 593.85295714437962 3552.5833363384008 852.94602234661579 2255.7673718780279 4170.5678214132786 849.11423985660076 143.64426496624947 361.1358215212822 984.80044916272163 2160.4745747745037 334.17253129184246 104.5594717413187 667.22155679762363 944.87789732217789 980.89361619949341 90.009131342172623 292.89175760746002 240.67523568868637 1417.3108042031527 2036.2482001185417 180.42682050168514 8.9617287963628751 5.8749388456344596 81.903611317276955 63.415364921092987 208.15865448117256 11.311031967401503 328.10839451849461 6.1684840321540824 62.845090359449387 649.05357363820076 33.503722459077835 9.8724653273820877 11.760054528713225 3.599975273013114 117.72885936498642 5.8431698083877546 3.8729547262191772 519.96525475382805 2.6124806106090537
leaf_count=1703 22292 65 5 35118 16235 1894 1303 35 76991 24606 13372 1513 9467 3098 6333 10408 2271 476 1371 4196 5246 903 683 1546 2142 2685 423 1250 800 3861 5017 424 36 11 300 220 1186 24 2441 12 115 1530 166 23 50 16 695 33 14 4027 13
internal_value=0 0.0541893 0.0215626 0.0574257 0.0678166 0.0404777 -0.0172014 0.0234138 0.0202266 0.0170556 0.00968701 0.0396927 0.0850051 0.0461937 0.0165365 0.0558176 0.043381 0.0509686 0.0444101 -0.0640181 0.0867159 -0.0338144 -0.0136295 0.0622814 0.0606699 0.078802 0.0352611 0.0557115 0.0609151 0.0466662 0.0945515 0.0742559 0.106764 -0.0869484 -0.0441083 -0.0483223 -0.099677 -0.000568222 -0.110866 -0.113074 0.113791 0.116445 -0.0227457 0.0716711 -0.0726952 -0.115837 -0.117682 -0.116072 -0.0205166 -0.117845 -0.118217
internal_weight=0 47916.4 39792.2 46216.8 28650.7 17566 2703.29 39252.5 37116.7 34514.2 26038.4 8475.8 15962.1 12688.6 3108.71 9579.91 1178.4 14862.8 12558.6 1524.89 2304.12 1699.63 1300.94 2602.43 4497.46 2135.8 780.489 627.064 1413.31 1926.24 11464.6 1161.32 676.183 520.446 186.463 153.424 398.697 251.986 333.983 539.712 722.497 711.899 69.2097 23.946 45.2638 329.487 325.888 533.543 9.71612 523.827 522.578
internal_count=268644 135299 133345 126867 74992 51875 9664 129241 123628 116482 90363 26119 38918 36074 9431 26643 3574 42211 36489 6090 5722 8432 6231 7146 11609 5613 2796 2153 3933 5564 27309 3109 1582 3435 983 643 2201 824 2452 4104 1680 1645 304 88 216 1897 1881 4092 47 4045 4040
is_linear=0
shrinkage=0.1


Tree=8
num_leaves=60
num_cat=0
split_feature=69 104 103 52 102 70 45 102 102 69 32 136 103 69 103 29 31 31 134 32 134 134 70 70 32 26 134 132 69 102 0 124 69 63 70 112 103 56 37 55 124 67 31 55 104 37 98 103 71 70 113 74 64 18 121 106 81 19 112
split_gain=1929.42 1371.08 1018.91 1073 687.66 849.386 540.617 575.11 525.447 1164.55 552.469 505.471 467.861 1045 459.791 432.552 338 337.875 412.773 322.039 272.142 264.898 256.015 255.452 249.179 243.756 241.112 211.714 187.54 346.467 186.391 183.493 158.849 153.429 136.535 135.449 122.356 120.265 103.977 74.4685 70.3106 168.788 54.5744 52.5974 38.6967 39.2448 33.0062 28.1358 26.8198 26.1529 25.2621 27.215 21.4491 21.3723 18.9958 19.386 8.76162 3.35329 2.76043
threshold=-0.12919326126575467 -0.72151637077331532 -0.8267880082130431 1.0281761288642886 -0.85540753602981556 -0.31893865764141077 0.7080514430999757 -0.94336450099945057 -0.80879682302474964 -0.079855680465698228 0.96198192238807689 1.0000000180025095e-35 -0.77426156401634205 -0.032797358930110924 -0.79078957438468922 1.2301896810531618 1.001554071903229 1.0014440417289736 1.0000000180025095e-35 0.95455214381217968 1.0000000180025095e-35 1.0000000180025095e-35 -0.32421647012233729 -0.25670678913593287 0.96730226278305065 1.2241896986961367 1.0000000180025095e-35 1.0000000180025095e-35 -0.14533394575119016 -0.8155834674835204 0.35670791566371923 -1.1410089135169981 -0.14628775417804715 0.4954600334167481 -0.36127263307571406 -0.8771558105945586 -0.82098358869552601 0.92381209135055553 0.95485228300094616 0.9239257574081422 -2.4751369953155513 0.33549544215202337 0.87314411997795116 0.96251609921455394 -0.70067009329795826 0.94488343596458446 -0.79437720775604237 -0.82258537411689747 -0.3876077532768249 -0.091316398233175264 -0.98892483115196217 -0.95233839750289906 0.62327346205711376 1.1767404079437258 -1.8289753198623655 -0.88241076469421376 -0.29077792167663569 1.1703542470932009 -0.91482114791870106
decision_type=2 2 2 2 2 2 2 2 2 2 2 2 2 2 2 2 2 2 2 2 2 2 2 2 2 2 2 2 2 2 2 2 2 2 2 2 2 2 2 2 2 2 2 2 2 2 2 2 2 2 2 2 2 2 2 2 2 2 2
left_child=2 8 3 6 26 19 50 27 17 10 14 -7 24 -14 -10 -9 21 31 23 -6 -12 22 37 -19 -11 -24 30 -8 39 -30 -5 38 46 36 -28 -35 -34 -4 -2 -23 54 42 49 -20 52 -46 47 -18 -44 -42 51 -1 -43 -48 55 -3 -57 -33 -52
right_child=1 40 16 4 5 11 7 15 9 12 20 -13 13 -15 -16 -17 32 18 43 -21 -22 28 25 -25 -26 -27 34 -29 29 -31 -32 57 33 35 -36 -37 -38 -39 -40 -41 41 44 48 -45 45 -47 53 -49 -50 -51 58 -53 -54 -55 -56 56 -58 -59 -60
leaf_value=0.1044413788558763 0.10006338659806389 0.040388412703532807 0.0011438838093438786 0.02397766725262894 0.0022747600006926367 0.060161491916553067 0.078408732505009127 0.0093611917393476175 0.045358472211654066 0.088516727825437874 -0.055422918539046219 -0.018928415115698548 0.0018265045296186366 0.067053094866609944 -0.011485843718914885 -0.080049196282546628 -0.070362880552496551 0.028440905606077399 0.036289775086582217 -0.074998241049767031 0.073508843158510556 0.092149523337274039 -0.058576051813559599 0.075964037760787417 0.042713602982605153 0.042545933382686543 -0.08958260910788135 -0.024529935786565628 0.078586428960339544 -0.065590279701165322 0.065112591564357572 -0.11848463082786975 0.044648007031717243 -0.09894153952816781 0.037673978991720092 0.10758522788077868 -0.04090522923837242 -0.068381753959715269 0.064645033199927135 -0.094658066418444264 -0.10594655250074353 -0.0054404854098229014 -0.11521400990578555 0.13887690166886149 0.04828654932803176 -0.085126687109973814 -0.055243967416040221 -0.11190489508316473 0.072039187699196094 -0.04027196630855634 -0.093906343256627223 -0.090472514901437442 0.11894650177729141 0.19517069311462337 0.087295615607536708 -0.075353374952428359 -0.11034364208840031 -0.0037231015215005402 -0.1169409561683321
leaf_weight=11.339710161089899 4225.2877335995436 9.7712872028350812 573.75804936885834 1230.162624552846 4191.8221019506454 5329.3268936127424 1594.7180068790913 15853.023893654346 4659.6667552143335 6248.0099909454584 1305.8864858150482 952.5061668753624 3452.9285611957312 8509.1308383196592 2048.4965586066246 560.20150332152843 285.89736041426659 3064.1645148396492 54.490421414375305 618.96549451351166 187.17517071962357 22.292198479175568 268.91149690747261 1792.9338963031769 1466.5248728096485 2099.3346546590328 165.96411469578743 228.41681462526321 279.91159492731094 412.01119765639305 10535.750064387918 41.507109880447388 319.81849616765976 342.42054787278175 171.36660584807396 35.001707896590233 350.23549154400826 439.29080638289452 1031.1369966417551 499.30938895046711 272.33605690300465 17.838962897658348 9.9767554998397809 603.5058611780405 56.596182972192764 36.120708838105202 7.2250050306320173 379.38588246703148 32.781341537833214 78.002556465566158 62.778764605522156 19.450759410858154 62.200659289956093 6.4517310708761215 5.5610487237572661 93.356159053742886 306.5607029274106 2.7125113233923903 303.72665608674288
leaf_count=36 9866 39 2427 3607 14246 14975 4497 55213 13233 15026 4718 3113 10494 21937 6801 2564 1189 8967 160 2361 509 77 1173 4422 4029 6537 672 860 796 1741 28446 325 954 1450 553 93 1333 1956 2545 2363 2010 65 51 1303 200 183 31 1805 103 385 311 102 161 15 20 604 2469 10 2513
internal_value=0 0.0517114 0.0219287 0.0275836 0.0419385 0.0239533 0.00971401 0.0122281 0.0546716 0.0474131 0.0157549 0.0481692 0.0606083 0.048225 0.0279997 0.00630952 -0.0154915 0.0733804 0.0560528 -0.00766734 -0.0392596 -0.00131733 0.013067 0.0459834 0.0798096 0.0310637 0.0584219 0.0655118 -0.0413969 -0.00726479 0.0608118 0.091409 -0.0532153 -0.0287941 -0.0249353 -0.0797885 -7.0449e-05 -0.0290047 0.0931155 -0.0866743 -0.0650334 -0.0421007 -0.0783072 0.130381 0.040285 -0.00368867 -0.0908914 -0.0940527 0.0283474 -0.0913242 -0.105687 -0.0186884 0.0912235 0.0628842 -0.0962834 -0.0987753 -0.102176 -0.111445 -0.112995
internal_weight=0 39674.7 48150.8 41829.5 23195.9 11092.6 18633.7 18236.4 38693.6 27877.8 8201.22 6281.83 19676.6 11962.1 6708.16 16413.2 6321.26 10815.7 5515.09 4810.79 1493.06 4594.82 3381.3 4857.1 7714.53 2368.25 12103.2 1823.13 1213.52 691.923 11765.9 5300.64 1726.44 1047.48 337.331 377.422 670.054 1013.05 5256.42 521.602 981.102 565.853 393.097 657.996 172.757 92.7169 678.96 665.283 42.7581 350.339 397.296 30.7905 80.0396 13.6767 415.249 409.688 399.917 44.2196 366.505
internal_count=268644 110635 158009 134069 67973 34695 66096 63134 104345 76747 25261 18088 51486 32431 20034 57777 23940 27598 14852 16607 5227 17070 12093 13389 19055 7710 33278 5357 4977 2537 32053 12746 6870 3830 1225 1543 2287 4383 12411 2440 6290 3158 2549 1463 609 383 3040 2994 154 2395 2962 138 226 46 3132 3112 3073 335 2824
is_linear=0
shrinkage=0.1


Tree=9
num_leaves=54
num_cat=0
split_feature=53 82 106 31 6 129 129 30 99 72 30 102 69 70 135 69 104 130 35 32 4 117 128 27 102 69 100 102 30 101 85 76 57 69 69 78 44 104 102 76 85 28 33 28 44 31 45 57 53 1 20 44 76
split_gain=1627.33 1030.35 1104.12 871.328 747.815 512.07 440.149 391.662 534.566 417.67 371.495 406.418 490.527 436.111 370.954 447.565 573.568 355.96 473.869 260.7 259.4 240.673 209.023 186.664 131.326 119.448 208.128 98.4444 96.633 94.7382 93.7464 119.69 91.3877 208.521 120.675 82.8581 66.076 65.7921 53.9162 44.2902 37.6848 37.3042 30.618 30.4158 25.0681 19.5039 15.1085 12.7896 12.0456 3.90617 3.42416 0.603509 0.0461056
threshold=1.0474095344543459 -1.1930534839630125 -0.90152519941329945 0.99644678831100475 0.93971145153045665 1.0000000180025095e-35 1.0000000180025095e-35 1.10123747587204 -0.96614852547645558 -0.64568978548049916 1.0768747925758364 -0.79184648394584645 -0.052169600501656525 -0.25163783133029932 1.0000000180025095e-35 -0.015466232784092425 -0.79600661993026722 1.0000000180025095e-35 0.91811460256576549 0.94894114136695873 0.73746278882026683 -1.5651416778564451 1.0000000180025095e-35 1.3945290446281435 -0.86353471875190724 0.0065687589813023814 -0.77346155047416676 -0.93652924895286549 1.0777525901794436 -0.9157252013683318 -0.59160178899765004 -0.60215312242507923 0.96692445874214183 0.010061563923954965 -0.028119768947362896 -1.1600035429000852 1.1015328168869021 -0.80458074808120716 -0.95100790262222279 -1.1400645375251768 -1.1541681289672849 1.268848240375519 0.93691191077232372 1.1434596180915835 1.0544477105140688 0.97845968604087841 0.67488354444503795 0.96692445874214183 1.0569072365760805 0.17056648433208468 1.2226178646087649 0.85016548633575451 -1.1186749935150144
decision_type=2 2 2 2 2 2 2 2 2 2 2 2 2 2 2 2 2 2 2 2 2 2 2 2 2 2 2 2 2 2 2 2 2 2 2 2 2 2 2 2 2 2 2 2 2 2 2 2 2 2 2 2 2
left_child=4 3 14 22 5 7 17 8 20 -10 11 13 -13 -5 15 16 -3 18 -4 -19 -1 -17 32 27 28 26 -24 -9 43 -30 31 -16 34 -34 -2 40 37 -26 -25 48 -8 49 -37 -7 -41 -27 -43 -32 -12 -6 -38 52 -51
right_child=1 2 6 10 41 24 35 23 9 -11 39 12 -14 -15 30 21 -18 19 -20 -21 -22 -23 25 38 36 45 -28 -29 29 -31 47 -33 33 -35 -36 42 50 -39 -40 44 -42 46 -44 -45 -46 -47 -48 -49 -50 51 -52 -53 -54
leaf_value=0.072498298859891105 0.081048127749251908 0.03585924890918734 -0.035737261676765712 0.037376927384921835 0.089492388341633949 -0.073663613782807544 0.09278699361885695 0.062412794267053595 0.0061221877261683003 0.029615705729830678 -0.091745855566470913 -0.023189453539340172 0.052007112722437021 0.076860067087033024 0.10140999480994149 -0.0010002821152308573 -0.074664775592769392 0.080675053821758907 0.026504081728113488 -0.02000146932590971 8.7283473058158724e-05 0.08809376960220891 0.06157310603584365 -0.0352603682229621 0.040700994098458003 0.013163987083350332 -0.0029450556918614763 -0.034721835419978801 0.094640955281554057 0.018235828030674396 0.2118434002728582 -0.214302297639163 0.005258997296244604 0.11276834509205036 0.11255816023681123 0.12426388742572281 0.12662775113077743 -0.044943238253928285 -0.10272020694022777 0.13170616026449034 -0.10666857051866488 -0.085939262204565214 0.069902620179195102 0.1147638683982955 -0.082266434001275771 0.12051607915830205 0.12263163976982919 0.1011212016178471 -0.17062260612967384 -0.11435135012334119 0.19734057080370399 -0.16614463333366558 -0.11943040112237183
leaf_weight=2425.0193627625704 6972.1046752631664 6176.7099332511425 4430.351445697248 8487.8867399245501 0.93764753639697929 8.679832771420477 14.008792772889135 172.82639881968498 22571.942558601499 11383.557657882571 25.126042038202286 1862.6570197939873 1623.7011655718088 4172.8503955304623 800.75252987444401 349.88852827250957 508.16842885315418 691.23919013142586 1689.7400436401367 409.63039337098598 621.51373107731342 2272.2753923237324 2796.6784630417824 167.28262516856194 761.24337802827358 17.946260750293732 608.84722669422626 263.29154045879841 339.4120152592659 310.97422677278519 89.076163962483406 12.190885126590727 433.95962063968182 308.77446860074997 1472.0119436234236 265.15330386161804 9.8175812363624555 101.67760892212391 406.06718966364861 8.871485501527788 29.254568248987198 5.4839983358979216 170.06073471903801 656.99233876168728 14.30223001539707 297.07773412764072 9.4714828133583051 11.816381826996802 84.385165929794312 425.90466240793467 22.638816595077515 2.2800270467996588 18.655490055680275
leaf_count=6484 16806 17795 18836 24469 3 28 35 493 77422 35482 93 6066 4184 10180 2028 1057 1801 1863 4942 1317 2276 5406 7063 614 2158 49 1732 968 835 910 167 49 1215 661 3158 612 21 355 1814 21 110 35 415 1461 51 623 24 27 348 3892 40 11 139
internal_value=0 0.0444919 0.0256176 0.0560803 0.0171894 0.0186435 -0.0029814 0.015922 0.0175986 0.0139984 0.0406956 0.0420649 0.0118318 0.0503902 0.0471613 0.0411917 0.0274575 -0.00913605 -0.0185526 0.0432136 0.057726 0.0762055 0.0754847 -0.045534 0.0654223 0.055488 0.0500384 0.00377103 0.0855226 0.0581088 0.107959 0.0966756 0.0835831 0.0499535 0.0865411 0.0899018 0.035878 0.0306096 -0.0830379 -0.125948 -0.0420843 -0.109211 0.103022 0.112307 -0.000352303 0.1144 0.0461512 0.198876 -0.152525 -0.1144 0.175951 -0.114828 -0.114564
internal_weight=0 47107.5 17920.3 29187.2 40685.7 40222.9 7699.44 38011.5 37002 33955.5 16279.8 16147.1 3486.36 12660.7 10220.9 9307.04 6684.88 7220.96 6120.09 1100.87 3046.53 2622.16 12907.4 1009.47 2211.44 3720.55 3405.53 436.118 1316.06 650.386 913.836 812.943 9186.85 742.734 8444.12 478.477 895.377 862.921 573.35 132.685 43.2634 462.733 435.214 665.672 23.1737 315.024 14.9555 100.893 109.511 447.778 32.4564 446.84 444.56
internal_count=268644 133179 56460 76719 135465 131361 28130 125553 121664 112904 45412 44899 10250 34649 28330 26059 19596 26958 23778 3180 8760 6463 31307 3889 5808 9467 8795 1461 3234 1745 2271 2077 21840 1876 19964 1172 2574 2513 2428 513 145 4104 1027 1489 72 672 59 194 441 4045 61 4042 4031
is_linear=0
shrinkage=0.1


Tree=10
num_leaves=60
num_cat=0
split_feature=70 102 104 52 31 136 105 102 69 25 32 102 69 32 102 103 22 134 32 70 68 71 135 134 31 108 29 124 102 58 70 31 105 37 100 77 0 71 72 37 33 101 27 69 105 125 55 70 32 33 63 68 129 1 114 67 105 41 124
split_gain=1383.52 1021.38 979.243 869.963 592.406 555.162 533.839 413.353 784.164 580.362 401.127 379.068 773.562 359.742 339.876 334.996 333.725 462.828 319.452 278.57 268.915 230.479 226.171 221.502 267.405 210.775 191.34 178.348 176.374 159.077 157.159 133.619 130.396 117.366 117.302 106.033 101.726 98.1817 87.7999 69.7213 134.397 119.297 102.429 69.3237 99.0222 70.6777 85.3352 69.0091 66.6631 51.3046 46.5452 63.2124 32.0217 30.2743 28.1775 25.0789 15.8435 15.7799 9.89062
threshold=-0.27874077856540674 -0.82303735613822926 -0.72876954078674305 1.0281761288642886 1.0030732750892641 1.0000000180025095e-35 -0.86551016569137562 -0.80814293026924122 -0.078629806637763963 1.2447363734245303 0.94947347044944774 -0.76982954144477833 -0.023312430828809735 0.95608049631118786 -0.94080820679664601 -0.86355313658714283 1.3161002993583681 1.0000000180025095e-35 0.96179789304733287 -0.25975097715854639 0.084121096879243865 -0.47393076121807093 1.0000000180025095e-35 1.0000000180025095e-35 1.0014440417289736 -0.86905562877655018 1.1323929429054262 -1.5817959308624265 -0.8137393295764922 0.85020875930786144 -0.25670678913593287 0.9980873465538026 -0.91459456086158741 0.93827295303344738 -0.87954944372177113 -1.3522426486015318 0.3402428030967713 -0.49079962074756617 -0.65438881516456593 0.94036886096000682 0.93291893601417553 -0.82628959417343129 1.2048369050025942 0.049982326105237014 -0.75929421186447132 -2.7367973327636714 1.0553684234619143 -0.3734282106161117 0.95356380939483654 0.91337552666664135 0.4944645762443543 0.0039802032988518485 1.0000000180025095e-35 -0.69229847192764271 -1.4127155542373655 0.14424879103899005 -0.80309045314788807 1.1004179716110232 -1.5031763315200803
decision_type=2 2 2 2 2 2 2 2 2 2 2 2 2 2 2 2 2 2 2 2 2 2 2 2 2 2 2 2 2 2 2 2 2 2 2 2 2 2 2 2 2 2 2 2 2 2 2 2 2 2 2 2 2 2 2 2 2 2 2
left_child=1 3 7 6 16 15 10 23 9 18 14 20 -13 21 -1 -6 35 -18 -9 -11 -10 25 28 24 32 47 37 36 -23 -24 -26 -28 -2 52 -7 -5 -25 -8 -12 50 41 -41 -42 44 57 56 -47 -3 -27 -29 51 -15 53 -4 -55 -52 -45 -35 -46
right_child=2 13 33 4 5 34 26 8 11 19 38 12 -14 39 -16 -17 17 -19 -20 -21 -22 22 29 27 30 48 31 49 -30 -31 -32 -33 -34 43 -36 -37 -38 -39 -40 40 42 -43 -44 45 58 46 -48 -49 -50 -51 55 -53 -54 54 -56 -57 -58 -59 -60
leaf_value=0.047302366849362926 0.017240553744344644 -0.1092914227382874 0.14944141024546667 0.0068172516961531263 0.054761963334250263 -0.016145642592473461 -0.098704045195567039 0.0010512889131416151 0.049714622523157594 0.0075401696757192707 0.067504819425798349 0.0077187846307798071 0.060555883642341927 -0.08664007473802332 0.0049576022272242075 0.011212521183675097 0.045990049066151589 -0.017146871967194308 -0.068589278200753445 0.055086068924877787 0.087841197232192747 0.029480975232696761 0.12359590062246031 0.077107114468841567 0.023331430884213484 0.026488039566454281 0.025444139958854247 -0.061798290111088117 -0.01681485953372697 -0.03294489029723318 0.062448384035512554 -0.040339272744668746 0.08185720335183172 -0.046691379065731925 -0.07804142858893813 0.073155414016399925 -0.11744114594238553 -0.026618940760290095 0.15723717005950316 0.10939753902287382 -0.12862117836999931 -0.029581139106797869 -0.0049786328517731661 0.13810606311251436 0.040299688899231953 -0.099775404717494631 0.0557769836168064 -0.048909160528434685 -0.11012043797493959 0.12340849832500644 -0.12320890854905675 0.0043592922369126291 0.1628056313355678 -0.012349962039815771 -0.092211466688738697 0.057861640284313898 -0.086910516952406661 -0.10963398999406178 0.1389439429162764
leaf_weight=2198.3148703873158 340.20696528255939 238.82708743214607 5.5568639039993277 254.27570807933807 2629.6539749801159 618.67533273994923 591.6254061833024 2162.0542480796576 3739.6613125354052 2150.947562083602 245.18850000202656 4592.2984016090631 6986.1334683746099 320.87072022259235 13760.002131089568 5380.2958831936121 9081.8463485687971 1331.2475333660841 947.29161432385445 2885.2028850018978 3660.976889193058 1260.4422012269497 257.22032772004604 56.690695717930794 2315.9876443147659 466.71776992827654 500.53531831502914 15.196166604757307 2370.6283650547266 86.830082669854164 1845.5562167167664 805.93030652403831 3807.5974823534489 56.918931767344475 606.18910059332848 4595.4229257702827 51.105498805642128 277.60532478243113 196.37718497216702 78.591349795460701 210.81526367366314 288.45400594174862 98.217368856072426 3.2761198580265036 30.934693552553654 41.192969113588333 245.17578686028719 912.19237837195396 38.68220654129982 950.00526933372021 265.37992662191391 100.16448225080967 5.3600212335586539 48.465457901358604 499.66974124312401 7.8761645108461371 69.741739600896835 132.66741478443146 15.138475269079207
leaf_count=6862 953 1177 11 760 7177 2048 3798 6587 9805 6862 677 13454 17798 1422 48233 17067 25515 4737 3492 7765 8513 3899 642 147 6685 1777 1740 50 8540 306 4576 3073 9122 347 2228 11527 194 1210 477 195 927 1126 397 7 87 226 833 4092 167 2071 1125 327 10 296 4043 23 503 906 30
internal_value=0 0.01778 0.0431503 0.0235382 0.0359136 0.0159218 0.00721759 0.0460174 0.0397592 0.0138054 0.0133922 0.0508981 0.0395994 -0.0176423 0.0107907 0.0255097 0.0480097 0.0379184 -0.0201654 0.0347791 0.0685752 -0.00646103 0.00659805 0.0641099 0.0585885 -0.0378006 -0.0393255 0.106868 -0.000744331 0.0840888 0.040679 -0.0151362 0.0765573 -0.0475409 -0.0467781 0.0696772 -0.015127 -0.0756823 0.107411 -0.0635919 -0.040734 0.000176823 -0.0893249 -0.0166309 -0.0587815 0.0110084 0.0334014 -0.061438 0.0160323 0.120493 -0.0858502 -0.0649913 -0.0804411 -0.0827958 -0.0851502 -0.11799 -0.0768146 -0.0907369 0.0727117
internal_weight=0 50075.1 37661 43073.2 24497.6 9234.81 18575.6 36506.9 27124.6 8145.5 16399.9 18979.1 11578.4 7001.91 15958.3 8009.95 15262.8 10413.1 3109.35 5036.15 7400.64 5631.54 3975.12 9382.35 8309.35 1656.42 2175.7 1073 3631.07 344.05 4161.54 1306.47 4147.8 1154.1 1224.86 4849.7 107.796 869.231 441.566 1370.37 676.078 367.045 309.033 595.046 235.66 359.387 286.369 1151.02 505.4 965.201 694.291 421.035 559.052 553.692 548.135 273.256 73.0179 189.586 46.0732
internal_count=268644 163271 105373 137129 71059 28520 66070 98074 74276 24706 56249 49570 31252 26142 55095 24244 42539 30252 10079 14627 18318 20600 13387 23798 21336 7213 9821 2462 12439 948 11261 4813 10075 7299 4276 12287 341 5008 1154 5542 2645 1321 1324 2939 1370 1569 1059 5269 1944 2121 2897 1749 4360 4350 4339 1148 510 1253 117
is_linear=0
shrinkage=0.1


Tree=11
num_leaves=61
num_cat=0
split_feature=69 103 104 70 134 133 52 70 102 69 26 103 69 31 32 70 136 31 113 134 134 32 53 103 68 29 135 70 103 34 69 100 32 31 28 102 72 102 88 31 123 69 129 57 97 0 100 102 37 63 71 107 122 0 124 32 45 109 39 101
split_gain=1169.18 930.346 796.337 729.936 820.494 600.714 501.253 440.707 421.393 813.229 516.133 429.364 768.435 339.357 288.882 260.536 250.172 416.819 375.158 238.563 224.621 220.361 220.254 266.483 217.932 256.685 213.879 176.592 210.495 170.095 166.834 264.137 142.88 136.53 110.643 102.315 98.2128 110.996 87.7289 78.9294 64.7776 139.364 48.1405 47.6529 47.5519 43.1073 58.5374 44.3767 36.8707 33.2364 30.2757 26.349 37.6683 24.3877 14.2538 13.4425 1.58939 1.45414 1.39044 1.03739
threshold=-0.13670309633016584 -0.83549502491950978 -0.72151637077331532 -0.33541661500930781 1.0000000180025095e-35 1.0000000180025095e-35 0.94524851441383373 -0.42291775345802302 -0.81954109668731678 -0.089550588279962526 1.2226023674011233 -0.78270012140274037 -0.038971094414591782 1.0020889639854433 0.96179789304733287 -0.27029718458652491 1.0000000180025095e-35 0.99953648447990429 -1.1898007988929746 1.0000000180025095e-35 1.0000000180025095e-35 0.96623674035072338 1.0479322671890261 -0.8315739333629607 -0.056703211739659302 1.1086777448654177 1.0000000180025095e-35 -0.31009702384471888 -0.82420262694358815 0.90451744198799144 -0.16466341912746427 -0.83952203392982472 0.95662796497344982 1.0066021084785464 1.0000000180025095e-35 -0.86353471875190724 -0.74354854226112355 -0.84669584035873402 -1.2041748166084287 0.98816987872123729 -2.2676575183868404 0.073310364037752165 1.0000000180025095e-35 0.82307693362236034 -0.90787833929061879 0.39735107123851782 -0.84310489892959584 -0.83882009983062733 0.94530838727951061 0.49639005959033972 -0.20801869779825208 -0.96120491623878468 -2.0914313793182369 -0.28266742825508112 -2.4287017583847041 0.82625767588615429 1.2315418124198916 -1.1268893480300901 0.99259015917778026 -0.81988307833671559
decision_type=2 2 2 2 2 2 2 2 2 2 2 2 2 2 2 2 2 2 2 2 2 2 2 2 2 2 2 2 2 2 2 2 2 2 2 2 2 2 2 2 2 2 2 2 2 2 2 2 2 2 2 2 2 2 2 2 2 2 2 2
left_child=1 3 8 4 5 6 -1 -7 20 10 14 21 -13 19 -10 -12 18 38 26 24 22 -11 23 -2 34 -26 -5 45 29 -29 43 -32 -20 -24 -3 -19 55 -38 -18 59 51 42 50 -21 -41 46 -15 -47 53 -30 -42 52 -4 -43 -50 -6 58 -54 -53 -22
right_child=2 13 40 16 36 7 -8 -9 9 11 15 12 -14 27 -16 -17 17 35 32 30 39 -23 33 -25 25 -27 -28 28 49 -31 31 -33 -34 -35 -36 -37 37 -39 -40 44 41 48 -44 -45 -46 47 -48 -49 54 -51 -52 56 57 -55 -56 -57 -58 -59 -60 -61
leaf_value=-0.0037138741813011623 0.068236096125276827 0.015708802961395367 0.28401020404041644 -0.018822670701155564 0.0094659237996508761 -0.069952681674212411 0.031958342103066271 0.0027538140435981939 -0.0038098567204299261 0.07189141921210182 0.0032128324675463125 0.0021581909508245969 0.051031494008640536 0.051978287030073948 -0.072126347889179654 0.042193111011856521 0.046572229734006286 0.016861074420316407 0.071910801948421421 0.052656201400060602 -0.19033158516782925 0.032917161945691796 0.073602868194539608 -0.0052200860776192761 -0.0068246299648514752 0.050502561893965917 0.13334886846686789 0.040766339386392542 -0.063461659203502718 -0.047506017111448744 0.04063257052142414 -0.05817609693790176 0.03628341535949562 0.032201447211288127 -0.05817678849756136 -0.052787056391728662 -0.034618018830827817 -0.11219691632317873 0.12400045768014499 0.16485284478867229 -0.083764998694154352 0.048805217657949866 0.12898577466426961 -0.10672544855390004 0.10334166870895345 -0.047130654154809097 -0.075009563830753745 -0.10427035189015486 -0.059591752450974145 -0.12676442649129704 -0.022979571336537892 -0.048118746204623752 -0.13344321235740572 0.15936455646595832 0.048563881008144662 -0.12758210167165285 -0.038346521405112924 -0.039899124347106692 -0.11247906041715312 -0.12759636384888401
leaf_weight=5054.5533890277147 878.70134516060352 305.0879084020853 4.1927209571003914 883.0100644081831 7.4438961148262015 1144.6915778666735 17849.590617194772 3068.4991815686226 2246.3664172068238 6570.8234453350306 2898.4894724488258 4797.4482229351997 9766.0812403410673 52.463014245033264 854.39188666641712 4198.1583691388369 435.48112884908915 309.58821457624435 4754.4617209285498 19.892001867294312 5.1977597624063492 1861.7405824363232 4278.6198949962854 1127.6712885946035 1539.4827744662762 1585.3925119042397 103.15351675450802 520.24470165371895 428.03473505377769 376.1095545142889 451.75495870411396 674.46210128068924 1474.8189378082752 978.72181525826454 603.7796466499567 661.80567669868469 1218.79680159688 217.30752712488174 220.39086516201496 161.69620141386986 381.95545570552349 64.958147913217545 12.377232506871222 329.38487750291824 564.20877347886562 175.34490619599819 117.82736152410507 604.48877087235451 34.490473821759224 102.87503032386303 104.31908340752125 3.4115049615502349 4.138106033205986 28.796376064419746 18.841865003108978 185.74860391020775 3.0166674330830565 2.7769587337970716 209.06348469108343 5.3477143347263318
leaf_count=19778 2304 1229 12 2890 24 4643 53856 10152 6991 15947 9529 14374 25405 155 3233 11574 1232 964 12686 74 21 5078 10374 3613 5397 4786 228 1529 1804 1303 1409 2967 4287 2747 2882 2371 4660 935 515 316 3066 260 27 1567 1300 634 563 2686 157 524 548 30 28 71 54 785 27 20 2002 21
internal_value=0 0.0147386 0.0378695 0.0212902 0.0135614 0.0177026 0.0240861 -0.017 0.0398717 0.0349063 0.0114013 0.0453295 0.0349319 -0.0164875 -0.022634 0.0262724 0.0464155 0.010997 0.0544032 -0.00286089 0.0604735 0.0632867 0.0551381 0.0269504 0.00972461 0.0222601 -0.0029054 -0.0480651 -0.0258282 0.00372733 -0.0372675 -0.0185414 0.0634758 0.0658955 -0.0333749 -0.0305898 -0.0553621 -0.0463571 0.0725902 0.113098 -0.0566792 -0.0405367 -0.0657678 -0.0976484 0.117043 -0.081469 -0.0358872 -0.0914225 0.0450013 -0.0757279 -0.0707249 -0.10268 0.047514 0.0827631 -0.0213813 -0.122302 -0.110422 -0.0958777 -0.111446 -0.158518
internal_weight=0 45476 42066 37589.3 28746.6 27117.3 22904.1 4213.19 41193.7 33193.5 10197.4 22996.1 14563.5 7886.62 3100.76 7096.65 8842.71 1627.27 7215.44 5509.24 8000.16 8432.56 7263.71 2006.37 4033.74 3124.88 986.164 2377.39 1427.26 896.354 1475.49 1126.22 6229.28 5257.34 908.868 971.394 1629.3 1436.1 655.872 736.45 872.338 645.739 498.652 349.277 725.905 950.124 170.29 779.834 147.087 530.91 486.275 226.599 11.1078 93.7545 53.3323 193.193 215.492 6.91506 212.475 10.5455
internal_count=268644 149515 119129 120006 94833 88429 73634 14795 112827 92131 31327 60804 39779 29509 10224 21103 25173 5082 20091 20311 20696 21025 19038 5917 14294 10183 3118 9198 5160 2832 6017 4376 16973 13121 4111 3335 6404 5595 1747 1658 6302 4183 3641 1641 1616 4038 718 3320 542 2328 3614 2119 60 331 211 809 2059 48 2032 42
is_linear=0
shrinkage=0.1


Tree=12
num_leaves=54
num_cat=0
split_feature=52 108 31 106 6 134 135 36 103 69 133 103 69 104 32 70 101 100 53 30 108 104 70 103 134 31 134 130 31 136 113 130 42 102 69 76 99 70 104 78 108 79 69 113 68 73 30 28 122 45 0 54 113
split_gain=972.248 741.231 678.028 641.503 546.841 533.42 458.371 450.564 420.191 500.03 458.571 459.659 346.318 389.351 334.364 462.742 470.058 325.189 534.315 313.479 311.416 295.483 294.729 315.091 300.255 286.217 241.459 235.723 230.378 216.878 358.15 190.419 178.689 177.852 175.875 170.103 154.457 152.259 132.938 122.257 114.416 96.2432 99.5155 85.5205 63.3905 55.0477 47.8674 31.8444 27.6641 12.4802 2.51247 0.798459 0.0547469
threshold=1.0586370229721072 -0.90735390782356251 1.0011421442031863 -0.90218809247016896 0.93971145153045665 1.0000000180025095e-35 1.0000000180025095e-35 0.92416235804557811 -0.8550647199153899 -0.22461804002523419 1.0000000180025095e-35 -0.93243756890296925 0.0065687589813023814 -0.77910435199737538 0.96325725317001354 -0.19646304100751874 -0.78247374296188343 -0.86184251308441151 1.0539894700050356 1.0791040658950808 -0.93263116478919972 -0.83192858099937428 -0.31393514573574061 -0.82833522558212269 1.0000000180025095e-35 0.99854740500450145 1.0000000180025095e-35 1.0000000180025095e-35 1.0004009604454043 1.0000000180025095e-35 -0.98987871408462513 1.0000000180025095e-35 1.1450052261352541 -0.87963837385177601 -0.19652336835861203 -1.2725118994712827 -0.79991722106933583 -0.30913925170898432 -0.80309826135635365 -0.97248202562332142 -0.86234760284423817 -1.2231135964393614 -0.18456368148326871 -0.96728056669235218 0.084121096879243865 -0.45606726408004755 1.053764343261719 1.268848240375519 -1.2924186587333677 0.67488354444503795 -0.019958926364779469 0.90601858496665966 -0.91513872146606434
decision_type=2 2 2 2 2 2 2 2 2 2 2 2 2 2 2 2 2 2 2 2 2 2 2 2 2 2 2 2 2 2 2 2 2 2 2 2 2 2 2 2 2 2 2 2 2 2 2 2 2 2 2 2 2
left_child=4 3 14 6 8 17 12 21 9 10 11 -1 13 -2 31 16 -16 19 -19 -4 26 37 28 24 -24 -12 -9 -23 40 33 -31 35 -14 -11 -30 -3 -17 -5 -22 46 -10 42 -7 -25 -33 -41 -8 50 -43 -49 -6 52 -52
right_child=1 2 5 7 47 41 39 20 22 29 25 -13 32 -15 15 36 -18 18 -20 -21 38 27 23 43 -26 -27 -28 -29 34 30 -32 44 -34 -35 -36 -37 -38 -39 -40 45 -42 48 -44 -45 -46 -47 -48 49 -50 -51 51 -53 -54
leaf_value=0.060872965762341275 0.023928171386908028 -0.012960340539176296 0.045481859270893543 -0.015468013345849189 0.022605866702649326 -0.14546597922030999 -0.022074511584977349 0.012872250800296714 -0.015494939131014851 0.088066239908512617 -0.049328322068720933 0.010098017953751159 0.085140028946688665 -0.076504253195375349 0.027671325820396754 0.087530801680254788 -0.07124506911650301 -0.046764358676324287 0.018274917546681244 -0.1328272715763 0.054467883043611311 -0.043460381758619354 0.015660757240990586 -0.034198447132829157 0.10037859079430436 0.022667435437199152 -0.065796893696274381 0.052083363184711351 -0.09414152835970975 0.17251926442713017 -0.011660138977479939 0.072220908936346501 0.0047599430157493705 0.042509867719789464 -0.030819774155897785 0.054552806326950476 0.037970388124386925 0.03679964755242883 0.0035063946735251999 0.11546207861835454 0.033642078841670385 -0.072730847177110591 0.10216497134797249 0.0094818095621864058 0.10682903299122454 -0.05115918093038984 0.063770081429394068 -0.083725362429520944 0.11589136703645392 0.10795454839767614 -0.11834795888045785 -0.17626117443507328 -0.11184299033597694
leaf_weight=2048.7272391021252 8628.9193788766861 384.90201859176159 2947.2345617860556 1139.6958871632814 1.3834942281246174 16.521962732076645 90.677151069045067 1463.2604390829802 1791.2079998403788 1185.931983679533 1880.0510447323322 13743.085154697299 1349.4957735836506 404.0819825977087 1394.2095425575972 982.12150686979294 732.98291608691216 1771.9396774619818 4398.7941360026598 102.00917059183121 2286.7825503349304 3363.0535481497645 1460.1925783753395 1127.8719483911991 586.33891314268112 781.79985040426254 532.0010726749897 279.70106096565723 579.78974647819996 117.25635595619678 1060.2904794514179 3189.2375576198101 347.85703030228615 3089.2999624311924 1801.5963342189789 12269.698967114091 1748.1522254645824 1090.7228636294603 659.50191202759743 860.13949920237064 644.35162816941738 44.433896988630295 913.95241801440716 743.83879379928112 634.56635588407516 20.295820191502571 228.98537939786911 5.3408088684082022 9.4247900247573835 9.3320862948894483 13.408603332936762 1.9477235674858082 368.67898136377335
leaf_count=5796 25018 1179 8188 3879 7 70 289 4206 6829 2948 7325 46001 3148 1408 3832 2236 2519 6221 12959 408 6101 15429 4451 4137 1519 2556 2095 849 2379 253 3498 8007 965 9107 6698 31311 4477 3134 1982 1997 2236 199 2194 2411 1396 63 615 35 24 24 104 10 3922
internal_value=0 0.0315488 0.0414719 0.0177886 0.00979222 0.020271 0.0337781 0.000149582 0.0112165 0.0180748 0.0102132 0.0166852 0.027223 0.0194354 0.0516117 0.0285544 -0.00641305 0.0128005 -0.000401253 0.0395167 0.0224019 -0.018573 -0.00755328 0.0128132 0.0399327 -0.0281828 -0.00810348 -0.0361243 -0.0241199 0.0446804 0.00667986 0.0584084 0.0686669 0.055147 -0.0462366 0.0524993 0.055798 0.010092 0.0430606 0.0923891 -0.00249525 0.0902449 0.0977679 -0.0168394 0.0779642 0.111621 0.039419 -0.106408 -0.0397236 0.0381847 -0.111912 -0.112397 -0.112071
internal_weight=0 54285.4 31540.2 22745.2 33041.7 10204.3 11930.5 10814.7 32641.6 23906.4 18453.7 15791.8 10730.4 9033 21335.9 4857.47 2127.19 9219.98 6170.73 3049.24 4941.55 5873.17 8735.19 3918.24 2046.53 2661.85 1995.26 3642.75 4816.95 5452.78 1177.55 16478.4 1697.35 4275.23 2381.39 12654.6 2730.27 2230.42 2946.28 1200.1 2435.56 984.333 930.474 1871.71 3823.8 880.435 319.663 400.092 53.8587 14.6729 385.419 384.035 382.088
internal_count=268644 156398 85220 71178 112246 30263 33503 37675 108144 77484 61678 51797 30539 26426 54957 13064 6351 27776 19180 8596 14384 23291 30660 12518 5970 9881 6301 16278 18142 15806 3751 41893 4113 12055 9077 32490 6713 7013 8083 2964 9065 2487 2264 6548 9403 2060 904 4102 223 59 4043 4036 4026
is_linear=0
shrinkage=0.1


Tree=13
num_leaves=63
num_cat=0
split_feature=69 103 103 129 70 102 53 32 103 69 27 135 70 69 135 32 103 104 31 102 32 63 6 134 6 38 69 31 62 69 25 132 106 104 61 29 133 51 53 128 31 102 106 132 44 51 80 73 89 52 132 58 103 118 135 101 70 125 100 65 37 104
split_gain=890.698 652.067 641.458 550.682 496.075 715.8 502.184 394.081 374.536 815.741 376.824 310.394 308.435 305.389 262.221 259.179 351.621 258.716 250.769 246.463 223.497 221.116 174.524 166.137 162.282 212.14 147.763 144.779 132.921 303.249 131.864 137.01 95.9669 93.9581 88.4548 84.7521 83.4631 77.1339 75.53 73.3471 67.5969 78.7499 66.586 66.0127 63.4737 50.8343 49.899 67.9676 45.5272 38.6751 33.936 28.1099 27.4346 17.8528 40.5708 14.2179 23.3162 11.0131 9.5661 8.53383 5.85868 4.88134
threshold=-0.10869358107447623 -0.81269666552543629 -0.68479984998702992 1.0000000180025095e-35 -0.30913925170898432 -0.84602847695350636 0.92941695451736461 0.95958825945854198 -0.79617127776145924 -0.061731101945042603 1.1675446629524233 1.0000000180025095e-35 -0.11874403059482573 -0.084957703948020921 1.0000000180025095e-35 0.96822661161422741 -0.75644543766975392 -0.70067009329795826 1.0037606358528139 -0.82835572957992543 0.95608049631118786 0.51348441839218151 0.11631719768047334 1.0000000180025095e-35 0.53481569886207592 0.9622459113597871 -0.030552080832421776 1.0007225275039675 0.6002577841281892 -0.089550588279962526 1.3357273340225222 1.0000000180025095e-35 -0.9647310972213744 -0.73473256826400746 0.67480954527854931 1.0693473219871523 1.0000000180025095e-35 1.0812394618988039 1.0291047692298891 1.0000000180025095e-35 1.0196611285209658 -0.80005592107772816 -0.95741581916809071 1.0000000180025095e-35 1.100863575935364 1.1556443572044375 -0.31776709854602808 -0.37073123455047602 -1.0528001785278318 1.1122439503669741 1.0000000180025095e-35 0.85267779231071483 -0.80182030797004689 -1.4446471929550169 1.0000000180025095e-35 -0.82303041219711293 -0.28151910006999964 -2.6184238195419307 -0.80702999234199513 0.52228066325187694 0.91362103819847118 -0.73956453800201405
decision_type=2 2 2 2 2 2 2 2 2 2 2 2 2 2 2 2 2 2 2 2 2 2 2 2 2 2 2 2 2 2 2 2 2 2 2 2 2 2 2 2 2 2 2 2 2 2 2 2 2 2 2 2 2 2 2 2 2 2 2 2 2 2
left_child=1 3 8 4 5 6 -1 19 27 10 11 -10 43 -12 -7 16 -11 22 35 -6 23 -9 33 30 51 -26 -17 32 37 -30 31 -3 36 -14 44 49 -2 -29 -34 40 41 -22 -37 53 -20 -24 47 -19 -36 -5 -48 -25 -32 54 -4 56 -41 60 -57 -55 -45 -59
right_child=2 20 12 18 7 14 -8 21 9 15 13 -13 17 -15 -16 26 -18 46 34 -21 39 -23 45 24 25 -27 -28 28 29 -31 52 -33 38 -35 48 42 -38 -39 -40 55 -42 -43 -44 57 -46 -47 50 -49 -50 -51 -52 -53 -54 59 -56 58 -58 61 -60 -61 -62 -63
leaf_value=-0.010955833004340158 0.032664465904925798 0.016468376357069013 -0.053968114071974604 -0.082490841423692812 0.056722331979521548 -0.031308141154956629 0.021137636738772014 0.0092407204983001503 -0.041346293755813612 0.066392845756379312 -0.012184112370288141 0.1295460686521421 0.072732698643626581 0.047746332699022766 0.042278767931070181 -0.024578352982505283 0.031371891423259267 -0.066738005373521272 0.019700422482007207 0.024448611246713346 -0.02955169745845139 -0.073904910228182019 -0.119965213570925 0.0090030788407235631 -0.04717656933119671 0.093764952403155494 0.03429699861534017 0.014223825099860849 -0.013116311538605605 0.052053521414849514 -0.024775659895199323 -0.060118043868802366 -0.056633161996988139 0.0090451232298494871 -0.14618122805205058 0.16982195842938946 -0.10850995277475349 0.074641060851114174 0.067670365308656513 -0.13047667629003976 0.28107979340316797 -0.088335183327063818 0.076238275089982557 0.039184021877561016 0.12990472967853006 -0.019472938977038654 0.13793658850551424 0.080768596851041333 0.16141513147749964 0.032010676154270314 -0.10714603776761006 -0.11546821958958398 -0.096444249198924387 -0.085279494434863184 0.20055408031293248 -0.14080269700659495 -0.034138753473003054 -0.16538528358093441 -0.021284247850997529 0.043462208606748876 -0.11309245006498539 -0.12779800149815709
leaf_weight=6195.1947364956141 216.92668490111828 2488.6742692217231 16.295308016240597 36.498992808163166 4872.742714330554 5175.9585956856608 22890.282629147172 2396.4703003913164 2189.4492879956961 5735.303181424737 1617.5300625711679 111.70681162178516 443.63812041282654 1792.5462772399187 534.22598260641098 789.30965384840965 5732.478786110878 125.48891336470842 1205.8817449212074 4599.9480722844601 745.78849523514509 369.10883618891239 87.720018349587917 19.442718714475632 497.75680832564831 135.96442192792892 926.84228858351707 254.35252970457077 1128.1719868183136 1944.9842856526375 85.077618345618248 257.78317730128765 49.316514790058136 484.76787185668945 43.705645933747292 78.932100355625153 51.896202772855759 1248.7603304386139 5552.8239984065294 49.878863319754601 6.2971714884042731 328.18331304937601 2067.5578854307532 2.5831413567066184 54.63098868727684 118.1195407435298 5.7897859811782828 41.5908068343997 5.4071106612682334 153.81592658162117 233.73547556251287 271.51120302081108 143.50699113309383 30.774012483656406 10.172115638852121 108.21431282162666 50.616498127579689 89.399826034903526 7.1385234147310248 6.1833260953426352 115.4009500965476 56.315053209662437
leaf_count=24488 567 8499 83 179 12775 19450 70576 7332 7490 14052 5272 251 1141 4748 1714 2418 15503 888 3490 13728 2688 1315 391 79 1948 375 2390 720 3417 4914 389 898 194 2207 172 154 180 3054 13580 219 14 1476 5036 15 125 396 13 157 12 399 2486 1407 739 202 27 508 173 371 28 28 785 319
internal_value=0 0.0134808 0.0345709 0.0169398 0.0140373 0.00794667 0.0143017 0.0313543 0.0381881 0.0297872 -0.00178159 -0.0330505 -0.0222485 0.019319 -0.0244236 0.0434627 0.0488867 -0.00352569 0.0543769 0.0410502 -0.0202576 -0.00185634 0.0210081 -0.00830083 -0.0453236 -0.0169377 0.00721846 0.0533821 0.0400485 0.0281293 0.00320625 0.00927996 0.0637754 0.0394782 0.0193468 0.0740089 0.00541077 0.0644174 0.0665761 -0.0562328 -0.0455992 -0.0475147 0.0796796 -0.110439 0.0244767 -0.0622984 -0.0719638 -0.0300195 -0.112316 0.0100513 -0.101222 -0.107151 -0.0697697 -0.0188415 0.0438513 -0.109451 -0.0819542 -0.13247 -0.133406 -0.0637397 -0.109759 -0.150859
internal_weight=0 55876.2 31210.4 50680.4 47033.9 34795.7 29085.5 12238.3 29342.4 18895.2 5711.23 2301.16 1867.97 3410.08 5710.18 13183.9 11467.8 1540.85 3646.43 9472.69 5195.83 2765.58 1134.25 3899.72 924.675 633.721 1716.15 10447.2 4576.27 3073.16 2975.04 2746.46 5870.96 928.406 1309.63 2336.8 268.823 1503.11 5602.14 1296.12 1080.27 1073.97 2146.49 327.124 1260.51 205.84 406.605 167.08 49.1128 190.315 239.525 290.954 228.585 63.4248 26.4674 215.848 100.495 263.699 115.353 36.9573 117.984 145.715
internal_count=268644 180385 88259 160945 151378 116228 95064 35150 78750 52124 17761 7741 9509 10020 21164 34363 29555 7679 9567 26503 19440 8647 4135 14334 3809 2323 4808 26626 12105 8331 10525 9397 14521 3348 3799 5768 747 3774 13774 5106 4178 4164 5190 1830 3615 787 3544 1045 184 578 2499 1486 1128 340 110 928 392 1490 536 230 800 690
is_linear=0
shrinkage=0.1


Tree=14
num_leaves=62
num_cat=0
split_feature=69 103 68 134 104 52 102 103 69 113 32 68 32 102 63 32 100 134 63 105 31 136 69 63 69 31 134 105 133 133 71 102 31 133 134 103 62 101 60 69 69 62 56 97 123 71 38 28 23 54 101 57 106 122 41 23 117 58 112 51 115
split_gain=771.217 654.55 538.431 616.667 484.641 396.701 479.182 336.256 644.804 288.881 283.735 288.464 267.467 324.629 259.073 276.945 252.612 229.442 223.648 180.389 213.94 180.154 149.948 237.959 148.948 145.448 185.039 168.533 144.91 135.824 132.729 188.836 129.085 122.853 122.399 111.761 103.528 95.3423 94.7254 89.5236 78.1288 76.6096 63.7106 61.7781 59.5661 104.749 52.822 51.3887 50.8188 45.4095 43.1014 31.6928 30.0043 37.3654 29.9829 14.0206 11.8616 13.8894 1.81818 1.26698 0.625097
threshold=-0.13286877423524854 -0.83434146642684925 -0.040571656078100198 1.0000000180025095e-35 -0.72151637077331532 0.84350886940956127 -0.92188954353332508 -0.81100463867187489 -0.092869397252798067 -0.92572879791259755 0.9541582763195039 -0.020959509536623951 0.96822661161422741 -0.71104511618614186 0.54356211423873912 0.95958825945854198 -0.84095901250839222 1.0000000180025095e-35 0.47185827791690832 -0.90994292497634877 1.0020889639854433 1.0000000180025095e-35 -0.14722508937120435 0.48106046020984655 -0.041114931926131242 1.0039903521537783 1.0000000180025095e-35 -0.91067925095558155 1.0000000180025095e-35 1.0000000180025095e-35 -0.52584487199783314 -0.84886929392814625 0.99876990914344799 1.0000000180025095e-35 1.0000000180025095e-35 -0.82258537411689747 0.57277417182922374 -0.83035740256309498 0.73498091101646434 -0.16679030656814572 -0.079855680465698228 0.57548424601554882 1.0287662744522097 -0.80297297239303578 -2.2676575183868404 -0.20066613703966138 0.89654096961021434 1.177698075771332 1.0935663580894472 0.99488356709480297 -0.54083257913589466 0.82307693362236034 -0.87077125906944264 -2.0914313793182369 1.1151930093765261 1.3105701804161074 -1.4251078963279722 0.92842948436737072 -1.2990307211875913 1.1915654540061953 -1.4437190890312193
decision_type=2 2 2 2 2 2 2 2 2 2 2 2 2 2 2 2 2 2 2 2 2 2 2 2 2 2 2 2 2 2 2 2 2 2 2 2 2 2 2 2 2 2 2 2 2 2 2 2 2 2 2 2 2 2 2 2 2 2 2 2 2
left_child=1 2 3 5 7 9 -7 25 14 -1 11 17 13 -10 15 -9 41 36 21 29 -21 39 43 35 -14 27 37 33 -16 -20 46 -32 -23 -2 -18 -24 -3 -27 -25 -4 -29 -13 48 47 58 50 -5 -12 52 -28 -46 -19 53 -6 -47 -45 -50 -58 -44 -54 -60
right_child=4 10 18 30 42 6 -8 8 12 -11 22 16 24 -15 28 -17 34 51 19 20 -22 32 23 38 -26 26 49 40 -30 -31 31 -33 -34 -35 -36 -37 -38 -39 -40 -41 -42 -43 44 55 45 54 -48 -49 56 -51 -52 -53 59 -55 -56 -57 57 -59 60 -61 -62
leaf_value=-0.0037633856797526129 0.039152913938741402 -0.006657131240588492 0.048234561359746381 -0.060133939607793223 0.23012663870414057 0.040975014865907204 0.0090375796248844068 0.018278137176954944 0.043618547752054551 -0.1027641820140881 -0.094869693576303926 0.066933454719551339 -0.024305088139493638 0.013513544225817048 -0.074351203843508032 -0.034565528998440884 0.013480343653845787 0.029195709992436952 0.046337658957054127 0.052705929688235724 0.00094312834620537047 0.080958703378713165 0.075454940475170318 -0.037104683320167246 0.025278883680513044 0.032787837333462688 -0.017861294761787595 0.05338142923789653 0.045451342932422652 -0.066161625321601386 0.015344078047693503 -0.075071459888740463 -0.013148434347620273 -0.058385768214121794 -0.039008702297690843 -0.036990461065286126 -0.082297584142177638 -0.0042670544526917757 -0.12189450189376526 0.082637113537764983 0.086421594449806571 0.01117994901168954 -0.020539555877894852 -0.027581808750866212 0.031187105979311427 0.077404238609114273 -0.11588976352300145 -0.042107347625369079 0.13654524965302081 0.10662113840039898 -0.076555222728678873 -0.092171938095004333 -0.11208452937077662 -0.059608727813149014 -0.068113794770570599 0.14416291241242862 -0.058917196350211601 0.13205147900505029 -0.079847996472240557 -0.05060335720675857 -0.11043486171152375
leaf_weight=768.08200856298208 311.96264386177063 2080.837408348918 1355.3885005712509 613.06250315904617 4.649364009499549 5986.8997270390391 21819.14695930481 3600.6169419363141 15079.64849755168 478.27181992679834 646.40555619448423 919.81071911752224 1173.8691836446524 4697.7236856669188 698.90978352725506 1368.7840515822172 1215.5314177274704 22.490429520606995 152.80920015275478 1910.8385278433561 1371.6101313233376 200.01975113153458 281.7025633752346 878.11065117269754 1251.9809921234846 2144.4258057922125 32.109704613685608 6359.932977385819 118.01215144991875 360.50387947261333 570.31637679040432 388.2410591840744 537.29059472680092 220.33445751667023 700.16450809687376 128.80769209563732 198.18032538890839 1026.886541262269 155.01878260076046 1711.6198354512453 806.44295056164265 336.66098263859749 2.5068826824426642 6.9514017552137402 48.793386891484261 126.00343167036772 235.06726194918156 258.38103543221951 10.138466238975527 335.40421113371849 155.32270618528128 496.42784398794174 221.93244653195143 104.37542226165533 15.951776616275309 15.032592371106146 12.158771358430387 5.5456466823816291 7.4716678112745276 3.4032471254467955 63.183808118104935
leaf_count=2986 810 8365 3813 2452 13 17662 69954 10915 39345 3727 2912 2453 3693 13890 2645 4901 3825 87 399 4853 4146 507 739 3206 3317 5906 98 16291 348 1195 2013 1664 1796 708 3012 518 879 3097 703 4371 1867 932 26 30 229 411 1020 1089 35 743 1274 2431 2443 828 82 38 69 15 87 32 749
internal_value=0 0.0102794 0.0157868 0.00991485 0.0291885 0.0134401 0.015914 0.0307419 0.0248754 -0.0417536 -0.0151159 -0.00349391 0.0326238 0.0364677 -0.00485648 0.00372275 0.0171502 -0.0268992 0.0396291 0.0224554 0.0310762 0.0567641 -0.044387 -0.0242351 0.00128519 0.0453538 0.0285736 0.0530671 -0.0570446 -0.0326715 -0.0467721 -0.0212766 0.0123812 -0.0012214 -0.00570379 0.0401724 -0.0132347 0.0207893 -0.0498272 0.0674338 0.0570995 0.0519948 -0.0487909 -0.0757778 -0.0222505 -0.00491915 -0.0755872 -0.0798023 -0.0795101 0.0957451 -0.0507997 -0.0869117 -0.0903191 -0.047253 0.0610521 0.0898567 0.0502933 0.000900912 -0.104231 -0.111156 -0.1072
internal_weight=0 46799.7 38459.2 30859.1 40008.5 29052.4 27806 39227 27989.5 1246.35 8340.51 5970.1 22203.2 19777.4 5786.32 4969.4 3172.17 2797.94 7600.08 3795.76 3282.45 3804.32 2370.41 1443.64 2425.85 11237.5 3538.83 7698.67 816.922 513.313 1806.69 958.557 737.31 532.297 1915.7 410.51 2279.02 3171.31 1033.13 3067.01 7166.38 1256.47 781.437 926.771 419.234 346.071 848.13 904.787 362.203 367.514 204.116 518.918 334.36 109.025 141.955 21.984 27.8429 17.7044 73.1624 225.336 70.6555
internal_count=268644 153777 122558 101478 114867 94329 87616 108574 79054 6713 31219 21984 60245 53235 18809 15816 10222 11762 21080 10593 8999 10487 9235 5166 7010 29520 9844 19676 2993 1594 7149 3677 2303 1518 6837 1257 9244 9003 3909 8184 18158 3385 6293 4069 2858 1996 3472 4001 3435 841 1503 2518 3316 841 493 68 119 84 862 2475 836
is_linear=0
shrinkage=0.1


Tree=15
num_leaves=63
num_cat=0
split_feature=69 102 52 79 102 70 103 136 69 103 32 69 29 102 70 31 113 104 70 71 63 135 104 60 69 30 102 29 68 134 100 6 136 27 107 2 132 130 96 101 58 129 39 33 70 118 55 57 51 132 70 80 66 105 73 40 43 1 117 135 48 35
split_gain=654.501 484.676 520.109 459.394 440.093 523.911 434.856 401.761 349.781 876.781 456.391 331.625 305.25 278.334 270.74 236.913 233.618 232.182 219.539 218.829 236.032 222.454 208.282 198.085 220.038 197.42 182.352 167.647 162.805 249.116 259.541 147.373 146.761 142.25 114.524 109.375 107.029 92.8136 92.752 89.4219 86.7112 84.6838 81.8441 74.467 74.1094 68.0421 64.9467 57.9322 51.5451 47.5078 52.3709 46.8644 51.7173 45.581 36.457 35.7555 25.6573 24.4586 22.9681 31.3723 20.1357 9.8289
threshold=-0.11946791410446166 -0.82835572957992543 1.0193001031875613 -1.2712209820747373 -0.88059407472610463 -0.35590702295303339 -0.68479984998702992 1.0000000180025095e-35 -0.0097850132733583433 -0.75279352068901051 0.96325725317001354 -0.06776604056358336 1.2416827082633974 -0.92863300442695607 -0.10796581581234931 1.0007225275039675 -1.3899559974670408 -0.70067009329795826 -0.21322518587112424 -0.47565150260925287 0.52002564072608959 1.0000000180025095e-35 -0.78952953219413746 0.81637123227119457 0.013603643048554661 1.103312134742737 -0.85692986845970143 1.1511050462722781 -0.0081901187077164633 1.0000000180025095e-35 -0.83385533094406117 0.11631719768047334 1.0000000180025095e-35 1.1334273219108584 -0.84611520171165455 0.16557458788156512 1.0000000180025095e-35 1.0000000180025095e-35 -0.82494336366653431 -0.95831444859504689 0.87990191578865062 1.0000000180025095e-35 0.85375756025314342 0.92303910851478588 -0.3734282106161117 -1.6107136011123655 1.0352335572242739 0.835066318511963 1.1556443572044375 1.0000000180025095e-35 -0.11874403059482573 -0.31776709854602808 0.45841254293918615 -0.8231966197490691 -0.85680657625198353 1.0574881434440615 1.1756307482719424 -0.69229847192764271 -1.4116564989089964 1.0000000180025095e-35 1.1375467777252199 0.84418699145317089
decision_type=2 2 2 2 2 2 2 2 2 2 2 2 2 2 2 2 2 2 2 2 2 2 2 2 2 2 2 2 2 2 2 2 2 2 2 2 2 2 2 2 2 2 2 2 2 2 2 2 2 2 2 2 2 2 2 2 2 2 2 2 2 2
left_child=1 2 3 27 25 26 8 -7 9 10 11 -2 13 -5 49 19 46 31 -12 34 21 -21 35 40 -25 36 -6 42 38 37 -31 45 -29 -24 44 -11 -4 -30 47 -14 -18 -22 -1 -36 -3 -16 55 -17 -33 58 -51 52 -19 -52 -27 -10 -48 -53 59 -8 -40 -60
right_child=6 15 4 12 5 7 14 -9 16 22 18 -13 39 -15 17 28 23 51 -20 20 41 -23 33 24 -26 54 -28 32 29 30 -32 48 -34 -35 43 -37 -38 -39 60 -41 -42 -43 -44 -45 -46 -47 56 -49 -50 50 53 57 -54 -55 -56 -57 -58 -59 61 -61 -62 -63
leaf_value=-0.11354521797712919 0.031679199988811073 -0.095315270447009992 0.049261630701622747 0.036337095965479051 -0.002813149170374949 0.032197467470610662 -0.029196093600651504 -0.010001231545499596 0.054469046654596981 0.021933726777251202 -0.00057747992280232814 0.061695563564239553 -0.0071490999249785225 0.0027804475993768391 0.0019596628641906266 0.072376061431010594 -0.046609161560005254 -0.085755770070040677 0.033478824000225109 0.010348151778579114 -0.054582203629004192 0.083502211743315582 -0.087539697503638061 -0.016823367034393969 0.05793451672242847 -0.15868764293107482 -0.050589648456703398 0.0023495301942075709 -0.068154721088448653 0.078927408273398142 -0.035809027558509829 -0.12408400791786796 -0.061645854732088223 -0.025223110184745642 0.015491729509847044 -0.10789088673230136 -0.12527123583212349 -0.010124040710333742 0.085906437577209616 -0.10373410584434109 0.081501449546011295 0.08007555829969909 -0.050138728739575845 -0.13423736739172507 -0.035219190217815353 0.064047083463368779 0.026850637015023861 -0.089420303347169897 -0.009315944791270802 -0.12673791718936192 0.070716606033408111 0.13097902997191735 0.030287764913343753 -0.076762996555770763 0.1054070393992846 -0.16936189725902343 -0.14535696681839358 -0.10406250740095319 -0.10047050968335443 0.1941044197532904 -0.07658538653639467 -0.0057066959901489892
leaf_weight=262.88187166303396 12932.597892299294 262.03971538692713 6243.3900599181652 3344.9008229374886 2766.7547845244408 12413.455564022064 14.783297091722488 2757.2997448444366 8.0963845551013929 659.6463425308466 5221.7795943319798 5145.010540612042 140.5964982509613 9469.2723165228963 255.72913961857557 22.884475156664848 54.004887498915195 73.639991343021393 2969.1359914541245 4450.7013152092695 649.43947611004114 458.50831006467342 727.68199940025806 559.73649604618549 1327.4093533158302 54.601918384432793 1123.1917918622494 1276.0934119075537 799.29193380475044 411.34272992610931 378.62389317899942 70.628831557929516 498.28172364830971 737.61678305268288 533.32420039921999 71.974691063165665 35.334284156560898 420.66369645297527 41.392673626542091 301.23715526610613 2434.6776513457298 50.320862799882889 902.31711183488369 35.422489359974861 946.04215081781149 569.80206278711557 52.092981770634651 671.29274565726519 87.75600541383028 249.67453397065401 25.203719139099121 4.5304258763790122 80.267546273767948 124.36090862005949 5.7804881483316413 60.214626386761665 10.374917104840277 194.54773379862309 21.941921576857567 10.953375145792961 9.3484561890363675 21.838727340102196
leaf_count=3020 35727 1366 16305 10364 8759 35748 72 8634 21 1840 15666 12741 488 32975 847 94 195 629 7798 14358 2505 1155 2865 1624 3267 234 4211 4224 3099 1027 1466 337 1866 2293 1942 271 131 1536 121 1614 5677 127 3592 152 4250 1920 141 3309 283 1490 62 11 360 772 15 229 38 2441 180 25 37 98
internal_value=0 0.0100156 0.0147946 0.000790975 0.0237237 0.0161327 0.0277555 0.0245278 0.0303723 0.0262741 0.0313495 0.0402221 0.00872202 0.0115398 -0.020028 -0.00958724 0.0562579 0.00290089 0.0117676 -0.00025231 0.00943571 0.0171806 -0.0344132 0.060194 0.035761 0.0465488 -0.0166082 -0.034974 -0.0346144 -0.0198148 0.0239353 0.027862 -0.0156217 -0.0561701 -0.0308348 0.00916197 0.0482794 -0.0481446 -0.0745464 -0.0729997 0.0787214 -0.0448988 -0.0644439 0.00616635 -0.0482544 0.0448139 -0.0754433 -0.0840865 -0.0604947 -0.0854215 -0.0987058 -0.066676 -0.0252355 -0.0519106 -0.133406 -0.142833 -0.00175029 -0.0987137 -0.00912951 0.0658393 0.0559692 -0.0532003
internal_weight=0 51736 41595.4 16195.6 25399.8 19060.7 34777.7 15170.8 32972.1 28465.4 26268.5 18077.6 13256 12814.2 1805.66 10140.6 4506.61 1336.9 8190.92 7385.8 5608.97 4909.21 2196.92 4375.83 1887.15 6339.11 3889.95 2939.57 2754.84 2009.92 789.967 983.916 1774.38 1465.3 1776.83 731.621 6278.72 1219.96 744.918 441.834 2488.68 699.76 1165.2 568.747 1208.08 825.531 130.779 694.177 158.385 468.756 399.239 352.986 153.908 149.565 60.3824 68.311 62.4679 199.078 69.5173 25.7367 50.7411 43.7806
internal_count=268644 168724 132180 58143 74037 57352 99920 44382 90393 79201 71932 48468 45441 43339 9527 36544 11192 6828 23464 25855 18145 15513 7269 10763 4891 16685 12970 12702 10689 7128 2493 3387 6090 5158 7710 2111 16436 4635 3561 2102 5872 2632 6612 2094 5616 2767 429 3403 620 2699 2324 3441 989 834 249 250 179 2452 375 97 158 278
is_linear=0
shrinkage=0.1


Tree=16
num_leaves=56
num_cat=0
split_feature=53 90 8 32 70 61 106 101 72 135 72 30 101 30 134 108 134 102 3 44 32 135 70 104 117 101 69 116 102 28 102 118 68 127 30 29 53 108 76 85 76 3 60 126 54 59 135 27 63 57 30 6 0 0 53
split_gain=565.685 484.411 396.092 391.625 419.841 471.785 382.511 331.187 522.951 478.592 427.413 319.302 365.587 289.626 277.591 271.961 275.703 265.422 199.452 195.612 190.882 190.189 235.809 378.767 193.554 189.237 340.454 162.226 154.929 148.302 134.33 134.154 127.806 126.14 123.657 117.971 153.128 105.543 88.4959 77.6282 94.8251 75.7681 72.9969 69.3773 62.9176 48.023 47.5065 20.092 45.7515 9.32605 8.76601 5.28776 3.32617 2.7386 1.11301
threshold=1.0484482645988467 -1.0583305954933164 0.99390810728073131 0.95698314905166637 -0.21162252873182294 0.71659260988235485 -0.90285256505012501 -0.85761570930480946 -0.64145687222480763 1.0000000180025095e-35 -0.65438881516456593 1.10123747587204 -0.93522557616233815 1.0707440972328188 1.0000000180025095e-35 -0.92684856057167042 1.0000000180025095e-35 -0.81188809871673573 0.2505656778812409 1.1021752357482912 0.92811381816864025 1.0000000180025095e-35 -0.15380607545375821 -0.79600661993026722 -1.5651416778564451 -0.78133097290992726 -0.023312430828809735 -1.1957205533981321 -0.77107179164886464 1.3149422407150271 -0.7850222885608672 -0.94408965110778797 0.087410096079111113 -1.6909244656562803 1.0833282470703127 1.0571074485778811 1.0921093225479128 -1.0178306698799131 -1.2893441915512083 -0.59160178899765004 -0.60215312242507923 0.49243761599063879 0.72846207022666942 -1.3825575709342954 0.98890674114227306 0.87175157666206371 1.0000000180025095e-35 1.4382898807525637 1.0000000180025095e-35 0.96692445874214183 0.9946812391281129 0.93971145153045665 -0.14508660137653348 0.3734514862298966 0.96896320581436168
decision_type=2 2 2 2 2 2 2 2 2 2 2 2 2 2 2 2 2 2 2 2 2 2 2 2 2 2 2 2 2 2 2 2 2 2 2 2 2 2 2 2 2 2 2 2 2 2 2 2 2 2 2 2 2 2 2
left_child=2 3 7 13 5 14 21 10 31 17 11 12 -1 35 -5 16 18 -10 -8 20 -17 22 23 -3 -24 45 -27 -11 -18 -13 -21 33 -7 -9 37 36 -2 -12 -37 40 -23 53 -33 -43 -36 -6 47 51 50 -41 -49 54 -53 -15 -4
right_child=1 6 46 4 25 32 15 8 9 27 34 29 -14 41 -16 19 28 -19 -20 30 -22 39 24 -25 -26 26 -28 -29 -30 -31 -32 42 -34 -35 44 38 -38 -39 -40 49 -42 43 -44 -45 -46 -47 -48 48 -50 -51 -52 52 -54 -55 -56
leaf_value=0.037882623017354539 -0.11940685586500828 0.017872409141622688 -0.14771072103930347 0.011694801814814526 0.077091558566376769 -0.13197565639950415 -0.028057662560115101 -0.032722974190182462 0.012663215049430243 0.13319780295758984 -0.0014869052396077284 -0.0028287001324573649 0.0060340361793394161 -0.17327560714835505 0.082203789441208291 0.091567539013440752 -0.04040897894854132 -0.02664341019396263 0.014513479695634178 0.047110980793927074 -0.057411891641501157 0.063755502030085773 -0.022335363804968478 -0.076882840046990614 0.058454355531308066 -0.0079823240863255793 0.058392049743324514 0.027891493931188061 -0.12829336768816874 -0.078028537036269399 0.0095354185850752334 0.015107171952390483 -0.024862589589791578 -0.080202941003514799 0.13418500321817076 -0.023662855438943416 0.028579397131167462 0.050862515382107544 0.055680462456936058 0.16417308521799306 -0.21760327862003789 0.0046758132065553805 -0.066466728346076462 -0.16482128915513344 -0.009344741034905844 -0.062922187147504902 0.11619907739721416 -0.019889963757096701 0.15748106805546214 0.067351987873230865 -0.14486950464108503 0.071817728159367988 -0.1099234384450426 -0.09859659194168377 -0.20033550047074566
leaf_weight=4480.5465296134353 77.240616634488106 5892.2862710952759 15.458042547106745 9408.140938334167 1583.8233528286219 269.78108251094818 2169.613380074501 2738.0979642868042 6622.8168557733297 385.49428023397923 455.30390800535679 479.88837118446827 18427.613696992397 52.667317673563957 593.59149052202702 101.50512558221817 736.67708967626095 2319.6345547512174 2233.5023906379938 1539.9353417158127 563.11590637266636 775.1967479288578 343.82088646292686 454.38886219263077 2156.6827011555433 1250.3513064831495 2023.2647216171026 235.75486288964748 275.64673494547606 578.24763368070126 2489.3854202926159 700.99483122676611 189.74179069697857 703.25292756408453 224.92294600605965 142.9495492875576 737.9345812946558 2498.8037705495954 8455.8636206239462 88.07883058488369 12.166501507163046 114.30066099762917 130.05037176609039 30.617272660136223 35.340057536959648 24.881559282541275 10.016851395368574 8.4945870116353053 9.2815824598073942 11.215264618396757 16.538501761853695 1.0105712264776219 286.47720737755299 5.4154930114746085 5.4310681223869315
leaf_count=13430 268 17063 66 27556 3747 988 10882 10949 20350 861 1454 1580 60138 223 1413 283 2949 8295 6669 4291 2212 1961 1044 1651 5328 3583 5006 680 1258 2484 7327 2494 571 2916 542 445 1946 6874 21583 166 49 341 450 130 105 78 27 34 23 27 82 4 3726 20 22
internal_value=0 0.0232737 0.00705645 0.0325447 0.0226281 0.0113275 0.0116117 0.00796382 -0.00463063 0.00836347 0.0143749 0.00978251 0.0122632 0.0483663 0.0158794 -0.00201201 -0.0172821 0.00246724 -0.00646324 0.0156053 -0.0346588 0.0257611 0.0213359 0.0110884 0.0473457 0.0468416 0.0330405 0.0932356 -0.0643391 -0.0439237 0.0238961 -0.0337178 -0.0877476 -0.0424257 0.0486159 0.0509147 0.0145572 0.0427941 0.0543614 0.0699155 0.0594079 -0.0698118 0.00234166 -0.0311344 0.114696 0.074926 -0.0984626 -0.104737 -0.0321497 0.153237 -0.10246 -0.112814 -0.109285 -0.166313 -0.161393
internal_weight=0 44803.8 41369.5 24960.6 15343.6 10461.3 19843.2 41016.8 13836.1 9563.7 27180.7 23966.3 22908.2 9616.99 10001.7 10109.4 5415.44 8942.45 4403.12 4693.94 664.621 9733.84 8847.18 6346.68 2500.5 4882.32 3273.62 621.249 1012.32 1058.14 4029.32 4272.4 459.523 3441.35 3214.37 9413.99 815.175 2954.11 8598.81 886.657 787.363 203.001 831.045 144.918 260.263 1608.7 352.708 342.692 34.3147 99.2941 25.0331 308.377 287.488 58.0828 20.8891
internal_count=268644 131058 137586 67898 42942 30528 63160 133602 46995 30186 86607 77632 73568 24956 28969 35871 21758 28645 17551 14113 2495 27289 25086 18714 6372 12414 8589 1541 4207 4064 11618 16809 1559 13865 8975 24242 2214 8328 22028 2203 2010 714 2944 471 647 3825 3984 3957 139 193 116 3818 3730 243 88
is_linear=0
shrinkage=0.1


Tree=17
num_leaves=53
num_cat=0
split_feature=53 109 79 129 135 107 70 31 78 102 135 31 31 71 56 110 78 28 69 103 133 104 39 58 130 76 78 110 82 5 39 106 51 114 77 69 72 73 35 78 111 28 97 72 109 98 121 118 126 93 24 113
split_gain=520.969 454.75 530.865 479.355 514.489 611.026 491.932 337.413 273.425 240.893 338.536 266.525 213.333 212.696 199.768 183.46 281.932 178.344 181.939 294.518 158.493 188.094 128.908 126.47 122.526 341.714 148.863 236.264 113.4 82.6112 77.3012 72.1619 69.612 69.5624 91.5215 66.7736 62.514 57.3454 55.8165 55.1142 69.2909 52.4867 50.5141 45.1273 37.2403 27.7338 21.5728 28.2386 12.1609 8.67703 7.71863 6.75724
threshold=0.92202883958816539 -0.87216433882713307 -1.3248009681701658 1.0000000180025095e-35 1.0000000180025095e-35 -0.94755083322525013 -0.33662335574626917 0.99842986464500438 -1.250850975513458 -0.94680815935134877 1.0000000180025095e-35 0.9761696755886079 0.9955975115299226 -0.70015954971313465 0.99873325228691112 -0.89684167504310597 -1.3155905604362486 1.1452648639678957 -0.063277021050453172 -0.78173908591270436 1.0000000180025095e-35 -0.91484275460243214 0.95058935880661022 0.91291511058807384 1.0000000180025095e-35 -1.2449029088020322 -1.3318755030632017 -0.87375667691230763 -1.2049127817153928 0.68020859360694896 1.012451767921448 -0.98674550652503956 1.1373943686485293 -0.89234134554862965 -1.3834531903266905 -0.13098845630884168 -0.75276264548301686 -0.92517375946044911 0.79692181944847118 -1.2993094325065611 -0.91929748654365528 1.2302245497703554 -1.004454433917999 -0.81103801727294911 -0.87470483779907215 -0.81955847144126881 -0.9728139042854308 -0.93915939331054676 -1.3068704009056089 -1.0840241909027097 1.5361337661743166 -0.89945465326309193
decision_type=2 2 2 2 2 2 2 2 2 2 2 2 2 2 2 2 2 2 2 2 2 2 2 2 2 2 2 2 2 2 2 2 2 2 2 2 2 2 2 2 2 2 2 2 2 2 2 2 2 2 2 2
left_child=8 2 15 4 6 -6 -4 17 38 10 28 37 23 46 -14 39 44 18 19 -3 21 -15 -18 -5 26 29 27 -9 41 -26 -20 -22 -28 35 -35 -19 -30 -12 48 45 -41 -10 -27 -13 -17 -2 47 -11 -1 -48 51 -50
right_child=1 7 3 12 5 -7 -8 24 9 13 11 43 14 20 -16 16 22 33 30 -21 31 -23 -24 -25 25 42 32 -29 36 -31 -32 -33 -34 34 -36 -37 -38 -39 -40 40 -42 -43 -44 -45 -46 -47 49 -49 50 -51 -52 -53
leaf_value=0.03536330109166954 -0.097187744120240782 0.030147294067412261 -0.0078929183194494969 0.076367914299795114 0.083922418153564951 0.017437577693520664 0.014283065365903609 -0.097787137541113511 -0.15416435657360342 -0.095939848668444974 0.10238282177373997 -0.082256720630225086 0.029356606516082431 0.029904682066196255 -0.10042814689077864 -0.1066771510442136 -0.036391425388057307 0.048449761804628622 0.074447976837879515 -0.064092706400581623 0.027026544355509965 -0.018968601004670325 0.02462691248571032 0.027555763936154328 0.097947834895974251 0.1036554116141863 0.03209258177654857 0.0017798624408128134 -0.058435384228096493 -0.039503005264555024 0.040465990763031374 -0.086716486143009155 -0.1861331580540555 -0.054239539499930378 0.10337070359068262 0.094466750953732137 0.051399673153988579 0.1837374065245701 0.12317273099726107 -0.089567163641416647 0.040407097567607936 0.076839019787869792 -0.018141595401785154 0.092563562962719351 -0.052780891506262723 -0.19656163556678141 -0.038172910038713467 -0.018618143407329309 -0.1438787540729575 -0.10386099520142965 0.094079763854015508 -0.10245117468218248
leaf_weight=6.1312679946422568 338.05426263064146 1967.3477373868227 13686.399044945836 1910.7222165316343 2018.395184636116 4386.5704084858298 37170.886146076024 261.75170933455229 10.606772370636461 90.117350280284882 179.10228689014912 75.616704478859901 3008.9019379615784 1112.2331114411354 123.46453292667866 280.00051155686378 530.10882987082005 1643.0542165637016 970.68612805008888 398.85215882956982 66.027256175875664 2696.8392824977636 998.12016942352057 734.97831267118454 660.28370301425457 36.036713257431984 1670.4316277801991 2662.7031871676445 355.13335154950619 46.827546790242195 2156.7306152582169 359.30558030307293 14.746520102024077 39.098916992545128 638.53637409210205 390.2231227606535 60.672866337001324 167.83642865717411 11.124186262488363 100.65260735154152 69.227535039186478 135.3300062790513 618.19245022535324 18.348751336336136 236.4765018671751 30.628890052437782 21.756659723818302 99.252770319581032 45.177486807107925 265.59200543165207 1.9046298414468754 306.40130732581019
leaf_count=21 1245 5272 46187 4596 5066 14275 114971 1004 61 450 461 292 8316 3620 432 1072 1838 4333 2323 1335 228 10217 2810 1951 1605 84 4686 8003 1392 156 5609 1628 60 133 1495 896 187 330 30 337 180 351 1975 47 811 122 79 407 198 1400 8 4059
