tree
version=v4
num_class=1
num_tree_per_iteration=1
label_index=0
max_feature_idx=136
objective=binary sigmoid:1
feature_names=Column_0 Column_1 Column_2 Column_3 Column_4 Column_5 Column_6 Column_7 Column_8 Column_9 Column_10 Column_11 Column_12 Column_13 Column_14 Column_15 Column_16 Column_17 Column_18 Column_19 Column_20 Column_21 Column_22 Column_23 Column_24 Column_25 Column_26 Column_27 Column_28 Column_29 Column_30 Column_31 Column_32 Column_33 Column_34 Column_35 Column_36 Column_37 Column_38 Column_39 Column_40 Column_41 Column_42 Column_43 Column_44 Column_45 Column_46 Column_47 Column_48 Column_49 Column_50 Column_51 Column_52 Column_53 Column_54 Column_55 Column_56 Column_57 Column_58 Column_59 Column_60 Column_61 Column_62 Column_63 Column_64 Column_65 Column_66 Column_67 Column_68 Column_69 Column_70 Column_71 Column_72 Column_73 Column_74 Column_75 Column_76 Column_77 Column_78 Column_79 Column_80 Column_81 Column_82 Column_83 Column_84 Column_85 Column_86 Column_87 Column_88 Column_89 Column_90 Column_91 Column_92 Column_93 Column_94 Column_95 Column_96 Column_97 Column_98 Column_99 Column_100 Column_101 Column_102 Column_103 Column_104 Column_105 Column_106 Column_107 Column_108 Column_109 Column_110 Column_111 Column_112 Column_113 Column_114 Column_115 Column_116 Column_117 Column_118 Column_119 Column_120 Column_121 Column_122 Column_123 Column_124 Column_125 Column_126 Column_127 Column_128 Column_129 Column_130 Column_131 Column_132 Column_133 Column_134 Column_135 Column_136
feature_infos=[-1.8014661073684692:2.1475074291229248] [-1.7160434722900391:2.0597634315490723] [-1.6382262706756592:1.9801409244537354] [-1.5680137872695923:1.9086390733718872] [-1.5054070949554443:1.8452587127685547] [-1.4504051208496094:1.7899996042251587] [-1.4123568534851074:1.7937201261520386] [-1.3844102621078491:1.9274762868881226] [-1.3517893552780151:2.0758624076843262] [-1.3099035024642944:2.0974209308624268] [-1.2559221982955933:2.0165181159973145] [-1.1870334148406982:2.064321756362915] [-1.1039742231369019:2.1106562614440918] [-1.0067610740661621:2.1771299839019775] [-0.90047705173492432:2.2825961112976074] [-0.78966546058654785:2.4052433967590332] [-0.67814630270004272:2.5269482135772705] [-0.65620064735412598:2.5277442932128906] [-0.66012513637542725:2.5653238296508789] [-0.66667592525482178:2.5221147537231445] [-0.8555336594581604:2.4413206577301025] [-0.86833834648132324:2.3840618133544922] [-0.86565589904785156:2.2409591674804688] [-0.70636492967605591:2.1797337532043457] [-0.68053698539733887:2.1614029407501221] [-0.94777458906173706:2.0620582103729248] [-1.274228572845459:1.9191513061523438] [-1.700652003288269:1.682137131690979] [-1.9202775955200195:1.5181131362915039] [-2.2033448219299316:1.3308039903640747] [-2.6534385681152344:1.1443074941635132] [-2.9375624656677246:1.0652625560760498] [-2.8855924606323242:1.0080039501190186] [-2.3245775699615479:0.99270999431610107] [-1.6179424524307251:0.98950296640396118] [-0.8696785569190979:1.096311092376709] [-0.66342759132385254:1.2523990869522095] [-0.66920429468154907:1.4357191324234009] [-0.67192721366882324:1.5244829654693604] [-0.67710685729980469:1.427788257598877] [-0.67375040054321289:1.3506048917770386] [-0.77278417348861694:1.3033223152160645] [-0.78214722871780396:1.4334096908569336] [-0.67821109294891357:1.6771683692932129] [-0.67593681812286377:1.8418123722076416] [-0.67998087406158447:1.9795904159545898] [-0.67735743522644043:1.8671952486038208] [-0.68056988716125488:1.8940913677215576] [-0.67851173877716064:2.0411467552185059] [-0.68057990074157715:2.1347439289093018] [-0.67672491073608398:2.3221406936645508] [-0.68208664655685425:2.3866791725158691] [-0.6882440447807312:2.3278176784515381] [-0.69760811328887939:2.41339111328125] [-0.68820065259933472:2.0181429386138916] [-0.66498374938964844:1.7058380842208862] [-0.62813276052474976:1.5109990835189819] [-0.64525216817855835:1.3641012907028198] [-0.85317844152450562:1.3483799695968628] [-0.73171019554138184:1.3266682624816895] [-0.58480948209762573:1.3006186485290527] [-0.60407185554504395:1.5017008781433105] [-0.62883800268173218:1.6372760534286499] [-0.6584702730178833:1.5962808132171631] [-0.93073725700378418:1.2496439218521118] [-1.1747497320175171:1.0751444101333618] [-1.3727543354034424:0.99085426330566406] [-1.6713657379150391:0.88485002517700195] [-1.8910553455352783:0.75389385223388672] [-2.0949718952178955:0.60495084524154663] [-1.9126988649368286:0.45876148343086243] [-1.7446892261505127:0.33052113652229309] [-1.674402117729187:0.23037496209144592] [-1.5674382448196411:0.15855956077575684] [-1.4517455101013184:0.30397361516952515] [-1.6804615259170532:0.9557119607925415] [-1.8599822521209717:1.4404212236404419] [-1.985605001449585:1.2026444673538208] [-2.0616223812103271:1.1285310983657837] [-2.1171634197235107:0.92254304885864258] [-2.168381929397583:0.73609095811843872] [-2.1978850364685059:0.28676301240921021] [-2.2107267379760742:0.33890664577484131] [-2.208972692489624:0.39074629545211792] [-2.1915850639343262:0.5232703685760498] [-2.1574652194976807:0.47703936696052551] [-2.1063995361328125:0.50853937864303589] [-2.0390708446502686:0.53271615505218506] [-1.9571486711502075:0.67684948444366455] [-1.8642418384552002:0.56802195310592651] [-1.767259955406189:0.65018975734710693] [-1.8478662967681885:1.0688302516937256] [-1.6500253677368164:1.4172115325927734] [-1.5946441888809204:1.6290324926376343] [-1.530011773109436:1.6649528741836548] [-1.4777601957321167:1.6182941198348999] [-1.4385807514190674:1.5608183145523071] [-1.4202985763549805:1.5597559213638306] [-1.4104764461517334:1.5645072460174561] [-1.5819015502929688:1.5648646354675293] [-2.0638625621795654:1.5687597990036011] [-2.4619696140289307:1.5680602788925171] [-2.648137092590332:1.5700795650482178] [-2.5047333240509033:1.5662518739700317] [-2.1062953472137451:1.5674868822097778] [-1.4165751934051514:1.5623446702957153] [-1.1201972961425781:1.563502311706543] [-1.1155441999435425:1.5613243579864502] [-1.1656886339187622:1.5697338581085205] [-1.2142764329910278:1.5736351013183594] [-1.369315505027771:1.5835809707641602] [-1.5990560054779053:1.5861003398895264] [-2.1418814659118652:1.5904401540756226] [-2.465855598449707:1.587767481803894] [-2.5047738552093506:1.5883719921112061] [-2.0072333812713623:1.5826603174209595] [-1.6131480932235718:1.5835590362548828] [-1.6321159601211548:1.7016431093215942] [-1.6862318515777588:2.5795986652374268] [-1.7458088397979736:2.8008601665496826] [-1.820858359336853:2.5472877025604248] [-1.9280952215194702:1.7488086223602295] [-2.1567583084106445:1.5763181447982788] [-2.3918964862823486:1.5743108987808228] [-2.6616356372833252:1.8138364553451538] [-2.9761693477630615:2.1645474433898926] [-3.3559722900390625:3.0688047409057617] [-3.8750591278076172:4.2020993232727051] [0:1] [0:1] [0:1] [0:1] [0:1] [0:1] [0:1] [0:1] [0:1]
tree_sizes=6830 5509 5543 5533 5330 5557 6777 6094 6071 6888 6571 5910 6987 6754 6759 6921 5917 5818 7015 7026 6580 7019 6558 6992 6378 5174 6693 5000 6944 5611 6967 5399 6475 6874 6305 5410 6904 6284 6526 6500 6871 5777 4373 5777 6485 6818 6993 6262 6861 7023 6723 6616 6118 5487 6516 6959 5685 6856 5813 6757 5240 6513 6988 6932 6962 5593 6735 6991 6965 7001 4696 6972 6110 6979 6963 6609 6513 5464 6506 6757 6844 5924 4146 6990 6082 5794 6994 6950 5318 6959 6852 6662 6973 6932 6716 6790 4285 6994 5208 6993 6495 6946 6591 6732 6121 6855 6365 6644 6717 4649 6860 5710 6289 6387 6386 4971 6651 4927 7001 6855 5091 6442 6133 6537 6122 6946 5014 6665 6753 6514 5529 6766 6394 6991 5666 6891 6741 6421 5355 6534 5428 6959 5229 6642 5672 6949 6339 4564 6420 5876 6968 5303 6360 6697 5197 6169 7031 6748 4907 6968 6873 5901 5912 6878 6170 5315 6994 6777 4645 6991 6944 6832 6647 6882 5201 6657 6602 6755 5975 6908 6250 5549 6609 6800 6519 6178 6334 6315 6150 5901 6793 6365 5846 5941 6068 4793 6074 6976 6229 5628

Tree=0
num_leaves=62
num_cat=0
split_feature=36 105 53 70 102 69 102 103 102 32 53 100 4 102 69 32 103 103 135 134 29 102 32 103 99 30 69 31 134 68 103 100 113 70 32 104 69 100 53 33 98 55 91 69 107 21 18 134 70 108 3 133 87 70 48 135 71 32 43 130 1
split_gain=11686.1 4126.86 3840.59 3770.2 2999.76 2061.86 2004.73 1841.58 1661.71 1441.26 1187.06 1703.09 955.647 838.289 2125.32 1228.3 1048.99 868.141 636.161 615.267 581.343 529.898 493.679 484.641 452.909 439.602 434.224 414.364 377.338 371.411 537.915 364.485 334.586 285.705 306.054 256.624 220.309 200.628 197.503 184.583 171.09 151.638 166.064 147.224 116.369 94.8258 91.2343 83.2924 80.6625 79.0001 76.3371 73.8095 45.6995 44.9769 39.8944 39.0607 36.4407 19.304 15.9561 7.22789 3.58715
threshold=0.91533911228179943 -0.79223117232322682 1.003612279891968 -0.25475215911865229 -0.87496092915534962 -0.15723305195569989 -0.80137091875076283 -0.83362865447998036 -0.8235434591770171 0.96075159311294567 0.78600153326988231 -0.95371609926223744 0.71787133812904369 -0.797063648700714 -0.048728203400969498 0.96324408054351818 -0.68395611643791188 -0.77067035436630238 1.0000000180025095e-35 1.0000000180025095e-35 1.0682837367057803 -0.81889888644218434 0.63164857029914867 -0.77433249354362477 -0.80011913180351246 1.0994549393653872 0.034597903490066535 1.0007354617118838 1.0000000180025095e-35 0.014675109181553127 -0.82087776064872731 -0.93815660476684559 -0.92725488543510426 -0.27758456766605372 0.95953869819641124 -0.81495109200477589 -0.11053864285349844 -0.96314036846160878 1.0213922858238222 0.92544943094253551 -0.83608356118202198 1.0702283382415774 -0.23152912408113477 -0.11348848044872283 -0.90176653861999501 1.2971084117889407 1.1419210433959963 1.0000000180025095e-35 -0.22533290088176725 -0.92674040794372547 0.22427298128604892 1.0000000180025095e-35 -0.56871122121810902 -0.3159401267766952 1.0916614532470705 1.0000000180025095e-35 -0.44033141434192652 0.95017987489700328 0.72397267818450939 1.0000000180025095e-35 -0.20854500681161878
decision_type=2 2 2 2 2 2 2 2 2 2 2 2 2 2 2 2 2 2 2 2 2 2 2 2 2 2 2 2 2 2 2 2 2 2 2 2 2 2 2 2 2 2 2 2 2 2 2 2 2 2 2 2 2 2 2 2 2 2 2 2 2
left_child=1 2 10 6 25 7 9 -6 -7 29 32 12 -12 27 15 17 24 -15 33 -13 22 36 38 -17 -16 31 -18 40 -23 30 -2 -4 37 45 -35 44 -11 -1 52 -31 48 55 -43 46 -29 -8 59 -37 -5 -27 -20 -42 -3 -48 -45 -24 -52 -56 -34 -22 -40
right_child=3 20 4 13 5 8 18 -9 -10 21 11 19 -14 14 16 23 26 -19 50 -21 43 28 41 -25 -26 49 -28 35 -30 39 -32 -33 58 34 -36 47 -38 -39 60 -41 51 42 -44 54 -46 -47 53 -49 -50 -51 56 -53 -54 -55 57 -57 -58 -59 -60 -61 -62
leaf_value=-0.73036670414871474 -0.67914604454325844 -0.97034817390999506 -0.62607837555433909 -0.59831846502986397 -0.76105894258901008 -0.68132178341912875 -0.91963456704706315 -0.85791620991689233 -0.75441254622929976 -0.75257348933278234 -0.65382470923168567 -0.79669428719067881 -0.77403802163280067 -0.66938461492992585 -0.5995806381827351 -0.76339808669368803 -0.94004215791934542 -0.79215708912068128 -0.88909689996555996 -0.86836762448612881 -0.95520532901635835 -0.8469392204093189 -0.96504785554449202 -0.89781161279335508 -0.64950484418644194 -0.70764385669082797 -0.72635511910304718 -0.70058443303508977 -0.69301882842325924 -0.61802640796575892 -0.80985182170751224 -0.68317799774576216 -0.9656647317750604 -0.7895088011640955 -0.89372812343427255 -0.70319625450630241 -0.67588455519591395 -0.89116312047582091 -0.51235575206594641 -0.67322295546303312 -0.62719483476613302 -0.84027696569948906 -0.9524422892737332 -0.91963456704706315 -0.62087183493572906 -0.68172622987544385 -0.89478456560555952 -0.544611182538562 -0.55362442818650393 -0.96642691572844952 -0.74690151784162695 -0.70620435537640536 -0.82114802975893486 -0.67317620034009606 -0.56717348495966069 -0.78693783853327326 -0.55663644307325821 -0.66588932810727985 -0.88003286718874263 -0.84388073851961531 -0.58610533596609926
leaf_weight=120.9515530616045 1283.2422431409359 22.019627451896667 1553.4682065099478 1670.3866959065199 8975.476923212409 5343.2052453905344 437.15220342576504 2512.546515673399 7443.9209254086018 1593.1248623281717 1278.0645609050989 12509.877303853631 1370.3109874725342 3550.2026057690382 2616.7451700121164 1478.7692132890224 135.74664169549942 687.48662760853767 8.4387187510728818 1324.5110034495592 30.186166197061539 914.88333433866501 1034.8912675827742 327.68896308541298 5946.6840203553438 14.789965078234671 317.54674901068211 211.80776147544384 192.84370547533035 1024.3021705299616 417.24187786877155 3987.345131367445 488.00051274895668 990.85135543346405 393.74670687317848 918.82207278907299 489.75981865823269 216.47287563979626 13.972855776548387 1483.0402999222279 528.83197994530201 260.05546101927757 268.04576486349106 4.5067237466573706 1353.0945670604706 17.421228229999542 12.098533749580382 34.357695341110229 532.54513171315193 58.285429254174232 11.251340359449385 152.28518424928188 303.30626749992371 37.685446798801422 41.949220702052116 12.461250662803648 95.572666853666306 37.534172430634499 22.775430008769035 7.2288084477186194 12.491050109267233
leaf_count=408 3959 104 4329 4394 31826 16550 1940 10278 26117 5573 3761 46866 4959 10758 6902 5263 618 2558 36 5496 140 3686 4857 1414 17355 48 1064 679 610 2808 1594 12392 2292 3672 1690 2959 1502 926 30 4526 1477 1038 1239 20 3731 54 52 80 1267 274 39 493 1178 115 103 46 229 113 96 29 32
internal_value=-0.826594 -0.764075 -0.757977 -0.684772 -0.73626 -0.751495 -0.73737 -0.782243 -0.723871 -0.713574 -0.795429 -0.789492 -0.716025 -0.660731 -0.672853 -0.718735 -0.642097 -0.689302 -0.827447 -0.803556 -0.901296 -0.764261 -0.916983 -0.787781 -0.634249 -0.670383 -0.790347 -0.626936 -0.820143 -0.675141 -0.711217 -0.667169 -0.910799 -0.84173 -0.819146 -0.656576 -0.734541 -0.833525 -0.809876 -0.650674 -0.601057 -0.940899 -0.897208 -0.724692 -0.631661 -0.910517 -0.815707 -0.69748 -0.587514 -0.914051 -0.59955 -0.64486 -0.831247 -0.727032 -0.630201 -0.962929 -0.576676 -0.61379 -0.961846 -0.933697 -0.547166
internal_weight=0 49318.4 47220 29815.9 29889 24275.1 9352.87 11488 12787.1 7398.44 17331 16482.8 2648.38 20463 15060.9 6044.15 9016.72 4237.69 1954.43 13834.4 2098.43 3190.61 1927.24 1806.46 8563.43 5613.89 453.293 5402.13 1107.73 4207.83 1700.48 5540.81 848.2 1839.17 1384.6 2518.08 2082.88 337.424 351.79 2507.34 2884.05 1575.45 528.101 171.189 1564.9 454.573 87.199 953.18 2202.93 73.0754 115.263 681.117 325.326 49.784 83.9901 1047.35 106.824 79.4834 510.776 37.415 26.4639
internal_count=268644 175714 166618 92930 101814 84771 31918 42104 42667 24258 64804 61082 8720 61012 45932 19993 25939 13316 7660 52362 9096 11371 8524 6677 24257 17043 1682 15080 4296 12887 5553 16721 3722 7356 5362 7449 7075 1334 1344 7334 7631 7180 2277 572 4410 1994 336 3039 5661 322 304 1970 1282 167 236 4903 268 216 2388 169 62
is_linear=0
shrinkage=1


Tree=1
num_leaves=50
num_cat=0
split_feature=53 103 5 70 101 31 129 71 92 91 134 32 69 103 72 100 101 32 36 69 118 31 127 71 31 70 4 134 53 102 105 105 22 1 30 103 102 10 101 56 31 94 29 121 127 0 112 100 52
split_gain=8663.09 5204.43 2663.14 2589.66 3421.92 1898.48 1592.65 1439.33 1308.46 948.636 1075.01 1071.85 1029.35 868.71 832.368 1241.91 763.607 652.587 528.692 374.273 372.363 362.945 309.085 592.041 252.003 250.79 250.107 193.69 162.139 145.825 126.029 103.845 92.8372 76.3469 69.4133 134.901 69.0041 64.1196 61.4813 52.5243 46.3565 45.4034 40.3401 27.4815 11.2651 1.27721 0.0467676 0.0120435 0.000999629
threshold=1.0393680930137636 -0.66840326786041249 0.92020535469055187 -0.2577535212039947 -0.82628864049911488 1.003303647041321 1.0000000180025095e-35 -0.45944841206073755 -1.1520333290100095 -0.98304179310798634 1.0000000180025095e-35 0.96286007761955272 -0.028184711001813408 -0.80799651145935047 -0.63027086853981007 -0.85655602812767018 -0.82561531662940968 0.95201450586318981 0.9088493585586549 -0.13354709744453427 -1.0535079836845396 1.0115849375724795 -3.3572238683700557 -0.21423556655645368 0.99856093525886547 -0.22821264714002606 0.034223120659589774 1.0000000180025095e-35 0.99186259508132946 -0.85032269358634938 -0.80011650919914235 -0.80114006996154774 1.4250602722167971 -0.69198665022850026 1.0833866596221926 -0.93802511692047108 -0.6013088822364806 0.15736432373523715 -0.86489787697792042 1.0235541462898257 1.0099868178367617 -1.0997986793518064 1.1646371483802798 -1.7926100492477415 -3.4182173013687129 0.071005556732416167 -0.92700266838073719 -0.96314036846160878 0.80863630771636974
decision_type=2 2 2 2 2 2 2 2 2 2 2 2 2 2 2 2 2 2 2 2 2 2 2 2 2 2 2 2 2 2 2 2 2 2 2 2 2 2 2 2 2 2 2 2 2 2 2 2 2
left_child=2 3 6 4 5 20 8 27 21 11 18 25 -13 -9 15 -10 -16 -12 -11 -7 -2 28 30 36 34 -5 31 -6 -1 32 -3 -25 -26 -32 38 -36 37 -24 -8 -28 -31 -23 45 -38 -35 -4 47 -47 -48
right_child=1 22 42 9 7 19 24 13 14 10 17 12 -14 -15 16 -17 -18 -19 -20 -21 -22 41 23 26 29 -27 39 -29 -30 40 33 -33 -34 44 35 -37 43 -39 -40 -41 -42 -43 -44 -45 -46 46 48 -49 -50
leaf_value=0.036062539491385166 0.10979162287304299 0.24747364784068202 -0.079525422252021694 0.15882667284806964 -0.015534150481700194 0.042478492707669853 0.23182968612469584 0.093195362351894059 0.034472889259277405 0.071252254341671137 -0.081138588029980863 0.1001851783872722 0.18134829185201695 0.019285205271307917 0.10498834150512991 -0.037494335692317519 0.030121296685325406 0.11268265090232808 0.13249178216191204 0.10270231412915778 0.15925675850069965 0.21682324997678235 0.15111376735798535 0.16207353137856853 0.14714045849853569 0.19393428740463781 -0.12764296095298414 -0.084893610823980378 0.10475218813542271 0.057366992355309246 0.27585534851684951 0.050743720057114083 0.03469015419767945 -0.13621656022585163 0.2538733781783078 0.065799528630788362 -0.12776435169432257 -0.063176561348388532 0.14537001733952637 0.12577173596733679 -0.085268150824750963 0.11657604679952316 0.12504103769343675 -0.03690184036399477 -0.10836854833783255 -0.14823262347110758 -0.13809030648196427 -0.14136836406088735 -0.13966464427972425
leaf_weight=416.46053674817085 1980.0962680727243 9.2672538757324201 3.7289364188909522 4318.7002491354942 1494.6692378222942 2596.243498891592 364.98235736787319 3759.6153195947409 20218.969235524535 1775.6358619332314 449.8313153386116 5484.5773216038942 2185.1710218191147 2755.9912118017673 2863.8875112384558 2720.4815106093884 2598.4158522486687 283.00377225875854 6841.2690339386463 1712.6737568080425 6575.754629611969 298.02887642383575 15.343628033995627 135.79630382359028 611.57847045361996 3847.4371774196625 73.723418667912483 551.05912871658802 1965.3032102882862 199.84684725105762 4.7428526282310477 218.75096400082111 83.433577045798302 430.50323402881622 61.13918848335743 101.37533892691135 371.86311268806458 155.20508806407452 106.17118994891644 9.1995417773723585 25.717621892690659 53.252646580338478 5.8756685554981223 36.559256821870804 219.23432689905167 5.2667299807071686 803.79158140718937 4.9661769568920118 4.0534750521183005
leaf_count=1487 6143 22 17 11626 5926 9071 876 12093 73034 5981 1866 16953 5535 10296 9056 11039 9421 851 19819 5361 18221 715 45 385 1777 9485 334 2394 6100 679 9 799 302 2144 137 349 1730 651 313 28 109 161 18 152 1042 24 4024 24 20
internal_value=0 0.107268 0.0410974 0.113501 0.087946 0.120547 0.0455827 0.0389576 0.040651 0.135242 0.109984 0.150154 0.123309 0.0619326 0.0342918 0.025938 0.0693741 -0.00628936 0.119873 0.0664158 0.147809 0.106737 -0.0656406 -0.0309813 0.144375 0.175367 0.0568176 -0.0342176 0.0927415 0.110967 -0.118717 0.0933845 0.133641 -0.123902 0.192908 0.136554 -0.097322 -0.0438977 0.212347 -0.0995289 0.0411045 0.201626 -0.13605 -0.119631 -0.12682 -0.137917 -0.138183 -0.144901 -0.138098
internal_weight=0 48291.9 33516.7 46611.7 21426.1 12864.8 32689 8561.33 31134.8 25185.6 9349.74 15835.9 7669.75 6515.61 28401.8 22939.5 5462.3 732.835 8616.9 4308.92 8555.85 2733.05 1680.19 1016.44 1554.24 8166.14 437.47 2045.73 2381.76 920.577 663.748 354.547 695.012 654.48 633.668 162.515 578.971 170.549 471.154 82.923 225.564 351.282 827.683 408.422 649.738 821.807 818.078 10.2329 807.845
internal_count=268644 148962 119682 141621 69505 38796 115555 30709 111013 72116 28517 43599 22488 22389 102550 84073 18477 2717 25800 14432 24364 8463 7341 4124 4542 21111 1546 8320 7587 2867 3217 1184 2079 3195 1675 486 2578 696 1189 362 788 876 4127 1882 3186 4109 4092 48 4044
is_linear=0
shrinkage=0.1


Tree=2
num_leaves=50
num_cat=0
split_feature=53 103 70 102 5 31 100 71 102 69 103 70 103 53 100 35 4 32 134 103 31 127 71 29 101 108 134 114 135 1 97 105 30 100 28 105 100 1 29 71 56 29 103 64 127 113 100 52 83
split_gain=6648.49 3739.38 2742.89 2809.2 1996.66 1658.89 1198.04 927.555 912.788 1755.53 1097.24 856.648 855.953 1032.3 739.561 701.345 642.247 605.613 560.925 333.514 315.24 281.421 488.274 276.946 302.885 258.569 258.194 222.181 233.596 200.619 171.819 103.372 96.4144 109.11 88.3744 71.7359 68.2665 62.8358 57.1237 55.2039 52.4187 35.2805 25.624 14.2263 11.1496 0.0293146 0.00657338 0.00162096 0.000360667
threshold=1.0206807255744936 -0.66840326786041249 -0.26642467081546778 -0.81947243213653553 0.92020535469055187 1.0030863285064699 -0.95877146720886219 -0.45944841206073755 -0.80274420976638783 -0.057198951020836823 -0.78265857696533192 -0.51281726360321034 -0.87793606519699086 0.99312767386436474 -0.85885122418403614 0.90011489391326915 0.73759549856185924 0.95883160829544078 1.0000000180025095e-35 -0.83479151129722584 1.0009323954582217 -3.3572238683700557 -0.21423556655645368 1.2414318919181826 -0.94097986817359913 -0.86910372972488392 1.0000000180025095e-35 -0.93374234437942494 1.0000000180025095e-35 -0.12878828495740888 -0.85789129137992848 -0.80011650919914235 1.1061945557594302 -0.97301694750785817 1.1914678215980532 -0.80114006996154774 -0.50948244333267201 -0.69198665022850026 1.2353076934814455 -0.23133897036314008 1.0235541462898257 1.1646371483802798 -0.9589196741580962 0.52388381958007824 -3.4182173013687129 -0.95357844233512867 -0.96314036846160878 0.82730558514595043 -1.2024579048156736
decision_type=2 2 2 2 2 2 2 2 2 2 2 2 2 2 2 2 2 2 2 2 2 2 2 2 2 2 2 2 2 2 2 2 2 2 2 2 2 2 2 2 2 2 2 2 2 2 2 2 2
left_child=4 2 3 5 6 14 16 25 20 10 -10 23 13 -13 -2 -11 32 -9 -7 -14 30 31 36 24 -8 -5 -22 28 -18 35 -4 -3 34 -34 -1 -24 39 -33 -29 -23 -31 45 -25 -38 -39 46 -6 48 -47
right_child=1 21 8 7 41 18 11 17 9 15 -12 12 19 -15 -16 -17 27 -19 -20 -21 26 22 29 42 -26 -27 -28 38 -30 40 -32 37 33 -35 -36 -37 43 44 -40 -41 -42 -43 -44 -45 -46 47 -48 -49 -50
leaf_value=-0.071777695363038407 0.12982629390298897 0.20564277845822124 0.17661071096433012 -0.053458316365504105 -0.14138467091973836 0.043364004945289858 0.038020068444616598 0.058235843294998417 0.09290739487348551 0.086536337760564769 0.017340844109171763 0.032774098922931739 0.017278694376190659 0.10539831228100366 0.081025366354459991 0.14043156826784373 0.017107345079859834 -0.028485521601421229 0.13552570541195716 -0.035736535154738826 0.11459952313871349 -0.079794523127214412 0.13425465186485283 0.062475219230147344 -0.037550934899202908 0.030594202916840337 0.20779478097443285 -0.0082403911273689207 0.16052411446973894 -0.12725350973328706 0.12760969465382535 0.23380752895362186 0.13918970800646072 -0.066140685523721182 0.14435623281588511 0.044387426591134725 0.059386491710990023 -0.13119331036449144 -0.097236961372112296 0.033465408425290506 0.15186411873327174 0.10771485327624786 -0.12349404219642141 -0.11839581341938676 -0.10272512113822906 -0.13317466317698826 -0.13615991626000995 -0.13519080229389308 -0.13401756103825488
leaf_weight=19.162969768047333 7925.058852866292 9.9914087951183301 2854.3849905729294 1804.4147752374411 4.761351689696312 6952.7551741302013 741.46587026119232 3992.2150551378727 6340.7433181256056 3197.8563324660063 2756.9947973042727 7689.7423372417688 6772.6471477746964 2625.5045892596245 5106.27448117733 9856.9621898829937 309.94566507637501 1008.7483616471291 729.70414239168167 1438.692247107625 3274.3989505469799 131.95743550360203 147.42687200009823 7.6069177091121665 1862.7216042131186 459.12011186778545 326.95843176543713 232.27757611870766 179.25170542299747 67.366538777947426 954.99875427782536 5.0183920860290518 54.644103944301605 49.163518652319908 1481.3216271996498 223.45829662680626 4.5584734678268424 403.67002180218697 104.60108931362629 63.861298605799675 7.4749835580587378 6.1239880621433249 284.89765536785126 357.31380343437195 208.70195052027702 750.26485067605972 4.871922239661215 4.0318445414304724 5.1109929680824271
leaf_count=75 21729 22 6656 7702 23 23410 2612 13343 18887 9657 9606 27592 24623 7910 15967 25208 1119 3944 2078 5795 9215 589 402 26 7524 1621 745 879 507 323 2584 9 152 199 4029 801 17 2144 461 234 20 18 1320 1741 1042 4011 25 21 27
internal_value=0 0.0884208 0.0926528 0.0702099 0.0265899 0.0889751 0.0317226 0.0167032 0.113892 0.103729 0.0700076 0.0241743 0.0320813 0.0512589 0.110704 0.12723 0.0982601 0.0407432 0.0521178 0.00799 0.144273 -0.0609037 -0.0280562 -0.0263971 -0.0160343 -0.0364097 0.12306 0.0266215 0.0696581 0.0499724 0.164326 -0.113439 0.135148 0.0419448 0.141596 0.0801097 -0.0904194 -0.118603 -0.0358739 -0.0428577 -0.0993759 -0.131357 -0.118658 -0.116156 -0.121491 -0.133261 -0.138742 -0.133191 -0.13318
internal_weight=0 59172.4 57541.6 27978.3 24628.8 20713.8 23853.6 7264.5 29563.3 22152.6 9097.74 21423.3 18526.6 10315.2 13031.3 13054.8 2430.37 5000.96 7682.46 8211.34 7410.74 1630.8 1003.42 2896.69 2604.19 2263.53 3601.36 826.076 489.197 445.727 3809.38 627.382 1604.29 103.808 1500.48 370.885 557.691 617.39 336.879 195.819 74.8415 775.165 292.505 361.872 612.372 769.041 9.63327 759.408 755.376
internal_count=268644 179696 172352 89794 88948 63184 84823 26610 82558 63358 28493 77402 65920 35502 37696 34865 7421 17287 25488 30418 19200 7344 4127 11482 10136 9323 9960 2966 1626 1546 9240 3217 4455 351 4104 1203 2581 3195 1340 823 343 4125 1346 1758 3186 4107 48 4059 4038
is_linear=0
shrinkage=0.1


Tree=3
num_leaves=50
num_cat=0
split_feature=53 103 5 83 31 134 129 81 94 36 72 101 135 134 39 100 104 128 105 31 53 127 71 70 34 71 31 8 101 101 105 63 115 104 102 121 68 4 38 106 30 29 121 101 127 0 112 100 52
split_gain=5302.46 3261.14 1906.94 1578.94 1842.62 1447.58 1163.76 1132.07 956.867 876.082 814.659 1145.37 711.24 628.043 589.869 472.882 435.4 416.153 353.037 301.483 252.582 249.745 418.055 244.267 239.81 192.951 189.046 164.632 151.994 118.286 86.6876 83.322 75.5254 68.3299 56.6332 54.5534 51.8571 49.8236 47.4887 44.6774 52.0939 31.032 25.1202 16.644 10.0398 1.51421 0.0231547 0.00654223 0.000452961
threshold=1.0442479848861697 -0.66840326786041249 0.92020535469055187 -1.2078099846839903 0.99856093525886547 1.0000000180025095e-35 1.0000000180025095e-35 -1.1618460416793821 -1.0890182256698606 0.92288216948509227 -0.63982707262039173 -0.85768696665763844 1.0000000180025095e-35 1.0000000180025095e-35 1.0140471458435061 -0.84169009327888478 -0.77325725555419911 1.0000000180025095e-35 -0.82938307523727406 1.0107303261756899 0.99912127852439891 -3.3572238683700557 -0.21423556655645368 -0.1777408421039581 0.91629302501678478 -0.44460059702396387 0.99798312783241283 0.099303934723138823 -0.8459143042564391 -0.78873515129089344 -0.80011650919914235 0.6886940896511079 -0.88732764124870289 -0.72100132703781117 -0.6013088822364806 -1.7811970114707945 0.17295549064874652 0.61881583929061901 0.98097729682922374 -0.79804486036300648 1.0833866596221926 1.1646371483802798 -1.7926100492477415 -0.84392902255058277 -3.4182173013687129 0.038479018956422813 -0.92700266838073719 -0.96314036846160878 0.80863630771636974
decision_type=2 2 2 2 2 2 2 2 2 2 2 2 2 2 2 2 2 2 2 2 2 2 2 2 2 2 2 2 2 2 2 2 2 2 2 2 2 2 2 2 2 2 2 2 2 2 2 2 2
left_child=2 3 6 4 17 14 8 9 19 -7 11 -10 -12 15 16 -6 -5 29 -16 20 -1 30 34 -19 -9 -15 39 33 32 -2 -3 -29 -28 -24 36 44 -23 -21 -30 40 -8 45 -36 -41 -32 -4 47 -47 -48
right_child=1 21 41 5 13 7 26 24 10 -11 12 -13 -14 25 18 -17 -18 23 -20 37 -22 22 27 -25 -26 -27 28 31 38 -31 35 -33 -34 -35 42 -37 -38 -39 -40 43 -42 -43 -44 -45 -46 46 48 -49 -50
leaf_value=0.024119947867652744 0.14454813914896539 0.17724356799776017 -0.058228478741401427 0.067179602722054629 0.088703314957765844 -0.019127388499680358 0.17272263735042026 -0.093913054194346965 0.027814049304799773 0.12481697343862663 0.046173002813880953 -0.03261879256109268 0.15799063145880288 0.097558382799780075 0.11665152341409118 0.047871453143246548 -0.033721094816005347 0.08844207873098496 0.062539414552792702 -0.0062860948236111384 0.094279138025715942 -0.082536661007941325 0.13884268778380071 0.14506230064796541 0.0064814598661323683 0.17650187331332573 0.11485248639296107 -0.073401527952604725 -0.0077289381191600285 0.1225133937253487 -0.12749054070301358 0.18246640274668965 0.036254407130011261 0.044350256028876711 -0.11666372848731886 0.12542567677644426 0.032825128919370596 0.1596982918680328 0.28585267744234077 0.077268812654339547 0.10868849947189535 0.093916296383028119 -0.027504863144186466 -0.12623202855349039 -0.099593771552531171 -0.13672456477297776 -0.12904130742879757 -0.13134544225455161 -0.1301740840479943
leaf_weight=750.5264844596386 7410.8061253279448 10.407116666436194 3.0264683365821829 8596.968316078186 5586.8687699139118 813.49589228630066 536.82056780159473 959.82905100286007 19539.199955672026 880.42836357653141 7979.5587373971939 3735.7860011458397 612.51188109815121 545.62370304763317 4531.114614546299 5761.0690114051104 450.04977901279926 3438.9242754429579 1642.8087853342295 18.717843279242516 1622.318078905344 100.01804791390896 132.53565958142281 978.81294657289982 316.34758569300175 715.76537331938744 854.97442722320557 123.23494519293308 166.85192354023457 3629.3320761322975 374.10560691356659 14.192807719111441 142.65435494482517 181.09095497429371 334.2843726426363 9.3673653751611692 63.835461050271988 534.24895490705967 5.6979121267795554 9.4639989435672778 166.43658889830112 6.3104189187288275 34.899664923548698 6.9856412559747687 196.91079965233803 4.6978369355201721 702.14875531196594 4.3589004278182966 3.5478148162364951
leaf_count=2580 18047 22 15 26877 16106 3017 1231 4103 68458 2384 26427 14766 1651 1600 11876 18049 1685 9394 4881 68 4626 462 335 2260 1120 1651 2393 539 593 9068 2130 35 462 637 1730 28 233 1264 11 27 473 18 152 29 1037 24 4026 24 20
internal_value=0 0.0840924 0.0338327 0.0889102 0.103784 0.0659615 0.0370049 0.0021017 0.0328537 0.0556886 0.0278287 0.0181142 0.0541443 0.0754147 0.0784226 0.067974 0.0621602 0.126925 0.102253 0.087584 0.0720879 -0.0574188 -0.026564 0.100987 -0.0690266 0.142354 0.113429 0.0442898 0.0886249 0.137304 -0.108814 -0.0469768 0.103613 0.0842819 -0.0865202 -0.113944 -0.037593 0.15408 0.00196567 0.153757 0.157568 -0.126872 -0.108235 -0.00915155 -0.117871 -0.128813 -0.129111 -0.134136 -0.129047
internal_weight=0 47833.1 37406.8 46258.2 28067.2 18191 36682.8 2970.1 34792.9 1693.92 31867.1 23275 8592.07 12609.3 15220.9 11347.9 9047.02 15457.9 6173.92 2925.81 2372.84 1574.88 984.092 4417.74 1276.18 1261.39 1889.89 451.054 1170.18 11040.1 590.791 137.428 997.629 313.627 533.038 580.384 163.854 552.967 172.55 719.707 703.257 724.09 369.184 16.4496 571.016 717.78 714.753 9.05674 705.697
internal_count=268644 139458 129186 132118 76175 55943 125059 10624 119840 5401 111302 83224 28078 37406 45319 34155 28562 38769 16757 8538 7206 7340 4123 11654 5223 3251 5219 1546 3459 27115 3217 574 2855 972 2577 3195 695 1332 604 1760 1704 4127 1882 56 3167 4109 4094 48 4046
is_linear=0
shrinkage=0.1


Tree=4
num_leaves=48
num_cat=0
split_feature=52 103 69 102 5 31 71 101 22 103 102 69 103 52 24 108 103 69 70 4 29 102 127 71 130 30 132 32 9 70 28 105 52 69 30 105 128 70 132 135 56 91 29 127 115 29 113
split_gain=4245.63 2422.45 1620.81 2018.79 1513.23 1298.7 950.651 839.745 970.745 957.876 720.251 1019.14 924.572 709.208 687.669 654.592 608.377 509.492 455.211 350.153 348.931 355.318 231.687 340.7 219.242 169.81 203.826 164.024 141.984 107.227 83.6931 73.6626 68.7216 65.4921 63.2562 59.4472 54.6609 52.6674 47.7078 46.1144 32.3317 28.4411 20.5766 9.52236 1.71211 0.23156 0.0140014
threshold=1.0542739629745486 -0.66840326786041249 -0.089586749672889696 -0.80877751111984242 0.92020535469055187 1.003303647041321 -0.44112674891948694 -0.95204767584800709 1.5312437415122988 -0.85439723730087269 -0.79162943363189686 -0.039293356239795678 -0.76679962873458851 1.0202338695526125 1.2607161998748782 -0.91117164492607106 -0.71081334352493275 -0.12886165827512738 -0.3139053583145141 0.73759549856185924 1.2353076934814455 -0.92455115914344776 -3.3572238683700557 -0.21423556655645368 1.0000000180025095e-35 1.103275001049042 1.0000000180025095e-35 0.96789342164993297 0.14548271894454959 -0.22956023365259168 1.1886439323425295 -0.80011650919914235 1.1046269536018374 -0.072053935378789888 1.1107356548309328 -0.80786061286926258 1.0000000180025095e-35 -0.10232648625969885 1.0000000180025095e-35 1.0000000180025095e-35 1.0235541462898257 -1.1805043220520017 1.2414318919181826 -3.4182173013687129 -1.0393573641777036 1.1495752930641177 -0.95357844233512867
decision_type=2 2 2 2 2 2 2 2 2 2 2 2 2 2 2 2 2 2 2 2 2 2 2 2 2 2 2 2 2 2 2 2 2 2 2 2 2 2 2 2 2 2 2 2 2 2 2
left_child=4 2 3 5 7 15 24 19 9 13 27 12 -12 -9 -8 -2 -13 -7 -11 30 21 -10 31 32 -5 26 -21 33 35 -29 41 -3 -24 -4 -32 -25 -27 -34 -33 44 -30 -1 -22 -40 -6 46 -46
right_child=1 22 10 6 39 17 14 8 20 18 11 16 -14 -15 -16 -17 -18 -19 -20 25 42 -23 23 28 -26 36 -28 29 40 -31 34 38 37 -35 -36 -37 -38 -39 43 -41 -42 -43 -44 -45 45 -47 -48
leaf_value=0.0669943153096412 0.061294058754565721 0.15639554534218447 0.12140353621767541 -0.046098395365295419 -0.037008862508214377 0.020609180720229155 -0.026770226892666199 0.025955432199863473 0.025194364580723622 -0.02228843471465734 0.075816949132509193 0.11774551444642685 -0.00792818386177002 0.067893290510898499 0.059641019912459341 0.10517861819035559 0.055678779758147202 0.073828017726911124 0.030666275033822667 0.096939237612964371 -0.075195286944193418 -0.038293994091535381 0.22481916806599386 0.12501433585705482 0.022239740473248327 -0.067720106488902629 -0.024711481545712382 0.042983073920009933 -0.13390736314137305 0.11504400243082405 0.12785149856367514 0.092679559367194908 -0.10547431374932413 0.14415639026486318 0.020838110203032979 0.037610700975832051 0.24885938988076109 -0.035780113970866147 -0.12384012834213419 0.24973465073788992 0.075412233217421673 -0.1294383884752274 -0.11940052239877784 -0.095777751142265208 -0.13001987136690349 -0.15070498735631011 -0.12554192212954537
leaf_weight=12.877176135778429 4962.1530665755272 10.602402865886686 2886.3201330006123 2119.9733438044786 2.1822845935821524 4686.7126725614071 1169.5113698095083 9230.8471933752298 1534.6193233430386 3959.3643935024738 5621.2630967050791 7912.5132117718458 1722.225627809763 7160.2370635122061 4333.314753651619 10789.655273288488 1973.0736829936504 2919.4834926724434 2751.3580512851477 439.91669610142708 163.0945175588131 2071.3153444975615 7.3184350878000251 106.63087169826031 602.98761832714081 153.75484131276608 200.50576305389404 365.27602845430374 51.404223516583443 475.02617573738098 1259.5094137042761 11.399167284369467 349.01356641948223 2252.2379677593708 57.770154908299446 287.97044275701046 5.6545224487781516 157.29870986938477 347.46684128046036 3.2923150062561026 8.616032272577284 17.237748920917511 297.15036986768246 185.45983321964741 7.0575728565454474 3.6913924217224112 656.62462601065636
leaf_count=38 15103 22 6989 8614 10 15790 4154 32278 5407 15356 15740 19030 5858 21765 13245 28102 5837 8493 9289 1347 689 8189 19 265 2120 619 761 1094 273 1221 3232 37 1837 5106 195 983 12 727 2127 6 25 73 1426 1031 40 18 4052
internal_value=0 0.0712508 0.0747088 0.0599655 0.0246709 0.0749688 0.0173622 0.0280742 0.023316 0.0312464 0.0947731 0.0843954 0.0561767 0.0442755 0.0412761 0.0913541 0.105358 0.0410361 -0.000577305 0.088277 -0.0217401 -0.0112745 -0.0531427 -0.0236171 -0.0309652 0.0358641 0.0588524 0.124678 0.0394339 0.0837194 0.11939 -0.10466 -0.0794244 0.131376 0.123158 0.0612293 -0.0564905 -0.083822 -0.109745 -0.123604 -0.103859 -0.0454435 -0.103736 -0.114074 -0.125439 -0.125728 -0.12559
internal_weight=0 56314.9 54791.7 31583.8 29988.1 23358 8225.79 29315.2 27168 23101.8 23207.9 17229.1 7343.49 16391.1 5502.83 15751.8 9885.59 7606.2 6710.72 2147.23 4066.18 3605.93 1523.18 968.252 2722.96 799.832 640.422 5978.86 454.622 840.302 1347.39 554.928 513.631 5138.56 1317.28 394.601 159.409 506.312 544.326 672.848 60.0203 30.1149 460.245 532.927 669.556 667.374 663.682
internal_count=268644 163842 156496 95621 104802 67488 28133 100676 94399 78688 60875 46465 21598 54043 17399 43205 24867 24283 24645 6277 15711 13596 7346 4129 10734 2739 2108 14410 1546 2315 3538 3217 2583 12095 3427 1248 631 2564 3195 4126 298 111 2115 3158 4120 4110 4092
is_linear=0
shrinkage=0.1


Tree=5
num_leaves=50
num_cat=0
split_feature=53 103 70 101 5 71 31 100 103 69 103 32 72 134 3 103 31 20 136 134 30 69 33 71 114 124 71 54 106 100 61 0 125 101 124 134 82 39 31 135 76 107 132 70 105 127 73 29 113
split_gain=3405.56 1883.1 1542.43 2080.54 1218.22 1137.9 781.286 773.242 710.79 1342.95 706.85 657.013 602.921 531.944 515.662 492.976 385.912 360.54 293.878 270.406 229.607 215.014 300.673 203.634 192.36 141.224 324.597 128.962 116.853 115.379 86.0741 77.9453 104.675 76.8948 76.3469 71.296 48.8862 47.5704 45.7548 38.9565 35.9852 24.6641 20.893 16.0397 8.64406 5.32207 1.4625 0.26634 0.0115581
threshold=1.0191666483879092 -0.65927258133888234 -0.27109345793724055 -0.84324517846107472 0.92020535469055187 -0.47124032676219935 1.0034152865409853 -0.95526108145713795 -0.80173975229263295 -0.066361788660287843 -0.81255432963371266 0.96177858114242565 -0.79816746711730946 1.0000000180025095e-35 0.68928202986717235 -0.71695992350578297 1.0056744217872622 1.4629828929901125 1.0000000180025095e-35 1.0000000180025095e-35 1.0994549393653872 -0.081190466880798326 0.93127280473709118 -0.49917885661125178 -0.93045499920845021 -2.4755750894546504 -0.20819783955812451 1.0937172174453738 -0.88609921932220448 -0.97301694750785817 0.72000014781951915 0.52176168560981762 -1.2446077466011045 -0.93952351808547963 -1.0721098780632017 1.0000000180025095e-35 -0.37904486060142512 0.8376339077949525 0.84115609526634227 1.0000000180025095e-35 -0.50384825468063343 -0.96718913316726673 1.0000000180025095e-35 -0.10232648625969885 -0.80696243047714222 -3.4182173013687129 -0.80197611451148976 1.1564282774925234 -0.95357844233512867
decision_type=2 2 2 2 2 2 2 2 2 2 2 2 2 2 2 2 2 2 2 2 2 2 2 2 2 2 2 2 2 2 2 2 2 2 2 2 2 2 2 2 2 2 2 2 2 2 2 2 2
left_child=4 2 3 6 7 23 19 14 21 11 -7 -10 33 17 31 -11 -15 -14 -8 -2 24 22 -4 -5 -16 28 36 41 44 -22 -23 32 -1 34 -9 -33 40 -35 -29 46 -27 -28 -30 -38 -3 -44 47 48 -6
right_child=1 25 8 5 39 10 18 12 9 15 -12 -13 13 16 20 -17 -18 -19 -20 -21 29 30 -24 -25 -26 26 27 38 42 -31 -32 35 -34 37 -36 -37 43 -39 -40 -41 -42 -43 45 -45 -46 -47 -48 -49 -50
leaf_value=0.11383921253281148 0.093378248181824691 0.18161853768225278 0.10653056431797987 -0.075925423550210341 -0.12637736436192534 0.052854333515648312 0.052288254770688769 -0.0096528783206750266 0.049941363090550098 0.092801311859002603 -0.0069485188931375013 -0.020550572765646771 0.032147904503440294 -0.043797624685844062 0.082628223624118965 0.045587009107204986 0.069198815874155037 -0.0014236112907506544 -0.0088050625075394226 0.026829038154101155 0.0219560829561588 0.13393528698857815 0.066274249413457623 -0.018809234363188761 0.00018372876921477478 -0.045330638792824632 0.039171385135104805 0.12222150548337483 0.11415678840337043 -0.085494832765608209 0.090801653296645926 0.11626802591797369 -0.093424169379402927 -0.088281166738572781 -0.12559430842311098 -0.14435178935348017 -0.12619076637555235 0.17472845379904911 0.028109999927964188 0.21664440792894468 0.16745828412844455 -0.12536124666573106 -0.12067884550709362 -0.080428122834245858 0.053232064897144077 -0.098979731151258479 -0.052159877306957418 -0.15421564513087813 -0.12252670870194389
leaf_weight=55.349727600812912 8997.0604196041822 12.3441129475832 5001.0025917440653 823.81765188276768 7.8965388536453238 6569.5226251929998 4770.0343373566866 344.69636234641075 5143.1927492469549 12944.664950221777 2826.9172342270613 1779.7156233787537 13129.129723370075 1997.1092829406261 706.73544718325138 2667.1020662784576 356.14392258226871 4229.5312661677599 943.03340812027454 655.01339495182037 180.02380341291428 2083.3726816922426 2949.6600947976112 2576.2333600819111 472.01798228919506 89.078305676579475 11.749389708042143 135.48573182523251 4.0799024999141684 224.62108512222767 594.69626951217651 1436.5884090512991 43.52996252477169 577.06306764483452 67.99984909594059 10.573896631598471 185.11785121262074 6.9598519355058661 83.496033012866974 3.4080473184585562 8.7259157150983793 40.571155562996864 322.21052731573582 130.6424512565136 9.117715045809744 174.10736358165741 2.952108070254325 2.6721708327531806 606.46208024024963
leaf_count=137 23341 25 12565 3438 48 19944 14858 1306 15287 32484 10288 6080 44177 8100 2112 8019 1206 15721 3237 2099 620 4680 8167 9523 1695 430 35 394 13 937 1456 3578 172 2574 338 43 1101 18 277 6 27 200 2127 666 30 994 17 12 4042
internal_value=0 0.0614846 0.0639189 0.0467088 0.0174752 0.0169249 0.0715136 0.021084 0.0785334 0.068479 0.0348627 0.0318196 0.0140827 0.0179196 0.0674142 0.0847353 -0.0266966 0.023968 0.0422038 0.0888621 0.0273031 0.0998504 0.0915957 -0.0326482 0.0496143 -0.0622244 -0.0323621 0.052637 -0.101414 -0.0376906 0.124357 0.108495 0.0225953 -0.0617982 -0.0287565 0.114364 -0.0881223 -0.0851469 0.0863375 -0.120524 -0.026346 -0.0884129 -0.111214 -0.107257 0.127076 -0.113067 -0.122377 -0.122713 -0.122576
internal_weight=0 62531.8 61325 28161.6 24461.5 12796.5 15365.1 23838.1 33163.4 22534.7 9396.44 6922.91 20708.6 19711.9 3129.44 15611.8 2353.25 17358.7 5713.07 9652.07 1583.4 10628.7 7950.66 3400.05 1178.75 1206.73 684.867 271.302 521.86 404.645 2678.07 1546.04 98.8797 996.719 412.696 1447.16 413.565 584.023 218.982 623.391 97.8042 52.3205 500.398 315.76 21.4618 496.318 619.983 617.031 614.359
internal_count=268644 181785 175466 86728 86859 43193 43535 82734 88738 61870 30232 21367 73440 69204 9294 40503 9306 59898 18095 25440 5364 26868 20732 12961 3807 6319 3130 906 3189 1557 6136 3930 309 4236 1644 3621 2224 2592 671 4125 457 235 3134 1767 55 3121 4119 4102 4090
is_linear=0
shrinkage=0.1


Tree=6
num_leaves=61
num_cat=0
split_feature=70 104 102 52 102 69 53 101 91 31 134 106 136 36 130 102 101 31 69 105 68 77 70 5 112 134 70 29 30 97 100 131 111 69 95 102 135 124 67 127 132 0 69 31 72 104 33 26 105 62 72 108 64 59 70 132 115 58 81 105
split_gain=2819.76 1986.98 1616.38 1488.97 998.605 868.182 770.986 672.575 600.978 965.235 865.038 787.816 505.571 495.612 515.558 480.501 442.6 427.343 408.535 684.871 392.773 347.402 302.734 299.074 286.836 272.712 388.445 282.316 265.745 185.602 179.907 150.671 123.943 105.835 160.503 139.758 103.96 101.442 241.252 98.4846 96.8988 92.7319 112.98 86.0372 61.2729 68.5066 56.468 49.2937 36.5486 33.7975 33.4086 32.5339 29.4339 24.3008 22.3941 18.0492 11.7808 16.7747 5.5793 3.96595
threshold=-0.29177467525005335 -0.72100132703781117 -0.82880955934524525 1.0202338695526125 -0.88177916407585133 -0.17828509211540219 0.7579881250858308 -0.94760212302207936 -1.0175413489341734 0.99671977758407604 1.0000000180025095e-35 -0.90355119109153736 1.0000000180025095e-35 0.93122956156730663 1.0000000180025095e-35 -0.85789868235588063 -0.83030208945274342 1.0006314516067507 -0.003424350055865943 -0.85043832659721363 -0.27794952690601343 -1.3649691343307493 -0.15405975282192227 0.76763188838958751 -1.3356558084487913 1.0000000180025095e-35 -0.33673363924026484 1.1017826795578005 1.1011147499084475 -0.88458532094955433 -0.80337253212928761 1.0000000180025095e-35 -0.92329749464988697 -0.14612733572721479 -0.83561190962791432 -0.8246672749519347 1.0000000180025095e-35 -2.4755750894546504 0.33518749475479132 -1.4448624849319456 1.0000000180025095e-35 0.34023962914943701 -0.14515612274408338 0.87265607714653026 -0.29903045296669001 -0.71159178018569935 0.93127280473709118 1.2506590485572817 -0.86492297053337086 0.56302046775817882 -0.5365261137485503 -0.92894157767295826 0.62301522493362438 0.72553449869155895 -0.09146514534950255 1.0000000180025095e-35 -1.4705903530120847 0.91728341579437267 -0.29012243449687952 -0.918199062347412
decision_type=2 2 2 2 2 2 2 2 2 2 2 2 2 2 2 2 2 2 2 2 2 2 2 2 2 2 2 2 2 2 2 2 2 2 2 2 2 2 2 2 2 2 2 2 2 2 2 2 2 2 2 2 2 2 2 2 2 2 2 2
left_child=2 8 3 6 28 15 32 23 9 21 16 18 -7 14 -13 -6 -11 25 19 -10 -9 39 -15 -8 -20 26 31 -28 40 -12 -23 -4 36 34 53 46 -1 55 43 -2 -5 48 -43 54 45 -40 -35 -37 -27 -36 -45 -30 -46 -19 -39 -3 57 -57 -58 -34
right_child=1 37 17 4 5 12 7 20 11 10 29 13 -14 22 -16 -17 -18 33 24 -21 -22 30 -24 -25 -26 41 27 -29 51 -31 -32 -33 59 35 49 47 -38 38 44 -41 -42 42 -44 50 52 -47 -48 -49 -50 -51 -52 -53 -54 -55 -56 56 58 -59 -60 -61
leaf_value=-0.093082737740151328 0.021018069043311681 0.099717436298407069 -0.062426420398674291 0.088914944306267632 0.035939798672282891 0.073432958912095767 0.092101230051944566 -0.036523277499823925 0.068220457525215675 0.07506468288452342 0.15083221464093574 -0.010918236508019675 0.0080935524735073587 0.041493501599852725 0.10116477398139655 -0.012648906246363443 0.03692066620228817 -0.0043088156728647705 0.0049811119445009868 -0.064423380958653839 0.013367263667302943 0.11771417112782137 0.11850009437177543 0.018828784969414564 0.12448443462780551 -0.0038223339881568539 -0.020285597941198871 0.05286405308398167 0.046193919956522625 0.092988157970318397 0.089623671030971228 0.018913146807848401 -0.073883240789052826 0.060454847100436526 0.11041501104114791 -0.10342752857218601 0.081196706152408538 -0.11222861000630076 0.17083983145046922 -0.12383927411348963 -0.079733401135034243 -0.066543081896785719 0.022074113704572511 -0.13566913305708128 -0.056733292056382716 -0.046745393193902009 -0.093943617625291881 -0.035476628030670067 -0.12202815994206562 -0.11835754075360415 0.097147580590872348 -0.14411672315672705 0.13044375600867752 -0.10471327086145935 -0.053686131273679841 0.13047965213600907 -0.091288772006274999 -0.081804682373624302 -0.11831490395167976 -0.11940761301081404
leaf_weight=72.540030002593994 195.91932481527328 4.1967714279890052 876.09425021708012 5841.5537140220404 4772.3033796995878 6470.0062388181686 1470.3439790159464 1831.1160641759634 6354.7844530642033 4716.1357121765614 951.57947561144829 3381.5764557421207 1449.5268553048372 3765.904029160738 467.07589019834995 3548.732626080513 8569.4281884133816 24.853575304150581 225.9566258341074 414.65466348826885 11415.415354952216 4692.2335904687643 590.56902529299259 896.82469666004181 1807.715489551425 29.681980192661285 786.73178334534168 1601.8763112574816 10.713470563292502 1330.0343599319458 4434.920831784606 307.72413577139378 19.898259431123734 154.11441126465797 45.430320501327515 204.02949272096157 64.804590985178947 309.83645206689835 17.893788531422615 61.719282597303391 34.268470376729965 419.33763538300991 219.00533567368984 7.589864417910575 9.3897968977689725 75.629645705223083 27.989308178424835 223.9281991571188 220.27406820654869 7.527705267071723 32.797769650816917 55.604924470186234 79.797378152608871 800.80912199616432 82.804720148444176 4.6601298451423672 98.417254537343979 18.498029038310051 341.22232854366302 499.79132165014744
leaf_count=327 597 13 3780 15105 14735 18525 3881 7461 17639 12509 2187 11809 4651 10740 1257 12548 25058 101 685 1478 40324 10793 1328 3121 4196 111 2890 5118 32 3450 10677 1234 99 450 131 860 213 2008 44 431 127 1752 741 40 37 338 110 835 1113 34 106 253 222 3476 366 15 598 108 2392 3385
internal_value=0 0.0621691 0.0262505 0.0337552 0.050608 0.037774 0.010779 0.0152444 0.0656204 0.0755011 0.06023 0.0511249 0.0614738 0.0288324 0.00268426 0.0152178 0.0504611 -0.0222557 0.0719031 0.0600955 0.00647071 0.100832 0.0519326 0.0643413 0.111207 -0.00677285 0.00555671 0.0287709 0.0856847 0.117113 0.104065 -0.0412828 -0.0953365 -0.0686487 -0.0908665 -0.0366503 -0.0108508 -0.0715838 -0.0449272 -0.0136836 0.0879314 -0.056358 -0.0361399 -0.0855866 0.0514365 -0.00511493 0.0367238 -0.0678723 -0.107991 0.0778962 0.0533954 -0.113373 0.110737 -0.101691 -0.0998825 -0.106731 -0.108603 -0.0390866 -0.112265 -0.117665
internal_weight=0 43042.9 44402.9 38453.4 22182.7 16240.6 16270.7 15613.7 41960.2 24952 15567.2 17008.2 7919.53 8205.13 3848.65 8321.04 13285.6 5949.41 8803.11 6769.44 13246.5 9384.79 4356.47 2367.17 2033.67 4460.73 3572.43 2388.61 5942.14 2281.61 9127.15 1183.82 657.034 1488.68 878.621 610.061 137.345 1082.73 615.739 257.639 5875.82 888.299 638.343 433.029 182.711 93.5234 182.104 427.958 249.956 52.958 40.3876 66.3184 89.1872 825.663 392.641 466.995 462.798 23.1582 439.64 519.69
internal_count=268644 121121 147523 124787 65976 50459 58811 54787 114834 65702 43204 49132 23176 25134 13066 27283 37567 22736 23998 19117 47785 22498 12068 7002 4881 16739 13022 8008 15517 5637 21470 5014 4024 5997 3742 2255 540 6287 3161 1028 15232 3717 2493 2520 641 382 560 1695 1224 165 146 285 259 3577 2374 3126 3113 123 2990 3484
is_linear=0
shrinkage=0.1


Tree=7
num_leaves=55
num_cat=0
split_feature=53 103 91 70 102 31 129 101 69 103 94 135 75 71 108 72 70 24 103 69 103 91 32 31 8 136 101 54 31 69 104 44 73 124 71 30 104 132 51 33 117 135 121 127 105 37 65 20 21 5 111 53 105 131
split_gain=2430.16 1412.13 1007.49 790.697 1545.97 890.116 756.239 582.685 927.797 742.693 522.603 535.679 1264.7 570.896 451.008 435.39 314.212 296.388 269.374 225.602 442.691 219.689 216.783 183.716 160.405 150.792 142.028 114.657 113.764 100.335 93.4022 92.1333 86.842 76.111 144.898 63.9575 55.077 50.9858 40.0036 33.1596 32.1812 65.0622 14.4273 8.46298 16.2986 8.35204 4.79127 1.91608 1.1035 0.984886 0.179612 0.00407606 0.000302598 9.56712e-05
threshold=1.0448117256164553 -0.67645603418350209 -1.2729313373565672 -0.24313818663358686 -0.79992225766181935 1.0009323954582217 1.0000000180025095e-35 -0.78771224617958058 -0.023238238878548142 -0.76125478744506825 -1.0937943458557127 1.0000000180025095e-35 -1.0011694431304929 -0.49711924791336054 -0.9094543159008025 -0.5968523621559142 -0.27109345793724055 1.2570592164993288 -0.71695992350578297 0.030003535561263565 -0.63600063323974598 -0.97335723042488087 0.96729275584220897 1.0107303261756899 0.13038896024227145 1.0000000180025095e-35 -0.86403915286064137 0.96257138252258312 1.0073052048683169 -0.057198951020836823 -0.72100132703781117 1.0964326262474062 -0.82295626401901234 -2.4755750894546504 -0.19147842377424237 1.0833866596221926 -0.79848453402519215 1.0000000180025095e-35 1.1555371880531313 0.89557787775993358 -1.4013010263442991 1.0000000180025095e-35 -1.8293442726135252 -3.1831861734390254 -0.81711980700492848 0.85246372222900402 0.51594555377960216 1.2225390672683718 1.6386547684669497 0.92020535469055187 -0.63485950231552113 0.7579881250858308 -0.918199062347412 1.0000000180025095e-35
decision_type=2 2 2 2 2 2 2 2 2 2 2 2 2 2 2 2 2 2 2 2 2 2 2 2 2 2 2 2 2 2 2 2 2 2 2 2 2 2 2 2 2 2 2 2 2 2 2 2 2 2 2 2 2 2
left_child=2 3 48 4 5 14 10 22 9 -9 23 13 -13 -12 -2 21 -7 -17 -10 37 24 -6 29 27 30 -24 28 -4 35 -5 -21 36 -30 42 -35 -8 -28 40 -26 -25 41 -3 -22 44 -39 -42 -45 -33 49 50 -1 52 -51 -53
right_child=1 19 6 7 15 16 26 8 18 -11 11 12 -14 -15 -16 17 -18 -19 -20 20 33 -23 25 39 38 -27 31 -29 32 -31 -32 47 -34 34 -36 -37 -38 43 -40 -41 45 -43 -44 46 -46 -47 -48 -49 -50 51 -52 53 -54 -55
leaf_value=-0.16391765769883898 0.048060365692692432 -0.067720602537394495 0.0074618941042459688 0.093905495895063001 -0.016349371946448053 0.017098741339779962 0.13174576990291642 0.055599156008713062 0.099016002725075131 -0.012362261352163529 -0.0051986747517381044 0.020245332319108831 0.12281058839422898 0.025203243703455253 0.089200112408774568 -0.059971811992673388 0.058477580660401901 0.033704860059107132 0.05528446963047693 0.085068058092298907 -0.10631644861915093 -0.085435245090156819 0.039823892538173603 0.070597463107961306 -0.12884249879916962 0.12258096232082344 0.038852835029317856 0.063018809877529558 0.032652166087192874 0.12220772204978261 -0.0030218358683032171 0.16240936159287347 0.15711554259101593 -0.085769471351855114 0.095550441368070255 0.075344651050343117 -0.091021651705897294 -0.023438599636883509 -0.017336300907752671 0.13156845203433123 0.040942861909992329 0.27973705753698952 0.11375344861200254 -0.14840837819097374 -0.11746449061849924 -0.093880289516833762 -0.053012211029663171 0.21421578835740693 -0.053184952806621048 -0.11851778369449639 -0.13768880153926777 -0.11977907824534205 -0.1177041281895493 -0.12053847107771742
leaf_weight=4.3393060714006424 4023.0303067713976 13.022811561822891 489.00702191889286 4225.3999102562666 1586.7600996941328 5064.2031316608191 756.15615485608578 5720.9274490922689 4948.5765515565872 2236.6565921753645 13734.461019605398 7209.8891941159964 1442.8126592636108 11224.650258615613 7892.8601443469524 387.09863632917404 2878.0501151680946 2649.4781202226877 1968.9644066989422 416.52174481749535 394.62214702367783 648.36680659651756 1033.8424399644136 116.29012411832809 53.249798104166985 279.75266444683075 511.78784762322903 1545.4707501828671 330.20447218418121 1780.3749560713768 169.28659901022911 10.090410098433493 67.522504478693008 142.86775666475296 63.733801335096359 273.87693609297276 34.878235429525375 20.400942042469978 81.288674086332321 382.90405721962452 5.3362943679094306 9.1939031332731247 3.0016103982925406 98.035024747252464 191.36420147120953 33.065659493207932 5.5636817663907996 24.408957660198212 2.6086895018815985 4.6135940551757804 6.5543482005596143 3.027507171034812 491.83086866140366 3.6701868176460266
leaf_count=19 11926 63 1638 10125 5531 15998 1708 15439 11352 7080 48284 25438 3918 36305 19295 1415 7805 8204 5403 1190 2901 3041 2901 300 276 637 1519 4208 972 3858 720 20 151 808 180 766 132 76 299 836 25 23 9 464 1162 170 29 43 17 35 33 22 3849 26
internal_value=0 0.0541768 0.0206489 0.057394 0.0452464 0.0580258 0.0225271 0.0711482 0.0597824 0.0364971 0.0192081 0.0159068 0.0373478 0.00847372 0.0753106 -0.00289292 0.0320933 0.0217631 0.0865685 -0.0353548 -0.0159495 -0.0363898 0.0942469 0.0630036 0.0369975 0.0574484 0.0822447 0.0496652 0.0992087 0.102296 0.0596119 0.040569 0.0537824 -0.079072 -0.0298347 0.116749 0.0305666 -0.103719 -0.06147 0.117365 -0.0197261 0.0760672 -0.104655 -0.119864 -0.108406 -0.0751454 -0.143285 0.199063 -0.11806 -0.118389 -0.148137 -0.117745 -0.117712 -0.120195
internal_weight=0 49024.9 38671.1 47324.3 25129.8 19858.1 38154.4 22194.5 14875.1 7957.58 36145.5 33611.8 8652.7 24959.1 11915.9 5271.7 7942.25 3036.58 6917.54 1700.55 1324.57 2235.13 7319.37 2533.67 720.347 1313.6 2008.93 2034.48 1427.76 6005.77 585.808 581.165 397.727 604.225 206.602 1030.03 546.666 375.983 134.538 499.194 60.6187 22.2167 397.624 315.364 211.765 38.402 103.599 34.4994 516.645 514.036 10.8937 503.142 496.444 6.69769
internal_count=268644 138405 130239 130010 73215 55024 126238 56795 39274 22519 120927 113945 29356 84589 31221 18191 23803 9619 16755 8395 6383 8572 17521 6982 2485 3538 5311 5846 3597 13983 1910 1714 1123 3898 988 2474 1651 2012 575 1136 281 86 2910 1731 1238 195 493 63 4001 3984 52 3932 3884 48
is_linear=0
shrinkage=0.1


Tree=8
num_leaves=55
num_cat=0
split_feature=53 103 91 70 102 31 129 103 69 32 92 105 32 32 100 71 107 71 101 32 70 104 136 134 31 31 108 130 8 101 104 43 124 71 53 135 118 121 105 29 19 73 70 39 121 97 111 41 25 5 111 53 105 131
split_gain=1980.05 1141.79 870.626 668.712 1262 640.26 607.798 518.222 1016.83 461.211 446.696 475.621 827.024 375.909 373.726 356.249 346.303 331.029 228.469 200.567 198.121 374.18 142.826 136.757 130.76 119.365 112.95 108.369 105.672 98.8543 86.4728 65.9958 61.7629 99.8162 46.2927 43.4827 47.4722 41.3742 39.595 89.397 33.3417 29.0488 25.7928 18.7742 15.9436 11.5394 10.9589 7.20074 1.25583 0.674131 0.118356 0.00284216 0.000231895 6.65595e-05
threshold=1.0448117256164553 -0.67645603418350209 -1.2729313373565672 -0.25578550994396204 -0.80940982699394215 1.0024264454841616 1.0000000180025095e-35 -0.7915101647377013 -0.048728203400969498 0.96444165706634533 -1.1520333290100095 -0.89161738753318776 0.93218857049942028 0.95883160829544078 -0.77949225902557362 -0.47210843861103052 -0.97919443249702443 -0.46356593072414393 -0.84876468777656544 0.96789342164993297 -0.10232648625969885 -0.69957023859024037 1.0000000180025095e-35 1.0000000180025095e-35 1.0115849375724795 0.99798312783241283 -1.0600106120109556 1.0000000180025095e-35 0.13038896024227145 -0.84658756852149952 -0.72100132703781117 1.0442930459976199 -2.4755750894546504 -0.19147842377424237 1.1594225168228152 1.0000000180025095e-35 -1.447309613227844 -1.8367564678192136 -0.94173374772071827 1.2227799296379092 1.2457141280174258 -0.87723410129547108 -0.11281175166368483 0.93705856800079357 -1.8293442726135252 -0.40537449717521662 -1.0621253848075864 0.74630209803581249 1.4541689157485964 0.92020535469055187 -0.63485950231552113 0.7579881250858308 -0.918199062347412 1.0000000180025095e-35
decision_type=2 2 2 2 2 2 2 2 2 2 2 2 2 2 2 2 2 2 2 2 2 2 2 2 2 2 2 2 2 2 2 2 2 2 2 2 2 2 2 2 2 2 2 2 2 2 2 2 2 2 2 2 2 2
left_child=2 3 48 4 5 16 10 19 9 -9 24 12 -12 15 -10 -6 -2 -13 -7 26 34 28 -21 -15 27 38 -5 -4 30 31 -22 -27 44 -34 35 43 -37 -30 47 -40 -31 -26 46 -3 -23 -44 -36 -8 49 50 -1 52 -51 -53
right_child=1 20 6 7 13 18 25 8 14 -11 11 17 -14 23 -16 -17 -18 -19 -20 22 21 32 -24 -25 41 29 -28 -29 37 40 -32 -33 33 -35 42 36 -38 -39 39 -41 -42 -43 45 -45 -46 -47 -48 -49 -50 51 -52 53 -54 -55
leaf_value=-0.15471344780778493 0.0064650220398430047 0.12380591651216975 0.03449576525499469 0.033775817017944562 -0.070987280667282535 0.052242359192805454 0.084744976478075412 0.032238523342946405 0.098119146319994813 -0.037629161562569916 0.014631806092994616 -0.0052784068855948928 0.07144844616398853 -0.079734978734218531 0.057866576490735289 0.0191797912269372 0.072599840921003078 0.028537661460770244 0.0080522472201581506 0.01936317403114465 0.077968785204569138 -0.10499180686312636 0.10200630598649858 0.0075572383235755283 0.1177591661418006 0.0562626658537876 0.089036239333048384 0.080418635307032194 -0.11087629627357934 0.0024568398647336251 -0.00080136488119252947 0.12535545536918233 -0.090077347524133392 0.094406728825595726 -0.068647404597343503 0.25200118761093848 -0.10329215161125303 0.012104415899754356 0.10494506612368658 -0.07111979563497009 -0.14387586856814938 0.043315897156229716 0.20607914237560668 -0.1076436223935517 0.14361130077448694 0.011235946803549756 0.063260075972705415 0.18088501195190132 -0.042861604826921113 -0.116494742979034 -0.13284417651384248 -0.11754767222376235 -0.11574215718307841 -0.11820753565696154
leaf_weight=4.1475199311971664 863.73615401983261 3.5359777063131324 2300.2560391351581 388.13690032064915 492.60683125257492 1818.3262788206339 8.7178027331829053 4743.2153505384922 3250.8772158622742 1179.8286988139153 12681.507698893547 13340.924766466022 3210.5222801268101 753.17340129613876 7940.5631355047226 3966.2662263959646 9502.081912457943 3697.0062730908394 3281.2486001700163 806.93594072759151 394.48065079748631 339.14703183621168 282.26964762806892 235.61851131916046 332.52169728279114 904.96351885795593 7862.4953569024801 661.67506518959999 61.360839635133743 180.72464986145496 215.49927645921707 163.17215590178967 78.330063238739967 46.881110578775406 28.221320718526837 7.2407232224941254 7.8245784193277341 49.36381833255291 642.55409334599972 30.193991050124168 17.038569778203964 62.226805672049522 7.4747241586446762 395.91419418156147 2.5994989871978751 5.1227022409439069 8.1078730225563067 73.245621860027313 2.3374762684106818 4.1316784024238578 6.135578900575636 2.7887193635106078 452.5083172172308 3.3830252587795258
leaf_count=19 2682 14 6732 1063 2379 5251 21 13702 7368 3969 43716 47477 9125 3028 20446 12965 24259 11204 10316 2341 1090 2718 661 813 727 2494 18767 1776 320 585 907 380 451 128 151 15 42 170 1507 117 73 170 18 2297 7 31 36 134 16 34 33 22 3851 26
internal_value=0 0.0487523 0.0185117 0.0516017 0.0382382 0.0528178 0.0201809 0.062166 0.0518266 0.0183214 0.0172085 0.0136661 0.02611 -0.00315186 0.0695591 0.00921832 0.0670891 0.00205923 0.0238089 0.0811122 -0.0329934 -0.0113548 0.0407803 -0.0589342 0.05196 0.07356 0.0864366 0.0447546 0.033826 0.0547933 0.0501401 0.0668175 -0.081087 -0.0210035 -0.0884466 -0.0993049 0.0674698 -0.0560484 0.105038 0.097043 -0.0101507 0.106024 0.00354669 -0.105595 -0.103101 0.126847 -0.0392086 0.170659 -0.115979 -0.11634 -0.141665 -0.115778 -0.115749 -0.117909
internal_weight=0 49018.5 38782.7 47367.4 20913.1 15465.4 38307.3 26454.3 17114.5 5923.04 36286.6 32930 15892 5447.66 11191.4 4458.87 10365.8 17037.9 5099.57 9339.84 1651.1 1187.66 1089.21 988.792 3356.68 2020.61 8250.63 2961.93 720.705 1265.9 609.98 1068.14 466.958 125.211 463.442 414.515 15.0653 110.725 754.712 672.748 197.763 394.749 48.9266 399.45 341.747 12.5974 36.3292 81.9634 475.432 473.095 10.2831 462.812 456.64 6.17174
internal_count=268644 138405 130239 130010 61693 42508 126238 68317 45485 17671 120927 111522 52841 19185 27814 15344 26941 58681 15567 22832 8395 5791 3002 3841 9405 5311 19830 8508 2487 3532 1997 2874 3304 579 2604 2368 57 490 1779 1624 658 897 236 2311 2725 49 187 155 4001 3985 52 3933 3885 48
is_linear=0
shrinkage=0.1


Tree=9
num_leaves=62
num_cat=0
split_feature=69 104 103 52 102 69 103 69 32 105 103 32 136 103 69 133 31 134 70 26 103 135 134 31 134 30 69 32 98 10 128 102 134 69 101 69 58 27 117 124 67 134 130 31 62 97 35 106 101 71 103 72 29 70 53 17 95 106 57 107 5
split_gain=1701.13 1129.39 1105.09 949.043 717.614 870.1 548.703 924.67 589.763 497.239 493.532 451.055 448.473 442.202 788.675 428.213 333.788 312.99 271.941 284.032 263.083 248.41 208.275 191.094 227.753 185.918 178.611 178.201 170.257 167.393 197.208 165.331 174.484 147.417 311.983 121.804 120.576 107.497 94.1455 85.3015 183.394 83.0101 82.645 63.5736 47.4918 46.3445 40.9522 39.6548 41.2094 34.5767 27.102 25.479 24.0578 20.5029 16.1399 13.9478 11.9386 9.95536 5.46969 4.66625 0.509307
threshold=-0.12886165827512738 -0.72100132703781117 -0.82713976502418507 1.0280506014823916 -0.86785033345222462 -0.17947292327880857 -0.81145834922790516 -0.078664701431989656 0.96110263466835033 -0.86741033196449269 -0.7915101647377013 0.94945362210273754 1.0000000180025095e-35 -0.78077504038810719 -0.037103518843650811 1.0000000180025095e-35 1.0017723441123965 1.0000000180025095e-35 -0.32299634814262385 1.2240052223205569 -0.79537203907966603 1.0000000180025095e-35 1.0000000180025095e-35 1.0039927363395693 1.0000000180025095e-35 1.0994549393653872 -0.14612733572721479 0.96729275584220897 -0.84776344895362843 0.9272562861442567 1.0000000180025095e-35 -0.82063132524490345 1.0000000180025095e-35 -0.14515612274408338 -0.81844705343246449 -0.11053864285349844 0.77952870726585399 1.2474368214607241 -1.3774939179420469 -2.4755750894546504 0.33518749475479132 1.0000000180025095e-35 1.0000000180025095e-35 0.87265607714653026 0.5783326029777528 -0.8027433156967162 0.90825262665748607 -0.86119267344474781 -0.50600129365921009 -0.19147842377424237 -0.82351639866828907 -0.5365261137485503 1.1297848820686343 -0.09146514534950255 1.1696288585662844 1.1198442578315737 -0.23024062067270276 -0.88609921932220448 0.99677658081054699 -0.88000515103340138 0.92020535469055187
decision_type=2 2 2 2 2 2 2 2 2 2 2 2 2 2 2 2 2 2 2 2 2 2 2 2 2 2 2 2 2 2 2 2 2 2 2 2 2 2 2 2 2 2 2 2 2 2 2 2 2 2 2 2 2 2 2 2 2 2 2 2 2
left_child=2 6 3 9 22 21 23 8 10 11 -8 15 -7 27 -15 -1 17 18 37 -20 -10 -6 25 28 35 -5 45 -9 41 30 -11 32 -28 36 -35 -25 -19 -4 -30 54 43 -2 -13 53 -33 50 -26 48 -42 -49 -18 -45 -24 -41 57 -47 -56 -3 -59 -58 -31
right_child=1 39 16 4 5 12 7 13 20 29 -12 42 -14 14 -16 -17 26 33 19 -21 -22 -23 52 24 46 -27 31 -29 38 60 -32 44 -34 34 -36 -37 -38 -39 -40 40 47 -43 -44 51 -46 55 -48 49 -50 -51 -52 -53 -54 -55 56 -57 59 58 -60 -61 -62
leaf_value=0.019546545012583971 0.084100411330993094 0.031174472861636538 -0.0078456232868996442 0.065589379013148902 -0.014207138253584443 0.054063840465049973 0.049751105010583843 0.086802447267815372 -0.006920894135587133 -0.033518656112620025 -0.00790598721652464 0.12356975688979306 -0.0045327441230136835 0.0084431220359001743 0.061002270971552398 -0.023155943749986078 -0.074005504733678201 0.17090908207789546 -0.067615190971318087 0.040155594350921558 -0.083449888225253135 0.048531431535635286 0.10584492253657851 0.019026970094364694 0.18154019107909869 -0.096227937636486766 -0.028314345979622835 0.042309087161096007 -0.0042430890709008653 -0.14376828822648538 0.099249996101137092 -0.048245941738069217 0.093376359719773136 0.055250265698580214 -0.075588289250231006 0.060804181458511186 -0.094220432341352023 -0.07394699870564414 0.063544283427364873 -0.10488232519810202 0.11232020897627647 0.11995016677832411 -0.059491796988347626 -0.12888493225466438 -0.11211582983369997 0.0037432492605324291 0.1040819219411519 -0.056000059122022439 -0.1390320304951643 0.068228960456850785 -0.11494844527442455 0.078786634885195259 -0.1123732762751924 -0.046620003694767542 0.1600695060441587 0.20799473432515311 -0.1151983713329507 -0.11105949833145806 -0.083435986220272457 0.053365696130665989 -0.11424848967181417
leaf_weight=13022.735598012805 3914.5966986194253 5.5673892199993125 665.87462678551674 8061.2605081647635 4757.6992676705122 7805.7752123326063 4579.6656764000654 4674.9846377596259 1626.3091952949762 1949.1744107306004 2196.7143424004316 427.21286922693253 1568.6269368976355 4078.4773350432515 9516.8447169065475 2864.9065587967634 264.23838172852993 17.713921085000038 274.84329379349947 2218.6165205985308 620.62180444598198 727.61926530301571 5.4175091534852973 1363.0072543621063 110.34965355694294 71.633116126060486 425.98619416356087 1114.819160759449 227.00532104074955 5.9978050440549842 118.6870107203722 295.91266693174839 162.87670017778873 326.45057368278503 412.57138261198997 1430.1289025247097 541.92833544313908 390.18635123968124 2102.1765410602093 252.81935583055019 83.730279520153999 773.51637791097164 26.172530010342598 7.1852473616600028 191.92988546192646 8.3986133784055692 178.93535302579403 50.365814983844757 7.0738086849451056 40.356971234083176 416.53088593482971 33.230751648545265 74.906335040926933 79.360027648508549 3.9567953944206238 5.5543503910303107 4.6833942160010338 264.37512581795454 98.346243172883987 2.5290739014744741 228.77136996388435
leaf_count=44479 9323 20 2752 21210 16417 22100 12740 11084 5198 7508 7324 1070 5014 12147 24516 10478 1075 58 1221 6767 2392 2200 13 4105 215 301 1443 3045 674 29 338 1117 416 926 1731 3682 2497 1854 5433 1995 232 1742 98 43 843 30 421 255 41 113 1922 106 304 366 21 12 41 2208 826 10 2103
internal_value=0 0.0472651 0.0192786 0.0253018 0.03886 0.0257487 0.0498998 0.0427824 0.0163388 0.00852249 0.0310603 0.0146529 0.0442588 0.0550913 0.045235 0.0118463 -0.0186792 -0.0051057 0.0102631 0.0282765 -0.0280589 -0.00588496 0.0625816 0.0699197 0.0491654 0.0641641 -0.0558282 0.0782353 0.0790363 -0.0349831 -0.0258983 -0.0303218 0.00534473 -0.0471117 -0.0177925 0.0404175 -0.0858285 -0.0322683 0.0569376 -0.0614135 -0.0363996 0.0900155 0.113002 -0.0765548 -0.073374 -0.0953589 0.133629 0.0460215 0.0927394 -0.000738232 -0.0990566 0.0418663 -0.0976554 -0.090963 -0.0979413 0.085051 0.0204856 -0.101533 -0.10357 -0.0560909 -0.115003
internal_weight=0 39441.7 48336.2 41716.6 23072.9 14859.7 38508.2 28408.4 9023.31 18643.7 6776.38 16341 9374.4 19385.1 13595.3 15887.6 6619.61 4848.19 3549.52 2493.46 2246.93 5485.32 8213.22 10099.7 3082.42 8132.89 1771.43 5789.8 7017.29 2302.63 2067.86 1076.71 588.863 1298.66 739.022 2793.14 559.642 1056.06 2329.18 933.58 554.122 4688.11 453.385 372.595 487.843 694.722 289.285 181.527 90.8041 90.7228 680.769 40.416 80.3238 332.179 379.458 13.953 11.1693 368.289 362.721 7.21247 234.769
internal_count=268644 110318 158326 133662 67559 45731 104041 78446 27654 66103 20064 56125 27114 50792 36663 54957 24664 17806 12594 7988 7590 18617 21828 25595 8423 21511 6858 14129 17172 9978 7846 3819 1859 5212 2657 7787 2555 4606 6107 6277 3151 11065 1168 2510 1960 3039 636 641 273 368 2997 149 317 2361 3126 42 72 3054 3034 51 2132
is_linear=0
shrinkage=0.1


Tree=10
num_leaves=59
num_cat=0
split_feature=70 102 104 52 53 101 69 4 102 70 136 102 69 103 103 69 32 135 32 31 70 134 134 32 70 134 102 28 32 0 63 105 133 18 47 37 57 6 102 111 118 70 123 70 54 135 60 107 22 55 115 103 41 35 78 135 59 8
split_gain=1403.25 1002.73 942.578 845.409 527.488 542.135 542.708 519.846 519.149 749.729 475.124 433.157 768.294 580.336 398.612 708.126 384.416 372.561 358.644 333.504 297.142 252.666 209.937 200.932 258.515 175.881 237.788 176.175 169.014 158.75 147.731 143.684 146.965 139.292 133.445 117.857 110.847 108.232 129.085 97.7908 90.5453 87.4157 80.0226 103.186 97.1825 77.7974 75.14 65.629 44.656 26.4083 27.5584 25.5966 25.0095 21.7343 25.2118 17.8732 15.4845 3.79655
threshold=-0.28125876188278193 -0.8258814513683318 -0.72860047221183766 1.0280506014823916 0.7579881250858308 -0.93395179510116566 -0.35472634434700007 0.71452254056930553 -0.8652440309524535 -0.31888003647327418 1.0000000180025095e-35 -0.80814212560653675 -0.066361788660287843 -0.7864013910293578 -0.7718764841556548 -0.032908033579587929 0.95350980758667003 1.0000000180025095e-35 0.95431044697761547 1.0000914335250857 -0.30163417756557459 1.0000000180025095e-35 1.0000000180025095e-35 0.96110263466835033 -0.2577535212039947 1.0000000180025095e-35 -0.81554538011550892 1.1450675725936892 0.96789342164993297 0.35961312055587774 0.53916513919830333 -0.91539061069488514 1.0000000180025095e-35 1.2341039776802065 1.0932640433311465 0.93827825784683239 0.8350292742252351 0.63549780845642101 -0.81889888644218434 -0.92329749464988697 -1.1205218434333799 -0.29891739785671229 -2.1377888917922969 -0.085461061447858797 1.0937172174453738 1.0000000180025095e-35 0.67944577336311351 -0.90059584379196156 1.2381464242935183 1.0860304832458498 -1.4347415566444395 -0.65927258133888234 0.95423847436904918 0.88139790296554577 -1.1345463395118711 1.0000000180025095e-35 0.78932496905326854 0.88696649670600902
decision_type=2 2 2 2 2 2 2 2 2 2 2 2 2 2 2 2 2 2 2 2 2 2 2 2 2 2 2 2 2 2 2 2 2 2 2 2 2 2 2 2 2 2 2 2 2 2 2 2 2 2 2 2 2 2 2 2 2 2
left_child=1 3 11 4 39 7 -7 -6 21 16 -11 23 13 19 28 -16 -10 -15 20 -13 22 29 33 31 30 27 -27 -22 -14 -5 -25 32 -2 -3 -33 48 -24 38 41 45 -39 -20 43 51 -45 -1 -40 -26 49 55 -51 -37 -23 -44 -55 -4 -42 -41
right_child=2 18 35 8 5 6 -8 -9 9 10 -12 12 14 17 15 -17 -18 -19 37 -21 25 52 36 24 47 26 -28 -29 -30 -31 -32 34 -34 -35 -36 42 -38 40 46 57 56 -43 53 44 -46 -47 -48 -49 -50 50 -52 -53 -54 54 -56 -57 -58 -59
leaf_value=-0.088351458924618403 0.068619030162887507 -0.0010981195527390855 -0.095036719810355164 0.013386400308663721 0.073797911894001603 -0.047774719782250105 0.0087077172777391722 0.0078294622984343056 0.011465486218874058 0.05920944037533174 -0.0042928819909447804 0.045051206217745728 0.083191966201782319 -0.028085503930971197 -0.0049966811606753734 0.055964972292516284 -0.050758689957137143 0.13376845796634401 -0.075104404250479345 0.00040877461872942277 -0.032863686861702365 -0.027593295421092529 0.13451480006298475 0.021905223212905965 0.018674286221602554 0.048319382728462729 -0.062468298157397351 0.056293735561564612 0.039561017685258167 0.061119348838856183 -0.14961717460197085 0.017392801664848096 -0.059145932187240749 -0.059530211263547066 0.081579528192968473 0.033358105106106144 -0.093056969108378018 0.22505203367012921 0.085202094872253331 -0.010827677498794342 -0.10708447407108286 0.013344092788768545 0.22531796239340546 -0.10172706577003734 0.038116038961452117 0.061815133292550187 -0.070985323799535024 0.07539996806066053 0.14219240094192473 0.07261655606105219 -0.064403237871463112 -0.092376608177125577 -0.13011596569469008 0.096059712956612184 -0.045786334893162056 0.087650348594670385 -0.16662345245375285 -0.11251243323601812
leaf_weight=70.358050137758255 208.43146242201328 2093.0225118324161 455.37928644567728 762.60545089840889 2290.8842194676399 2006.6849025115371 11172.26714849472 2496.0863891541958 5592.1957672834396 5880.1365722864866 1473.4692907035351 5908.5886802375317 4499.2535329163074 2738.511197835207 2492.9634864479303 8085.253526493907 1207.1732250005007 150.00671537220478 146.50423257052898 2334.636732891202 264.94321611523628 35.304451748728752 22.397275239229202 1695.1033623963594 229.46195687353611 335.14165949821472 459.15972623229027 1355.6957746744156 1106.107224419713 8068.6795624196529 51.747468397021294 343.61147333681583 158.48909074068069 506.73630654066801 5646.1613748967648 17.618565067648888 482.40005299448967 7.9028073698282233 31.828877940773964 3.704159587621688 238.61235624551773 470.8975530564785 9.0883640199899656 63.072928540408611 234.28022349625826 67.693232968449593 954.7541771531105 1834.8597245961428 8.8896040171384794 19.603606641292572 58.428829051554203 199.81094263494015 72.979309469461441 49.943807557225227 16.727256536483765 5.4190658032894126 53.469620555639267 420.15234969556332
leaf_count=327 513 7790 3854 2201 6366 8076 38670 8661 18078 15950 4639 16268 10601 9300 7539 20691 4394 374 597 7344 929 130 75 4976 630 965 1897 3843 2954 21253 201 1162 524 2249 13490 66 2336 19 93 17 1036 1438 24 359 881 213 3989 4441 24 109 389 1401 311 112 64 17 218 3576
internal_value=0 0.0174652 0.0429496 0.023504 0.00759276 0.0105768 0.000107454 0.0393998 0.0362701 0.0243537 0.0464852 0.045672 0.0391133 0.0188917 0.0530226 0.0415982 0.000418085 -0.0196801 -0.0163919 0.0324076 -0.00348245 0.0551359 -0.0239462 0.0632914 0.0451364 0.022825 -0.0157234 0.0417182 0.0745823 0.0569975 0.0168242 0.0741763 0.0134317 -0.0124875 0.0778974 -0.0466986 -0.0829599 -0.0538157 -0.0435048 -0.0878155 -0.108947 -0.00764399 -0.0157094 -0.0298311 0.00845328 -0.0147175 -0.0659464 0.0690946 -0.0801106 -0.0837781 -0.0299806 -0.0821882 -0.0966898 0.0802472 0.0604716 -0.0928883 -0.117984 -0.111624
internal_weight=0 49043.8 38621.4 41620.4 18527.8 17965.9 13179 4786.97 23092.5 14153 7353.61 37483.2 27315.3 11131.7 16183.6 10578.2 6799.37 2888.52 7423.47 8243.23 5519.5 8939.57 3104.56 10167.9 3811.17 2414.94 794.301 1620.64 5605.36 8831.29 1746.85 6356.69 366.921 2599.76 5989.77 1138.26 504.797 1903.97 1603.98 561.908 299.985 617.402 590.542 514.783 297.353 138.051 986.583 2064.32 547.72 538.831 78.0324 217.43 108.284 75.7594 66.6711 460.798 292.082 423.857
internal_count=268644 160336 108308 132862 65906 61773 46746 15027 66956 43061 20589 101008 75071 33286 41785 28230 22472 9674 27474 23612 20084 23895 12450 25937 10248 7634 2862 4772 13555 23454 5177 15689 1037 10039 14652 7300 2411 7390 6117 4133 1273 2035 2907 2707 1240 540 4082 5071 4393 4369 498 1467 441 200 176 3871 1254 3593
is_linear=0
shrinkage=0.1


Tree=11
num_leaves=53
num_cat=0
split_feature=52 109 106 31 6 103 70 134 36 102 134 135 69 105 69 136 101 130 101 53 30 128 108 129 128 31 116 78 71 103 69 100 31 134 103 79 96 85 76 68 108 70 59 68 42 49 135 44 107 60 0 26
split_gain=1191.08 866.603 854.404 692.534 599.976 475.565 643.617 616.14 459.239 450.931 416.469 373.652 437.644 513.878 326.967 392.344 363.818 324.559 310.793 489.128 368.293 297.447 277.627 277.79 274.916 251.074 237.958 170.693 161.781 139.244 138.148 252.621 137.998 136.194 162.048 121.547 116.312 113.945 139.759 106.581 94.1127 93.5254 306.236 83.2556 47.1333 46.5893 27.2097 11.1184 7.65553 6.36733 2.99042 1.52015
threshold=1.0675854682922366 -0.93291717767715443 -0.90287756919860829 0.99856093525886547 0.9555875062942506 -0.83479151129722584 -0.32962213456630701 1.0000000180025095e-35 0.92415410280227672 -0.86281493306159962 1.0000000180025095e-35 1.0000000180025095e-35 -0.0066156499087810508 -0.85087245702743519 -0.14804819971323011 1.0000000180025095e-35 -0.81844705343246449 1.0000000180025095e-35 -0.82561531662940968 1.0609201192855837 1.0773280858993532 1.0000000180025095e-35 -0.93005663156509388 1.0000000180025095e-35 1.0000000180025095e-35 1.0006314516067507 -1.521822929382324 -1.2024608850479124 -0.52567526698112477 -0.8224525749683379 1.0000000180025095e-35 -0.77358573675155629 0.99589753150939953 1.0000000180025095e-35 -0.85512411594390858 -1.2074388861656187 -0.95845147967338551 -0.58705130219459523 -0.59985420107841481 -0.031070366501808163 -0.85917013883590687 -0.158010758459568 0.86260107159614574 -0.026475982740521427 1.1186914443969729 1.1435414552688601 1.0000000180025095e-35 1.1758964657783511 -0.94130465388298024 0.74674347043037426 -0.063085563480854021 1.6093308925628664
decision_type=2 2 2 2 2 2 2 2 2 2 2 2 2 2 2 2 2 2 2 2 2 2 2 2 2 2 2 2 2 2 2 2 2 2 2 2 2 2 2 2 2 2 2 2 2 2 2 2 2 2 2 2
left_child=4 2 11 24 5 6 7 9 17 -1 18 12 13 -2 25 16 -16 21 20 -20 -5 -4 23 -10 41 40 -14 -24 -9 -17 31 -26 -19 34 -8 39 -35 38 -13 -12 -7 42 -3 -27 -32 -43 48 -39 -6 -37 -50 -52
right_child=1 3 8 10 46 14 33 28 22 -11 35 37 26 -15 15 29 -18 32 19 -21 -22 -23 27 -25 30 43 -28 -29 -30 -31 44 -33 -34 36 -36 49 -38 47 -40 -41 -42 45 -44 -45 -46 -47 -48 -49 50 -51 51 -53
leaf_value=0.02233269811853951 0.028812802655478489 0.07195872901995462 -0.035952597660863395 0.043921841488440944 0.26621902558726346 -0.028428807444932425 0.068666283055606181 -0.077560277755432006 -0.016528182388795391 -0.016277057926043999 -0.037899117340278662 0.091423005028041793 -0.00047547012392439394 -0.08745849876295464 0.04659780921491706 -0.033165806921145805 -0.023326452298685386 0.091445698058601865 -0.045717620821472293 0.023664021396969478 -0.13717047097071142 0.11197117873949636 -0.0646462951203262 0.11252029371332835 0.044276808373227755 -0.10325058944137 0.088301096406481219 0.048365620104284947 -0.015167917572797496 -0.13642249944115378 0.11533428244572097 -0.029968375039194802 -0.022314009648432605 0.15641099962847807 0.029275870054264692 -0.1377375928906463 0.067086598932923083 0.21386987035061927 -0.22650284455625289 0.094287653147676814 0.022480756835527634 -0.13549660518199955 0.0044739841607364791 -0.048535675713922921 0.046698883830815885 0.10805409773290804 0.17461715823344251 0.13812398003433604 0.035950242221942132 -0.0034995708097521182 -0.11289335641065988 -0.023471448342921603
leaf_weight=21241.43436512351 7191.754069685936 9961.1299055665731 4243.6675924286246 5555.7376037240028 0.53602862358093162 1098.73470659554 1740.5775783807039 822.96918249130249 1989.1515697613358 3527.2419252842665 64.187481999397278 883.47321477532387 362.19577446579933 401.32705280184746 2129.4345326349139 422.01625882089138 1143.7654164656997 330.62380628287792 1337.2713539749384 4230.6508696377277 114.6206117272377 140.43421015143394 141.08208602666855 182.07385908067226 3469.9424951374531 501.77828434109688 1814.5370693355799 2536.8857006877661 839.55344259738922 189.12669825553894 303.88528993725777 528.01843163371086 157.39814004302025 201.22145812213421 2611.1548149362206 25.031873688101772 529.04545058310032 81.177069470286369 14.046881064772604 1226.8252299129963 542.36524772644043 7.945156678557395 721.10430485755205 623.86565604805946 149.16549862921238 686.76731891930103 3.353282928466796 25.455546379089355 1.3623653575777996 4.1142825633287421 393.17293163388968 1.9103140234947193
leaf_count=68228 20842 24367 18137 15088 1 4432 4690 3451 6400 12548 213 2238 1047 1461 6016 1345 3895 881 4686 12250 456 364 474 408 9026 2290 4209 6861 3220 716 642 1574 538 505 7824 119 1529 149 57 2987 1956 28 2037 2437 373 1482 6 53 7 15 4078 8
internal_value=0 0.0362452 0.0205753 0.047559 0.0127395 0.014017 0.0191453 0.0128788 -0.000919298 0.0168344 0.0300238 0.0399699 0.0339995 0.0226674 -0.0102814 0.00843112 0.0221639 -0.0226029 0.0237824 0.00700034 0.0402612 -0.0312142 0.0208669 -0.00570648 0.061472 -0.0365526 0.0735292 0.0424119 -0.0460529 -0.06512 0.0404017 0.0344711 0.0547556 0.0517371 0.045031 0.0831564 0.0916995 0.0980583 0.0864472 0.0877155 -0.0116038 0.0697154 0.0674032 -0.0729259 0.0927363 0.105269 -0.109044 0.195788 -0.11144 -0.118789 -0.111951 -0.112461
internal_weight=0 48881.7 20495.3 28386.4 38564.6 38164.3 31513.2 26431.2 9721.32 24768.7 12558.4 10774 9769.81 7593.08 6651.09 3884.34 3273.2 4872.12 11238.3 5567.92 5670.36 4384.1 4849.19 2171.23 15828 2766.74 2176.73 2677.97 1662.52 611.143 4451.01 3997.96 488.022 5082 4351.73 1320.16 730.267 1004.15 897.52 1291.01 1641.1 11376.9 10682.2 1125.64 453.051 694.712 400.335 106.633 396.982 29.1462 396.446 395.083
internal_count=268644 139462 64119 75343 129182 125082 101995 87447 34063 80776 35814 30056 27559 22303 23087 11972 9911 19920 32480 16936 15544 18501 14143 6808 39529 11115 5256 7335 6671 2061 11615 10600 1419 14548 12514 3334 2034 2497 2295 3200 6388 27914 26404 4727 1015 1510 4100 202 4094 134 4093 4086
is_linear=0
shrinkage=0.1


Tree=12
num_leaves=63
num_cat=0
split_feature=69 103 103 52 103 68 134 69 103 32 69 71 32 68 103 135 124 30 30 70 103 100 136 104 134 134 116 60 69 27 135 7 26 132 31 70 63 31 53 39 3 36 117 55 70 123 132 72 106 40 121 70 105 96 68 59 33 117 50 53 22 127
split_gain=1061.65 923.066 665.691 653.217 583.329 673.472 554.735 471.861 888.234 551.914 410.276 350.68 331.176 302.517 292.5 541.125 325.603 321.528 290.385 281.602 273.967 266.816 237.73 227.903 226.979 217.014 212.904 190.152 222.992 170.422 164.455 158.272 142.66 129.423 115.765 107.468 134.16 105.035 100.76 89.6431 74.5187 73.9766 71.4119 68.1621 59.0255 136.988 56.9708 49.7696 44.8448 34.4005 27.0128 24.6587 26.5321 24.5349 24.6577 23.8669 22.9984 20.1955 16.9563 16.1919 12.4715 9.93208
threshold=-0.13645406812429425 -0.83543413877487172 -0.68395611643791188 0.9521721899509431 -0.90778809785842884 -0.049789413809776299 1.0000000180025095e-35 -0.0097144399769604189 -0.75303837656974781 0.96250757575035106 -0.069176539778709398 -0.4146220982074737 0.95659589767456066 -0.024247636087238785 -0.93510568141937245 1.0000000180025095e-35 -1.0721098780632017 1.1061945557594302 1.0994549393653872 -0.11281175166368483 -0.63600063323974598 -0.84456253051757801 1.0000000180025095e-35 -0.79157781600952137 1.0000000180025095e-35 1.0000000180025095e-35 -1.5327754020690916 0.81633475422859203 0.013938567601144316 1.1333846449851992 1.0000000180025095e-35 0.12164161726832391 1.2315144538879397 1.0000000180025095e-35 0.99966734647750866 -0.30815660953521723 0.48799954354763037 1.0017723441123965 0.78600153326988231 1.0152454972267153 0.2092169672250748 0.90435910224914562 -1.5651534199714658 1.0361535549163821 -0.070119529962539659 -2.2680751085281368 1.0000000180025095e-35 -0.62871241569519032 -0.90287756919860829 1.0573095083236697 -1.8506909012794492 -0.1184558942914009 -0.82307952642440785 -0.80726540088653553 -0.0060877848882228127 0.80256152153015148 0.84103554487228405 -1.4013010263442991 0.91055020689964306 1.2020932435989382 1.2381464242935183 -3.205493569374084
decision_type=2 2 2 2 2 2 2 2 2 2 2 2 2 2 2 2 2 2 2 2 2 2 2 2 2 2 2 2 2 2 2 2 2 2 2 2 2 2 2 2 2 2 2 2 2 2 2 2 2 2 2 2 2 2 2 2 2 2 2 2 2 2
left_child=1 3 7 14 30 6 -6 8 9 10 -2 -11 13 24 15 38 18 -17 -16 46 31 32 -7 40 37 -23 43 39 -29 -25 33 42 -15 -5 -32 53 41 -3 -1 -28 -10 -37 -21 49 59 -46 56 -26 -33 -9 -45 61 -53 54 -14 -38 60 -58 -18 -22 -4 -48
right_child=2 12 19 4 5 22 -8 26 23 11 -12 -13 35 21 16 17 58 -19 -20 20 44 25 -24 29 47 -27 27 28 -30 -31 34 48 -34 -35 -36 36 55 -39 -40 -41 -42 -43 -44 50 45 -47 51 -49 -50 -51 -52 52 -54 -55 -56 -57 57 -59 -60 -61 -62 -63
leaf_value=-0.084978443616093413 0.039242837948688616 -0.011701648920706206 -0.082614666397019476 0.053397952351348289 0.01354683012461564 0.050181903097689218 -0.052338160148260815 0.050607315924191633 0.034109886694390211 -0.0065459704536479178 0.071524768711665687 0.032268189483010634 -0.1113589139725113 -0.059336364886128701 -0.0050415751945497638 0.13952078104411131 -0.11312142824616481 -0.072058865972614947 -0.086777406476707744 0.0039089505516689384 -0.1001291107166325 0.013976169712981965 0.0074361029887361155 -0.079836836125736332 -0.098346787801047136 -0.04965558111648407 0.032970004734643663 -0.0045820888315790563 0.069192306425310629 -0.01445021304415043 0.12829258316259423 0.12781509992693846 0.052860842792398659 -0.058566718584176204 0.029431021546249842 0.068321663476263977 -0.078613447355254135 -0.077766414601428788 -0.0016357238724616606 0.094820766644867105 -0.069465329500200637 -0.029478400610080835 0.06802187770395686 0.065360570494202616 -0.10273697111172374 0.055023131500671743 -0.1045027061313487 0.051449752483796976 -0.064910791241117191 -0.16745365079111207 -0.12773941483852871 0.08224320878788953 -0.089519130649774292 0.076092988468680595 0.010497254735171191 -0.14226167180032631 0.1582600094794816 -0.016462930271861641 -0.035423677666028393 0.1046106144801941 0.07623354921071733 -0.14503390991037765
leaf_weight=180.20952676236629 17853.988388538361 1989.9044049084187 38.561832502484322 3854.2981855794787 16564.22737364471 7110.9699405431747 1384.7829216569662 8.3356794416904432 591.86718519032001 3635.3488657325506 5050.6247018501163 6471.2902723550797 415.00583131611347 123.86861924827099 3961.3466880023479 469.00078742206097 377.71118571609259 84.812781125307083 488.23077622056007 258.55601328611374 258.88066873699427 1325.7919937372208 1592.417832583189 806.72045425325632 515.70900142192841 899.67580668628216 260.60701254755259 582.57233864068985 1380.8077879995108 787.94241701066494 495.10035184025764 12.903690010309218 1331.8558903485537 106.08182087540627 155.6941572278738 91.288723722100258 290.58295330405235 273.7615569382906 743.77060683071613 2323.9422929883003 78.699359282851219 506.24955430626869 529.55849960446358 34.073664799332619 114.51521501690149 105.97974129766226 96.119330361485481 23.176760286092758 187.64823693782091 54.763963967561722 9.20058725774288 10.754169613122938 54.92226281017065 7.4878037720918647 17.297832891345024 73.897185981273651 11.114013180136682 16.343581810593605 30.3440181016922 3.9212227910757056 5.6692053973674765 162.96230892837048
leaf_count=1216 49452 8163 256 10529 52573 19582 5760 22 1642 11511 12290 17404 1866 414 14446 1112 2859 330 2037 837 2335 4238 4941 3118 2464 3801 738 1647 3320 2456 1281 29 3679 393 484 252 1170 1183 2553 5212 283 1800 1689 85 1180 411 652 84 761 208 33 27 362 22 56 344 27 73 109 19 19 805
internal_value=0 0.0127571 0.0348342 0.0192811 0.0252146 0.0195329 0.00846374 0.037564 0.0336155 0.0377721 0.0463612 0.0183068 -0.0183498 -0.0088208 -0.00999895 0.0289576 -0.0218503 0.107119 -0.0140101 -0.0235063 -0.00335862 0.0100263 0.0423609 -0.0269599 -0.0335767 -0.0117478 0.0674914 0.0707623 0.047302 -0.0475285 0.0580543 0.0268049 0.0433139 0.0503989 0.104641 -0.0624237 -0.0437028 -0.0196913 -0.0178906 0.0885842 0.021954 -0.014537 0.0469884 -0.0723559 -0.0650633 -0.0269104 -0.0983125 -0.0919042 -0.0525106 -0.138647 0.0243054 -0.116123 -0.061394 -0.103375 -0.106483 -0.0915179 -0.0176283 0.0542597 -0.107344 -0.0970742 -0.0622547 -0.129997
internal_weight=0 45484.6 41799.2 37599 31263.6 26652.4 17949 39930.8 35276.5 33011.3 22904.6 10106.6 7885.55 6483.74 6335.43 1477.79 4857.63 553.814 4449.58 1868.41 1471.96 3681.19 8703.39 2265.23 2802.55 2225.47 4654.3 4547.93 1963.38 1594.66 4611.17 988.666 1455.72 3960.38 650.795 1401.81 962.018 2263.67 923.98 2584.55 670.567 597.538 788.115 106.374 483.297 220.495 396.447 538.886 200.552 63.0996 43.2743 324.758 65.6764 439.791 432.304 364.48 71.6886 27.4576 408.055 262.802 44.231 259.082
internal_count=268644 149741 118903 120205 95543 82856 58333 109421 98156 90657 61742 28915 29536 24026 24662 5211 19451 1442 16483 9482 7261 12132 24523 7499 11894 8039 11265 10917 4967 5574 12687 3316 4093 10922 1765 5510 3566 9346 3769 5950 1925 2052 2526 348 3945 1591 2221 2548 790 230 118 1846 389 1944 1922 1514 375 100 2968 2354 275 1457
is_linear=0
shrinkage=0.1


Tree=13
num_leaves=61
num_cat=0
split_feature=69 103 129 103 69 103 32 53 103 69 33 134 103 32 31 100 69 102 70 31 103 134 132 70 5 38 8 103 0 27 103 60 69 63 31 32 62 117 54 34 52 89 103 126 71 106 103 70 20 132 50 71 1 33 71 120 57 117 80 51
split_gain=883.373 622.94 621.416 602.322 452.006 732.565 426.668 415.043 412.854 707.397 478.75 370.085 314.253 305.506 274.629 267.906 514.988 250.071 244.715 242.477 232.392 174.732 145.165 190.248 143.262 245.249 128.511 126.888 110.202 103.73 100.036 94.1756 93.9792 301.927 184.601 111.148 88.0294 83.5437 77.0948 70.9805 65.5696 64.8749 61.2049 55.7699 66.3972 55.4343 51.1129 58.725 48.7614 47.9677 44.9097 32.6149 24.7022 22.611 22.5762 29.6199 20.0033 16.7538 11.9616 11.5436
threshold=-0.112520694732666 -0.81255432963371266 1.0000000180025095e-35 -0.68395611643791188 -0.16028428077697751 -0.84216943383216847 0.95659589767456066 0.92179241776466381 -0.80103930830955494 -0.057198951020836823 0.94092923402786266 1.0000000180025095e-35 -0.78077504038810719 0.95568400621414196 1.0037700533866885 -0.79324987530708302 -0.017947174608707425 -0.82880955934524525 -0.11281175166368483 1.0008319020271303 -0.63600063323974598 1.0000000180025095e-35 1.0000000180025095e-35 -0.29533959925174708 0.52855521440505993 0.96179857850074779 0.14521095156669619 -0.77756375074386586 0.43935720622539526 1.1939268112182619 -0.82455909252166737 0.75850942730903637 -0.081190466880798326 0.53811678290367138 0.99856093525886547 0.9642336666584016 0.65841835737228405 -1.4270029067993162 1.0066573619842532 0.94823387265205394 1.0814213752746584 -1.0859113335609434 -0.66840326786041249 -3.0314705371856685 -0.20819783955812451 -0.95739474892616261 -0.80799651145935047 -0.28125876188278193 1.2740671038627627 1.0000000180025095e-35 1.1762059330940249 -0.45458541810512537 -0.69198665022850026 0.84103554487228405 -0.25006166100502009 -1.7143817543983457 0.89658132195472728 -1.4013010263442991 -0.52496802806854237 1.2112964391708376
decision_type=2 2 2 2 2 2 2 2 2 2 2 2 2 2 2 2 2 2 2 2 2 2 2 2 2 2 2 2 2 2 2 2 2 2 2 2 2 2 2 2 2 2 2 2 2 2 2 2 2 2 2 2 2 2 2 2 2 2 2 2
left_child=1 2 4 8 5 7 17 -1 32 10 12 -8 -10 21 29 28 -17 -6 49 -7 26 22 23 -3 56 -26 42 -12 -11 41 31 -16 33 35 -35 -2 40 -38 -24 46 -34 -4 -20 52 -45 -31 47 -15 -48 53 -28 -32 -22 58 59 -56 -23 -55 -5 -51
right_child=3 13 14 18 6 19 11 -9 9 15 27 -13 -14 39 30 16 -18 -19 20 -21 43 24 38 -25 25 -27 50 -29 -30 45 51 -33 36 34 -36 -37 37 -39 -40 -41 -42 -43 -44 44 -46 -47 48 -49 -50 54 -52 -53 -54 57 55 -57 -58 -59 -60 -61
leaf_value=-0.012030098783898758 0.066109721968322765 -0.016014266097606457 -0.0012354701560214777 -0.092513892875865103 0.060941041971344083 -0.013706755516178224 -0.0098400595493768391 0.018191978619723 0.031348888154373429 0.074666068272062902 -0.032536760588302127 0.059973722758840199 -0.01377823292035963 -0.082086273420475156 0.034143521312995966 0.011693556792160237 0.057692567573170851 0.025233142342619641 0.070074703263245594 -0.065651203108220549 0.14659255433557339 -0.0063865791560785909 0.021781716666376204 0.039556465031824362 -0.048648613428486989 0.14424084957398384 -0.12018479254038344 -0.10926077590230493 -0.10090513348044067 0.17393796957937327 -0.11519454480616263 -0.15974180092802329 0.028577950900550753 0.032704808254185126 -0.04414467776110502 0.031862204398068847 -0.18661781071951711 0.037920613143625097 -0.11060646033493715 0.3101473155204289 0.084150285591859691 0.14396264185670532 0.01573323844376889 -0.090603671889430915 0.038729723259098382 0.082576494564504693 -0.091734908050315117 -0.008709640788991873 0.10237221128471141 -0.13593482099886356 -0.0085250007619497217 -0.018090038012958304 -0.091663686627424551 0.15750996721883426 -0.11172764056234306 -0.0067767668829503665 -0.11245857838137784 -0.0083594715770146186 0.039691233112976988 0.040192627595712592
leaf_weight=5567.282086007297 4403.7255681604147 1254.1095785424113 224.88483431190252 30.871387578547001 4096.9808152988553 2286.4195155650377 3522.7310246229172 24723.899353578687 4962.2741660922766 2691.5135755091906 1023.0970723330975 967.9453240185976 2239.5920478776097 207.85731685161591 1102.2162007689476 4439.6030487567186 5387.3466120064259 3762.2929037958384 360.66795016825199 1480.5798995941877 4.4178110361099234 19.033809296786785 60.985294610261917 1210.9163821265101 387.68866784125566 79.418901547789574 70.690908595919609 273.09303112328053 36.231784790754318 68.790806397795677 60.287535265088081 25.635006427764893 237.31716760993004 927.96642456948757 471.33615726232529 1207.4807692021132 17.264438480138779 412.1852802336216 157.81623089313507 4.9335530698299399 2015.4656056165695 35.65009406208992 487.29714472591877 68.111441746354103 95.141094520688057 1921.272254422307 637.22633867710829 229.49526605010033 13.210056513547896 182.72228723019361 73.442686416208744 81.143859937787056 290.25173389166594 10.109910160303118 81.107726857066154 40.229226015508175 269.61824304610491 15.312734417617319 8.7930425032973272 3.7985965311527243
leaf_count=22116 10883 5172 687 222 10650 8643 11159 77297 13842 6411 3361 2672 7464 880 3098 12407 13322 11209 921 6110 9 74 190 3682 1524 191 335 1068 359 134 248 102 634 2448 1485 3333 67 1060 598 10 4682 74 1817 577 310 4629 2742 726 42 1035 243 263 3049 23 577 214 1437 67 41 19
internal_value=0 0.0132585 0.0164808 0.0340777 0.0134084 0.00746547 0.0297974 0.0126374 0.0373891 0.0295264 0.00724607 0.00520799 0.0173155 -0.0222388 0.0569899 0.0446075 0.0369112 0.0438474 -0.0217715 -0.034123 -0.00319023 -0.00760519 0.00435527 0.0112842 -0.0500788 -0.015853 0.0240081 -0.0487017 0.072334 0.0779667 0.0197953 0.0297367 0.0544672 0.0483765 0.0068191 0.05874 0.0703863 0.0288939 -0.0737067 -0.0683014 0.0782961 0.0186326 0.0388465 -0.062116 -0.0152301 0.0857346 -0.0700178 -0.0435828 -0.0877927 -0.0940162 -0.063289 -0.0594825 -0.0880916 -0.0160189 -0.110506 -0.0769312 -0.105464 0.0576024 -0.0632059 -0.132348
internal_weight=0 54460.3 49928 32568.5 46408.1 34058.2 12350 30291.2 30745.5 21052.8 8498.06 4490.68 7201.87 4532.31 3519.88 12554.7 9826.95 7859.27 1822.97 3767 1450.02 3439.59 2683.83 2465.03 755.76 467.108 992.099 1296.19 2727.75 2250.6 1269.28 1127.85 9692.74 7010.51 1399.3 5611.21 2682.23 429.45 218.802 1092.72 2252.78 260.535 847.965 457.922 163.253 1990.06 1087.79 437.353 650.436 372.945 144.134 141.431 294.67 65.0871 307.858 121.337 288.652 25.4226 39.6644 186.521
internal_count=268644 176359 159091 92285 149856 114166 35690 99413 82826 58234 25735 13831 21306 17268 9235 32499 25729 21859 9459 14753 7261 12868 9642 8854 3226 1715 3316 4429 6770 5524 3711 3200 24592 18149 3933 14216 6443 1127 788 4400 5316 761 2738 3945 887 4763 4390 1606 2784 2198 578 511 3058 353 1845 791 1511 90 263 1054
is_linear=0
shrinkage=0.1


Tree=14
num_leaves=61
num_cat=0
split_feature=69 102 52 104 79 103 69 102 70 135 75 136 133 31 74 63 32 69 28 103 69 32 70 32 31 30 30 118 33 136 106 33 69 112 133 103 0 55 56 58 90 75 71 48 67 43 28 125 71 130 52 2 106 122 70 105 106 135 77 37
split_gain=757.627 622.209 637.175 486.882 454.85 381.691 591.909 375.236 596.523 368.553 397.448 361.048 328.316 523.489 366.827 305.389 308.212 297.88 450.945 277.914 603.061 277.25 246.37 191.572 169.246 164.78 156.755 181.371 132.022 121.401 120.536 142.096 215.38 115.446 110.202 88.7247 86.8752 84.4582 76.9605 70.3515 67.652 85.373 64.5406 59.7189 54.3873 51.416 50.7679 46.5399 45.0542 35.8582 30.0979 27.4849 23.6783 32.2214 22.9241 14.8772 11.6682 9.73603 8.66342 5.72033
threshold=-0.12886165827512738 -0.83816125988960255 1.0178139805793764 -0.72100132703781117 -1.2721737623214719 -0.81087476015090931 -0.088439300656318651 -0.88177916407585133 -0.33908127248287195 1.0000000180025095e-35 -0.90200001001358021 1.0000000180025095e-35 1.0000000180025095e-35 1.0049790740013125 -0.94527843594551075 0.54348662495613109 0.96006429195404064 -0.14804819971323011 1.1688493490219118 -0.78265857696533192 -0.039293356239795678 0.94994699954986583 -0.3937124758958816 0.95797589421272289 1.0000914335250857 1.1011147499084475 1.0341338515281679 -0.92195761203765858 0.91335749626159679 1.0000000180025095e-35 -0.96311178803443898 0.92544943094253551 -0.095176834613084779 -1.2121261358261106 1.0000000180025095e-35 -0.82978656888008107 0.38636560738086706 0.99699807167053234 1.0287148356437685 0.86490526795387279 -0.2218242064118385 -0.43779513239860529 -0.52152469754219044 1.0957937240600588 0.33518749475479132 1.1073886752128603 1.0601547360420229 -2.051880836486816 -0.44290526211261744 1.0000000180025095e-35 1.1939737200737002 0.55289557576179515 -0.87360066175460804 -2.0915163755416866 -0.057281939312815659 -0.79460293054580677 -0.85445192456245411 1.0000000180025095e-35 -1.1960391998291013 0.90590026974678051
decision_type=2 2 2 2 2 2 2 2 2 2 2 2 2 2 2 2 2 2 2 2 2 2 2 2 2 2 2 2 2 2 2 2 2 2 2 2 2 2 2 2 2 2 2 2 2 2 2 2 2 2 2 2 2 2 2 2 2 2 2 2
left_child=1 2 4 5 26 30 15 25 22 17 37 -10 14 -14 -6 16 -7 21 23 24 -21 33 -9 -19 -8 36 58 -28 -17 -20 34 43 -33 -3 49 -23 -4 42 46 47 41 44 -11 -32 -40 -36 52 -12 -41 -2 55 -27 53 -5 -52 -42 -43 -54 -1 -39
right_child=3 9 7 38 12 6 19 8 11 10 39 -13 13 -15 -16 28 -18 18 29 20 -22 35 -24 -25 -26 51 27 -29 -30 -31 31 32 -34 -35 45 -37 -38 59 40 48 50 56 -44 -45 -46 -47 -48 -49 -50 -51 54 -53 57 -55 -56 -57 -58 -59 -60 -61
leaf_value=-0.11319971205739021 0.036745224513198942 -0.064642328590652817 0.014709453153317479 0.26726716827318614 0.0085737124564184818 0.023615351062903942 0.060426681548704821 -0.058859707136936501 0.048905598845297507 -0.090124475898389234 0.15621970022829978 -0.0013555953594258827 -0.045396247926003136 0.079232613978812205 0.057814592782055411 -0.01037754580498473 -0.029565081723482978 -0.004485499687927579 0.052962117632646181 -0.0045452369014880355 0.039450486983099692 -0.036376714484857069 0.0038981102121232801 -0.06195232460592949 0.026655544119251112 -0.12437528229254752 -0.046321535753569364 0.01216898202235038 -0.078919818263799124 -0.033636897078688353 0.021818464503535927 0.02607129500478399 0.066332526022386096 -0.010821638671327837 -0.033779739415678765 -0.08402253943692059 0.054533873181161978 -0.134697582296986 -0.059156687487921356 -0.11051557174889859 0.18383595025841737 0.13345897747892821 0.025964983678830635 0.068030940311097257 0.035318071877412593 -0.17024329232874363 0.096617664494296568 0.092963000828351336 0.084942042785292438 -0.15241751471120971 -0.076000016382442429 0.10730251701557042 -0.1096380913061159 -0.058836476914259445 0.13475218473403491 -0.0993812616704908 0.27618727373582808 0.047627454282437046 0.067039206924754707 -0.075935553458815266
leaf_weight=245.71084151417017 231.47649157047272 444.12807573378086 607.32586926221848 3.1376488432288161 8726.844621874392 3856.6946731954813 4663.9663993492723 700.54456751048565 6378.3518187999725 64.202092558145523 187.52570301294327 1841.9534538239241 1967.4269202947617 406.70158140361309 1830.182719476521 506.09945660829544 1519.0389499515295 2193.495123565197 1583.1895813792944 4616.6726837381721 9582.2048003077507 655.1339443475008 5842.1193167865276 788.6620736643672 2176.4844739735126 62.786721050739288 1681.9024082571268 774.17341394722462 631.85895563662052 180.31960859894753 303.06014198064804 3870.4261846095324 2023.3223828077316 3883.320050098002 65.968660324811935 968.79547696560621 5585.7278714776039 61.951381787657738 116.63814308494329 23.119071289896965 1.8840543776750553 20.308343179523948 188.49294891953468 3617.9129602313042 127.59274584800005 47.483066737651825 15.02568608522415 306.25980806350708 24.072807818651199 10.474621996283529 9.7579868063330668 5.5753542631864539 245.99092984944582 88.2588991522789 10.955957196652887 119.20281995087862 7.977765165269374 4.0005590319633475 2.6960734054446212 22.613435536623001
leaf_count=2980 606 1678 1678 11 30102 11318 11541 2513 17383 297 422 5751 7469 1156 5626 1677 5276 7207 4462 14016 25566 2434 18757 3059 5989 282 6475 2421 2332 591 873 10697 4896 14566 205 4554 14462 318 840 106 5 57 620 8830 489 181 38 781 61 38 79 14 2708 639 49 1320 29 13 9 92
internal_value=0 0.0106594 0.0170413 0.0294712 0.00175381 0.0310788 0.0249675 0.0284105 0.0197101 -0.00955297 0.0527215 0.0376434 0.0095539 -0.0240466 0.0171102 -0.00137427 0.00858798 -0.0146658 0.00402163 0.0331228 0.0251456 -0.0295672 -0.00282158 -0.0196832 0.0496814 0.0489241 -0.0355414 -0.0278849 -0.0484361 0.0441073 0.0476355 0.0497071 0.039893 -0.0163453 -0.00957488 -0.064801 0.0506285 -0.0324789 -0.0492095 0.105838 -0.019901 0.00924747 -0.0035298 0.0644591 -0.00980055 -0.090894 -0.0832795 0.116986 -0.0108117 0.0285559 -0.0759194 -0.105481 -0.0911974 -0.0476413 0.0354704 -0.0949745 0.173714 -0.107121 -0.111243 -0.118984
internal_weight=0 48235.3 36660 38493.9 15635.6 37723.1 27553 21024.4 14763 11575.3 878.237 8220.31 12931.2 2374.13 10557 6513.69 5375.73 10697 4745.67 21039.3 14198.9 5951.38 6542.66 2982.16 6840.45 6261.42 2704.48 2456.08 1137.96 1763.51 10170.1 9814.72 5893.75 4327.45 355.403 1623.93 6193.05 337.26 770.732 540.977 414.318 272.517 252.695 3920.97 244.231 113.452 356.414 493.786 47.1919 241.951 141.801 68.3621 341.388 91.3965 20.7139 121.087 28.2861 249.991 248.407 84.5648
internal_count=268644 158326 117078 110318 56238 104041 77715 60840 44404 41248 2697 23134 44353 8625 35728 20603 16594 38551 15319 57112 39582 23232 21270 10266 17530 16436 11885 8896 4009 5053 26326 25296 15593 16244 1030 6988 16140 1327 6277 1370 2868 1415 917 9703 1329 386 3409 1203 167 644 1453 296 3371 650 128 1325 86 2721 2989 410
is_linear=0
shrinkage=0.1


Tree=15
num_leaves=63
num_cat=0
split_feature=129 70 102 99 31 135 70 134 30 69 37 103 77 31 134 57 109 32 136 31 71 109 0 54 70 28 60 69 101 31 78 81 70 113 28 31 32 27 102 60 70 59 69 9 0 71 14 113 23 31 51 35 61 35 71 102 69 91 118 73 40 67
split_gain=655.31 578.847 646.142 458.503 443.215 414.237 410.367 468.073 336.034 306.839 468.266 310.562 293.067 385.267 482.082 276.702 272.004 249.071 212.031 425.679 196.087 189.6 180.529 180.501 183.514 175.28 154.209 127.977 116.931 95.1415 90.3132 87.7013 87.6579 81.7914 104.56 81.4244 79.8139 76.8517 76.7774 75.2084 66.5329 62.6612 59.548 58.6432 46.459 43.037 37.7199 40.3808 32.8129 30.0435 29.9817 24.2995 23.3288 42.5123 21.5302 20.1632 17.3276 6.95587 4.82956 2.89268 2.61591 10.2444
threshold=1.0000000180025095e-35 -0.29983061552047724 -0.84011709690093983 -0.83183515071868885 0.99574777483940136 1.0000000180025095e-35 -0.33908127248287195 1.0000000180025095e-35 1.1011147499084475 -0.1033366024494171 0.92410594224929821 -0.69087624549865712 -1.3649691343307493 1.0004184842109682 1.0000000180025095e-35 0.95589661598205578 -1.0300635695457456 0.95390874147415172 1.0000000180025095e-35 0.99922585487365734 -0.48983126878738398 -0.86774456501007069 0.30472449958324438 1.0726518034935 -0.14957240968942639 1.1725433468818667 0.81402531266212474 -0.069176539778709398 -0.77293178439140309 0.98199152946472179 -1.2925624847412107 -1.1678731441497801 -0.19032592326402661 -1.1770821213722227 1.0672976374626162 1.0055299401283266 0.95848789811134349 1.2233964800834658 -0.84742268919944752 0.78297603130340587 -0.18301680684089658 0.81129431724548351 -0.16129000484943387 0.67582476139068615 0.44434717297554022 -0.45944841206073755 0.79326179623603832 -0.93973523378372181 1.2645784616470339 0.99259105324745189 1.1269702911376955 0.95552298426628124 0.73574140667915355 0.93280994892120372 -0.30008554458618159 -0.76298746466636647 1.0000000180025095e-35 -1.2132548689842222 -1.5262389779090879 -0.73411506414413441 1.0351183414459231 0.15937405824661258
decision_type=2 2 2 2 2 2 2 2 2 2 2 2 2 2 2 2 2 2 2 2 2 2 2 2 2 2 2 2 2 2 2 2 2 2 2 2 2 2 2 2 2 2 2 2 2 2 2 2 2 2 2 2 2 2 2 2 2 2 2 2 2 2
left_child=1 2 6 12 23 9 7 8 -1 10 -5 -11 43 27 -15 28 39 20 22 -20 21 -4 -8 33 26 -22 31 -14 30 -28 36 -25 55 60 57 -32 -6 45 -9 -7 52 -18 -39 44 -3 -19 56 -48 -45 -36 -34 58 53 -17 -53 -30 -42 -35 -26 -54 -2 -62
right_child=4 3 17 5 15 16 18 38 -10 11 -12 -13 13 14 -16 40 41 37 19 -21 25 -23 -24 24 51 -27 29 -29 32 -31 35 -33 50 34 49 -37 -38 42 -40 -41 46 -43 -44 48 -46 -47 47 -49 -50 -51 -52 54 59 -55 -56 -57 -58 -59 -60 -61 61 -63
leaf_value=0.011622130321849907 0.17349649242493992 -0.021017447799728632 -0.057660503680100922 0.031078744869451211 0.041112820093325259 0.1220935315904542 -0.028181060708370856 -0.042553101015495941 -0.047014413249768461 0.022536886567509153 -0.03348840522538115 -0.018866444171408852 0.050373151796766685 0.013333151411761472 0.073660130466934023 -0.18151926406513316 0.020184002571376803 -0.085502144561386537 0.065051713859174173 -0.045041579076532903 -0.032633476694329616 0.014203393417100764 0.04947297536684931 0.021846480654765448 0.24105211669629012 0.01429730290802542 0.027979126899464052 0.088060983061702902 -0.067103649961006651 -0.097476236659768956 0.052590557036356893 0.12040262088408676 -0.0760409490146991 -0.088356668451789494 0.083380535098865352 0.016057403664917681 -0.0042474302054989503 -0.067303137723142087 -0.11893706566710645 0.038042153811241604 -0.25858524378934622 -0.10474576895497562 0.0025513489124623801 -0.09793524504134879 0.19007273381853329 0.096708705123056238 0.11353138556964203 -0.18608758404083656 0.070809548043573214 0.062008941880402416 0.046174422649894076 0.050684574125561058 -0.18274786643597518 -0.022816659496270934 0.10948338312007372 -0.15950110148586882 -0.015163066041805269 -0.23298277078031979 0.12049911869545991 -0.23558186861869501 0.031452935993244252 0.15584824658466251
leaf_weight=23109.562163211405 50.813556745648384 103.70535537600517 1430.0214567780495 1729.7538257613778 585.10286228358746 594.54178231954575 320.47352281212807 1235.0395058244467 1020.4999862611294 14869.640134185553 3203.3613195940852 2063.0160971581936 5340.518254250288 7153.0099661797285 1625.6984118372202 36.552487090229988 88.861419931054115 749.71706794202328 601.28386994451284 844.42615619301796 1143.1999154835939 493.93416298925877 4547.7398268282413 650.47782152891159 3.399305284023284 2619.0284676626325 93.443510293960571 1083.8764937967062 42.502262085676193 171.19978213310242 1802.279606834054 104.84247313439846 27.181744620203972 4.9034107476472846 1954.3591629862785 922.25277292728424 1150.9645540267229 238.42501892149448 147.28489960730076 129.67730568349361 6.633156403899191 73.237645603716373 249.98180568963289 201.48308548331261 11.591818690299986 13.190701097249983 24.76531483232975 5.496510490775111 12.222543969750403 991.47166937589645 76.747786894440651 164.08916503190994 35.806277886033058 31.360468059778214 100.36477394402027 53.155498087406158 5.2298985868692398 10.334170773625372 148.36329047381878 14.583286106586455 7.2880950272083274 72.252842277288437
leaf_count=75740 96 320 6384 5060 1556 1293 994 5147 3969 41131 11032 10214 13839 20944 4090 149 248 3311 1638 2940 4396 1867 12770 1742 7 8969 249 2546 140 571 4704 239 87 55 4640 2700 3395 1100 671 358 28 317 916 1619 21 39 53 21 31 2440 193 412 142 93 218 210 15 43 314 60 20 138
internal_value=0 0.0141353 0.00552148 0.0228571 0.042172 0.0138151 0.0115493 0.00590034 0.00914229 0.0110985 -0.0108485 0.0174924 0.0361023 0.038123 0.0245049 0.0210698 0.0808346 -0.0221315 0.0343747 0.000747217 -0.0132429 -0.039211 0.044361 0.0646397 0.0353456 3.68015e-05 0.0125108 0.0567316 0.025515 -0.0531789 0.0288657 0.0355266 -0.0493697 0.0782489 0.0748361 0.0402241 0.0110402 -0.0625228 -0.0506917 0.107043 -0.108057 -0.0362603 -0.0315494 -0.0572735 0.000205268 -0.0823517 -0.000136013 0.059111 -0.0882842 0.0761875 0.0142102 0.0913037 -0.146485 -0.108234 0.0729997 -0.118447 -0.151271 -0.186442 0.123199 -0.198039 0.155773 0.14445
internal_weight=0 77048 38763.8 38284.2 9348.22 22752.1 31826.3 25512.4 24130.1 21865.8 4933.12 16932.7 15532.1 15203.1 8778.71 4820.61 886.318 6937.5 6313.92 1445.71 5686.18 1923.96 4868.21 4527.6 1436.18 3762.23 1019.96 6424.39 4660.19 264.643 4460.6 755.32 199.587 3091.42 2961.07 2724.53 1736.07 1251.31 1382.32 724.219 160.427 162.099 488.407 329.003 115.297 762.908 42.1249 30.2618 213.706 2945.83 103.93 416.217 118.303 67.913 264.454 95.6578 11.8631 15.2376 151.763 50.3896 130.354 79.5409
internal_count=268644 243914 130851 113063 24730 69653 103869 85527 79709 67437 16092 51345 43410 41419 25034 13546 2216 26982 18342 4578 21616 8251 13764 11184 3752 13365 2801 16385 12985 820 12355 1981 630 7432 7178 7404 4951 5366 5818 1651 561 565 2016 1991 341 3350 117 74 1650 7080 280 951 444 242 630 350 43 98 321 202 254 158
is_linear=0
shrinkage=0.1


Tree=16
num_leaves=53
num_cat=0
split_feature=53 91 106 31 91 101 72 72 135 133 103 102 70 61 71 129 70 134 108 134 129 105 69 44 128 102 117 115 83 118 133 135 127 76 63 6 69 101 38 32 50 70 129 78 72 32 37 51 94 61 5 94
split_gain=568.763 576.419 503.109 429.055 410.658 388.976 553.295 468.462 458.495 352.8 422.973 280.603 288.465 351.773 287.938 277.601 266.692 264.305 187.961 316.037 184.086 227.201 216.92 183.376 165.526 162.194 156.425 186.816 140.6 139.484 134.284 130.393 123.578 102.666 98.8224 94.8553 83.3265 148.825 63.6581 63.2839 63.0359 76.142 61.6576 57.9319 33.521 21.3702 40.2579 13.4979 4.64963 1.57973 0.0935463 0.0109561
threshold=1.0505605936050417 -1.0175413489341734 -0.90785497426986683 0.99671977758407604 -1.2729313373565672 -0.84876468777656544 -0.65344366431236256 -0.63417789340019215 1.0000000180025095e-35 1.0000000180025095e-35 -0.93510568141937245 -0.7948111593723296 -0.2517134398221969 0.67424952983856212 -0.41247777640819544 1.0000000180025095e-35 -0.42564764618873591 1.0000000180025095e-35 -0.9235682189464568 1.0000000180025095e-35 1.0000000180025095e-35 -0.91454556584358204 -0.20693262666463849 1.1035629510879519 1.0000000180025095e-35 -0.76962247490882862 -1.2041444778442381 -1.0234835743904112 -0.9367743432521819 -0.93559539318084706 1.0000000180025095e-35 1.0000000180025095e-35 -1.7205334305763242 -1.0950353741645811 0.526005119085312 0.58597171306610119 -0.012703314889222382 -0.76880544424056996 1.0169484019279482 0.95641717314720165 1.1595079302787783 -0.29801337420940394 1.0000000180025095e-35 -1.1214578151702879 -0.50919824838638295 0.92871978878974926 0.91295853257179271 1.1008597612380984 -1.0912738442420957 0.53361958265304577 0.92020535469055187 -1.3677117228507993
decision_type=2 2 2 2 2 2 2 2 2 2 2 2 2 2 2 2 2 2 2 2 2 2 2 2 2 2 2 2 2 2 2 2 2 2 2 2 2 2 2 2 2 2 2 2 2 2 2 2 2 2 2 2
left_child=4 3 20 24 48 6 9 29 17 10 -6 12 13 -5 35 18 -11 -9 19 -4 21 30 -23 -20 40 -16 31 -28 -10 32 -3 -8 -7 44 -14 -13 37 -26 -38 -31 41 -2 -42 -35 -17 47 -47 -22 49 50 -1 -52
right_child=1 2 15 11 5 7 26 8 28 16 -12 14 34 -15 25 33 -18 -19 23 -21 45 22 -24 -25 36 -27 27 -29 -30 39 -32 -33 -34 43 -36 -37 38 -39 -40 -41 42 -43 -44 -45 -46 46 -48 -49 -50 -51 51 -53
leaf_value=-0.12308710302427646 0.04203375163553482 0.023247801138454663 -0.0097038339146210371 0.031295147936468558 0.056914972233501226 -0.035182771457495439 -0.0067086270519734151 -0.011979957806933075 0.031600296022244005 -0.068523144371789094 0.0076797942220416839 -0.041022548234862226 0.096397235355528882 -0.019637163430230052 0.022748780219380881 -0.089006493895079364 0.0058517044878861812 0.028636806520578695 -0.055643539942131316 -0.067699956989944202 0.032872552170924871 -0.079385065235550556 0.033742136634577063 0.019912193053470674 0.032201518810028994 -0.039559014455481767 0.077225169960248669 0.034005305294674916 0.13471241289136335 0.021766343888396919 -0.052150075442242053 0.13810213717234976 -0.083920423166960217 0.036893962682662367 0.047112829252712325 -0.12857079128871665 0.08359934712643885 -0.032628095126268172 0.01290526000009159 -0.052511621509961609 0.060742753398356442 0.06676291208103409 0.014514164959651483 0.090476247436445265 0.066860975219151533 -0.093445785740496612 0.10631730461031674 0.1554395760132124 0.068927205340343217 -0.16834282486585839 -0.10990722344745014 -0.1085316328257316
leaf_weight=4.7312501147389403 1683.716411575675 409.12373307347298 4785.5804514288902 5415.5429694950581 1896.9372836872935 2335.7071283683181 753.94050775468349 5552.8819820284843 218.70113755762577 1004.3544565439224 21765.056746654212 436.03843274712563 474.921391710639 1809.0276671648026 2113.711823746562 71.103588283061981 927.22033371031284 2251.809047318995 368.97930600494146 1169.1391038075089 9.7623239755630475 173.4614322334528 7419.2551964521408 2481.951162263751 2294.3846671432257 520.70149379968643 1790.2765521407127 2265.9268798828125 334.50181806087494 505.72368896752596 558.90859340131283 67.769734740257263 669.33613073825836 626.69990806281567 2838.6074068844318 172.80017077922821 435.8882420361042 418.72641481459141 179.96584789454937 148.34960344433784 519.72360154986382 4779.6139255911112 648.52924117445946 297.59584629535675 17.119768023490906 11.418606162071226 86.596703663468361 112.84945638477802 1.4586752355098713 4.5770525038242331 79.984384551644325 209.6990039460361
leaf_count=33 4386 1120 18818 15477 5328 9637 2434 18002 606 4090 71043 1520 1074 5639 5788 243 2979 6672 1461 4696 26 816 20289 7352 6075 1629 4678 6397 738 1826 1841 145 2867 1641 7264 732 1021 1257 491 503 1285 11779 1767 704 42 40 197 225 5 21 1010 2935
internal_value=0 0.0235754 0.0102745 0.0335743 0.0073227 0.00814651 0.0141552 -0.00708962 0.00597446 0.00827237 0.0116269 0.0218305 0.0297465 0.0185417 -0.0038907 -0.00527966 -0.0328207 -0.000261211 -0.0109815 -0.0210907 0.0276651 0.0253407 0.0311577 0.0101335 0.0483406 0.0104334 0.0450211 0.0530812 0.0939485 -0.0369297 -0.0202843 0.0052345 -0.0460385 0.0443081 0.0541767 -0.0658704 0.0297338 0.0221961 0.062941 0.00491944 0.056457 0.0603209 0.03508 0.0541459 -0.0587604 0.117854 0.0830453 0.145681 -0.109177 -0.110046 -0.109139 -0.108911
internal_weight=0 43341.4 18599.5 24741.9 42788.9 42488.5 30471.5 12017 8357.89 25593.6 23662 13781.4 10538.1 7224.57 3243.25 9818.17 1931.57 7804.69 8805.65 5954.72 8781.38 8560.75 7592.72 2850.93 10960.5 2634.41 4877.91 4056.2 553.203 3659.12 968.032 821.71 3005.04 1012.52 3313.53 608.839 3328.97 2713.11 615.854 654.073 7631.58 6463.33 1168.25 924.296 88.2234 220.627 98.0153 122.612 300.45 298.992 294.415 289.683
internal_count=268644 126695 59511 67184 141949 137945 97094 40851 26018 83440 76371 39123 29454 21116 9669 34957 7069 24674 32327 23514 24554 24066 21105 8813 28061 7417 13654 11075 1344 14833 2961 2579 12504 2630 8338 2252 8844 7332 1512 2329 19217 16165 3052 2345 285 488 237 251 4004 3999 3978 3945
is_linear=0
shrinkage=0.1


Tree=17
num_leaves=52
num_cat=0
split_feature=52 108 106 32 69 102 134 6 100 72 135 105 4 36 135 69 104 30 108 134 91 132 113 129 41 130 108 134 101 70 76 31 80 68 103 134 102 30 37 72 85 97 104 4 112 135 48 29 51 5 91
split_gain=495.757 478.836 508.055 467.568 478.197 541.23 474.688 350.443 346.526 385.567 377.393 616.759 310.078 298.038 283.547 279.249 401.351 257.512 242.256 229.477 257.306 215.572 213.157 210.535 196.564 184.312 160.69 160.623 149.989 359.434 143.951 134.596 130.922 124.364 122.387 86.4321 74.3195 73.2971 69.7826 67.2225 63.2252 51.2273 38.9208 35.0141 24.9511 20.271 13.5476 4.12057 2.5932 0.758749 0.114981
threshold=1.0542739629745486 -0.90727847814559925 -0.90156796574592579 0.95780110359191906 -0.030553031712770459 -0.76837870478630055 1.0000000180025095e-35 0.9555875062942506 -0.95220860838890065 -0.791975438594818 1.0000000180025095e-35 -0.90849491953849781 0.73759549856185924 0.92415410280227672 1.0000000180025095e-35 0.0066694857086986312 -0.77569669485092152 1.0809867978096011 -0.9325449764728545 1.0000000180025095e-35 -1.0087100863456724 1.0000000180025095e-35 -0.92802020907402027 1.0000000180025095e-35 1.1148620247840884 1.0000000180025095e-35 -0.9099728763103484 1.0000000180025095e-35 -0.75792226195335377 -0.16841559857130048 -1.2906166911125181 1.0081319212913515 -0.9878963530063628 0.09602645039558412 -0.7816978096961974 1.0000000180025095e-35 -0.92192897200584401 1.1061945557594302 0.99123603105545055 -0.80103304982185353 -0.58705130219459523 -1.0217804908752439 -0.88094088435173024 0.59472462534904491 -0.89475968480110157 1.0000000180025095e-35 0.9768323302268983 1.1769378185272219 1.0709979534149172 0.92020535469055187 -1.2729313373565672
decision_type=2 2 2 2 2 2 2 2 2 2 2 2 2 2 2 2 2 2 2 2 2 2 2 2 2 2 2 2 2 2 2 2 2 2 2 2 2 2 2 2 2 2 2 2 2 2 2 2 2 2 2
left_child=7 2 14 17 5 6 -5 8 12 36 23 -12 35 19 15 16 -2 25 27 21 -21 -4 26 -11 -17 30 -14 -15 38 -30 -3 -27 42 -7 -20 37 39 -1 -6 -10 -34 -24 -16 48 -38 47 -37 49 -19 -9 -51
right_child=1 3 13 4 28 33 -8 45 9 10 11 -13 22 18 32 24 -18 43 34 20 -22 -23 41 -25 -26 31 -28 -29 29 -31 -32 -33 40 -35 -36 46 44 -39 -40 -41 -42 -43 -44 -45 -46 -47 -48 -49 -50 50 -52
leaf_value=0.056757028693891626 0.014509932614351151 -0.053867214075457609 0.0077068260791849866 0.0085252723172067873 0.076742131368946961 -0.10689908515600161 0.085110764646007142 -0.14268046440926171 -0.061625642395664974 -0.0062742064978808139 0.082063423767572738 0.0069237762160757211 -0.020324560234113217 0.0010536587930111783 0.062109553426706002 0.068226789519290454 -0.10052624849585959 -0.099234873008591629 0.039226134454235513 -0.01795280758436665 -0.095500857402411571 -0.039559763040877757 -0.016916705670669382 0.038087643297445337 -0.033939756594811403 0.064350067339352224 0.0755842241795881 -0.064213202995886537 -0.051825720702612224 0.056651897252835974 0.036775507029863021 -0.090003608757384612 0.077043082213287761 -0.034223181904241888 -0.013221215041426568 0.0047672853435709733 -0.098377202412105458 -0.014464713726935828 0.015405585469410569 0.0051382286263221061 0.15720148344121096 -0.088720481192246514 -0.010693451728846467 0.035828703222487782 0.069932614617545255 0.15073129187934697 -0.15772912027688224 0.010788935134614071 -0.16930995545485603 -0.10800744963995237 -0.11624232442919079
leaf_weight=2562.3363544642925 9230.9419559463859 178.00001412630081 2621.3759318366647 12151.660444170237 1609.6102543622255 393.99281381815672 867.05747418105602 6.6667787581682196 441.62638820707798 18124.309934101999 1442.8896420896053 4496.9889596551657 383.30734688043594 1405.829891897738 109.91298817098141 1456.8414112851024 313.59134700894356 5.7546756863594046 2355.7818957716227 944.71385948359966 782.07057729363441 1526.9686747789383 148.81637817621231 1136.9162471294403 216.27116529643536 3384.3047235161066 320.97600799798965 515.2786476239562 418.59552553296089 1130.0401246994734 11161.17089202255 57.452648818492889 813.42662206292152 585.16410028934479 548.52113044261932 6.6520597189664867 367.48436592519283 153.1336655318737 209.64327809214592 229.01730112731457 111.94058483839035 298.96826101839542 221.2388764321804 10.079173937439917 9.0241525918245298 3.0569828152656546 22.433441326022148 2.8841791450977317 64.145687147974968 260.4994043558836 18.136019378900528
leaf_count=6799 27113 596 8506 35818 3835 1482 2114 34 1942 62341 3970 15238 1372 4156 277 3527 1178 24 6436 3112 3557 8707 522 3058 643 8819 906 2063 1285 2829 30307 222 2015 1756 1693 22 1702 522 567 848 216 1336 682 28 29 6 98 11 279 3886 160
internal_value=0 0.0196319 0.00866874 0.0275156 0.0163729 0.00823328 0.0136259 0.00374572 0.00480044 0.00066944 0.00314 0.0251764 0.0326275 -0.00731767 0.0223821 0.0173362 0.0107304 0.0405364 0.0110974 -0.0224425 -0.0530748 -0.00969158 -0.0109125 -0.0036557 0.0550205 0.0415047 0.0233857 -0.0164522 0.0502034 0.0273304 0.0353526 0.0617735 0.0674299 -0.0634665 0.0293207 0.050904 -0.0587878 0.0527406 0.069674 -0.0388265 0.0867397 -0.0648573 0.0134707 -0.138416 -0.0943432 -0.105422 -0.120565 -0.108139 -0.163541 -0.109341 -0.108543
internal_weight=0 55401.4 23174.7 32226.7 17365.8 13997.9 13018.7 30436.1 30144.9 26248.3 25201.1 5939.88 3896.62 10700.5 12474.2 11217.6 9544.53 14860.9 4825.41 5875.13 1726.78 4148.34 1152.07 19261.2 1673.11 14780.9 704.283 1921.11 3367.89 1548.64 11339.2 3441.76 1256.52 979.157 2904.3 2744.56 1047.15 2715.47 1819.25 670.644 925.367 447.785 331.152 79.9795 376.509 291.243 29.0855 288.186 69.9004 285.302 278.635
internal_count=268644 163842 73881 89961 49686 41170 37932 104802 100705 89128 84607 19208 11577 38230 35651 32461 28291 40275 14348 23882 6669 17213 4136 65399 4170 39944 2278 6219 8516 4114 30903 9041 3190 3238 8129 7441 4521 7321 4402 2790 2231 1858 959 331 1731 4097 120 4091 303 4080 4046
is_linear=0
shrinkage=0.1


Tree=18
num_leaves=63
num_cat=0
split_feature=69 103 103 69 69 102 52 103 70 32 136 102 79 33 135 106 32 33 68 103 130 32 134 70 71 117 96 102 135 70 27 71 32 69 29 29 34 62 69 136 68 103 62 60 38 31 130 101 44 50 53 61 104 127 59 102 53 30 68 19 126 27
