tree
version=v4
num_class=1
num_tree_per_iteration=1
label_index=0
max_feature_idx=136
objective=binary sigmoid:1
feature_names=Column_0 Column_1 Column_2 Column_3 Column_4 Column_5 Column_6 Column_7 Column_8 Column_9 Column_10 Column_11 Column_12 Column_13 Column_14 Column_15 Column_16 Column_17 Column_18 Column_19 Column_20 Column_21 Column_22 Column_23 Column_24 Column_25 Column_26 Column_27 Column_28 Column_29 Column_30 Column_31 Column_32 Column_33 Column_34 Column_35 Column_36 Column_37 Column_38 Column_39 Column_40 Column_41 Column_42 Column_43 Column_44 Column_45 Column_46 Column_47 Column_48 Column_49 Column_50 Column_51 Column_52 Column_53 Column_54 Column_55 Column_56 Column_57 Column_58 Column_59 Column_60 Column_61 Column_62 Column_63 Column_64 Column_65 Column_66 Column_67 Column_68 Column_69 Column_70 Column_71 Column_72 Column_73 Column_74 Column_75 Column_76 Column_77 Column_78 Column_79 Column_80 Column_81 Column_82 Column_83 Column_84 Column_85 Column_86 Column_87 Column_88 Column_89 Column_90 Column_91 Column_92 Column_93 Column_94 Column_95 Column_96 Column_97 Column_98 Column_99 Column_100 Column_101 Column_102 Column_103 Column_104 Column_105 Column_106 Column_107 Column_108 Column_109 Column_110 Column_111 Column_112 Column_113 Column_114 Column_115 Column_116 Column_117 Column_118 Column_119 Column_120 Column_121 Column_122 Column_123 Column_124 Column_125 Column_126 Column_127 Column_128 Column_129 Column_130 Column_131 Column_132 Column_133 Column_134 Column_135 Column_136
feature_infos=[-1.7391834259033203:2.1873281002044678] [-1.6478695869445801:2.0962586402893066] [-1.5647803544998169:2.0136351585388184] [-1.4899148941040039:1.9394575357437134] [-1.4232741594314575:1.8737261295318604] [-1.3648576736450195:1.8164401054382324] [-1.3241651058197021:1.7788288593292236] [-1.2945797443389893:1.7939627170562744] [-1.2603650093078613:2.0758624076843262] [-1.2166562080383301:2.0974209308624268] [-1.160443902015686:1.9855276346206665] [-1.0890326499938965:2.073509693145752] [-1.0288742780685425:2.1457490921020508] [-0.90335136651992798:2.2142360210418701] [-0.79458039999008179:2.2825961112976074] [-0.68207132816314697:2.4052433967590332] [-0.63882678747177124:2.5269482135772705] [-0.65620064735412598:2.5277442932128906] [-0.66012513637542725:2.5302853584289551] [-0.66667592525482178:2.4445860385894775] [-0.8555336594581604:2.3619022369384766] [-0.86833834648132324:2.2948129177093506] [-0.86565589904785156:2.1489822864532471] [-0.7797551155090332:2.1787192821502686] [-1.0841877460479736:2.1696581840515137] [-1.4308524131774902:2.0883691310882568] [-1.6366665363311768:1.9448176622390747] [-1.8254417181015015:1.7314887046813965] [-1.9454965591430664:1.5598906278610229] [-2.2033448219299316:1.3462176322937012] [-2.6534385681152344:1.1458766460418701] [-2.9375624656677246:1.0691677331924438] [-2.8964071273803711:1.0156075954437256] [-2.6209216117858887:0.99408984184265137] [-1.9672813415527344:0.99887841939926147] [-1.2877312898635864:1.0987448692321777] [-0.66409575939178467:1.3781088590621948] [-0.67050886154174805:1.4172744750976562] [-0.67336314916610718:1.4686216115951538] [-0.67729061841964722:1.427788257598877] [-0.67391806840896606:1.3506048917770386] [-0.77278417348861694:1.3033223152160645] [-0.78214722871780396:1.4334096908569336] [-0.6774904727935791:1.6771683692932129] [-0.67593681812286377:1.8418123722076416] [-0.67998087406158447:1.9795904159545898] [-0.67735743522644043:1.8671952486038208] [-0.68056988716125488:1.8940913677215576] [-0.67851173877716064:2.0411467552185059] [-0.68057990074157715:2.1347439289093018] [-0.67615658044815063:2.3221406936645508] [-0.68137907981872559:2.3866791725158691] [-0.6882440447807312:2.2922041416168213] [-0.69760811328887939:2.324758768081665] [-0.68820065259933472:2.0119130611419678] [-0.66555494070053101:1.7058380842208862] [-0.63047897815704346:1.5109990835189819] [-0.79989981651306152:1.3322867155075073] [-0.9627259373664856:1.3156778812408447] [-0.83332031965255737:1.3004671335220337] [-0.62303602695465088:1.2900781631469727] [-0.62908732891082764:1.6912268400192261] [-0.65896600484848022:1.8743280172348022] [-0.67422842979431152:1.7138135433197021] [-0.93073725700378418:1.3433690071105957] [-1.1747497320175171:1.0563232898712158] [-1.3727543354034424:0.96944224834442139] [-1.6713657379150391:0.85952615737915039] [-1.7223098278045654:0.72384035587310791] [-1.8947262763977051:0.56993401050567627] [-1.6767393350601196:0.41874155402183533] [-1.7446892261505127:0.28619131445884705] [-1.674402117729187:0.18248416483402252] [-1.5101885795593262:0.10744565725326538] [-1.3156384229660034:0.30397361516952515] [-1.5821062326431274:0.84510332345962524] [-1.8401819467544556:1.3364263772964478] [-2.0371255874633789:1.0853415727615356] [-2.1728529930114746:1.1285310983657837] [-2.2573421001434326:0.92254304885864258] [-2.3058340549468994:0.73609095811843872] [-2.3315773010253906:0.27998179197311401] [-2.3403120040893555:0.3133491575717926] [-2.3343968391418457:0.36238053441047668] [-2.3124566078186035:0.5232703685760498] [-2.2730567455291748:0.45226269960403442] [-2.2140905857086182:0.47906926274299622] [-2.1362462043762207:0.50354379415512085] [-2.0426793098449707:0.67684948444366455] [-1.9374580383300781:0.53568804264068604] [-1.8240519762039185:0.65060514211654663] [-1.8478662967681885:1.0689502954483032] [-1.6520191431045532:1.4172115325927734] [-1.5958865880966187:1.6290324926376343] [-1.5394163131713867:1.6649528741836548] [-1.4922878742218018:1.6182941198348999] [-1.4526540040969849:1.5608183145523071] [-1.4226374626159668:1.5597559213638306] [-1.4104764461517334:1.5643377304077148] [-1.5388252735137939:1.563044548034668] [-2.0638625621795654:1.5674327611923218] [-2.4619696140289307:1.5660412311553955] [-2.648137092590332:1.569068431854248] [-2.4631106853485107:1.5662518739700317] [-2.0338072776794434:1.5674868822097778] [-1.4475361108779907:1.5623446702957153] [-1.2213733196258545:1.563502311706543] [-1.1215335130691528:1.561995267868042] [-1.168958306312561:1.5723429918289185] [-1.225764274597168:1.5757462978363037] [-1.369315505027771:1.5835809707641602] [-1.5990560054779053:1.5858457088470459] [-2.1418814659118652:1.5904537439346313] [-2.4733853340148926:1.5896482467651367] [-2.5047738552093506:1.5896980762481689] [-2.0072333812713623:1.5865405797958374] [-1.6131480932235718:1.5868538618087769] [-1.6321159601211548:1.7016431093215942] [-1.6864286661148071:2.5795986652374268] [-1.7459897994995117:2.8008601665496826] [-1.820858359336853:2.5472877025604248] [-1.9280952215194702:1.7488086223602295] [-2.1567583084106445:1.6308574676513672] [-2.3918964862823486:1.6220458745956421] [-2.6616356372833252:1.6080794334411621] [-2.9761693477630615:2.1645474433898926] [-3.3320021629333496:3.0688047409057617] [-3.8531808853149414:4.2020993232727051] [0:1] [0:1] [0:1] [0:1] [0:1] [0:1] [0:1] [0:1] [0:1]
tree_sizes=6918 5621 5520 5425 5644 5721 6130 6668 5901 6801 6859 5900 6989 6966 6545 6009 6995 5881 6880 6988 6798 6489 5716 7040 6967 6449 6706 6844 5652 6812 6260 7001 4007 5593 5775 6993 4599 4735 6966 6504 6316 5983 6502 4264 6972 6327 6712 6961 5682 6964 6438 6413 7001 6937 6524 5590 4628 6482 6342 5961 6958 6622 4324 6399 4728 6571 6959 5757 4509 6174 6856 5579 3837 6389 6859 6875 5670 6280 5612 6938 4494 6952 6494 7030 6511 4443 6682 5522 5903 6950 6835 6984 5040 6605 6541 6756 6740 6001 4865 6971 6394 6870 6981 6967 5877 6828 6834 5262 6860 6591 6997 6980 6948 6914 6273 7003 5904 6495 5295 5213 6732 5559 4389 5689 6973 6494 6965 6964 6617 5104 5419 6766 6993 5578 6945 5754 5144 6960 6957 6998 6701 6758 6946 6978 7025 6580 6387 6044 6688 6997 6842 5990 5068 6043 6300 4833 6728 6057 5571 6993 6617 5943 5796 6936 6972 6958 6723 5447 6740 6272 6600 6945 5836 6698 5465 6984 5898 5441 6256 5220 6879 5423 6996 5723 6281 6726 6942 6952 6443 4931 5597 5661 4720 6976 6982 6887 6113 5712 6947 6016

Tree=0
num_leaves=63
num_cat=0
split_feature=36 105 53 70 102 102 69 103 102 32 53 100 4 102 69 32 103 103 29 134 135 32 102 71 30 69 100 69 31 113 102 95 69 70 32 104 53 100 32 135 35 69 69 97 21 93 118 134 15 1 1 34 70 71 88 52 0 68 42 61 3 43
split_gain=11815.1 4043.63 3884.19 3822.81 2921.77 2105.23 1967.48 1865.71 1575.47 1426.47 1138.62 1563.45 927.798 813.3 1937.34 1303.21 940.503 865.307 636.261 598.49 576.104 530.586 521.005 562.924 452.281 441.029 433.06 432.934 364.686 344.206 333.537 327.78 285.144 241.574 273.968 221.648 214.959 203.509 187.472 182.135 158.872 170.663 146.888 137.926 124.594 121.934 95.6203 92.4259 81.5908 72.9166 69.2238 66.9409 56.0655 48.2085 46.2845 41.2732 39.5743 26.0737 17.0284 10.1677 4.19984 3.06696
threshold=0.91534343361854564 -0.79327079653739918 1.0043296217918398 -0.25471881031990046 -0.8750334084033965 -0.80011478066444386 -0.15772383660078046 -0.83678427338600148 -0.8242180049419402 0.95883598923683178 0.78595146536827099 -0.9536336064338683 0.72523504495620739 -0.79937809705734242 -0.055812271311879151 0.96343043446540844 -0.77879467606544484 -0.68465185165405262 1.0675100088119509 1.0000000180025095e-35 1.0000000180025095e-35 0.6322341561317445 -0.81846693158149708 -0.44475717842578882 1.0980826020240786 0.034564770758152015 -0.9383009374141692 -0.032839389517903321 1.0009298324584963 -0.92731902003288258 -0.78216400742530812 -0.90993079543113697 -0.1292900666594505 -0.276956096291542 0.9584847390651704 -0.8181067407131194 1.0218908786773684 -0.96299019455909718 0.95603913068771373 1.0000000180025095e-35 0.86183354258537304 0.073058478534221663 -0.11280904337763785 -0.85251271724700917 1.2994627356529238 -0.95690134167671193 -0.9914771020412444 1.0000000180025095e-35 0.98714467883110057 0.12964273989200595 0.41606914997100836 0.91979467868804943 -0.30845466256141657 -0.44058267772197718 -0.22802428156137464 1.1947163939476015 0.46595863997936254 0.016717895865440372 0.69936612248420726 0.6661372482776643 -0.10638363286852835 1.1454705595970156
decision_type=2 2 2 2 2 2 2 2 2 2 2 2 2 2 2 2 2 2 2 2 2 2 2 2 2 2 2 2 2 2 2 2 2 2 2 2 2 2 2 2 2 2 2 2 2 2 2 2 2 2 2 2 2 2 2 2 2 2 2 2 2 2
left_child=1 2 10 5 24 9 7 -6 -8 31 29 12 -12 28 15 16 -15 27 21 -13 33 36 32 -24 26 -19 -4 -16 43 37 -17 38 -11 44 -35 45 54 -1 -2 -33 55 -42 48 51 -7 -30 -26 -37 57 61 -45 -5 -50 -51 -3 -23 59 -20 -31 -44 -38 -22
right_child=3 18 4 13 6 20 8 -9 -10 22 11 19 -14 14 17 30 -18 25 42 -21 49 40 23 -25 46 -27 -28 -29 35 58 -32 39 -34 34 -36 47 60 -39 -40 -41 41 -43 56 50 -46 -47 -48 -49 52 53 -52 -53 -54 -55 -56 -57 -58 -59 -60 -61 -62 -63
leaf_value=-0.72920020058586987 -0.62746853648419854 -0.97034817390999506 -0.62211805248518381 -0.57082689705484513 -0.75740303444346946 -0.92406053156684442 -0.6822595234514911 -0.84998095453482569 -0.7536290186204716 -0.76963044075058418 -0.66724387905297078 -0.7961845688844863 -0.78683616382965216 -0.66160619610272675 -0.66777213987398665 -0.76743692104965511 -0.77332397696287236 -0.93140684146285324 -0.95258957668674682 -0.86560796709926624 -0.92765711946247631 -0.96421998561643862 -0.88067529442650128 -0.75443328974162915 -0.6831956530218114 -0.71684536751673622 -0.6847520532215754 -0.62383648861295171 -0.61225841740817155 -0.96598487441102221 -0.86953751896209097 -0.73326684238659312 -0.7011766660924319 -0.79488776067939959 -0.89510139839348946 -0.69607877842269339 -0.49804228621145985 -0.8887899559986937 -0.68471601429441764 -0.58141534641904458 -0.92625684491158045 -0.7877136174247108 -0.51465740811354688 -0.63839986989157094 -0.62756911919835201 -0.69566038398415297 -0.96311729451743089 -0.55052463797074247 -0.82549602092652041 -0.77290928685628291 -0.97034817390999506 -0.60768353789123286 -0.59625103662233747 -0.56497304860108888 -0.81895434667027744 -0.87907833662044377 -0.84388073851961531 -0.81839004068951882 -0.88964910101766181 -0.61503868248997018 -0.57639235599884608 -0.81507828378579283
leaf_weight=124.15754495561123 1607.0927912294865 21.596173077821732 1537.7700259387493 1145.8465814590454 8360.9410839527845 419.70032182335854 5260.6367660015821 2943.1263523995876 7506.6492098867893 972.42824374139309 1495.2577468156815 12654.360374122858 1145.7998794168234 2984.7659290730953 3486.7170955240726 1015.9815989583731 1008.058294698596 134.9902698546648 25.739895269274712 1376.8967323452234 5.3536324948072416 1081.5617856383324 555.62376770377159 969.61277571320534 15.122597903013228 329.97706165909767 3912.4893676191568 6286.4580510556698 1048.0130537003279 471.42533934116364 467.03155125677586 806.88852149248123 1626.0171732753515 840.16774392127991 403.97006466984749 948.31004282832146 10.645958244800569 224.18559128046036 888.18066027760506 87.558256402611732 342.11820374429226 120.13615161180496 12.037227004766462 573.53507728874683 14.668774798512457 210.5070296227932 63.21560737490654 45.72965669631958 18.933971911668777 12.733430668711661 6.3518156111240378 864.63804203271866 24.437740206718445 89.644874900579453 310.98861441016197 60.09929846227169 7.2288084477186194 33.089040070772171 31.153695940971375 62.395082369446754 19.144845172762871 4.4159021973609924
leaf_count=418 4491 102 4251 2837 29475 1873 16322 11908 26304 3495 4513 47371 4229 8914 10534 3639 3644 608 119 5692 24 5071 2344 3402 47 1088 12194 17439 2839 2215 1941 2735 5218 3139 1737 3016 22 956 2768 222 1531 444 26 1638 41 669 296 108 74 46 30 2320 64 219 1204 253 29 128 133 170 48 17
internal_value=-0.826594 -0.764275 -0.758156 -0.68456 -0.736066 -0.737744 -0.751123 -0.781507 -0.724222 -0.714522 -0.79547 -0.789711 -0.719128 -0.660489 -0.671531 -0.719543 -0.689811 -0.645852 -0.898386 -0.802997 -0.835182 -0.91502 -0.754027 -0.800422 -0.670509 -0.779137 -0.66708 -0.639511 -0.62466 -0.908303 -0.799591 -0.666463 -0.726794 -0.849843 -0.827427 -0.654087 -0.805734 -0.831908 -0.647846 -0.718402 -0.939711 -0.890251 -0.720492 -0.59907 -0.914048 -0.626209 -0.909081 -0.689383 -0.800389 -0.615744 -0.642036 -0.586678 -0.696328 -0.590835 -0.828785 -0.959738 -0.6205 -0.877107 -0.961253 -0.598805 -0.548393 -0.876771
internal_weight=0 49273.3 47123.2 29861 29600 9304.06 24071.4 11304.1 12767.3 7513.4 17523.2 16672.3 2641.06 20556.9 15714 5475.84 3992.82 10238.1 2150.15 14031.3 1790.65 1966.29 4123.68 1525.24 5528.6 464.967 5450.26 9773.18 4842.93 850.922 1483.01 3389.72 2598.45 1678.51 1244.14 2252.56 362.376 348.343 2495.27 894.447 1603.92 462.254 183.862 2590.37 434.369 1258.52 78.3382 994.04 102.201 112.148 579.887 2010.48 43.3717 102.378 332.585 1141.66 81.6611 58.8289 502.579 74.4323 29.7908 9.76953
internal_count=268644 175609 166324 93035 100797 31771 84009 41383 42626 24675 65527 61805 8742 61264 47807 18138 12558 29669 9285 53063 7096 8675 14459 5746 16788 1696 16445 27973 13457 3722 5580 10216 8713 6790 4876 6632 1376 1374 7259 2957 7299 1975 610 6825 1914 3508 343 3124 385 306 1668 5157 138 265 1306 5324 225 247 2348 196 70 41
is_linear=0
shrinkage=1


Tree=1
num_leaves=51
num_cat=0
split_feature=53 103 70 102 6 31 129 94 91 71 72 100 91 32 70 134 101 32 26 36 70 31 127 70 109 53 31 70 51 108 103 73 30 105 132 104 29 83 28 28 43 73 71 5 109 127 0 113 100 1
split_gain=8629.96 5099.63 2648.33 3413.56 2638.33 1933.45 1595.5 1277.5 1117.28 938.609 937.175 1215.07 922.426 1065.22 999.192 933.017 785.636 660.917 490.793 470.966 456.192 422.007 338.985 614.862 291.781 253.83 251.373 244.16 178.564 190.406 134.929 120.767 103.879 101.646 69.6852 66.0151 187.389 51.4963 48.0472 47.2659 46.3753 23.6047 22.8797 15.3042 14.4417 10.0915 1.20225 0.0776866 0.017195 0.000425673
threshold=1.0392082333564761 -0.66903194785118092 -0.25573730468749994 -0.80953869223594654 0.94662770628929149 1.0029634237289431 1.0000000180025095e-35 -1.0889586210250852 -1.0467033982276914 -0.44475717842578882 -0.63347929716110218 -0.85643443465232838 -0.98017334938049305 0.96324974298477184 -0.1964120343327522 1.0000000180025095e-35 -0.82574501633644093 0.95108467340469371 1.2250739336013796 0.9088461995124818 -0.27426649630069727 1.0107458233833315 -3.3598281145095821 -0.096708741039037691 -0.9276028275489806 0.99159944057464611 0.9986417591571809 -0.22824375331401822 1.1602746844291689 -1.0517883896827696 -0.84296661615371693 -0.38794015347957606 1.0736737847328188 -0.79998961091041554 1.0000000180025095e-35 -0.93861374258995045 1.2225964665412905 -0.37467029690742487 1.2916871309280398 1.2947250008583071 1.0253184437751772 -0.44498293101787562 -0.22563060373067853 0.10626310855150224 -0.94635269045829762 -3.4202729463577266 0.056381510570645339 -0.92260855436325062 -0.96299019455909718 0.53177168965339672
decision_type=2 2 2 2 2 2 2 2 2 2 2 2 2 2 2 2 2 2 2 2 2 2 2 2 2 2 2 2 2 2 2 2 2 2 2 2 2 2 2 2 2 2 2 2 2 2 2 2 2 2
left_child=4 2 3 5 6 8 7 21 -2 24 11 -9 13 27 -15 19 -12 -17 -11 -14 -7 25 33 37 -5 -1 35 -4 29 -25 32 -30 -28 -3 41 44 -37 43 -23 46 -32 -35 -39 -24 -8 -36 -6 48 -48 -49
right_child=1 22 12 9 39 20 26 10 -10 18 16 -13 15 14 -16 17 -18 -19 -20 -21 -22 38 23 28 -26 -27 30 -29 31 -31 40 -33 -34 34 45 36 -38 42 -40 -41 -42 -43 -44 -45 -46 -47 47 49 -50 -51
leaf_value=0.032425456698121087 0.15619829095874838 0.24587881502254683 0.15815500776974412 -0.060748892269461147 -0.081692302830439947 0.046340108601684603 0.29996455956497253 0.033324519269698531 0.087805548680515988 -0.014169513254353661 0.1027892215454857 -0.04098793867969093 0.072707609142677959 0.093617730385066406 0.17080684500831528 -0.083929830807774192 0.029799012525408144 0.11776607006162816 0.07534699472538206 0.13160475888307419 0.1151456749423897 0.19408293787761186 -0.081739482338755831 0.24572270008723984 0.014075862474586238 0.10966098160035596 0.18398011078359247 0.1924038952371559 0.0081196905301470917 -0.14056949809732397 -0.074952997321874382 0.11164058823231736 0.10323511751129136 -0.027745204869174769 -0.13638209655401456 0.19062036365554666 -0.097107914597092643 -0.13679385131913052 -0.076000509289418552 0.079474406345874729 0.061465913000847708 0.24865944688354699 -0.058214450535537345 -0.0006515578654569705 0.22791185206298561 -0.10996986712168533 -0.14765841243819383 -0.13913251415934116 -0.14178252399718203 -0.13810266034888083
leaf_weight=590.50258223712444 7633.2526910454035 7.5593432039022437 4206.290194645524 1315.6109673976898 3.7740764617919913 4205.7707784771919 53.370771691203117 20040.855234906077 3476.4393135309219 811.29595494270325 3260.9482325464487 2471.6313421577215 1700.4113906025887 4481.2973188608885 2679.9011442512274 402.24109944701195 2692.0598377436399 272.53879676759243 2499.3152818381786 6736.1833894401789 1250.0036148130894 490.722736120224 51.918574392795563 15.123140484094618 863.02760992944241 1522.8688538074493 252.84858512878418 4120.7033890336752 191.36242760717869 81.65558160841465 28.41899286210537 274.11954146623611 430.78077927231789 6.0989068448543549 426.40324945747852 505.44160015881062 23.696144908666611 334.67644828557968 6.6763738691806784 10.117456063628195 202.3607989102602 6.2618156373500806 41.667049437761307 42.189113736152649 58.099874570965767 218.93379038572311 8.9589924365282076 4.0340535789728156 11.214380010962484 788.32555946707726
leaf_count=2122 21291 18 11288 5620 17 14656 106 72567 11281 3178 10347 10095 5714 14122 6927 1674 9771 812 8421 19421 3815 1244 229 36 3246 4668 685 10291 735 376 119 876 1365 26 2120 1347 104 1576 29 34 682 14 173 171 139 1035 41 20 54 3946
internal_value=0 0.107176 0.113372 0.0882091 0.0411141 0.110856 0.045583 0.0406367 0.134797 0.0198654 0.0344964 0.0251658 0.135931 0.150783 0.122504 0.110684 0.0697817 -0.00246629 0.0534101 0.119734 0.0621045 0.107585 -0.0630562 -0.0271945 -0.0311084 0.0880804 0.144433 0.175103 0.0433864 -0.0802055 0.110781 0.0690825 0.1331 -0.118726 -0.122917 0.192469 0.177735 -0.111549 0.190458 -0.13534 0.0446668 0.112279 -0.128094 -0.0453872 0.26241 -0.127422 -0.138002 -0.138264 -0.144392 -0.138108
internal_weight=0 48352.3 46654.3 22054.7 33457.7 16565.5 32631.3 31076.3 11109.7 5489.25 28465.5 22512.5 24599.6 15488.2 7161.2 9111.37 5953.01 674.78 3310.61 8436.59 5455.77 2610.77 1697.97 1032.71 2178.64 2113.37 1555.02 8326.99 562.261 96.7787 914.409 465.482 683.629 665.257 657.698 640.608 529.138 470.451 497.399 826.425 230.78 12.3607 376.343 94.1077 111.471 645.337 816.307 812.533 20.1734 792.36
internal_count=268644 149142 141757 71508 119502 51043 115390 110843 32572 20465 102780 82662 70249 42628 21049 27621 20118 2486 11599 25135 18471 8063 7385 4172 8866 6790 4547 21579 2023 412 2851 1611 2050 3213 3195 1696 1451 2149 1273 4112 801 40 1749 400 245 3155 4078 4061 95 3966
is_linear=0
shrinkage=0.1


Tree=2
num_leaves=50
num_cat=0
split_feature=53 103 70 102 6 31 100 21 102 69 103 71 101 103 52 35 134 4 32 31 127 70 134 71 108 102 29 104 108 97 106 56 30 30 28 101 105 121 127 135 121 113 71 101 56 26 114 100 81
split_gain=6658.06 3639.63 2922.38 3148.74 1963.04 1552.93 1101.48 872.53 863.034 1693.8 911.334 837.302 799.84 758.591 930.859 634.978 588.979 579.454 537.314 393.005 310.126 503.125 308.55 295.413 245.756 219.21 211.449 254.045 207.482 172.852 148.879 216.802 138.46 122.142 109.758 99.5763 83.3575 67.448 65.5215 60.9867 60.4444 44.4649 23.7206 15.5095 10.4589 6.23355 0.066065 0.0133981 0.00158205
threshold=1.0196359753608706 -0.66903194785118092 -0.27041119337081904 -0.81961947679519642 0.94662770628929149 1.0034062266349795 -0.95863994956016529 1.5895267724990847 -0.80291351675987233 -0.066455882042646394 -0.79064434766769398 -0.4596180915832519 -0.85474202036857594 -0.87451252341270436 1.0163506269454958 0.90012991428375255 1.0000000180025095e-35 0.73742565512657177 0.95781123638153087 1.0012448430061343 -3.3598281145095821 -0.096708741039037691 1.0000000180025095e-35 -0.48500125110149378 -0.86921885609626759 -0.95631346106529225 1.2416519522666933 -0.91685062646865834 -0.92665764689445485 -0.85801395773887623 -0.89358043670654286 1.0151839852333071 1.0980826020240786 1.1060676574707033 1.1887226700782778 -0.96260505914688099 -0.79998961091041554 -1.7677466273307798 -3.2306109666824336 1.0000000180025095e-35 -1.7809132337570188 -1.2282293438911436 -0.22563060373067853 -0.95826962590217579 1.044292211532593 1.5476168990135195 -0.93286317586898793 -0.96299019455909718 -1.2584006786346433
decision_type=2 2 2 2 2 2 2 2 2 2 2 2 2 2 2 2 2 2 2 2 2 2 2 2 2 2 2 2 2 2 2 2 2 2 2 2 2 2 2 2 2 2 2 2 2 2 2 2 2
left_child=4 2 3 5 6 12 17 13 19 10 -10 24 -2 14 -8 -11 -7 33 -13 29 36 37 -21 -15 -5 28 27 -9 -19 -4 38 -32 -27 34 -1 -35 -3 42 -23 45 44 -39 -22 -28 -38 46 47 -6 -48
right_child=1 20 8 11 39 16 7 26 9 15 -12 18 -14 23 -16 -17 -18 25 -20 22 21 30 -24 -25 -26 32 43 -29 -30 -31 31 -33 -34 35 -36 -37 40 41 -40 -41 -42 -43 -44 -45 -46 -47 48 -49 -50
leaf_value=-0.11343376210433974 0.13121550675430721 0.2044262202673981 0.17287153598436503 -0.057642189462886545 -0.14191032973154147 0.04097687099968722 0.03038646382054443 0.032186915602551505 0.095527297280767254 0.08493675829618548 0.026253124235479288 0.053203013487029896 0.082026979859068455 -0.0075896272198941565 0.096230401945832586 0.1340506689801377 0.13793915483847594 -0.024432088574718864 -0.03324234595649906 0.10874618614326742 -0.12510155052225511 0.18131021595872557 0.20245811487421889 0.035164111090199922 0.024982327902903827 0.016515809893559105 0.036187253039586351 -0.049831689163563397 0.1246810912571996 0.12647604950921532 -0.09328647910638635 0.057429212882946792 -0.10830100245306121 0.11300447637221539 0.14098035644933271 -0.085177827065516187 -0.12784366148819346 0.11017168085528083 -0.037953805337839312 0.26859610217389246 0.13381317187517172 -0.077116657914192435 -0.045793228225252475 -0.12395272249775731 -0.094773075609712834 -0.028163394304214481 -0.13319172824827485 -0.13663599444636934 -0.13463972990056133
leaf_weight=17.156134590506554 6950.8139194846153 8.1459725648164731 3303.5372297912836 1831.2580840885639 9.1335000693798083 6552.9088847488165 8625.149211242795 538.35741257667542 4335.1784863770008 3408.7776321917772 3379.404153123498 3237.172943264246 6303.9265484660864 5132.5215305387974 2858.7406305968761 11557.579098030925 692.68217834830284 137.69892524182796 924.33456778526306 3548.6674041152 358.67162188887596 87.067437693476677 389.95503097772598 2358.9405807703733 448.06751646101475 255.07846333086491 6.1898643225431433 1265.060112029314 289.4981637597084 1060.8958036601543 133.71971960365772 333.4339457899332 136.39859512448311 57.281575605273247 1462.8453626930714 45.484074845910072 492.91410353779793 22.529628470540047 16.157678693532944 3.8080526739358893 9.4209635853767377 28.984893962740898 42.144101917743683 263.53995478153229 118.65136820077896 5.6751137375831595 737.91356520354748 10.18910104036331 7.6233506053686133
leaf_count=72 19077 18 7825 7718 44 22233 31031 1938 12960 10294 11632 11010 19531 19639 8790 30148 1969 537 3693 10098 1769 217 918 8347 1583 945 22 5167 874 2917 594 1150 599 167 3993 188 2577 77 62 8 27 132 177 1228 591 22 3944 52 40
internal_value=0 0.0882238 0.0923976 0.0683099 0.0260461 0.0874724 0.031219 0.0238985 0.113342 0.103244 0.0651815 0.00731836 0.107822 0.0306282 0.0467773 0.122864 0.0502465 0.095383 0.0340022 0.140926 -0.0581417 -0.0241572 0.118024 0.00587284 -0.0413999 0.0270821 -0.0376985 -0.0253474 0.0766173 0.161594 0.0383036 0.0142878 -0.0269729 0.130711 0.138031 0.025289 -0.113386 -0.102919 0.146989 -0.130608 -0.117555 0.004793 -0.116763 -0.120278 -0.121428 -0.132581 -0.133356 -0.139129 -0.133207
internal_weight=0 59577 57925.2 26941.2 24224.3 20500.3 23449.9 21048.5 30984 22680.9 7714.58 6440.83 13254.7 18975.4 11483.9 14966.4 7245.59 2401.44 4161.51 8303.06 1651.84 1022.71 3938.62 7491.46 2279.33 818.674 2073.15 1803.42 427.197 4364.43 570.379 467.154 391.477 1582.77 1480 102.766 629.132 452.33 103.225 774.343 620.986 51.5145 400.816 269.73 611.565 770.535 764.86 19.3226 745.537
internal_count=268644 180997 173606 86814 87647 62810 83537 76162 86792 65034 24592 24004 38608 67807 39821 40442 24202 7375 14703 21758 7391 4178 11016 27986 9301 2955 8355 7105 1411 10742 2023 1744 1544 4420 4065 355 3213 2155 279 4110 3195 209 1946 1250 3168 4102 4080 96 3984
is_linear=0
shrinkage=0.1


Tree=3
num_leaves=49
num_cat=0
split_feature=53 103 5 69 101 71 129 31 103 92 102 69 103 72 100 103 135 69 71 127 70 0 31 32 102 104 30 51 108 105 53 70 135 43 105 60 132 30 83 93 31 71 73 73 127 27 0 6
split_gain=5249.52 3124.5 1856.52 1520.12 2145.72 1380.32 1101.09 992.166 916.508 905.256 714.991 1071.68 1005.06 653.413 978.628 627.739 575.65 398.566 285.888 272.449 441.465 250.113 233.002 191.837 191.565 163.082 147.089 123.484 134.06 123.301 110.471 89.943 80.2912 75.372 69.8431 59.0685 53.7313 49.5498 45.5032 37.3152 32.1995 20.3214 19.3598 16.7919 10.9395 3.8911 1.44676 0.145909
threshold=1.0403430461883547 -0.66903194785118092 0.90650767087936412 -0.089617989957332597 -0.82644444704055775 -0.4555614292621612 1.0000000180025095e-35 1.0034062266349795 -0.80037066340446461 -1.1519560217857359 -0.79187157750129689 -0.045146882534027093 -0.77073335647582997 -0.63028201460838307 -0.85643443465232838 -0.71098408102989186 1.0000000180025095e-35 -0.1348355561494827 -0.47486948966979975 -3.3598281145095821 -0.096708741039037691 0.29558040201663976 1.0116440653800967 0.96180009841918956 -0.86211436986923207 -0.81336316466331471 1.0777879357337954 1.1602746844291689 -1.0517883896827696 -0.92714232206344593 0.99159944057464611 -0.085136853158473955 1.0000000180025095e-35 1.0829760432243349 -0.79998961091041554 0.76910945773124706 1.0000000180025095e-35 1.0682064294815066 -0.37467029690742487 -1.1313992142677305 1.0081339478492739 -0.22563060373067853 -0.43584844470024103 -0.42766317725181574 -3.4202729463577266 1.4761765003204348 0.088276918977499022 0.94662770628929149
decision_type=2 2 2 2 2 2 2 2 2 2 2 2 2 2 2 2 2 2 2 2 2 2 2 2 2 2 2 2 2 2 2 2 2 2 2 2 2 2 2 2 2 2 2 2 2 2 2 2
left_child=2 3 6 4 7 18 9 21 -7 22 23 12 -12 14 -11 -13 -15 -9 -6 34 38 -2 30 35 26 -25 40 28 -22 -28 -1 -29 45 37 -3 -5 42 -26 43 -24 -8 -40 -36 -21 -38 46 -4 -48
right_child=1 19 32 10 5 8 24 17 -10 13 11 15 -14 16 -16 -17 -18 -19 -20 20 27 -23 39 25 33 -27 29 31 -30 -31 -32 -33 -34 -35 36 -37 44 -39 41 -41 -42 -43 -44 -45 -46 -47 47 -49
leaf_value=0.027421992454839728 0.049534463562641115 0.17621705513256269 -0.061889169375580338 0.16592811047109735 -0.071917330044563674 0.077957685071628299 0.1828925104599079 0.030847833312995006 0.010616110161130838 0.026302781832683038 0.087172996668359745 0.12621922889312115 -0.0031952913184300998 0.046944817516690329 -0.036660443438089184 0.063744645246673351 0.16354981936349322 0.090178663456197516 -0.0012608787611517907 -0.047198283889671816 0.1819500420532181 0.11950321945458049 0.1771413381963286 0.14259381485181019 0.071491676124811235 0.094293744408791402 0.19822090559897515 -0.012182601672615784 -0.13064268854516622 0.081041861896827785 0.083149464452338187 0.082063830977565685 0.25803759280572874 0.25589152236126383 -0.034684312117504522 0.13755251792252277 -0.12733657375787671 -0.0071546899980318131 -0.12593528373799939 0.10124177655319576 0.11910551662915546 -0.050021608810292752 0.21037543158786873 0.14462639653428214 -0.098203869639714614 -0.025921469306704737 -0.14217865281350769 -0.12917913951648563
leaf_weight=426.30702795088291 541.86058078706264 8.4839138090610486 3.1943537294864646 1732.6581338942051 912.9141141474247 6409.7443628162146 480.97175447642803 2413.5626031011343 2951.6969877332449 20880.705774262547 4551.0126572996378 8810.6164298802614 1686.9045877158642 5482.9095288515091 2799.5268405973911 1967.4688721448183 458.80154427886009 2132.7468454539776 1536.4189739525318 85.156231209635735 16.830893516540527 8938.6728106588125 278.64434184134007 1347.3513146489859 397.36472360789776 1452.8315959572792 109.3335232436657 144.05903309583664 74.217454299330711 502.5787830799818 2148.3755552917719 340.83468489348888 5.4136607050895682 19.532634288072586 6.3833823204040527 1272.3098103404045 375.37272052466869 100.33799213171005 297.77225236594677 84.393583104014397 94.723639309406281 39.9992356300354 6.5128078907728177 4.8218304365873328 196.30054487287998 3.678123250603675 8.7409734129905683 707.762880012393
leaf_count=1467 1680 18 16 3831 3961 19255 1092 8229 10467 73571 12992 21776 5821 18025 11339 5887 1207 6218 5833 384 36 23299 618 3298 1212 4047 233 548 376 1517 6349 1063 10 36 27 3021 2120 356 1576 230 260 173 13 16 1035 14 42 4050
internal_value=0 0.0827377 0.0322925 0.0872545 0.0706433 0.0392381 0.0356517 0.0970869 0.0567246 0.0315498 0.106061 0.0957228 0.0627349 0.0262987 0.0188591 0.114815 0.0559487 0.0586809 -0.0275959 -0.0549077 -0.0231556 0.115504 0.0844975 0.136366 0.113992 0.117534 0.136114 0.0339993 -0.0728578 0.101979 0.0739223 0.0540638 -0.125643 0.0631987 -0.108645 0.153914 -0.112779 0.0556364 -0.100112 0.159497 0.172397 -0.116946 0.0890753 -0.0369186 -0.117333 -0.128514 -0.129038 -0.129338
internal_weight=0 50255.5 34993.3 48658.8 25837.6 11810.8 34264.5 14026.8 9361.44 32559.7 22821.2 17016 6237.92 29621.9 23680.2 10778.1 5941.71 4546.31 2449.33 1596.74 1003.69 9480.53 2937.72 5805.15 1704.84 2800.18 1187.61 575.942 91.0483 611.912 2574.68 484.894 728.79 517.235 593.053 3004.97 584.569 497.703 427.75 363.038 575.695 337.771 12.8962 89.9781 571.673 723.376 719.698 716.504
internal_count=268644 147000 121644 139615 78942 39516 117512 39426 29722 112806 60673 46476 18813 104142 84910 27663 19232 14447 9794 7385 4172 24979 8664 14197 4706 7345 3102 2023 412 1750 7816 1611 4132 1604 3213 6852 3195 1568 2149 848 1352 1749 40 400 3155 4122 4108 4092
is_linear=0
shrinkage=0.1


Tree=4
num_leaves=51
num_cat=0
split_feature=53 103 69 102 5 70 31 101 22 103 103 69 32 134 37 22 72 5 113 103 136 32 70 91 30 132 29 127 70 55 105 107 30 28 25 128 135 104 108 132 82 72 71 29 73 70 27 6 112 13
split_gain=4192.02 2289.12 1845.78 2058.03 1390.89 1145.62 873.33 859.873 797.99 721.446 665.748 1141.17 877.682 651.868 590.163 459.672 417.533 413.623 392.745 360.546 352.827 227.118 306.874 179.513 174.403 184.123 167.233 165.11 345.005 147.556 141.312 94.9948 89.1493 87.0258 85.2749 72.3366 67.565 64.0085 62.1443 46.7287 40.4364 25.036 23.8125 15.9944 15.1968 12.3433 3.79095 0.0971733 0.0343683 0.00129425
threshold=1.0164849758148196 -0.66011860966682423 -0.11280904337763785 -0.82893410325050343 0.90650767087936412 -0.2920165210962295 1.0031872987747195 -0.94968232512474049 1.6149981617927553 -0.81159669160842884 -0.80175960063934315 -0.057327553629875176 0.96215742826461803 1.0000000180025095e-35 0.94402548670768749 1.3181571364402773 -0.6088680326938628 0.76746919751167308 -1.0191788077354429 -0.88252577185630787 1.0000000180025095e-35 0.96215742826461803 -0.24312453716993329 -1.0177268385887144 1.1010890603065493 1.0000000180025095e-35 1.2352445125579836 -3.3598281145095821 -0.085136853158473955 1.0570827722549441 -0.90143278241157521 -0.96696823835372914 1.1060676574707033 1.204004228115082 1.4675262570381167 1.0000000180025095e-35 1.0000000180025095e-35 -0.72135061025619496 -1.0210560560226438 1.0000000180025095e-35 -0.37821508944034571 -0.33315451443195337 -0.20781403034925458 1.2416519522666933 -0.43584844470024103 -0.069586060941219316 1.4761765003204348 0.94662770628929149 -0.90876528620719899 1.0000069737434389
decision_type=2 2 2 2 2 2 2 2 2 2 2 2 2 2 2 2 2 2 2 2 2 2 2 2 2 2 2 2 2 2 2 2 2 2 2 2 2 2 2 2 2 2 2 2 2 2 2 2 2 2
left_child=4 2 3 6 7 16 15 17 13 -7 21 12 -12 19 -13 -2 -5 32 -15 -9 -8 23 -23 -4 25 -19 30 37 40 31 -10 -30 33 -1 -34 -26 46 -3 -31 44 41 -29 -42 -28 -39 -41 47 49 -49 -6
right_child=1 27 10 5 36 9 20 8 26 -11 11 14 -14 18 -16 -17 -18 24 -20 -21 -22 22 -24 -25 35 -27 43 28 29 38 -32 -33 34 -35 -36 -37 -38 39 -40 45 42 -43 -44 -45 -46 -47 -48 48 -50 -51
leaf_value=-0.09274953223668525 0.1142374699891589 0.21355382946009241 0.13350264903839101 -0.037315778793610595 -0.13538757829730108 0.074541299777048514 0.0551836525595647 0.040762325736275147 -0.0055429094120648557 0.0031904390184125508 0.069762284572159439 0.029664922236128457 -0.0020095049769444603 0.10639866977841408 0.10289275953995676 0.074131755562020438 0.027568196825181541 0.085564581960662314 -0.042616334745972401 0.010457047782970331 -0.0048456238110672657 0.061430504867134833 0.12244168611880819 0.09691263842404893 -0.065571736912392292 -0.026872129019589599 -0.082201261508898782 -0.053951535158321032 0.1038605776559624 0.11579490235145229 -0.075924338524417767 -0.12269443514612854 0.15900674570117185 0.12506377565317514 -0.035409788044064437 0.25537611001180022 0.22231721072005595 -0.031695095883054553 0.0026662025273772542 -0.12565506958032058 -0.11665175810049165 0.11794296177990514 0.065254240385176063 -0.12427074020488629 0.18508754544055414 -0.095037994269935838 -0.023546052748164778 -0.13043441542541248 -0.12554837398487037 -0.13789936710044925
leaf_weight=18.60941182076931 4620.2787082493305 6.2598681449890128 4158.6904122531414 3354.7569824457169 4.2473294138908368 3739.3682785630226 5963.5559368729591 10134.629611715674 727.21075612306595 2281.8885124176741 6127.5457532852888 1206.6784738302231 2360.1006540060043 194.26224875450134 12516.321020767093 7491.8109583556652 1408.0471495985985 483.17131091654301 1975.3686819672585 6407.9638377577066 1171.4537917971611 1808.0870073139668 1515.324243336916 1978.824350759387 194.52229481935501 208.4896037876606 143.38973361253738 77.594384983181953 25.138495519757271 173.20397074520588 469.42136819660664 70.165930956602097 32.961048275232315 1283.1707971543074 71.501065313816071 7.2854744642972937 5.6403558850288382 6.2918607145547867 67.473441287875175 307.54428067803383 301.88939578831196 9.5117205381393415 7.3720734119415274 244.41811679303646 6.6531201004981977 230.26124788820744 3.6460282802581778 14.724512368440626 645.36998124420643 3.9678272306919098
leaf_count=76 11667 11 9638 13298 22 11030 18850 34149 2765 8153 17975 3929 8027 607 31504 21666 4961 1527 8025 23027 4051 5191 3675 5229 805 784 616 367 68 480 2012 352 83 3338 267 16 10 27 240 1834 1607 30 25 1191 13 1327 14 83 3982 20
internal_value=0 0.0684924 0.071248 0.0534862 0.018827 0.0185134 0.0730814 0.0230603 0.016494 0.0475013 0.0880898 0.0786273 0.0498052 0.0222638 0.0964538 0.0894305 -0.0181339 0.081013 -0.029274 0.0290232 0.0453278 0.110304 0.0892488 0.121705 0.0278075 0.0516724 -0.0516474 -0.0633808 -0.0321723 0.0423772 -0.0331525 -0.0629359 0.114818 0.12195 0.0259347 -0.0539852 -0.122344 -0.104413 0.0840795 -0.108027 -0.0953644 -0.0351812 -0.112316 -0.108716 0.0797211 -0.112546 -0.125237 -0.125792 -0.125657 -0.136601
internal_weight=0 62992.1 61702.7 30031.2 23274 10784.1 19247.1 22596.4 20296.7 6021.26 31671.6 22210.6 8487.65 18712.2 13723 12112.1 4762.8 2299.71 2169.63 16542.6 7135.01 9460.93 3323.41 6137.51 893.469 691.661 1584.44 1289.36 732.349 335.982 1196.63 95.3044 1406.24 1301.78 104.462 201.808 677.596 557.01 240.677 550.751 396.368 87.1061 309.261 387.808 12.945 537.806 671.956 668.31 660.094 8.21516
internal_count=268644 185225 178844 93676 83419 37442 56234 79288 72392 19183 85168 61435 26002 65808 35433 33333 18259 6896 8632 57176 22901 23733 8866 14867 3132 2311 6584 6381 3169 1140 4777 420 3764 3414 350 821 4131 3212 720 3201 2029 397 1632 1807 40 3161 4121 4107 4065 42
is_linear=0
shrinkage=0.1


Tree=5
num_leaves=52
num_cat=0
split_feature=53 103 6 82 31 134 33 129 94 72 101 134 101 81 69 102 128 101 89 106 103 70 69 31 23 101 7 52 105 31 70 116 44 91 72 64 101 30 55 55 135 1 135 2 64 81 53 116 26 0 5
split_gain=3418.19 2086.12 1356.12 1084.78 1533.83 1226.53 1073.56 841.626 689.16 610.61 1019.04 604.001 603.228 444.683 441.91 441.333 418.74 414.531 347.746 329.637 293.115 508.759 237.81 184.335 175.596 159.007 157.596 144.867 117.165 107.473 98.3664 89.75 85.5405 78.3576 153.679 75.5278 68.5965 62.9825 57.85 47.1791 49.0234 38.1223 35.9794 33.1412 25.1153 18.9253 13.2385 11.9634 5.76342 1.63078 0.148113
threshold=1.0440852046012881 -0.67731726169586171 0.94662770628929149 -1.217565059661865 0.99852812290191661 1.0000000180025095e-35 0.92361426353454601 1.0000000180025095e-35 -1.0938006043434141 -0.63830813765525807 -0.85846528410911549 1.0000000180025095e-35 -0.82709565758705128 -1.1621050238609312 -0.1751071214675903 -0.84687578678131092 1.0000000180025095e-35 -0.82510778307914723 -1.0586889386177061 -0.90565475821495045 -0.63692614436149586 -0.10208297520875929 -0.01541398325935006 1.0116440653800967 1.315208971500397 -0.86324384808540333 0.12228959053754808 1.0095081925392153 -0.80867248773574818 1.0038680434226992 -0.15379407256841657 -0.87889009714126576 1.0891883969306948 -0.23085794597864148 -0.30666533112525934 0.6234857738018037 -0.83937078714370716 1.0930877327919009 1.0551605224609377 1.0949703454971316 1.0000000180025095e-35 -0.69215443730354298 1.0000000180025095e-35 0.56087335944175731 0.60709840059280407 -0.40303529798984522 1.1702052950859072 -1.1026230454444883 1.5476168990135195 0.019648749381303791 0.90650767087936412
decision_type=2 2 2 2 2 2 2 2 2 2 2 2 2 2 2 2 2 2 2 2 2 2 2 2 2 2 2 2 2 2 2 2 2 2 2 2 2 2 2 2 2 2 2 2 2 2 2 2 2 2 2
left_child=2 3 7 4 16 14 18 8 23 10 -10 17 -11 -8 15 -5 30 -6 -7 -16 21 39 -18 27 -13 29 28 -1 -23 37 -2 -31 36 34 45 -36 -27 -9 -28 40 -3 -35 48 -25 -41 -22 -43 -34 49 -4 -51
right_child=1 20 42 5 11 6 13 25 9 12 -12 24 -14 -15 19 -17 22 -19 -20 -21 33 26 -24 43 -26 32 38 -29 -30 31 -32 -33 47 41 35 -37 -38 -39 -40 44 -42 46 -44 -45 -46 -47 -48 -49 -50 50 -52
leaf_value=0.014891264574332633 0.1118501876669132 -0.10776744795869536 -0.044157650770691309 0.072726085102579316 0.068117233268305585 0.0040277011411226967 0.096330929351982397 0.14139015255854667 0.022813421486430781 0.068343498289134455 -0.031824538256423528 0.13808266995687149 0.014837691271745971 -0.021175308333243364 0.081564893051551998 -0.030517986460598702 0.065956997960684022 0.030372687319923965 -0.093492684625388817 0.049689305977715342 -0.036077411536840132 0.11510932147860442 0.12194768648593964 -0.034751023600765714 0.03794580358989616 0.058583606585120941 -0.1245018138131721 0.078137038604029721 0.025201426736887401 0.087164236257530392 0.154269934866194 -0.063417439864587394 0.21615071887935136 0.1800340320984577 -0.095716845707027265 0.10820315067413591 -0.024022857004681226 0.058255348131243702 0.05028395944103442 -0.031988272569560862 0.12160049270608637 -0.1164354800808414 0.17144853448417113 0.14168341875127663 0.18756421418799049 -0.11827974148607567 -0.040661696438697159 0.091877196316306309 -0.019232261777767722 -0.14235238367879532 -0.12260343992211352
leaf_weight=466.29231415688992 10697.346499204636 370.83848160505295 2.6531926095485678 739.09961102902889 6091.6572891771793 548.42492191493511 963.9932576417923 781.03629168868065 20219.890458971262 4761.9617782235146 4106.8328093588352 1089.714277356863 3779.3644372075796 483.62557445466518 8383.5243022590876 941.38958479464054 3540.7279125154018 5570.444337323308 1097.192248865962 5292.3496771454811 35.647990256547928 274.31720891594887 965.40740902721882 10.934905290603636 208.64520992338657 328.40053042769432 64.889226332306862 1621.81471593678 307.3364589959383 509.30285510420799 576.0906028598547 42.916664153337479 30.293984606862068 4.4922632575035086 24.163972780108452 73.136448249220848 144.87057062983513 103.16537496447563 26.739219784736633 14.589722931385042 9.5585216581821424 458.88954399526119 4.2215911448001853 403.46322414278984 8.1046146750450117 130.67276458442211 24.27675972878933 10.407710105180739 5.4643166363239279 3.8214110583066931 608.71863302588463
leaf_count=1578 25790 1848 14 2080 17152 1846 2618 1800 69558 14116 16084 2608 12928 1734 22942 3788 9458 17050 4542 15586 162 706 2164 40 636 969 302 4478 1112 1416 1188 157 55 8 115 227 501 304 82 63 33 2885 8 895 23 753 123 28 22 19 4050
internal_value=0 0.0665744 0.0265976 0.0706344 0.0827822 0.051711 -0.00573804 0.0290437 0.0255174 0.0216658 0.0135895 0.0572915 0.0446683 0.057074 0.063283 0.01489 0.103719 0.0500884 -0.0609927 0.0692295 -0.0382522 -0.00479485 0.0779526 0.0761044 0.121991 0.0929941 0.048401 0.0640137 0.0676034 0.110074 0.114018 0.0754615 0.0452611 -0.0861872 -0.0422627 0.0575608 0.0332974 0.13169 -0.0734954 -0.0936477 -0.102004 -0.109932 -0.119501 0.137028 0.0464184 -0.100661 -0.112628 0.184373 -0.12148 -0.122388 -0.122727
internal_weight=0 49017.3 37945.8 47189.6 28740 18449.6 3093.24 37320.9 35370.6 32868 24326.7 12960.5 8541.33 1447.62 15356.4 1680.49 15779.6 11662.1 1645.62 13675.9 1827.65 1076.37 4506.14 2502.51 1298.36 1950.39 673.282 2088.11 581.654 1436.42 11273.4 552.22 513.973 751.28 263.621 97.3004 473.271 884.202 91.6284 403.091 380.397 487.659 624.879 414.398 22.6943 166.321 483.166 40.7017 620.658 615.193 612.54
internal_count=268644 139624 129020 131182 76046 55136 10740 124907 119677 112686 85642 37446 27044 4352 44396 5868 38600 34202 6388 38528 8442 4169 11622 6991 3244 5230 2202 6056 1818 3677 26978 1573 1553 4273 1257 342 1470 2104 384 1967 1881 3016 4113 935 86 915 3008 83 4105 4083 4069
is_linear=0
shrinkage=0.1


Tree=6
num_leaves=55
num_cat=0
split_feature=53 103 70 102 91 31 100 101 69 103 72 118 103 4 135 74 103 71 31 103 26 129 114 31 108 69 4 127 70 55 101 6 136 134 107 105 51 108 81 132 82 72 72 127 72 6 5 102 102 21 29 105 105 105
split_gain=2853.72 1490.01 1377.04 1570.72 1002.82 974.121 693.161 587.308 973.298 865.355 585.658 585.328 574.328 558.674 511.999 932.811 505.891 476.513 426.391 394.087 361.928 346.636 244.063 230.446 203.08 163.642 142.323 136.035 263.382 114.83 93.9553 122.609 83.4925 86.3172 73.8642 51.3001 49.8264 48.3513 44.638 38.0304 35.9546 23.1246 18.8992 12.7852 7.85518 0.550148 0.0635363 0.00483975 1.86199e-05 7.97263e-05 2.49234e-06 1.86416e-06 1.26029e-06 1.05892e-06
threshold=1.0122022032737734 -0.66011860966682423 -0.2587593793869018 -0.8119869828224181 -1.2704799771308897 1.0009298324584963 -0.9536336064338683 -0.7869439125061034 -0.032839389517903321 -0.76675671339035023 -0.79215645790100087 -1.0571205019950864 -0.71098408102989186 0.7177010476589204 1.0000000180025095e-35 -0.95092001557350148 -0.86146941781043995 -0.44475717842578882 0.99955016374588024 -0.80109402537345875 1.226564407348633 1.0000000180025095e-35 -0.93039247393608082 0.99921149015426647 -0.90938559174537648 -0.061937531456351273 0.74241065979003917 -3.3598281145095821 -0.085136853158473955 1.0570827722549441 -0.93401303887367237 0.78675672411918651 1.0000000180025095e-35 1.0000000180025095e-35 -0.96696823835372914 -0.79998961091041554 0.96333360671997081 -1.0242686271667478 -1.3188157081604002 1.0000000180025095e-35 -0.37821508944034571 -0.29828168451786036 -0.33315451443195337 -3.4202729463577266 -0.33315451443195337 0.94662770628929149 0.90650767087936412 -0.8555966019630431 -0.93160340189933766 1.3212141990661623 0.81527271866798412 -0.79327079653739918 -0.79327079653739918 -0.79327079653739918
decision_type=2 2 2 2 2 2 2 2 2 2 2 2 2 2 2 2 2 2 2 2 2 2 2 2 2 2 2 2 2 2 2 2 2 2 2 2 2 2 2 2 2 2 2 2 2 2 2 2 2 2 2 2 2 2
left_child=4 2 3 5 45 11 13 18 9 -9 30 -2 -10 32 21 -16 -7 23 25 -20 -19 -12 24 -5 -15 -4 -24 35 40 34 31 -8 33 -6 -30 -3 -34 -31 -32 44 42 -42 -29 -41 -37 46 47 -1 50 53 51 -47 -52 -50
right_child=1 27 7 17 6 16 10 8 12 -11 14 -13 -14 22 15 -17 -18 20 19 -21 -22 -23 26 -25 -26 -27 -28 28 29 37 38 -33 36 -35 -36 39 -38 -39 -40 43 41 -43 -44 -45 -46 48 -48 -49 49 -51 52 -53 -54 -55
leaf_value=-0.14713572936877051 0.045863411889801975 0.14869925534767028 0.095341972126332664 -0.013499952239327687 0.11101303916112443 0.071641067378119067 0.010416702529625448 0.05642964586212388 0.097762661303316789 -0.016525534461698434 -0.0028285498866644585 0.086486470047954969 0.039464345771030467 0.0062817887376528866 0.015545894618025231 0.11451725137947594 0.024476835479668568 -0.036844203150138859 0.088419409863524034 0.032468505199759377 0.039232714543445145 0.076543009326884903 0.01923898801452165 -0.076691030419659523 0.095766104694888235 0.12865959176550917 -0.069307117394011977 -0.047544213070438462 0.083213323499055303 0.10416450519142864 0.19627374203587342 -0.072469983327697468 -0.090828326356006059 -0.13089811383003799 -0.11681581438254079 -0.0045390139605453027 0.057874500989285899 0.011972903919200103 -0.097575171707061037 -0.1179928515511775 -0.10812079387619791 0.14267196817772188 0.099144212784756505 -0.083380064705439794 0.1535707349842817 -0.11989681497352063 -0.13173821302584596 -0.14242167293445773 -0.11989681497352066 -0.12046523394846992 -0.11989681497352066 -0.11981019263088738 -0.11992654506774812 -0.11993159631746229
leaf_weight=4.3224652409553519 5729.433397218585 8.3545795828104001 4407.1405154615641 2172.3191058635712 1411.888609752059 2868.7306710034609 312.86411593854427 5403.7798517048359 6655.1507839560509 2325.5545502007008 10854.970334783196 9311.3725795894861 2264.9558488279581 515.20430049300194 4052.9396506696939 1244.7826250493526 10973.823728919029 790.93297109007835 3606.6794136464596 1933.843572512269 2986.8708617985249 579.60938015580177 358.44471137225628 785.89125995337963 499.49462130665779 2215.1086017489433 367.77622120082378 74.269662156701088 25.692730352282524 157.18207888305187 5.2280067950487128 415.44024066627026 26.565204843878746 14.905491605401037 65.583625689148903 6.6517210006713867 148.4578764885664 89.157002359628677 462.68563330173492 304.22278407216072 274.64215616881847 3.7264733463525763 9.9611745923757535 164.37825419008732 5.9556489139795286 4.4291291236877441 6.5737292468547812 4.3895542025566092 8.9966685324907285 2.813435658812522 175.78106209635735 5.6582882255315763 15.517402574419974 323.56522084772587
leaf_count=20 17402 17 10735 8601 3543 8203 1130 15175 15634 7616 39428 24094 6741 1825 14291 3646 34814 2907 8985 5828 9233 1598 1186 3349 1446 4862 1562 368 68 415 13 1830 99 61 352 28 425 305 2048 2120 1622 10 30 1035 12 32 36 21 65 20 1270 41 112 2335
internal_value=0 0.0543537 0.0564014 0.0432531 0.0126102 0.0533942 0.0160636 0.0726561 0.0604532 0.0344793 0.00826886 0.0710121 0.0829598 0.0578698 0.0131014 0.0388008 0.0342511 -0.000230887 0.0893604 0.0688905 0.023305 0.00119473 0.0186555 -0.0302876 0.0503312 0.106487 -0.0256029 -0.0565354 -0.0282618 0.0352977 -0.0593274 -0.0368636 0.10049 0.108486 -0.060511 -0.0969747 0.0353042 0.0707978 -0.094292 -0.10124 -0.0874418 -0.104763 -0.0301968 -0.105851 0.0701511 -0.120453 -0.13916 -0.144761 -0.119921 -0.119935 -0.119897 -0.119848 -0.119899 -0.119931
internal_weight=0 65621.4 64431.6 35619.4 21823.3 28883.4 21271.3 28812.2 16649.4 7729.33 17928.5 15040.8 8920.11 3342.74 16732.3 5297.72 13842.6 6736.01 12162.8 5540.52 3777.8 11434.6 1740.92 2958.21 1014.7 6622.25 726.221 1189.78 700.215 337.615 1196.22 728.304 1601.82 1426.79 91.2764 489.563 175.023 246.339 467.914 481.208 362.599 278.369 84.2308 468.601 12.6074 552.047 15.2857 8.71202 536.761 335.375 201.386 10.0874 191.298 332.562
internal_count=268644 190561 184179 108603 78083 84513 74131 75576 45166 22791 63984 41496 22375 10147 58963 17937 43017 24090 30410 14813 12140 41026 6019 11950 3271 15597 2748 6382 3170 1140 5021 2960 4128 3604 420 3212 524 720 2061 3195 2030 1632 398 3155 40 3952 77 41 3875 2420 1455 73 1382 2400
is_linear=0
shrinkage=0.1


Tree=7
num_leaves=60
num_cat=0
split_feature=69 104 103 52 102 69 45 101 103 69 32 103 69 102 102 71 136 32 68 134 30 32 103 69 31 134 102 73 132 102 134 63 107 133 22 132 70 69 123 68 130 26 31 72 113 70 70 122 93 112 35 71 57 91 106 127 65 80 107
split_gain=2428.06 1733.98 1177.98 1306.68 1017.8 1099.35 583.1 624.335 562.758 1050.16 757.261 550.002 1025.46 529.348 507.199 471.863 467.074 345.459 338.658 318.75 287.727 258.204 229.83 228.228 210.757 224.634 208.27 203.081 200.895 195.615 178.744 165.859 151.226 199.117 134.257 115.262 111.258 88.7642 86.1432 238.368 72.0682 70.4652 64.4263 56.5797 50.323 49.1422 36.729 36.2285 35.0314 31.2141 31.1792 30.3472 25.8887 17.7661 15.7804 7.89151 24.2933 5.64529 1.89146
threshold=-0.1292900666594505 -0.72135061025619496 -0.8267756700515746 1.0200939178466799 -0.87985870242118824 -0.17875119298696515 0.70787882804870617 -0.95208340883254994 -0.81100866198539723 -0.079948842525482164 0.96110090613365184 -0.77442443370819081 -0.032839389517903321 -0.85635745525360096 -0.79569369554519642 -0.66924425959587086 1.0000000180025095e-35 0.95373108983039867 -0.015720953233540055 1.0000000180025095e-35 1.1010890603065493 0.96699166297912609 -0.79614761471748341 -0.14454226940870282 1.00497442483902 1.0000000180025095e-35 -0.81443649530410755 -0.73673906922340382 1.0000000180025095e-35 -0.82077419757843006 1.0000000180025095e-35 0.50538247823715221 -0.97807392477989186 1.0000000180025095e-35 1.3780897259712221 1.0000000180025095e-35 -0.25268544256687159 -0.082549907267093645 -2.2468916177749629 0.21598876267671588 1.0000000180025095e-35 1.2435843348503115 0.87286093831062328 -0.58099523186683644 -0.98964861035346974 -0.085136853158473955 -0.069586060941219316 -1.1856801509857176 -0.9417639672756194 -1.2834906578063963 0.90824294090271007 -0.36645995080471033 0.82726135849952709 -0.25935070216655726 -0.88245412707328785 -3.4202729463577266 0.55278190970420849 -1.0237449407577512 -0.96136340498924244
decision_type=2 2 2 2 2 2 2 2 2 2 2 2 2 2 2 2 2 2 2 2 2 2 2 2 2 2 2 2 2 2 2 2 2 2 2 2 2 2 2 2 2 2 2 2 2 2 2 2 2 2 2 2 2 2 2 2 2 2 2
left_child=2 8 3 6 20 13 44 28 24 10 14 21 -13 -6 -10 -9 -7 18 27 31 35 -11 -12 43 32 36 -21 40 -8 30 -25 -20 33 -2 -29 -5 -26 -34 54 42 -4 -31 45 52 48 -40 53 -22 -1 -48 -27 -44 -19 -41 -3 58 -57 -46 -56
right_child=1 38 17 4 5 16 7 15 9 11 22 12 -14 -15 -16 -17 -18 23 19 26 47 -23 -24 29 25 50 -28 34 -30 41 -32 -33 37 -35 -36 -37 -38 -39 39 46 -42 -43 51 -45 57 -47 49 -49 -50 -51 -52 -53 -54 -55 55 56 -58 -59 -60
leaf_value=0.08153007884981274 0.089562750204573396 0.028974394032977576 -0.076060882110995043 0.082261757037198346 0.029146407270240933 0.065038107184768421 0.07728357723955126 -0.049288704580397413 0.07222239984287912 0.096477902324535889 -0.0059278138740412149 0.0064733186504631352 0.071384564234035927 -0.020764065766750925 0.015763225837617165 0.010635172150779727 0.0088372940871671059 0.12188375985239115 0.07696922284337307 0.028154718316962118 0.093281293017344849 0.051422514511018071 -0.07806493264886788 -0.017131435508210138 0.033460146099946797 0.21096842091267912 -0.07532867294101557 0.015992394785937728 -0.030763749803713981 -0.10307976260013581 0.10812466443960354 0.006687331138009134 0.089245919590375866 -0.0087247824360264497 -0.08611549320515878 -0.093106599779405691 0.084017852156656969 0.12103124664397596 -0.10598490327650954 0.048095888401723241 -0.016947658195835491 -0.037078557996168146 -0.097900744853502669 0.18141050411367191 -0.11689664318679274 -0.028428839974558303 0.15115425218335093 -0.14907680031675907 -0.13749802542492595 0.038811957507881169 0.12799669296094401 0.090748002053691434 -0.10286068253040637 -0.13278572199619629 -0.032276955023917572 -0.10719197212351217 0.00039714008179126005 -0.013113411082952442 -0.11708646787696773
leaf_weight=22.933005794882774 503.07888609170914 8.7590029835700971 773.26312214136124 6326.3897745162249 4694.4426316320896 8395.7523069381714 1664.4749141186476 1465.5858908742666 2922.4421217143536 6175.9526861459017 1452.6921671181917 3390.485120460391 8625.0569731742144 3882.4120392203331 3492.8497951477766 12710.1675196141 1794.9115335047245 5.165498659014701 995.18317809700966 374.6104222536087 6.8536106050014487 1601.8546762615442 634.59598553180695 416.37635590136051 1669.9528080374002 71.86816069483757 404.47489061951637 914.78616657853127 191.92713056504726 259.40732562541962 156.84426690638065 506.76109252870083 6005.4009070694447 349.17747932672501 149.86690871417522 37.702071249485016 588.71648441255093 1029.1499982327223 345.07215362787247 11.270083531737329 281.25570558011532 429.72740881145 11.66643103957176 7.1644223332405081 396.56098861992359 107.04429340362549 59.086249515414238 61.645110562443733 10.713693574070929 42.537663266062737 122.46701148152351 31.691129878163338 661.06858849525452 10.478889510035513 2.6548412889242163 112.25544264912605 25.812858909368515 5.311411887407302 277.75219747424126
leaf_count=74 1248 36 3563 16463 14630 24029 4710 6076 7957 14828 4699 10395 22089 13885 11193 44557 5669 17 2834 1200 18 4399 2457 1396 4936 137 1760 3461 726 1130 402 1703 14946 1084 692 144 1440 2225 2309 40 1151 1645 58 16 2835 424 145 273 57 139 287 95 2879 62 19 745 136 25 2096
internal_value=0 0.0577093 0.0242775 0.030386 0.0447013 0.0329355 0.00847967 0.0115811 0.061149 0.0538534 0.02446 0.0664798 0.0530682 0.00655386 0.0414828 0.00443983 0.0551393 -0.0158948 -0.000407275 0.0263328 0.0790287 0.0871987 -0.0278596 -0.0510997 0.0811141 0.0555143 -0.0255704 -0.0291897 0.0661129 -0.026021 0.0171411 0.0532559 0.0890763 0.0492934 0.00161908 0.0812228 0.0466379 0.0938961 -0.0693299 -0.0454864 -0.0602945 -0.061923 -0.0764557 -0.0981123 -0.105689 -0.0876225 0.0788885 -0.124828 0.0117877 0.10413 0.158681 0.0399874 -0.101118 -0.0390548 -0.103867 -0.106647 -0.0870774 -0.115525 -0.116284
internal_weight=0 39681.8 48003.7 41667.8 25200.1 18767.5 16467.7 16032.2 38635.7 28295.9 8502.58 19793.3 12015.5 8576.85 6415.29 14175.8 10190.7 6335.96 4400.2 2281.03 6432.59 7777.81 2087.29 1935.75 10339.8 2453 779.085 2119.17 1856.4 1262.36 573.221 1501.94 7886.81 852.256 1064.65 6364.09 2258.67 7034.55 1046.08 618.847 1054.52 689.135 495.474 673.399 435.519 452.116 123.373 68.4987 33.6467 101.624 194.335 43.3576 666.234 21.749 427.234 418.475 138.068 401.872 280.407
internal_count=268644 110624 158020 134171 75111 58213 59060 56069 104320 78017 26306 51711 32484 28515 19150 50633 29698 23849 16364 7497 16898 19227 7156 7485 26303 6800 2960 8867 5436 4573 1798 4537 19503 2332 4153 16607 6376 17171 6304 3272 4714 2775 2886 2912 2991 2733 386 291 131 284 424 153 2896 102 3032 2996 881 2860 2115
is_linear=0
shrinkage=0.1


Tree=8
num_leaves=53
num_cat=0
split_feature=52 103 70 102 6 31 108 103 21 101 134 30 134 101 69 103 32 102 71 70 104 113 70 103 134 7 70 31 71 32 72 69 107 68 99 72 104 91 67 132 51 53 135 70 103 53 117 125 26 114 5 45
split_gain=2003.35 1142.67 871.457 1148.91 838.4 832.322 575.853 535.965 670.635 664.129 536.903 460.972 450.309 449.61 842.935 893.738 431.333 412.146 358.859 299.411 431.84 297.502 290.711 418.271 355.889 240.133 197.213 185.507 183.627 174.791 163.542 133.491 128.14 121.459 117.582 110.067 94.1339 82.732 122.861 61.1096 44.3179 29.9628 27.7036 24.2304 36.634 19.5726 11.9466 9.78595 4.6542 0.126826 0.026718 0.0106144
threshold=1.0541573166847231 -0.68465185165405262 -0.24413590133190152 -0.80011478066444386 0.94662770628929149 1.0011432170867922 -0.91055449843406666 -0.85380193591117848 1.4864233136177065 -0.93401303887367237 1.0000000180025095e-35 1.1010890603065493 1.0000000180025095e-35 -0.7869439125061034 -0.0097362664528191072 -0.74885526299476612 0.9584847390651704 -0.90268221497535694 -0.4353156834840774 -0.11309681087732314 -0.71206584572792042 -1.390413165092468 -0.32127617299556727 -0.8300219178199767 1.0000000180025095e-35 0.12228959053754808 -0.49014686048030848 1.0009298324584963 -0.52318859100341786 0.96728295087814342 -0.56525078415870655 -0.19430199265480039 -0.85215958952903736 0.08248195052146913 -0.86798128485679615 -0.60382744669914235 -0.73474943637847889 -0.23085794597864148 0.3466541469097138 1.0000000180025095e-35 1.1572164297103884 1.1702052950859072 1.0000000180025095e-35 -0.11847592517733573 -0.67731726169586171 1.0760008096694949 -1.4119337201118467 -2.6181306838989253 1.5476168990135195 -0.93286317586898793 0.90650767087936412 0.70787882804870617
decision_type=2 2 2 2 2 2 2 2 2 2 2 2 2 2 2 2 2 2 2 2 2 2 2 2 2 2 2 2 2 2 2 2 2 2 2 2 2 2 2 2 2 2 2 2 2 2 2 2 2 2 2 2
left_child=4 2 3 5 7 6 -2 8 10 11 17 -10 -7 29 15 -15 18 -1 -5 39 25 -16 27 24 -24 36 -11 32 -12 33 -31 -29 -9 -4 -25 -18 -21 38 -22 45 -27 -39 48 47 -45 -3 -47 -41 49 50 -6 -51
right_child=1 19 13 16 42 12 -8 22 9 26 28 -13 -14 14 21 -17 35 -19 -20 20 37 -23 23 34 -26 40 -28 31 -30 30 -32 -33 -34 -35 -36 -37 -38 41 -40 43 -42 -43 -44 44 -46 46 -48 -49 -50 51 -52 -53
leaf_value=0.066613614732558987 0.036337148073293371 0.14013476717398116 0.081406086897400115 -0.024718279509868931 -0.13354687435248833 0.01910262831137037 0.076704314665444445 -0.024482608417951392 0.043635193614157963 -0.054511036386873428 -0.064537670468773109 -0.055391400483893884 0.075443243779094199 0.050788302619765281 -0.058680688378513549 -0.029647700612978792 -0.094923739608988589 0.029699909279787384 0.033071640833121849 0.093518847648389414 -0.079438757452869241 0.093126358396882547 0.014507895958780196 0.019605513738024716 0.10931091524681109 -0.11651205895406787 -0.0081339627514380366 -0.098652779904858712 0.047543257932740876 0.02423206142132989 0.092610683340084349 -0.034268056026056766 0.03331595331106281 0.11117864697379987 -0.040933156467323276 -0.03013534739750566 0.023463688360255492 -0.10766261963238102 0.063601519994447783 -0.11196812636581177 -0.021636113484749087 0.005072100599318779 0.14597040393792668 0.045754013156706963 -0.11210641316985931 0.026655925434484553 -0.063350824460392127 -0.14914576750993122 -0.024524491085226165 -0.11610141828535876 -0.12337006635779638 -0.11756823530817047
leaf_weight=4216.9443488568068 5467.1169899553061 6.9509774297475806 4506.2381975054741 1747.4362860769033 3.314944759011266 10034.767740651965 9993.8759271204472 1381.549154445529 3168.810261785984 1809.9391496181488 685.30316206812859 551.95955914258957 1652.197850137949 8292.8645092844963 132.85982283949852 1657.4553623646498 489.03250859677792 10697.710546508431 2790.4204156845808 404.87187406420708 164.0704103037715 4554.5777955055237 1192.9474890828133 442.31121477484703 592.71992188692093 86.420540899038315 1858.3568217456341 485.34747083485126 185.80811430513859 859.97408393025398 589.56689046323299 956.95248429477215 531.00565679371357 1968.9609101712704 1168.1462526023388 565.36944559216499 364.47957888990641 358.54531317949295 94.710914805531502 134.74122127890587 114.41988271474838 25.235135093331337 4.0844442248344413 20.703328311443329 50.703206986188889 21.231839053332806 48.279624536633492 149.19890901446342 5.5569352507591239 422.2435048520565 11.632355980575085 55.860169738531113
leaf_count=12174 16433 22 10944 7024 18 30995 25185 5347 10312 7357 2817 2178 4539 22249 430 5298 2099 34186 8466 1021 965 10588 3826 1429 1654 387 6671 2037 630 2491 1404 3634 1912 4319 4454 1971 1315 2792 314 781 380 126 8 59 322 84 229 685 22 3542 77 442
internal_value=0 0.0464115 0.0491256 0.0387048 0.0146669 0.0472069 0.0624302 0.0168183 0.0240413 -0.000822787 0.0356798 0.028945 0.0270676 0.0642472 0.0538604 0.0373898 -0.00256931 0.0401368 0.0108179 -0.0270022 -0.00720084 0.0888236 -0.00797707 0.0126479 0.045976 0.0349112 -0.0310164 -0.0288557 -0.0406308 0.0834325 0.0520435 -0.0559341 -0.0084353 0.0904592 -0.0243062 -0.0601843 0.0603303 -0.070785 -0.0270877 -0.100958 -0.0624607 -0.10025 -0.113406 -0.118408 -0.066337 -0.0198598 -0.0358588 -0.131503 -0.115531 -0.116556 -0.125627 -0.116273
internal_weight=0 57347.3 55302.7 32740.2 30428.5 27148 15461 29925.8 23174.8 7389.07 15785.8 3720.77 11687 22562.5 14637.8 9950.32 5592.26 14914.7 4537.86 2044.56 1612.75 4687.44 6750.98 3396.12 1785.67 970.192 3668.3 3354.85 871.111 7924.74 1449.54 1442.3 1912.55 6475.2 1610.46 1054.4 769.351 642.562 258.781 431.809 200.84 383.78 502.692 355.347 71.4065 76.4624 69.5115 283.94 498.608 493.051 14.9473 478.104
internal_count=268644 163917 154435 96712 104727 77152 41618 100618 76325 26518 49807 12490 35534 57723 38565 27547 19560 46360 15490 9482 7300 11018 24293 11363 5480 3103 14028 12930 3447 19158 3895 5671 7259 15263 5883 4070 2336 4197 1279 2182 767 2918 4109 1847 381 335 313 1466 4101 4079 95 3984
is_linear=0
shrinkage=0.1


Tree=9
num_leaves=61
num_cat=0
split_feature=69 104 103 52 102 70 91 32 106 70 102 53 101 70 136 129 31 4 134 69 103 77 31 102 70 28 102 30 69 104 112 134 99 62 111 70 101 75 111 135 123 68 68 31 95 70 63 108 130 62 70 112 113 118 123 106 127 57 98 107
split_gain=1746.9 1163.31 1119.49 988.18 643.624 953.958 480.543 758.963 701.197 626.674 553.49 438.25 484.798 409.204 371.895 363.269 336.4 335.439 298.89 291.908 309.607 288.271 310.265 279.399 278.844 343.895 271.429 228.953 228.642 583.984 281.351 215.764 210.791 165.895 153.866 116.553 121.617 111.108 103.264 91.0199 77.4771 181.195 65.8909 56.9135 47.0381 46.5354 43.9832 43.2608 33.6349 28.8651 28.1042 25.2884 22.7707 19.4589 14.6467 14.3873 8.40502 23.1267 6.65068 2.02464
threshold=-0.1358079984784126 -0.72135061025619496 -0.83390283584594715 1.0200939178466799 -0.86974945664405812 -0.33697377145290369 -1.0177268385887144 0.96215742826461803 -0.90565475821495045 -0.20442684739828107 -0.77814659476280201 0.75806608796119701 -0.94092804193496693 -0.50804731249809254 1.0000000180025095e-35 1.0000000180025095e-35 1.0006169676780703 0.72523504495620739 1.0000000180025095e-35 -0.15873909741640088 -0.82417368888854969 -1.362903833389282 0.99794480204582225 -0.84760698676109303 -0.33929146826267237 1.1541683077812197 -0.76876989006996144 1.0993593931198122 1.0000000180025095e-35 -0.77912339568138111 -1.3357824087142942 1.0000000180025095e-35 -0.80025136470794667 0.57526755332946788 -0.89352580904960621 -0.31622438132762903 -0.82842904329299916 -0.99806201457977284 -0.92333486676216114 1.0000000180025095e-35 -2.2468916177749629 0.21598876267671588 0.084064889699220671 0.87286093831062328 -0.83914121985435475 -0.085136853158473955 0.49625435471534735 -0.92356353998184193 1.0000000180025095e-35 0.49743479490280157 -0.069586060941219316 -1.2834906578063963 -1.2282293438911436 -1.2396447062492368 -2.1725164651870723 -0.88245412707328785 -3.4202729463577266 0.99677717685699474 -0.95460757613182057 -0.96136340498924244
decision_type=2 2 2 2 2 2 2 2 2 2 2 2 2 2 2 2 2 2 2 2 2 2 2 2 2 2 2 2 2 2 2 2 2 2 2 2 2 2 2 2 2 2 2 2 2 2 2 2 2 2 2 2 2 2 2 2 2 2 2 2
left_child=2 6 3 11 27 23 7 21 28 10 -9 38 17 -14 -7 26 18 -13 24 44 33 42 -23 -6 34 -26 -10 31 29 -8 -30 -5 -11 -21 -4 49 -37 -17 39 -1 55 43 -2 45 48 -42 -22 -29 -18 -20 54 -52 -45 -46 -43 -3 59 -58 -40 -57
right_child=1 40 16 4 5 14 8 9 15 32 -12 12 13 -15 -16 37 19 -19 35 20 46 22 -24 -25 25 -27 -28 47 30 -31 -32 -33 -34 -35 -36 36 -38 -39 58 -41 41 50 -44 52 53 -47 -48 -49 -50 -51 51 -53 -54 -55 -56 56 57 -59 -60 -61
leaf_value=-0.087509241547865643 -0.033211728791494637 0.029026481223435999 -0.07054820511602479 0.062921745539775309 0.0048318493183678599 0.056172347204790862 0.054662709760495344 0.029494540241611036 0.025827807437531519 0.096534285137803905 -0.065851345981283435 0.073111294926299364 -0.044093262211993375 0.0079150847676636143 -0.0018652215750525518 -0.034122892557409142 -0.11057437283673782 0.0097791046005959829 0.14150504411068077 0.026054006832848611 -0.057397424510979483 0.088735783956853748 0.059041471686822826 -0.048698905498862619 -0.02931241038309515 0.050861656147971182 -0.012540859288095042 0.026856421802652838 -0.019547457050787143 -0.097132522955358416 0.10178381800248933 -0.077989426809787321 0.046529823254331734 -0.084216323980492419 0.013340100459895757 0.0296758467202482 -0.053742092780218798 0.082367406431461399 -0.11547624611067064 0.071297508218277322 -0.10027499842801345 -0.090642055379159508 0.10369969269236107 0.13122799994564452 -0.047432101963187312 -0.023041448837919504 -0.11318286413109005 -0.14462270760902918 -0.064783068052338785 -0.10294702828367636 0.13000264620386603 0.029919323247651376 -0.017754995995882407 0.18447529152719114 0.092866912945912816 -0.020920101753178356 -0.1025905190174517 0.0027017496069115391 -0.070781741094136291 -0.11314410526132999
leaf_weight=75.609013721346855 306.53876992315054 8.6767388582229596 517.48092134296894 8827.4109272062778 3630.5243603587151 6563.4916512668133 5509.4466779381037 6448.0366957038641 3982.0879994481802 1774.5024066865444 672.32695516943932 1781.4172129929066 1761.4838578179479 10717.63492372632 1327.365866407752 89.878292098641396 580.57834339141846 1576.3282261043787 4.9096845537424079 974.79281765222549 680.13434858620167 7521.6013867259026 6611.8988601714373 1333.0349133014679 732.71302762627602 1982.7486917823553 3433.5075325667858 19.082247942686081 215.93550209701061 265.66654033958912 1662.9579504579306 110.01894956827164 1605.9531540572643 158.63415971398354 378.61903455853462 261.19594295322895 528.22585648298264 919.80727878212929 339.87288179993629 69.052081421017647 306.47990822046995 15.156054690480234 39.704725682735443 16.759988844394684 6.4505420178174964 104.65311539173126 178.40665948390961 64.23842179775238 221.64527173340321 299.24199937283993 60.48695832490921 43.332717895507812 26.447974912822247 8.2401268631219846 6.0998664051294318 2.4045783579349509 98.087067663669586 26.494978837668896 36.908909827470779 237.27118098735809
leaf_count=347 1191 36 2474 23471 11907 18634 14940 18649 11816 4026 2336 4795 7236 37305 4264 286 2580 5512 17 2991 2742 17797 17620 5074 2802 6176 11311 57 656 969 3792 449 4065 586 1506 801 2193 2193 2785 233 2318 84 90 50 26 424 828 294 915 1371 145 139 104 23 18 19 721 160 199 2096
internal_value=0 0.0465785 0.0183356 0.0252705 0.0391729 0.0248036 0.0491128 0.0577922 0.0356286 0.0373241 0.0204917 0.0066795 0.00964952 0.000573872 0.0464095 0.0157247 -0.0169511 0.0433793 -0.000602813 -0.044336 -0.0236916 0.0726358 0.0748443 -0.0095446 0.0132662 0.0292283 0.00806267 0.0596489 0.0575382 0.0476798 0.0878396 0.0611871 0.0727787 0.0106206 -0.0351038 -0.0464057 -0.0261416 0.0719979 -0.0835239 -0.0117049 -0.0626835 -0.0398007 -0.0175117 -0.0691415 -0.0946756 -0.0806153 -0.0689898 -0.10535 -0.0979228 -0.099001 0.0667808 0.0882294 0.0400342 0.0826468 -0.03798 -0.0982357 -0.101267 -0.0801979 -0.111098 -0.112219
internal_weight=0 42012.2 45747.5 38233.5 21875.2 12854.4 41059.9 24980.6 16079.3 10500.8 7120.36 16358.3 15836.9 12479.1 7890.86 8425.28 7514.02 3357.75 4705.14 2808.88 1991.97 14479.7 14133.5 4963.56 3611.56 2715.46 7415.6 9020.75 7654.01 5775.11 1878.89 8937.43 3380.46 1133.43 896.1 1093.57 789.422 1009.69 521.443 144.661 952.351 579.417 346.243 454.341 816.914 411.133 858.541 83.3207 802.224 304.152 125.076 103.82 43.208 14.6907 21.2559 372.935 364.258 124.582 376.782 239.676
internal_count=268644 118051 150593 122562 64150 39879 111737 65774 45963 29076 20985 58412 54848 44541 22898 25606 28031 10307 17340 10691 7147 36698 35417 16981 12958 8978 23127 24271 20357 15909 4448 23920 8091 3577 3980 4382 2994 2479 3564 580 6314 3282 1281 2896 3544 2742 3570 351 3495 1388 386 284 154 49 102 3032 2996 881 2984 2115
is_linear=0
shrinkage=0.1


Tree=10
num_leaves=62
num_cat=0
split_feature=69 104 129 103 70 134 11 103 69 32 103 103 69 111 136 135 31 31 69 28 134 134 22 70 32 70 63 106 69 102 61 108 104 27 26 133 123 67 45 62 54 30 31 98 105 70 105 39 23 71 53 70 42 115 57 73 121 41 123 70 116
split_gain=1441.02 974.658 880.776 691.298 715.778 762.491 466.321 435.097 748.987 527.738 393.278 391.058 748.185 270.584 358.953 292.537 264.838 250.087 270.787 258.595 218.993 212.743 200.941 195.695 137.731 218.56 178.402 149.625 129.817 124.779 111.609 97.1115 92.3939 105.67 89.7189 85.6404 71.6623 158.738 67.0605 61.5896 59.7945 57.666 54.2708 51.8695 49.268 56.4259 46.4352 45.8465 26.2199 19.6749 18.7237 15.5959 15.4924 14.1025 17.7492 11.8969 11.5315 8.00993 6.27641 21.6051 0.623715
threshold=-0.1292900666594505 -0.72135061025619496 1.0000000180025095e-35 -0.82949382066726673 -0.33105921745300287 1.0000000180025095e-35 1.0520477890968325 -0.81100866198539723 -0.078783687204122529 0.96110090613365184 -0.7898246943950652 -0.77442443370819081 -0.030568568967282769 -1.1382872462272642 1.0000000180025095e-35 1.0000000180025095e-35 1.0037553906440737 1.0012448430061343 -0.14651139080524442 1.1668429374694826 1.0000000180025095e-35 1.0000000180025095e-35 1.3780897259712221 -0.20442684739828107 0.96075859665870678 -0.26376210153102869 0.51342269778251659 -0.96024942398071278 -0.14551145583391187 -0.8462143838405608 0.65996319055557262 -0.92356353998184193 -0.83914151787757862 1.2535545825958254 1.2408238053321841 1.0000000180025095e-35 -2.2468916177749629 0.33556495606899267 1.0606161355972292 0.5140502154827119 1.0872781276702883 1.0670511126518252 0.86953318119049083 -0.79486334323883046 -0.7841292917728423 -0.056862765923142426 -0.89695951342582692 0.99717119336128246 1.291918218135834 -0.39328704774379725 1.128575384616852 -0.091460153460502611 1.0602142214775088 -1.4643736481666563 0.95969256758689891 -0.4033637642860412 -1.8764572143554685 0.67317679524421703 -2.2690584659576412 -0.069586060941219316 -1.5074197649955747
decision_type=2 2 2 2 2 2 2 2 2 2 2 2 2 2 2 2 2 2 2 2 2 2 2 2 2 2 2 2 2 2 2 2 2 2 2 2 2 2 2 2 2 2 2 2 2 2 2 2 2 2 2 2 2 2 2 2 2 2 2 2 2
left_child=2 7 3 4 5 6 -1 24 9 10 -9 23 -13 15 -15 -6 34 20 43 -20 22 -11 -5 -10 27 26 -26 35 -22 -7 32 -27 33 -18 39 -2 53 42 -29 57 41 -36 51 -19 55 -46 -41 52 -34 -44 -42 -38 -32 54 -3 -39 -56 -4 60 -60 -55
right_child=1 36 16 17 13 29 -8 8 11 21 -12 12 -14 14 -16 -17 30 18 19 -21 28 -23 -24 -25 25 31 -28 38 -30 -31 47 -33 48 -35 40 -37 37 44 -40 46 50 -43 49 -45 45 -47 -48 -49 -50 -51 -52 -53 -54 58 56 -57 -58 -59 59 -61 -62
leaf_value=0.018008334242956715 0.043868559532359713 0.10532233370898346 -0.081938719769365592 0.017311997196779928 -0.026150941187326415 -0.038571288801981955 -0.0452249731368915 0.044440772081347064 0.057758122532487723 -0.03890625714507661 -0.0088789610976801724 0.0010016221500412218 0.055334952591863357 0.058326383856002431 0.0090245503620190529 0.14727205516949921 0.087398015955077984 -0.087812296190226069 -0.059159978567489759 0.031996136778642804 -0.071872969384083565 0.060255040732662551 -0.068532786810518595 0.093891324789240782 0.040717883405636222 0.024782481997059097 -0.033231378813423612 -0.094776105765640786 -0.0084123167103523494 -0.10363184000750064 -0.129760583839967 0.078549749041195785 0.023666962329917801 0.014006599951587047 0.11279497857323791 -0.056969481520075617 -0.10285338100995221 0.22917762178438919 0.075953594896331855 0.13574213945644775 -0.17306830821647587 0.07593809928708467 -0.12977108887077102 0.096155904311600815 -0.042907637571736934 0.095192109286724474 0.023927209825523436 0.1582558432518226 -0.051546371599023338 0.055301820706275401 0.0091421041809766675 -0.051676702522044142 -0.010677402403554125 -0.082576641309588722 -0.1053014449303768 0.095882861708823652 0.074358752943925591 -0.21286833698652088 -0.11016383369656808 -0.0088232518005959774 -0.11264005990113467
leaf_weight=25167.910289749503 257.43981260061264 7.2843698412179974 10.259758837521078 3254.7241274639964 889.03132621943951 1456.4244172126055 1222.923542805016 4698.6685534417629 5401.3911235630512 1944.0088000744581 1960.5153182446957 3662.8546844571829 8226.4880419075489 6895.6708769127727 1879.2138381227851 109.21667687594891 408.45760442316532 905.36832562088966 616.92047396302223 628.00501008331776 602.23294015228748 243.45141065120697 297.60542272031307 2074.5750854611397 1132.9216803312302 415.67046442627907 458.17130519449711 23.092507369816303 693.59627376496792 369.59102946519852 60.881872519850731 1750.8357474952936 73.106327727437019 377.49715931713581 1132.4854626953602 125.17437529563904 243.23607260733843 7.73602370917797 6168.6558940857649 46.523249432444572 6.6057008206844321 679.03695778548717 6.7695470154285422 15.58982855081558 88.858318835496902 44.354939296841621 184.15643230080605 7.0618061870336524 126.63543809950352 37.922714799642563 38.559338435530663 78.852170206606388 13.314069673418997 7.1418048441410056 19.748750470578678 49.801377549767494 4.3616230189800218 8.5801346600055677 74.709329806268215 29.282988503575325 204.63140711188316
leaf_count=81208 664 34 92 11260 2987 5781 6307 13086 13804 6809 6567 11070 21298 19267 5875 241 1049 4024 2416 1990 2690 670 1488 4713 3208 1124 1480 108 2519 1600 244 4218 226 1130 2556 414 2058 19 15087 99 29 1722 39 51 423 115 506 17 457 125 109 364 45 64 140 129 24 35 646 177 1947
internal_value=0 0.0428732 0.0170972 0.0135069 0.0188324 0.0107541 0.0150782 0.0452813 0.0388516 0.0147446 0.028743 0.0498644 0.038596 0.0421558 0.047768 -0.00717702 0.0680176 -0.0153372 -0.0435881 -0.0131761 -0.00271628 -0.0278702 0.0101201 0.0677851 0.0628379 0.0475659 0.0194234 0.0715667 -0.0379055 -0.0517397 0.0274274 0.0682338 0.0367136 0.0521478 0.0885797 0.0108788 -0.0597246 -0.0375158 0.0753168 0.0322796 0.0961458 0.0989794 -0.0759958 -0.0846981 0.0364746 0.00307432 0.0464779 -0.0852184 -0.024018 0.0272688 -0.0175074 -0.0903245 -0.108392 -0.0953914 -0.0314715 0.113805 -0.0728005 -0.141567 -0.101747 -0.0816275 -0.111626
internal_weight=0 39448.6 48177.2 45004 37990 28216.8 26390.8 38543.9 28212 8846.64 6659.18 19365.3 11889.3 9773.13 8774.88 998.248 3173.16 7014.04 2165.88 1244.93 4848.16 2187.46 3552.33 7475.97 10332 3757.6 1591.09 6574.36 1295.83 1826.02 1066.95 2166.51 985.697 785.955 2106.21 382.614 904.691 557.531 6191.75 249.52 1856.69 1811.52 366.781 920.958 190.751 133.213 230.68 81.2577 199.742 44.6923 45.165 322.088 74.1959 347.16 31.3947 57.5374 24.1104 18.8399 315.766 103.992 211.773
internal_count=268644 110624 158020 149704 123266 94896 87515 104320 78017 27132 19653 50885 32368 28370 25142 3228 8316 26438 8481 4406 17957 7479 12748 18517 26303 10030 4688 16273 5209 7381 3168 5342 2862 2179 5148 1078 6304 3272 15195 732 4416 4278 2586 4075 686 538 605 306 683 164 138 2422 289 3032 198 148 164 127 2834 823 2011
is_linear=0
shrinkage=0.1


Tree=11
num_leaves=53
num_cat=0
split_feature=52 109 106 31 91 36 129 130 135 102 69 105 31 69 29 101 20 4 128 134 108 101 129 117 128 28 103 31 57 69 24 69 100 85 78 69 101 135 69 31 0 116 40 103 48 42 53 70 75 123 32 5
split_gain=1221.57 845.797 844.808 721 634.606 551.917 414.84 394.609 387.938 367.604 365.195 568.604 361.064 351.686 344.858 420.047 547.616 349.307 332.349 288.609 286.561 270.313 234.926 225.524 196.067 187.942 180.664 144.062 142.058 210.686 132.122 123.195 208.788 115.754 148.798 109.198 100.438 111.178 90.6098 87.0113 63.7692 47.9321 42.6637 40.2058 25.9374 14.9471 12.9507 11.0003 5.53203 1.60429 1.2791 0.486815
threshold=1.0668907761573794 -0.9328208565711974 -0.90157440304756153 0.99655345082283031 -1.2704799771308897 0.92455148696899425 1.0000000180025095e-35 1.0000000180025095e-35 1.0000000180025095e-35 -0.79494094848632801 1.0000000180025095e-35 -0.85050213336944569 1.0026395916938784 -0.061937531456351273 1.2416519522666933 -0.93530669808387745 1.4849979281425478 0.71105489134788524 1.0000000180025095e-35 1.0000000180025095e-35 -0.93248146772384632 -0.77461633086204518 1.0000000180025095e-35 -1.5653417706489561 1.0000000180025095e-35 1.1297569870948794 -0.7827959656715392 0.99556016921997081 0.96681791543960582 0.0063610090874135503 1.2635877132415774 1.0000000180025095e-35 -0.772322118282318 -0.58904668688774098 -0.66061854362487782 -0.091841038316488252 -0.95826962590217579 1.0000000180025095e-35 -0.1358079984784126 1.0037553906440737 0.43696723878383642 -0.87889009714126576 1.0673639178276064 -0.80688270926475514 1.0922684669494631 1.1230821609497073 1.0380771160125735 -0.23717435449361798 -1.0719237327575681 -1.0022413730621336 0.83527508378028881 0.90650767087936412
decision_type=2 2 2 2 2 2 2 2 2 2 2 2 2 2 2 2 2 2 2 2 2 2 2 2 2 2 2 2 2 2 2 2 2 2 2 2 2 2 2 2 2 2 2 2 2 2 2 2 2 2 2 2
left_child=4 2 8 24 46 7 14 18 10 12 11 -2 35 25 15 17 -17 -6 -4 -14 22 -15 -7 -12 28 -11 -22 -9 38 -30 43 32 -26 34 -10 -5 37 -16 -3 40 -32 -41 -33 44 -8 -35 49 -45 -38 -1 51 -51
right_child=1 3 5 9 6 20 30 27 33 13 23 -13 19 21 36 16 -18 -19 -20 -21 26 -23 -24 -25 31 -27 -28 -29 29 -31 39 42 -34 45 -36 -37 48 -39 -40 41 -42 -43 -44 47 -46 -47 -48 -49 -50 50 -52 -53
leaf_value=-0.19784857301684336 0.030949358568613323 0.06072578761596073 -0.039414253379602575 0.049958335297856121 0.068441986167683891 -0.017372815436754625 -0.10681194124652736 0.096918691375369501 0.092506355564514336 -0.080270474738065617 -0.0032139149516849357 -0.080076111570882763 0.018240159945970356 0.05201717932036868 -0.10837554467260509 0.012339179968812994 -0.034248030798884915 0.013566764349935471 0.11490153744204212 0.10339814975131073 0.058481052040641759 -0.030680864156568833 0.10894813283564271 0.086282791927951671 0.048987412827089537 -0.0065385445088143286 0.0014378469920880367 -0.015623818054536984 -0.012931035944883632 0.09234183457830869 0.031170027811076084 0.12313963930758452 -0.024911974043540383 0.22195051353552608 -0.23390478370916298 0.078932341774227588 -0.13299888095079809 0.082173592824369313 0.083736552081829438 0.045102028450477324 0.093903833371508982 -0.061205786785999139 0.062262532716924612 -0.085401316804367175 0.044294814411521576 0.13498402172729576 0.10543947442035224 -0.18849919536239812 -0.10210402177337147 -0.13806708018007105 -0.038608682708283965 -0.11297957019362373
leaf_weight=2.2434229254722586 7471.7993165105581 2426.0233229845762 4204.309634424746 4246.3793561905622 2270.4733855128288 1741.5857952907681 15.312899783253668 336.18769471347332 893.01459464430809 495.51930168271065 337.27838028967381 491.63135685026646 5574.9796537011862 1669.3743537515402 55.427286699414253 27939.686225011945 2773.6253342032433 2371.6953311935067 144.35596457123756 428.5719221830368 2100.7096472531557 517.8681884855032 160.81921777129173 1704.5468044131994 2805.0511117428541 1143.4928214251995 754.68059542775154 171.89867995679379 443.39798188209534 332.79898765683174 197.78649187088013 241.59003312885761 442.64856839179993 76.103557527065277 14.187676250934599 1875.1566344052553 79.015852123498917 68.414070904254913 5808.1688584238291 749.67255498468876 896.41047689318657 44.956070572137833 219.90807537734509 32.921421855688095 43.999278485774994 26.695467069745064 2.7194923758506766 15.094230145215986 217.47522316873074 7.8913054615259162 2.2951162680983535 389.98746475577354
leaf_count=9 21541 6105 17939 11279 6093 5619 54 920 2291 1805 986 1764 16730 4261 234 91600 10897 8106 378 1032 5543 1578 360 3959 7178 3732 2264 590 1329 749 543 500 1308 142 58 4465 401 210 13707 2087 2116 159 531 122 118 56 6 59 1178 41 18 3894
internal_value=0 0.0362668 0.0208257 0.0473773 0.0124393 -0.000834601 0.0137746 -0.0245485 0.0397316 0.0332166 0.0337691 0.0240951 0.0417444 0.00619278 0.0112991 0.0123696 0.00813203 0.0404061 -0.0342917 0.0243193 0.0233725 0.032437 -0.00669431 0.0714993 0.0651359 -0.0288298 0.0434045 0.0588427 0.0731018 0.0322053 0.0581409 0.0457852 0.0389152 0.0987975 0.0874016 0.0588337 -0.0787454 -0.00310988 0.0769569 0.0642736 0.0825641 0.0390877 0.0941311 -0.0497862 0.00528288 0.199367 -0.112051 -0.117811 -0.110338 -0.113521 -0.113048 -0.113477
internal_weight=0 49300.7 20629.8 28670.9 38177.1 9614.55 37772 4856.75 11015.3 15951.3 10005.3 7963.43 12125.1 3826.25 35775.8 35355.5 30713.3 4642.17 4348.67 6003.55 4757.8 2187.24 1902.41 2041.83 12719.6 1639.01 2855.39 508.086 9010.39 776.197 1996.15 3709.2 3247.7 1010 907.202 6121.54 420.332 123.841 8234.19 1888.83 1094.2 794.629 461.498 107.328 59.3122 102.799 405.137 48.0157 296.491 402.417 400.174 397.879
internal_count=268644 140699 64410 76289 127945 33613 123977 19827 30797 44882 28250 23305 33506 11376 118719 116696 102497 14199 18317 17762 13786 5839 5979 4945 31407 5537 7807 1510 21890 2078 5258 9517 8486 2547 2349 15744 2023 444 19812 4905 2659 2246 1031 353 172 198 3968 181 1579 3962 3953 3935
is_linear=0
shrinkage=0.1


Tree=12
num_leaves=63
num_cat=0
split_feature=70 102 104 52 101 70 136 79 32 133 31 74 102 69 103 102 71 32 102 31 135 29 136 134 134 71 111 30 134 124 69 33 3 37 118 128 0 44 58 38 123 71 31 26 113 119 104 66 54 72 69 116 70 63 53 70 115 90 2 83 57 45
split_gain=1077.55 766.969 695.794 640.658 557.456 692.271 524.215 423.44 393.094 382.606 650.239 486.065 368.888 521.976 457.276 381.467 591.266 350.191 349.309 316.765 314.503 284.291 307.537 274.548 199.998 208.821 213.372 169.235 161.878 236.761 178.694 272.975 146.423 171.926 126.953 108.156 103.87 97.2474 78.1989 139.922 70.7978 137.421 62.1555 47.4858 47.3406 46.3753 39.2389 37.3168 36.2254 32.9141 28.4051 24.2136 20.1971 17.0611 15.7264 15.4272 14.3134 13.0553 28.4277 8.48463 25.9513 0.771711
threshold=-0.27788467705249781 -0.82077419757843006 -0.72135061025619496 1.0288016796112063 -0.87167590856552113 -0.31918355822563166 1.0000000180025095e-35 -1.2636812925338743 0.95640620589256298 1.0000000180025095e-35 1.0026395916938784 -0.94700556993484486 -0.80764785408973683 -0.066455882042646394 -0.78641909360885609 -0.68731147050857533 -0.2648137211799621 0.96728295087814342 -0.84760698676109303 1.0009298324584963 1.0000000180025095e-35 1.1324884295463564 1.0000000180025095e-35 1.0000000180025095e-35 1.0000000180025095e-35 -0.47486948966979975 -1.1790929436683653 1.0980826020240786 1.0000000180025095e-35 -1.565167963504791 -0.092908762395381914 0.92515408992767345 0.46752113103866583 0.93786150217056286 -0.93537116050720204 1.0000000180025095e-35 0.34963293373584753 1.063445031642914 0.84175953269004833 0.95658960938453685 -2.2468916177749629 -0.20781403034925458 0.87286093831062328 1.2428782582283022 -0.99625802040100087 -1.1217443943023679 -0.85565832257270802 0.4470545500516892 1.0201309919357302 -0.65006139874458302 -0.12642862647771833 -1.5328518748283384 -0.078382886946201311 0.48665791749954229 1.1702052950859072 -0.11847592517733573 -1.4583150148391721 -0.13529044389724729 -0.13313987106084821 -0.23967345803976056 0.99677717685699474 1.2314450740814211
decision_type=2 2 2 2 2 2 2 2 2 2 2 2 2 2 2 2 2 2 2 2 2 2 2 2 2 2 2 2 2 2 2 2 2 2 2 2 2 2 2 2 2 2 2 2 2 2 2 2 2 2 2 2 2 2 2 2 2 2 2 2 2 2
left_child=1 3 12 7 23 18 -7 21 24 11 -11 -9 28 14 19 17 -17 -15 -6 -14 -16 35 -23 27 25 34 -27 -5 30 36 31 -2 45 -34 -3 -1 -30 -32 39 50 56 42 54 -41 -31 -26 -25 52 53 -50 -10 -49 -43 -40 -42 -44 57 58 -4 60 -58 -61
right_child=2 8 40 4 5 6 -8 9 38 10 -12 -13 13 15 20 16 -18 -19 -20 -21 -22 22 -24 46 32 26 -28 -29 29 44 37 -33 33 -35 -36 -37 -38 -39 48 43 41 47 55 -45 -46 -47 -48 51 49 -51 -52 -53 -54 -55 -56 -57 59 -59 -60 61 -62 -63
leaf_value=-0.086047744254772685 0.068108522700247032 -0.052862523055043201 0.078665105577896577 0.051517953429210443 0.01392857402998404 0.046447156123001175 -0.017902730591205215 0.010437862648128706 -0.10397385018620837 -0.043890608406778657 0.070163851614416656 0.06030464155978571 0.038846592607544334 0.060672043935536796 -0.026848063985031548 -0.054186543305997738 0.038367957591002172 0.019527638174836832 -0.032066106272760041 -0.009042163668950309 0.12229138946027476 0.0065380965112830638 -0.057713025202356855 -0.10889461713540594 -0.1038884268257888 -0.048190220830853059 0.03136624933962523 -0.097972456094511925 0.052423835836774658 0.086782703458894522 -0.14022387457575328 0.021833142122832938 -0.033864070428967046 0.11118175092092371 0.015840527588705251 0.035280187951380472 -0.11868925103914502 0.072920893618037136 0.029648540220546443 -0.078223746915004791 -0.093567798580844866 0.059957007762263939 -0.00065851630819399555 0.060469916490946019 0.13317336674866093 0.048421562477797137 0.0015595095618022585 -0.11346930484421325 -0.014788383186639338 -0.088363201687700094 0.03453490517345334 0.073718938660079822 -0.077217513291157017 -0.15464187068781926 -0.0055121041818965598 0.12554701287918488 -0.11091136007045621 -0.11740586768976341 -0.11071796407127532 -0.11076330085146141 0.035266716401652479 -0.07197581991300453
leaf_weight=753.90505740046501 2113.0606341511011 812.92910392582417 18.001825474202629 9280.0109816491604 3612.6679512411356 7432.9978305697441 1525.8079969137907 8664.025008186698 169.86179912090302 2284.5612185001373 639.86148439347744 2524.1209477037191 5988.2688312530518 9927.4613761007786 2698.2835765779018 914.52710561454296 2814.1166927963495 2613.1508183479309 3041.1526418924332 1795.3538421094418 149.2161732763052 2903.3520650193095 1002.0887212157249 121.63580094277859 340.0031317025423 394.64785097539425 2312.7690760344267 76.352164074778557 76.908911690115929 400.84237077832222 21.570187725126743 3213.1265792101622 871.15260329842567 90.179908856749535 401.94836267828941 81.407216601073742 65.847968727350235 2806.3149269521236 5.2992829382419577 30.284543931484222 266.84215577691793 15.316598176956175 29.42280325293541 133.53440651297569 487.512042298913 21.239590331912041 43.724271789193153 7.2965424060821524 67.445146009325981 617.37292058765888 16.21997743844986 130.57217314094305 35.871515139937401 96.50589793920517 21.950606510043144 14.43875992298126 39.849237740039825 15.111698806285856 14.16121092438698 203.89866922050714 17.4690036252141 5.2618325203657141
leaf_count=4835 5333 3770 104 24675 11162 20603 4841 30114 775 8576 1873 7769 16414 24664 9102 3145 7926 7124 10896 5724 365 9817 3711 505 1697 1440 7251 324 200 940 112 8985 3380 236 1503 397 241 6702 21 128 2350 55 116 450 1021 73 154 28 243 2661 48 392 162 427 123 33 351 141 96 2176 119 45
internal_value=0 0.0138184 0.036308 0.0185184 0.0289706 0.0173403 0.0354875 0.004584 -0.0185794 0.01327 -0.0189356 0.0216881 0.0383968 0.0324887 0.0152565 0.0437491 0.015667 0.0520986 -0.00709346 0.0278007 -0.0190328 -0.0212732 -0.00994796 0.0480406 -0.00702592 0.00431337 0.0197697 0.050298 0.0556996 0.0930319 0.0509788 0.040192 -0.0406543 -0.0202577 -0.0301318 -0.0742235 -0.0265037 0.0712951 -0.0718967 -0.0325669 -0.0539127 -0.0313379 -0.070029 0.0348302 0.112241 -0.0949332 -0.0796885 0.036741 -0.0893912 -0.0811171 -0.0919006 0.0638122 -0.0361719 -0.145049 -0.0868748 0.040887 -0.0914503 -0.0407403 -0.00471924 -0.100447 -0.0663604 -0.109788
internal_weight=0 50369.1 36921 43987.7 25134.3 15612.6 8958.81 18853.3 6381.39 14112.6 2924.42 11188.1 36085.6 26900.4 10631.1 16269.3 3728.64 12540.6 6653.82 7783.62 2847.5 4740.75 3905.44 9521.72 5244.87 3922.29 2707.42 9356.36 9185.18 1031.11 8154.07 5326.19 1322.58 961.333 1214.88 835.312 142.757 2827.89 1136.52 349.901 835.465 521.711 332.654 163.819 888.354 361.243 165.36 189.057 786.623 684.818 186.082 137.869 51.1881 101.805 288.793 43.8616 313.753 47.2747 32.163 266.479 57.3182 209.161
internal_count=268644 164355 104289 140252 73160 47502 25444 67092 24103 48332 10449 37883 97998 74464 31605 42859 11071 31788 22058 22138 9467 18760 13528 25658 19350 13964 8691 24999 23534 2402 21132 14318 5386 3616 5273 5232 441 6814 4753 1401 6291 3259 2622 578 1961 1770 659 637 3352 2904 823 420 217 448 2473 149 3032 341 200 2691 470 2221
is_linear=0
shrinkage=0.1


Tree=13
num_leaves=63
num_cat=0
split_feature=70 102 51 103 102 70 69 103 32 69 29 102 70 31 69 136 70 135 104 134 69 28 116 60 70 69 104 7 30 27 69 101 72 57 132 73 63 118 4 59 68 28 103 132 71 56 56 70 121 40 121 51 122 36 118 135 70 28 120 19 52 64
split_gain=912.683 962.951 588.597 555.901 416.202 515.554 412.601 778.407 491.11 453.126 367.874 419.284 426.266 316.571 277.152 265.494 264.393 252.091 251.546 229.145 264.572 236.186 216.449 208.456 199.952 193.045 182.132 170.56 140.604 132.259 91.8482 193.331 91.2703 86.7202 84.0682 81.0358 75.598 75.4091 75.0401 73.8997 66.4395 133.856 65.0369 53.0392 52.7421 50.8864 50.5156 45.6475 92.287 45.2378 39.4731 39.2606 28.8394 26.0234 20.8075 51.6441 20.255 27.3963 20.1722 19.5914 12.8635 11.7019
threshold=-0.30003546178340906 -0.83959567546844471 1.0374317765235903 -0.68465185165405262 -0.88182336091995228 -0.35463012754917139 -0.0097362664528191072 -0.75103226304054249 0.96343043446540844 -0.063478339463472352 1.0973007678985598 -0.94670861959457386 -0.57239189743995655 1.0019896626472475 -0.028170141391456124 1.0000000180025095e-35 -0.11309681087732314 1.0000000180025095e-35 -0.70049732923507679 1.0000000180025095e-35 -0.19845150411128995 1.1721697449684145 -1.5328518748283384 0.81622380018234264 -0.40933036804199213 0.013507175259292127 -0.7914271056652068 0.12228959053754808 1.1010890603065493 1.1331744194030764 -0.16496387869119641 -0.8336135447025298 -0.62015742063522328 0.75874939560890209 1.0000000180025095e-35 -0.7892421782016753 0.4640625417232514 -1.6110262870788572 0.25367884337902075 0.83171465992927562 -0.025482233613729473 1.1767103075981142 -1.0489354133605955 1.0000000180025095e-35 -0.4353156834840774 0.99755382537841808 0.86769920587539684 -0.056862765923142426 -1.8764572143554685 1.0565786957740786 -1.8510087728500364 1.1572164297103884 -1.1856801509857176 0.90760824084281932 -1.4451306462287901 1.0000000180025095e-35 -0.11847592517733573 0.95298925042152416 -0.57886457443237294 1.1130362153053286 1.1748368144035342 0.38508082926273351
decision_type=2 2 2 2 2 2 2 2 2 2 2 2 2 2 2 2 2 2 2 2 2 2 2 2 2 2 2 2 2 2 2 2 2 2 2 2 2 2 2 2 2 2 2 2 2 2 2 2 2 2 2 2 2 2 2 2 2 2 2 2 2 2
left_child=1 2 10 6 28 24 7 8 9 -2 42 17 -13 19 -10 -7 43 -12 27 20 33 -22 45 39 -6 -25 38 37 34 -28 35 -32 40 -3 -4 -21 53 -18 -9 -24 46 -42 58 54 -44 49 -15 60 -49 -8 -47 -29 -30 -34 55 -5 -45 -58 -1 -56 -20 -38
right_child=3 13 4 16 5 15 22 26 14 -11 11 12 -14 32 -16 -17 18 -19 47 30 21 -23 23 25 -26 -27 29 51 52 -31 31 -33 36 -35 -36 -37 61 -39 -40 -41 41 -43 44 56 -46 50 -48 48 -50 -51 -52 -53 -54 -55 59 -57 57 -59 -60 -61 -62 -63
leaf_value=0.11674015485471839 0.033880512899145683 0.0097348586573540175 0.055042593232519393 -0.047593797868559572 -0.097573578670182085 0.041561561772327463 0.084650075652529563 0.028274092861145468 0.0063560335005395556 0.067815494860642839 0.027936099951174898 -0.07887931813796073 0.0041228323782746728 0.063150726485534103 0.062291050248821991 -0.004711571609038484 -0.0019950124658211893 0.11413804694873847 -0.10816236356078829 -0.10289665499152434 -0.018541433090920673 0.041347715390974843 -0.02184426045475284 -0.0095434437356760951 -0.004710622609288978 0.060079736664739453 -0.078257586695066772 -0.11323227335162066 0.085927048753394741 -0.017514285516716587 0.03492624858071261 -0.068518730906463113 0.0078243551390261446 -0.048180490335976073 -0.10732948539050396 0.036040700448561468 -0.010548250554692343 0.060757826554503597 -0.085156700027407425 0.085997764621546888 -0.077549252808457661 -0.0030075967715754875 -0.12022027928034118 -0.12473594602223084 0.21937448691441658 0.079977937343616995 -0.096554744732550893 -0.10221540394284807 0.08048796956311377 -0.16384452646074321 -0.14274683464897958 -0.023797808047782101 -0.13505056573285676 0.15123883565718954 -0.091883005522884545 0.22870042294595794 -0.12239886268302565 0.0091907173885552723 -0.070626661093743312 0.11177498126104911 -0.062972786968953934 -0.12806289192972425
leaf_weight=16.583665288984779 23278.463562220335 336.70028604567051 5482.7314555794001 19.903504155576229 247.72290372848511 7002.2610190808773 8.3693074584007245 535.03691637516022 7889.2336598187685 4735.2085662335157 1101.3073343485594 647.52551472187042 13913.845033064485 20.480325818061829 997.87373675405979 1506.7360824048519 281.16489440202713 490.28295095264912 187.37672933191061 374.58195075392723 1079.6076701357961 1688.2369274646044 65.187557935714722 561.32938106358051 3622.6754013746977 1370.7515859007835 761.29545519500971 84.328357733786106 6.7433924973011008 677.39549903571606 291.29105007648468 475.73789449036121 18.528162524104118 1113.8022879809141 32.073196828365326 47.278164356946945 14.338898763060568 600.44106090068817 65.457047268748283 2518.548081561923 649.75003302097321 382.84543651342392 293.90630486607552 260.27245235443115 4.6456532031297675 26.218644514679909 601.08283142745495 59.493047885596752 51.648449040949345 58.769042387604713 11.424586698412893 117.44667867571115 47.556622341275215 39.898335754871368 34.292530044913292 10.248612448573114 34.366425715386868 29.319622881710529 8.7925457656383497 5.4780339598655692 94.892266117036343 20.716059461236
leaf_count=40 65748 1299 14070 91 955 19896 21 1509 23378 11542 3433 3118 48015 74 2412 4796 947 1252 2014 1767 3744 5253 219 1603 11764 3356 2987 390 17 2145 860 2167 62 4859 122 172 49 2046 241 5801 2678 1335 2836 1465 9 64 2723 641 185 224 42 391 235 93 220 27 277 104 53 21 695 92
internal_value=0 0.0103519 0.0172896 0.0308553 0.029818 0.0196043 0.0331477 0.0297951 0.0331188 0.0396166 0.00364237 0.00575834 0.000431833 -0.0230289 0.0126366 0.0333677 -0.0225235 0.0544903 -0.003108 -0.0110706 -0.000141891 0.0179877 0.0614008 0.0646977 -0.0106543 0.039852 -0.0303492 0.0217623 0.0525216 -0.0496571 -0.049847 -0.0292339 -0.0600285 -0.0347368 0.0540983 -0.0873258 0.0361028 0.0407445 0.0159095 0.0832769 -0.0654612 -0.0499122 -0.101872 -0.0953188 -0.114936 -0.0806863 -0.0912925 -0.0715964 -0.0173115 -0.132868 0.0123818 -0.0611754 -0.107608 0.105759 -0.0163325 0.0463178 -0.112367 -0.061818 0.0518199 -0.063831 -0.0929707 -0.0799946
internal_weight=0 41580.3 34425.4 45431.2 17948.5 12379.4 43560.6 38940 36900.8 28013.7 16476.9 16153 14561.4 7154.88 8887.11 8509 1870.67 1591.59 1476.79 5407.24 4218.35 2767.84 4620.6 4515.82 3870.4 1932.08 2039.18 1083.38 5569.1 1438.69 1188.89 767.029 1747.64 1450.5 5514.8 421.86 93.4815 881.606 600.494 2583.74 1654.16 1032.6 323.928 393.881 298.552 104.782 621.563 393.41 111.141 67.1383 37.6432 201.775 54.3 58.4265 69.9227 30.1521 323.959 63.686 25.3762 39.7706 282.269 35.055
internal_count=268644 137838 110611 130806 51855 37411 121292 109962 103080 77290 58756 55818 51133 27227 25790 24692 9514 4685 7309 20121 15155 8997 11330 10979 12719 4959 6882 3774 14444 5132 4966 3027 7106 6158 14192 1939 296 2993 1750 6020 6810 4013 2938 2205 2845 351 2797 3535 826 245 106 781 252 155 359 118 1846 381 93 241 2709 141
is_linear=0
shrinkage=0.1


Tree=14
num_leaves=59
num_cat=0
split_feature=69 103 103 129 69 103 70 33 70 103 69 32 103 32 106 31 101 69 62 31 103 134 101 6 37 28 127 119 132 55 104 69 63 31 52 42 60 43 111 103 34 106 28 53 135 114 38 60 107 130 58 22 103 55 58 101 111 104
split_gain=776.252 605.565 538.149 488.952 421.232 622.682 438.719 396.627 362.813 325.763 728.502 375.269 310.639 301.48 291.294 271.792 263.719 434.085 259.057 221.653 210.251 163.76 139.297 138.027 190.714 131.309 128.914 132.536 127.26 124.448 123.038 121.261 343.706 273.076 135.215 102.778 90.1287 84.8482 81.023 80.6217 76.0127 73.8001 74.1952 69.1293 60.0392 82.7277 49.8547 99.843 49.5281 32.1408 31.6021 27.7497 23.7382 18.8862 18.2885 10.3859 7.22599 0.100054
threshold=-0.11280904337763785 -0.81270164251327504 -0.69154202938079823 1.0000000180025095e-35 -0.15049703419208524 -0.8423178195953368 -0.35325600206851954 0.92421972751617443 -0.11847592517733573 -0.79688280820846547 -0.043287361040711396 0.96502774953842174 -0.76675671339035023 0.95549562573432933 -0.89541730284690846 1.0006169676780703 -0.77056947350502003 -0.01541398325935006 0.59586831927299511 1.0037553906440737 -0.77666223049163807 1.0000000180025095e-35 -0.82186183333396901 0.53534498810768139 0.93786150217056286 1.1834804415702822 -3.1601504087448116 -1.6329920291900633 1.0000000180025095e-35 1.0678833127021792 -0.70049732923507679 -0.081240553408861146 0.53398001194000255 0.99806299805641185 1.0679801702499392 1.1531545519828799 0.75131916999816906 1.0764993429183962 -1.2314925789833067 -0.83108586072921742 0.94834560155868541 -0.95485976338386525 1.1541683077812197 1.0623629689216616 1.0000000180025095e-35 -1.2711551189422605 0.96071410179138195 0.72408425807952892 -0.95689216256141651 1.0000000180025095e-35 0.88128417730331432 1.2357573509216311 -0.8024143874645232 1.0949703454971316 0.85388699173927318 -0.82378458976745594 -1.1901566386222837 -0.71206584572792042
decision_type=2 2 2 2 2 2 2 2 2 2 2 2 2 2 2 2 2 2 2 2 2 2 2 2 2 2 2 2 2 2 2 2 2 2 2 2 2 2 2 2 2 2 2 2 2 2 2 2 2 2 2 2 2 2 2 2 2 2
left_child=1 3 9 4 5 6 -1 22 44 31 11 12 -11 21 26 -7 37 -18 -9 41 -13 25 -6 54 -25 28 35 -28 -3 48 -31 32 34 -34 -2 -10 39 -12 50 -21 46 56 -43 -40 51 -46 49 -48 -16 -15 -33 53 -27 -4 -23 -38 -5 -47
right_child=2 13 8 19 7 15 -8 18 14 10 16 20 -14 40 29 -17 17 -19 -20 36 -22 23 -24 24 -26 52 27 -29 -30 30 -32 38 33 -35 -36 -37 55 -39 43 -41 -42 42 -44 -45 45 57 47 -49 -50 -51 -52 -53 -54 -55 -56 -57 -58 -59
leaf_value=0.0055383771907023876 0.0172898313420384 0.016942358221410662 -0.12014747591082986 0.23442283093105254 0.056037862642671021 -0.0038329119955893007 0.032242592675610283 0.013615666517860951 0.081434292604518566 0.02651661172598424 -0.11171296634726416 -0.014288726280438816 -0.023975480298111744 -0.11160698750713718 -0.036606419386736332 -0.048779788581519233 0.0037814195495907269 0.055579481901558675 -0.072104328614517224 0.034517220408334756 -0.0936709693807838 -0.030455487398754873 0.0230140917178847 -0.055045069549303396 0.087982219062361811 -0.035163828307718463 -0.13649294779153484 0.10889104282285207 -0.064704567369098909 0.04540106178938294 -0.049273056816258987 0.1068015536382011 0.036643965495009194 -0.033466486991540624 0.06106172659351003 -0.14416412986058355 -0.15293572706483366 0.077890614133614533 0.030402378322004153 -0.030909950647613163 0.30016953370076255 0.023460771398602864 0.074049025605974081 0.072370067218580067 0.22235358376161363 -0.14313077531707938 0.029919381765102632 -0.072148061012238016 -0.097211334088513401 -0.049753454952300324 -0.054093732015880192 0.12363297861538117 -0.097593210952647405 -0.024659858347924106 -0.12313100859739096 -0.00017461378567938522 0.14877834686133937 -0.12441515107963737
leaf_weight=22908.584101364017 826.43937218934298 2205.0583699420094 356.34899166226387 11.325785547494887 4275.1542274206877 3007.6975921392441 8410.9184656441212 3000.2933125644922 550.80930591374636 6299.8058692961931 23.849002860486507 1334.4768740236759 1510.6247014626861 342.78630232810974 321.30156537145376 2434.1825638413429 2527.9447623938322 4494.119854927063 399.50318540632725 979.89439883828163 444.87982642650604 23.689539685845375 1821.491399154067 393.94327141344547 122.12994657456875 118.93009915947914 63.486781477928162 33.692492291331291 208.99643632769585 320.11531218886375 240.32445251941681 14.496374800801275 1409.31577681005 917.03311309218407 4831.3610284775496 20.962823569774628 33.729002147912979 2279.2569004744291 455.66098061203957 233.14829798042774 5.5394932031631461 344.81672570854425 1820.9906113669276 2831.2359442859888 13.140148341655733 4.1035335212945929 118.04905308783054 509.40198843181133 232.36558640748262 111.28208839893341 77.318212330341339 4.9535178691148749 124.84283031523228 21.991683483123779 210.53587764501572 5.1271308362483969 75.676336124539375 9.3991477116942388
leaf_count=77382 2327 7592 1979 21 11272 10911 24808 8953 1342 17736 211 4204 5290 1425 1457 9535 7160 11167 1395 2737 1635 102 5360 1585 335 546 235 75 743 1153 1959 32 3706 2845 12147 76 135 5343 1212 786 11 981 4430 6793 31 20 413 2152 2070 424 239 16 689 91 1141 16 151 62
internal_value=0 0.0116881 0.0312363 0.0148634 0.0121349 0.00728479 0.0127099 0.0309101 -0.016599 0.0347009 0.0266614 0.00730895 0.0167509 -0.023462 0.00290387 -0.0239379 0.0465631 0.0369322 0.00354288 0.0508755 -0.0341361 -0.00883604 0.0461714 -0.0500925 -0.0211973 0.00281057 0.0550653 -0.0514172 0.00987379 -0.0284158 0.00480347 0.0480838 0.0413636 0.00900684 0.0546679 0.0731632 0.0171399 0.0759272 0.0639639 0.021942 -0.069317 0.0696225 0.0659949 0.0665521 -0.101429 0.0437274 -0.0712095 -0.052945 -0.0620414 -0.0964481 -0.0286904 -0.111518 -0.0671356 -0.114597 -0.113758 -0.132779 0.159927 -0.130103
internal_weight=0 54257.7 32470.8 49762.5 46257.8 36761.4 31319.5 9496.44 2193 30277.8 18915 9589.79 7810.43 4495.19 1783.06 5441.88 9325.17 7022.06 3399.8 3504.71 1779.36 3408.13 6096.65 750.299 516.073 2657.83 668.951 97.1793 2414.05 1114.11 560.44 11362.9 7984.15 2326.35 5657.8 571.772 1251.9 2303.11 3378.71 1213.04 1087.06 2252.81 2165.81 3286.9 409.937 26.6428 1081.52 627.451 553.667 454.068 91.8146 383.294 243.773 378.341 234.225 38.8561 87.0021 13.5027
internal_count=268644 176031 92613 158873 149616 122636 102190 26980 10566 82047 52746 28865 23026 17158 8367 20446 23881 18327 10348 9257 5839 12733 16632 3163 1920 9570 1728 310 8335 6639 3112 29301 21025 6551 14474 1418 3674 5554 8276 3523 4425 5583 5411 8005 2199 113 4414 2565 3527 1849 271 2086 1235 2070 1243 151 172 82
is_linear=0
shrinkage=0.1


Tree=15
num_leaves=54
num_cat=0
split_feature=53 91 134 34 31 91 104 84 101 135 71 72 133 136 102 113 69 31 30 100 134 128 68 104 129 69 38 135 5 38 120 30 71 118 108 69 102 58 69 39 69 103 102 103 34 77 71 53 53 36 5 70 109
split_gain=671.111 580.28 501.135 737.651 476.868 466.009 378.855 366.2 337.242 594.103 617.15 570.516 351.044 379.238 350.436 311.244 256.798 256.08 235.864 272.812 330.862 195.106 192.502 195.141 183.975 180.63 177.294 173.307 138.636 191.007 134.965 127.5 124.014 123.253 111.342 83.4542 156.987 82.5972 177.446 80.9442 78.5449 73.6751 55.5899 47.4202 44.5761 34.5289 33.3777 11.7236 5.07806 0.920981 0.263187 0.0491805 0.0406824
threshold=1.0488691926002505 -1.0177268385887144 1.0000000180025095e-35 0.91299480199813854 0.99669039249420177 -1.2704799771308897 -0.74703487753868092 -1.0943887829780576 -0.85773926973342884 1.0000000180025095e-35 -0.47845192253589625 -0.65454903244972218 1.0000000180025095e-35 1.0000000180025095e-35 -0.8242180049419402 -1.1357624530792234 -0.27909578382968897 0.99294060468673717 1.074058532714844 -0.84244239330291737 1.0000000180025095e-35 1.0000000180025095e-35 0.1732810437679291 -0.70049732923507679 1.0000000180025095e-35 -0.10145327448844908 0.97241437435150158 1.0000000180025095e-35 0.45657692849636083 0.96370765566825878 -1.0493197441101072 1.0833993554115298 -0.53444406390190113 -0.93537116050720204 -1.0163410902023313 -0.01541398325935006 -0.76019123196601857 0.91433510184288036 -0.0066354526206850997 1.0393919348716738 -0.1358079984784126 -0.89350637793540943 -0.77913072705268849 -0.88523507118225087 0.78216722607612621 -0.97212308645248402 -0.20781403034925458 1.0534563064575198 1.0269091725349428 0.78410300612449657 0.90650767087936412 -0.31815643608570093 -0.51753050088882435
decision_type=2 2 2 2 2 2 2 2 2 2 2 2 2 2 2 2 2 2 2 2 2 2 2 2 2 2 2 2 2 2 2 2 2 2 2 2 2 2 2 2 2 2 2 2 2 2 2 2 2 2 2 2 2
left_child=5 4 6 28 21 48 17 26 11 10 33 12 13 -7 -12 45 -14 24 19 25 -21 37 44 -24 -3 -6 -5 -19 46 -30 43 34 -17 -10 -13 36 -23 40 -39 -37 -2 -33 -9 -20 -8 -11 -4 -32 49 50 52 -52 -1
right_child=1 2 3 7 18 8 22 42 9 15 14 31 16 -15 -16 32 -18 27 30 20 -22 35 23 -25 -26 -27 -28 -29 29 -31 47 41 -34 -35 -36 39 -38 38 -40 -41 -42 -43 -44 -45 -46 -47 -48 -49 -50 -51 51 -53 -54
leaf_value=-0.13827138709784251 0.047464112747466848 0.027229668489671788 -0.1350558916599133 -0.059851751038382028 0.032411788867206144 0.018704796431367746 0.1071867696634513 -0.023377194970247692 -0.046778180631788166 -0.0184082649054426 0.025658228086233227 0.0051788533190189785 -0.059821367005454699 -0.020045712288491512 -0.014039083982673298 -0.085073862169053618 0.018711312323366421 -0.0075902679078683607 0.10826263967312927 0.0064470053861902243 0.06265237397220845 0.032619883839794063 0.021394397550188893 -0.067072137702596388 0.077556523415821102 0.074837770591549765 0.081218476771979894 0.10065532712322696 -0.10427731337401952 -0.018442780029887095 -0.070017893443506243 0.15467763185975109 0.044571024043797071 0.004126324518335534 0.057602229648884951 0.086747080771337304 -0.036862077009284303 -0.023564129403190179 0.072104130788742185 0.016373185565679575 0.070191991883495078 0.03538838093415022 -0.11451939707508962 -0.040533498064694279 -0.084153429670271951 0.14461505909738956 0.14633295142030042 -0.17063311869584774 0.0082857033923834141 -0.18407235559358087 -0.10932331090162012 -0.11182711965480185 -0.12263178962781129
leaf_weight=3.343014270067215 2219.945611551404 10915.543388336897 350.65468080341816 101.33872966468334 4236.385615259409 19315.084450908005 12.496603228151796 130.41806747764349 3726.7580486834049 13.436446934938429 4481.8769385516644 484.04897029697895 1176.6526931077242 2905.4580441340804 4413.6667078733444 88.568314388394356 644.42372426390648 2877.75857450068 28.963437810540199 7619.4374543875456 1214.2570038884878 2289.6902666091919 846.5126069188118 353.44609849900007 778.15591594576836 1315.0243183225393 737.00781273841858 155.9234924018383 494.6079446002841 544.83555240929127 13.176853597164152 189.16323885321617 442.013765797019 545.23398706316948 2485.4110306352377 453.00257624685764 379.00073501467705 354.31083951890469 428.17651119828224 255.69540913403034 4826.3455391377211 71.286029875278473 137.44679006934166 82.214821517467499 473.96831938624382 392.96628411114216 4.2667343318462363 95.599761128425598 3.5964464843273154 1.724667727947234 183.19569223374128 137.20424189418554 3.3101234063506118
leaf_count=17 5689 31098 1650 350 11765 61867 55 477 14942 49 13003 1535 4593 9670 14832 389 1989 8700 66 22606 3142 6047 3029 3542 1868 3142 1834 366 2170 1943 52 441 1384 1956 6780 1050 1151 1048 1030 692 11744 209 573 274 2570 897 9 408 10 7 2373 1538 23
internal_value=0 0.025674 0.012368 -0.0293349 0.0354247 0.00804008 0.0187212 0.0316433 0.00898746 -0.00356625 -0.00904102 0.0154801 0.0101787 0.013638 0.00596177 0.0733712 -0.032031 0.0238623 0.0235185 0.0250899 0.0141729 0.050942 -0.0261751 -0.00466329 0.0305787 0.0424617 0.064166 -0.00202672 -0.0777116 -0.0592862 -0.0792522 0.0549409 0.0229298 -0.0402812 0.0490567 0.0308528 0.0227522 0.0596086 0.0287855 0.0613565 0.0630315 0.122028 -0.0701441 -0.00177009 -0.0792382 0.139225 -0.131673 -0.158445 -0.109896 -0.111189 -0.110804 -0.110396 -0.13049
internal_weight=0 44725.6 18914.4 2500.58 25811.2 41708.4 16413.8 1106.21 41376 14104.5 13167.5 27271.5 24041.6 22220.5 8895.54 936.985 1821.08 14727.4 14605.1 14385.1 8833.69 11206.2 1686.42 1199.96 11693.7 5551.41 838.347 3033.68 1394.36 1039.44 219.955 3229.91 530.582 4271.99 2969.46 3377.39 2668.69 7828.78 782.487 708.698 7046.29 260.449 267.865 111.178 486.465 406.403 354.921 108.777 332.374 328.778 327.053 320.4 6.65314
internal_count=268644 130140 60234 9006 69906 138504 51228 3234 134536 47452 44733 87084 78119 71537 27835 2719 6582 42032 41455 40655 25748 28451 9196 6571 32966 14907 2184 9066 5772 4113 800 8965 1773 16898 8315 8940 7198 19511 2078 1742 17433 650 1050 340 2625 946 1659 460 3968 3958 3951 3911 40
is_linear=0
shrinkage=0.1


Tree=16
num_leaves=63
num_cat=0
split_feature=69 103 69 134 30 103 103 70 69 103 32 106 130 70 32 68 100 32 134 134 136 31 15 135 42 136 27 134 97 134 54 56 32 3 56 31 112 99 70 103 63 102 114 102 51 72 135 114 109 36 38 130 28 7 127 44 73 99 103 57 70 47
split_gain=589.807 544.24 452.794 537.422 378.999 425.924 356.808 446.16 341.728 599.576 341.139 336.715 286.599 277.857 277.578 249.282 239.823 235.33 257.461 205.421 185.944 345.095 244.522 192.085 152.935 141.81 140.446 136.62 184.816 136.062 124.294 122.776 117.72 115.795 115.688 115.023 152.15 114.413 217.064 145.686 105.183 97.5371 91.9279 85.56 85.4278 77.4465 67.6865 97.3633 64.6932 73.9635 61.5837 61.4551 61.2381 59.8638 58.1526 56.0278 52.9278 41.1199 35.4714 32.3277 24.2125 5.19529
threshold=-0.13295923918485639 -0.83499971032142628 -0.17875119298696515 1.0000000180025095e-35 1.0993593931198122 -0.90979883074760426 -0.71098408102989186 -0.1293903514742851 -0.025776274502277371 -0.76675671339035023 0.96215742826461803 -0.89780282974243153 1.0000000180025095e-35 -0.24413590133190152 0.95711666345596325 -0.019976036623120304 -0.84098598361015309 0.96483132243156444 1.0000000180025095e-35 1.0000000180025095e-35 1.0000000180025095e-35 0.99921149015426647 0.97197583317756664 1.0000000180025095e-35 1.1308130621910097 1.0000000180025095e-35 1.3948172926902773 1.0000000180025095e-35 -0.91123649477958668 1.0000000180025095e-35 1.1202214360237124 0.99755382537841808 0.9565897285938264 0.048123538494110114 0.90814980864524852 1.0055356621742251 -0.9244667887687682 -0.78572621941566456 -0.15760958194732663 -0.74885526299476612 0.48360157012939459 -0.86379110813140858 -1.4310144186019895 -0.60194221138954151 1.1557504534721377 -0.74390658736228932 1.0000000180025095e-35 -1.2711551189422605 -0.85110491514205922 0.9169127643108369 1.0151857137680056 1.0000000180025095e-35 1.1035744547843935 0.64622405171394359 -1.9676750302314756 1.0969489812850954 -0.7805141508579253 -0.86258977651596058 -0.70484894514083851 0.99677717685699474 -0.14945910871028897 1.21772176027298
decision_type=2 2 2 2 2 2 2 2 2 2 2 2 2 2 2 2 2 2 2 2 2 2 2 2 2 2 2 2 2 2 2 2 2 2 2 2 2 2 2 2 2 2 2 2 2 2 2 2 2 2 2 2 2 2 2 2 2 2 2 2 2 2
left_child=1 2 3 4 5 -1 8 46 9 10 12 24 -2 -12 15 19 25 18 -11 40 22 57 23 -4 33 -17 -6 48 34 -18 44 -26 -24 -9 -29 45 -37 50 39 -39 -3 -23 -40 -32 -13 -5 58 61 49 -16 55 -50 -19 -30 -52 -10 -21 -22 60 -60 -8 -48
right_child=6 14 20 35 26 -7 7 11 37 17 13 30 -14 -15 27 16 29 52 -20 56 21 41 32 -25 31 -27 -28 28 53 -31 43 -33 -34 -35 -36 36 -38 38 42 -41 -42 -43 -44 -45 -46 -47 47 -49 51 -51 54 -53 -54 -55 -56 -57 -58 -59 59 -61 -62 -63
leaf_value=0.03371333649303173 0.029979194483156064 -0.0068373323850056192 -0.018242794052330636 -0.11581796568039833 -0.0083612176328784326 0.0056457043690896673 -0.092850973024485348 0.11696644630659013 -0.16259422862639372 0.0018653331336392041 -0.0097542677661777624 -0.116210241034057 0.063199043525213716 0.026355558540773462 -0.10577065445196772 0.048789205566080802 0.0085514202206204686 -0.17546852419803791 -0.12609853585086281 -0.083618915918480238 0.062696363790625251 0.021985486098954204 0.060470170071063527 0.11090980774917619 -0.10507699124299555 -0.040148209801387467 -0.072236983260103013 -0.099516788443550969 -0.016821861255001975 -0.042609849036590493 0.12661676561943294 0.030107506963220051 0.026803345169101135 0.017863316510832943 0.1757353791331947 -0.03095404943887451 0.19372593089659779 0.034305698884233259 -0.064669680964014167 -0.03649498813282661 -0.070800323187612396 -0.049161493951092275 0.060460674234887685 -0.0016778702980269279 -0.029842283900839647 -0.046996628810361603 0.24592589368043383 -0.12052952024208868 -0.06276403912953897 -0.050149423112588576 0.061707440397944291 0.086556624745641991 -0.068517399568049642 -0.11750266271909632 -0.050851098396584082 0.079280384171044216 0.048434159581097064 0.18973445154187193 -0.12008424665428204 -0.035548945469981476 -0.0058896236323145498 0.14072390586934949
leaf_weight=7427.0163187906146 15893.94055609405 2173.6186659857631 911.78243915736675 185.87455375492573 684.36000555753708 19873.978402093053 64.207982275635004 378.53533106297255 9.635640583932398 2397.7610462978482 3601.8317682445049 130.44859340786934 3104.2722312659025 5218.0815027207136 539.93186397850513 1510.6808616295457 1306.1051804572344 60.997438058257103 168.26443575322628 627.68885959684849 496.62038850039244 259.43000979721546 3742.3938987106085 131.80255450308323 74.458677142858505 203.42464946210384 692.57381811738014 19.250615566968918 244.36549504846334 863.48688631504774 76.483421444892883 687.54091670364141 1437.5421770364046 171.23286141455173 73.836829587817192 96.37361541390419 43.855454608798027 716.3143026381731 60.186417952179909 489.05664962530136 291.57915379106998 749.00372017920017 2395.5356708168983 162.26761968433857 938.09114500880241 1359.2418097406626 10.977140203118326 18.519088365137577 67.147843927145004 429.0594402179122 118.20032429695129 46.753687724471092 437.7023049145937 77.878169238567352 75.039640367031097 1569.7980913817883 31.894237175583839 26.856987595558167 366.22847193107009 51.61280370503664 63.862742334604263 8.2014202326536161
leaf_count=23691 43640 8900 2777 838 2320 64406 281 830 70 7530 11375 738 8046 14231 2258 4103 4147 235 795 3112 1291 778 9818 287 258 645 2915 92 997 3709 178 1833 4064 463 142 391 122 1855 191 1480 1240 2590 5921 1021 5743 5511 21 111 248 1732 290 126 1492 371 232 3718 121 53 1837 222 190 22
internal_value=0 0.00787874 0.0129826 0.00747436 0.0106995 0.0132813 0.0244843 -0.00751274 0.027306 0.0232371 0.0278619 0.0101061 0.0354073 0.0116092 -0.0149916 -0.00663964 0.0102773 -0.0187419 -0.00652576 -0.0276652 0.0345477 0.00333801 0.0422299 -0.0019311 0.0459006 0.0382344 -0.0404896 -0.0540608 -0.00530081 -0.0118105 -0.025811 0.016898 0.0511269 0.0860994 0.118813 -0.0474055 0.0393127 0.0504318 0.0403347 0.00557965 -0.0144028 -0.0308582 0.0573939 0.0394211 -0.0403862 -0.0552757 -0.0865807 0.043016 -0.0727622 -0.0811421 0.0712852 -0.0014717 -0.0815989 -0.0411539 0.0179983 0.0778048 -0.0772335 0.069214 -0.09553 -0.109642 -0.0494875 0.200938
internal_weight=0 46625.4 38118.7 30363.3 28677.9 27301 39519.3 3202.67 36316.6 30882.9 27818.1 2619.06 18998.2 8819.91 8506.7 7008.48 3883.7 3064.73 2566.03 3124.78 7755.43 1531.91 6223.52 1043.58 1311.77 1714.11 1376.93 1498.22 415.331 2169.59 1307.29 762 5179.94 549.768 93.0874 1685.35 140.229 5433.77 3661.09 1205.37 2465.2 1008.43 2455.72 238.751 1068.54 1545.12 583.61 37.6976 1082.89 968.991 1772.67 113.902 498.7 322.244 193.24 1579.43 659.583 523.477 545.912 417.841 128.071 19.1786
internal_count=268644 153795 121852 100194 93332 88097 114849 13748 101101 87344 77292 11064 51686 25606 31943 25977 12604 10052 8325 13373 21658 4712 16946 3064 3384 4748 5235 5966 1602 7856 7680 2091 13882 1293 234 6862 513 13757 9447 3335 10140 3368 6112 1199 6481 6349 2684 154 4364 3990 4310 374 1727 1368 522 3788 3233 1344 2530 2059 471 43
is_linear=0
shrinkage=0.1


Tree=17
num_leaves=53
num_cat=0
split_feature=53 108 135 107 129 70 104 27 31 78 103 102 135 30 71 77 69 130 75 5 29 133 71 77 56 69 103 82 53 113 123 55 39 85 77 110 107 104 82 35 28 112 77 74 75 121 75 29 125 39 92 114
split_gain=518.79 439.942 478.079 744.106 505.42 405.673 441.725 435.23 356.858 304.624 293.977 293.5 308.752 245.572 237.844 213.982 210.167 188.076 312.533 184.63 181.902 181.118 203.833 164.426 161.986 160.398 179.418 115.336 108.723 105.212 95.1293 92.8269 84.072 79.1112 135.489 77.2964 69.3984 66.6307 64.5299 49.2731 49.0571 43.9369 40.4115 27.5549 20.3599 16.5731 20.0089 13.9798 9.88368 8.45939 8.06329 5.88009
threshold=0.92197516560554515 -0.85912770032882679 1.0000000180025095e-35 -0.94763511419296254 1.0000000180025095e-35 -0.27331542968749994 -0.80371803045272816 1.2074024081230166 0.99682077765464794 -1.2505868077278135 -0.90391340851783741 -0.94670861959457386 1.0000000180025095e-35 1.1060676574707033 -0.70032837986946095 -1.0945284962654112 -0.34145636856555933 1.0000000180025095e-35 -1.1430245041847227 0.73087772727012645 1.0884421467781069 1.0000000180025095e-35 -0.56829154491424549 -1.3435893058776853 0.99864625930786144 -0.063478339463472352 -0.7827959656715392 -1.1977534294128416 1.0649393200874331 -0.92731902003288258 -1.0810514688491819 1.0475847125053408 1.0129469633102419 -0.58904668688774098 -0.64360669255256642 -0.82387918233871449 -1.0087784528732298 -0.9703138768672942 -1.454762816429138 0.79668146371841442 1.2277783751487734 -1.1658204197883604 -1.3290691971778867 -1.0710520744323728 -1.0693022608757017 -0.97244432568550099 -1.0732666850090025 1.2029404640197756 -1.2291358709335325 1.0334413051605227 -1.1071587800979612 -0.90799608826637257
decision_type=2 2 2 2 2 2 2 2 2 2 2 2 2 2 2 2 2 2 2 2 2 2 2 2 2 2 2 2 2 2 2 2 2 2 2 2 2 2 2 2 2 2 2 2 2 2 2 2 2 2 2 2
left_child=9 2 4 33 5 7 -7 -2 20 39 19 12 27 29 45 24 -12 23 30 -5 25 22 -16 35 -6 26 -3 40 -20 -14 -19 -25 -27 34 -4 -10 -23 -29 43 47 -11 -17 -40 -22 -15 46 -13 48 -1 -35 -47 -50
right_child=1 8 3 10 15 6 -8 -9 17 11 16 14 13 44 21 41 -18 18 28 -21 38 36 -24 31 -26 32 -28 37 -30 -31 -32 -33 -34 49 -36 -37 -38 -39 42 -41 -42 -43 -44 -45 -46 50 -48 -49 51 -51 -52 -53
leaf_value=0.010931070227206737 -0.037343883751738825 0.02656280550679728 0.086265444214470979 0.088537984912186285 0.037814026622219214 0.028728683105100069 -0.00010016843701747065 0.0032074222212956846 -0.090237274602663717 -0.14746849870881024 -0.089412526767848555 -0.1103620125176495 0.15454708697283115 -0.12397335477792777 -0.010078700655458912 0.1359776709008633 0.0086097394430611589 0.09607230434402457 -0.034028276888726242 -0.019221084957303392 -0.12552729033785345 0.020016115824846085 0.087650898401411492 0.01224229281437436 -0.015572796418728101 0.076366716332447307 -0.054353769910306604 0.032596651542763831 0.048318113881876408 0.010010299978064666 -0.019651019584347975 -0.18118471178242726 0.039617724201963599 0.17875063861208768 -0.22534939507045279 -0.003556875605165823 -0.089385191668361411 -0.061932919743728644 0.10635546981512115 0.11561869038006641 0.076536577690094559 0.076062093299807607 0.06691969228956339 0.016938451021009659 -0.004557703890769183 -0.033240354977211874 -0.039376111197278324 0.021985025776528531 -0.14989852523253339 0.11397322978258993 -0.10607205111103649 -0.10573817120751064
leaf_weight=6.9208765327930442 2922.8346050530672 1526.4327742904425 1864.9243648350239 732.33392056822777 4296.3695006519556 13195.581124708056 8899.4449836462736 28017.71559548378 244.90827143192291 10.449675001204012 234.85191397368908 59.533077195286751 326.94124954938889 40.218659996986389 3591.1633059382439 156.13906724750996 3186.9297535791993 787.84902730584145 445.15452615916729 203.09296575188637 15.290851846337317 68.79826982319355 226.89804765582085 4804.4121528416872 654.98386235535145 824.80375696718693 333.98196925967932 99.780121169984341 250.59581223130226 59.533289387822151 78.074474900960922 24.939538046717644 2538.4669747799635 100.7771995216608 14.058154895901678 177.39305174350739 368.86187224090099 295.075738042593 295.071080327034 10.433551877737044 151.77600365877151 566.25868719816208 2177.0112075954676 121.06735138595104 22.135616660118103 16.120444416999817 119.24110342562199 8.5300779491662961 33.109266594052315 25.201518625020981 266.50632345676422 337.60312755033374
leaf_count=24 10309 4073 4738 2056 11555 35850 30482 91881 881 58 938 273 685 173 13226 325 10621 1920 1469 658 58 240 637 14044 1933 1980 1097 319 661 192 239 101 6655 189 57 521 1589 1183 676 28 399 1377 5441 349 77 60 599 27 144 55 1397 4125
internal_value=0 0.0161482 0.0126238 0.0386617 0.00980219 0.00676744 0.017117 -0.000623303 0.0318073 -0.0140648 0.015463 -0.00819154 0.0408484 0.102571 -0.0186491 0.0381697 0.00188204 0.0150711 0.0455388 0.0651421 0.0463664 -0.0112555 -0.00427087 0.00601097 0.0307518 0.0355973 0.0120366 -0.00888018 -0.0043687 0.132282 0.0856383 0.0112434 0.04863 0.0890774 0.083934 -0.0538261 -0.0721878 -0.0380453 0.0679328 -0.0988184 0.0621074 0.0890122 0.0716268 0.000962716 -0.0815811 -0.0868446 -0.0630149 -0.104612 -0.107472 0.165792 -0.101918 -0.109682
