tree
version=v4
num_class=1
num_tree_per_iteration=1
label_index=0
max_feature_idx=136
objective=binary sigmoid:1
feature_names=Column_0 Column_1 Column_2 Column_3 Column_4 Column_5 Column_6 Column_7 Column_8 Column_9 Column_10 Column_11 Column_12 Column_13 Column_14 Column_15 Column_16 Column_17 Column_18 Column_19 Column_20 Column_21 Column_22 Column_23 Column_24 Column_25 Column_26 Column_27 Column_28 Column_29 Column_30 Column_31 Column_32 Column_33 Column_34 Column_35 Column_36 Column_37 Column_38 Column_39 Column_40 Column_41 Column_42 Column_43 Column_44 Column_45 Column_46 Column_47 Column_48 Column_49 Column_50 Column_51 Column_52 Column_53 Column_54 Column_55 Column_56 Column_57 Column_58 Column_59 Column_60 Column_61 Column_62 Column_63 Column_64 Column_65 Column_66 Column_67 Column_68 Column_69 Column_70 Column_71 Column_72 Column_73 Column_74 Column_75 Column_76 Column_77 Column_78 Column_79 Column_80 Column_81 Column_82 Column_83 Column_84 Column_85 Column_86 Column_87 Column_88 Column_89 Column_90 Column_91 Column_92 Column_93 Column_94 Column_95 Column_96 Column_97 Column_98 Column_99 Column_100 Column_101 Column_102 Column_103 Column_104 Column_105 Column_106 Column_107 Column_108 Column_109 Column_110 Column_111 Column_112 Column_113 Column_114 Column_115 Column_116 Column_117 Column_118 Column_119 Column_120 Column_121 Column_122 Column_123 Column_124 Column_125 Column_126 Column_127 Column_128 Column_129 Column_130 Column_131 Column_132 Column_133 Column_134 Column_135 Column_136
feature_infos=[-1.8014661073684692:2.1873281002044678] [-1.7160434722900391:2.0962586402893066] [-1.6382262706756592:2.0136351585388184] [-1.5680137872695923:1.9394575357437134] [-1.5054070949554443:1.8737261295318604] [-1.4504051208496094:1.8164401054382324] [-1.4123568534851074:1.7937201261520386] [-1.3844102621078491:1.9274762868881226] [-1.3517893552780151:1.9831451177597046] [-1.3099035024642944:2.0064544677734375] [-1.2559221982955933:2.0165181159973145] [-1.1870334148406982:2.073509693145752] [-1.1039742231369019:2.1457490921020508] [-1.0067610740661621:2.2142360210418701] [-0.90047705173492432:2.2825961112976074] [-0.78966546058654785:2.3805651664733887] [-0.67814630270004272:2.4481546878814697] [-0.65542465448379517:2.4658794403076172] [-0.65910369157791138:2.4605560302734375] [-0.66488730907440186:2.4363620281219482] [-0.8555336594581604:2.3619022369384766] [-0.86833834648132324:2.2948129177093506] [-0.86565589904785156:2.1489822864532471] [-0.7797551155090332:2.1797337532043457] [-1.0841877460479736:2.1696581840515137] [-1.4308524131774902:2.0883691310882568] [-1.6366665363311768:1.9448176622390747] [-1.8254417181015015:1.7025836706161499] [-1.9454965591430664:1.5450669527053833] [-2.1252865791320801:1.3473584651947021] [-2.4037775993347168:1.1459542512893677] [-2.6881959438323975:1.0691677331924438] [-2.8964071273803711:1.0156075954437256] [-2.6209216117858887:0.99408984184265137] [-1.9672813415527344:0.99887841939926147] [-1.2877312898635864:1.0987448692321777] [-0.66409575939178467:1.3781088590621948] [-0.67050886154174805:1.4172744750976562] [-0.67336314916610718:1.4165236949920654] [-0.67729061841964722:1.3777114152908325] [-0.67391806840896606:1.3165556192398071] [-0.77278417348861694:1.2273765802383423] [-0.78214722871780396:1.2647323608398438] [-0.67821109294891357:1.3808037042617798] [-0.67593681812286377:1.5838102102279663] [-0.67998087406158447:1.7493973970413208] [-0.67735743522644043:1.7343066930770874] [-0.68056988716125488:1.6915385723114014] [-0.67851173877716064:1.7336448431015015] [-0.68057990074157715:1.7715651988983154] [-0.67672491073608398:1.8198304176330566] [-0.68208664655685425:2.1010029315948486] [-0.6882440447807312:2.3278176784515381] [-0.69760811328887939:2.41339111328125] [-0.68820065259933472:2.0181429386138916] [-0.66555494070053101:1.663224458694458] [-0.62813276052474976:1.3767448663711548] [-0.79989981651306152:1.3603483438491821] [-0.9627259373664856:1.3460699319839478] [-0.83332031965255737:1.3262704610824585] [-0.58480948209762573:1.3006186485290527] [-0.6056399941444397:1.6912268400192261] [-0.63135004043579102:1.8743280172348022] [-0.66003769636154175:1.7138135433197021] [-0.93073725700378418:1.3433690071105957] [-1.1747497320175171:1.0728911161422729] [-1.3727543354034424:0.99044626951217651] [-1.6710461378097534:0.88485002517700195] [-1.7223098278045654:0.75389385223388672] [-1.8893227577209473:0.60495084524154663] [-1.7363165616989136:0.45876148343086243] [-1.7446892261505127:0.33052113652229309] [-1.674402117729187:0.23037496209144592] [-1.5674382448196411:0.15855956077575684] [-1.4517455101013184:0.30397361516952515] [-1.6804615259170532:0.9557119607925415] [-1.8599822521209717:1.3625956773757935] [-1.985605001449585:1.0853415727615356] [-2.0616223812103271:1.1285310983657837] [-2.1171634197235107:0.92254304885864258] [-2.168381929397583:0.73609095811843872] [-2.1978850364685059:0.28676301240921021] [-2.2107267379760742:0.33890664577484131] [-2.208972692489624:0.39074629545211792] [-2.1915850639343262:0.5232703685760498] [-2.1574652194976807:0.47703936696052551] [-2.1063995361328125:0.50853937864303589] [-2.0390708446502686:0.53271615505218506] [-1.9571486711502075:0.67684948444366455] [-1.8642418384552002:0.56802195310592651] [-1.767259955406189:0.65060514211654663] [-1.8478662967681885:1.0689502954483032] [-1.6520191431045532:1.4172115325927734] [-1.5958865880966187:1.6287872791290283] [-1.5394163131713867:1.664950966835022] [-1.4922878742218018:1.6182941198348999] [-1.4526540040969849:1.5608183145523071] [-1.4226374626159668:1.5597559213638306] [-1.4104764461517334:1.5645072460174561] [-1.522296667098999:1.5648646354675293] [-2.0638625621795654:1.5687597990036011] [-2.4585905075073242:1.5680602788925171] [-2.604130744934082:1.5700795650482178] [-2.5047333240509033:1.5662518739700317] [-2.1062953472137451:1.5674868822097778] [-1.4165751934051514:1.5623446702957153] [-1.2213733196258545:1.563502311706543] [-1.1055401563644409:1.5619508028030396] [-1.1654683351516724:1.5693559646606445] [-1.225186824798584:1.5730675458908081] [-1.3317182064056396:1.5835809707641602] [-1.6010570526123047:1.5861003398895264] [-2.1418814659118652:1.5901247262954712] [-2.4733853340148926:1.5879726409912109] [-2.5047738552093506:1.5877697467803955] [-2.0072333812713623:1.5816894769668579] [-1.577265739440918:1.5827864408493042] [-1.6321159601211548:1.7016431093215942] [-1.6862318515777588:2.5795986652374268] [-1.7458088397979736:2.8008601665496826] [-1.820858359336853:2.5472877025604248] [-1.9280952215194702:1.7488086223602295] [-2.15055251121521:1.5763181447982788] [-2.3786196708679199:1.5743108987808228] [-2.640228271484375:1.8138364553451538] [-2.9497678279876709:2.1645474433898926] [-3.3342947959899902:3.0688047409057617] [-3.8750591278076172:4.2020993232727051] [0:1] [0:1] [0:1] [0:1] [0:1] [0:1] [0:1] [0:1] [0:1]
tree_sizes=6019 5359 5780 5717 5898 5605 5730 5844 5956 5959 6581 6875 5627 6131 6235 6664 6841 5614 6929 4645 6584 6788 6810 5758 6961 4534 5679 6976 6502 5345 6824 6877 5768 5163 6621 6505 6775 5058 5325 6267 6959 5649 4441 5914 6429 6928 6378 6964 5462 4589 6706 6940 6940 6469 6955 5239 5898 5239 6914 6351 7001 6992 6945 5798 6960 6478 6919 6955 4226 5297 7001 6903 5263 6645 6771 6638 4554 4435 5996 6919 6359 6955 6549 6735 6911 5402 6932 6774 6836 5877 5769 6970 6162 6234 6751 6330 4217 6803 5901 6975 6912 6611 6781 4996 6540 5022 4821 6754 5715 6880 6130 6502 6115 6682 6942 6953 6944 6606 6964 6896 6921 6841 6928 6926 5933 6088 6481 3460 6626 6939 6959 6920 6611 6571 6562 6941 5574 6787 6582 6546 4646 5787 5039 6935 6402 4797 5341 6804 6908 3224 6105 6695 6640 6479 6610 6439 5682 6616 6840 4695 6442 6589 6830 6530 6877 6147 6341 5289 6819 6631 6897 6547 6829 6896 6878 6635 4835 6114 4968 6934 3809 6830 6713 6826 5872 6802 6733 5860 6381 3976 6807 6646 5981 5604 6571 6042 6479 6038 6942 5949

Tree=0
num_leaves=56
num_cat=0
split_feature=32 133 30 31 114 5 123 129 30 43 115 74 3 40 53 74 103 75 31 103 107 30 106 75 75 35 29 38 116 105 61 35 135 30 55 8 135 5 60 127 70 124 30 50 62 109 105 44 29 2 22 30 29 78 107
split_gain=30121.5 14389.8 9771.66 9441.98 6453.91 5874.59 4690.83 4621.55 4434.97 3863.75 3642.07 3227.9 2615.69 2611.3 2462.19 2449.41 2297.16 2253.98 2241.13 2368.02 1418.39 1378.25 2533.92 2352.76 1195.97 1017.78 883.277 860.787 786.891 765.668 748.552 732.165 609.866 702.858 601.739 598.211 579.698 528.136 467.822 412.282 405.797 415.823 393.144 368.401 316.259 308.471 247.198 233.484 215.416 171.328 101.265 93.9416 69.9685 34.6414 24.2878
threshold=0.91820314526557933 1.0000000180025095e-35 1.0805835127830508 1.008388936519623 -0.82147070765495289 0.61867204308509838 -2.2706922292709346 1.0000000180025095e-35 1.0674076676368716 1.162056624889374 -1.078502833843231 -0.9118174910545348 0.5896088480949403 0.98294690251350414 1.0085328817367556 -1.0289590358734129 -0.81844785809516896 -0.99628898501396168 1.008617699146271 -0.86565792560577381 -0.87206551432609547 1.0948023200035097 -0.92980116605758656 -1.0760121345520017 -1.0950229763984678 0.83294790983200084 1.0916712284088137 0.91082906723022472 -1.5074037909507749 -0.83433163166046131 0.80397862195968639 0.88850918412208568 1.0000000180025095e-35 1.1106872558593752 1.0010606646537783 0.55269932746887218 1.0000000180025095e-35 0.7723711133003236 0.7513086497783662 -2.5312250852584834 -0.45597185194492335 -1.5578169226646421 1.0993626713752749 1.0448578000068667 0.41694656014442449 -0.90338650345802296 -0.95954957604408253 1.1481428742408755 1.1815457940101626 0.60985732078552257 1.4496971368789675 1.0930527448654177 1.1773102283477785 -0.86164093017578114 -0.93567502498626698
decision_type=2 2 2 2 2 2 2 2 2 2 2 2 2 2 2 2 2 2 2 2 2 2 2 2 2 2 2 2 2 2 2 2 2 2 2 2 2 2 2 2 2 2 2 2 2 2 2 2 2 2 2 2 2 2 2
left_child=2 3 4 5 6 10 28 9 14 -8 17 -12 40 18 -7 36 31 -2 19 25 32 23 -23 -17 -10 -3 -9 -21 54 39 -30 35 33 -5 43 -15 49 -38 -33 -18 50 52 -34 -22 -43 -36 51 -31 -48 -14 -4 -20 -42 -52 -1
right_child=1 13 12 20 -6 8 7 26 24 -11 11 -13 15 16 -16 21 29 -19 46 27 34 22 -24 -25 -26 -27 -28 -29 30 47 -32 38 42 -35 45 -37 37 -39 -40 -41 41 44 -44 -45 -46 -47 48 -49 -50 -51 53 -53 -54 -55 -56
leaf_value=-2.2894394803493041 -2.1994998912424339 -1.7039293396763977 -1.6378943968601547 -1.5206921919700656 -2.2894394803493046 -2.1117473144954886 -1.9242542576052748 -1.799613662201955 -1.804851385878623 -2.1675340849112654 -1.7276456900256081 -1.6302172075067816 -2.2894394803493046 -1.5792463508879973 -1.8740996615143009 -1.8598916771316603 -1.7862670846248516 -1.7976877724253091 -1.2674883617559725 -2.0577583527618213 -1.971270818509663 -1.8538481791127501 -1.5111833465783415 -1.628871261683762 -1.6703002285674184 -1.4882362738356414 -1.4861266281319101 -1.7106623184003529 -1.4416628632504647 -2.2894394803493046 -1.7086865878335726 -1.3413339185979689 -1.8416943585058125 -2.1806674789672229 -1.6072254509669182 -1.3542924969007277 -1.94521781267414 -2.2747291553123015 -1.5358278578192275 -1.5538577124889674 -2.0100213563958276 -1.6336146619362411 -1.4875424474699548 -1.6444748645192246 -2.032793076538415 -2.1265836488443384 -1.9281478580069877 -1.8070454570629397 -2.252536944976383 -1.7003206165689289 -2.2684497880204351 -1.8180287644937478 -2.2894394803493046 -1.8468220790183383 -1.965527483994896
leaf_weight=15.35243082046509 147.25947135686874 257.8722243309021 2.7103688716888419 2658.9506421089172 480.40314775705338 536.65891927480698 6615.2425866127014 138.80078738927841 1350.1696615219116 724.30244225263596 10192.38741838932 5103.1223465204239 5.2088604569435111 343.14327561855316 2323.5898461341858 832.50413262844086 103.53282904624939 2686.1396885514259 6.9119842648506147 91.466794788837433 36.076868057250977 287.84058141708374 862.25141793489456 937.00783014297485 1293.486279129982 1442.5797946453094 255.00350320339203 326.47149246931076 223.92361831665039 22.206194579601288 197.64910310506821 1172.4974666833878 102.54520505666733 16.235129356384277 15.531145095825194 180.34178632497787 256.51021981239319 60.023402214050293 138.25386995077133 290.48739159107208 12.640035569667814 41.736566960811615 45.144840955734253 787.18141657114029 37.844291508197784 43.3740074634552 141.74670737981796 18.303787231445312 23.92691308259964 94.423587620258331 84.133082330226898 5.6190730929374695 30.796245157718658 1.9948690533637989 2.7259371876716605
leaf_count=168 1494 1483 14 10971 5257 5027 50968 916 8973 7143 60759 26012 57 1594 16869 5939 671 17681 13 813 293 2038 3485 4765 7053 5537 974 1897 767 243 1145 2973 715 162 76 478 2024 649 589 1284 107 214 173 4112 328 412 1097 122 254 540 905 38 337 14 22
internal_value=-2.17811 -1.69119 -1.87593 -1.71863 -1.93323 -1.7419 -1.91229 -1.93036 -1.83239 -1.94826 -1.71443 -1.69514 -1.73616 -1.52684 -1.91869 -1.71452 -1.45075 -1.81857 -1.60201 -1.57336 -1.57021 -1.68217 -1.59694 -1.73756 -1.73902 -1.52095 -1.59662 -1.78663 -1.59456 -1.65749 -1.56685 -1.40178 -1.53562 -1.5247 -1.68089 -1.50175 -1.94149 -2.0077 -1.36185 -1.61493 -2.07688 -1.95927 -1.73344 -1.6588 -1.82344 -1.98965 -1.94261 -2.07148 -1.975 -1.73112 -2.23974 -1.51436 -2.20813 -2.25868 -2.2406
internal_weight=0 31903.2 12201 27337.9 8653.4 23632.8 8173 7733.35 5503.9 7339.55 18128.9 15295.5 3547.63 4565.36 2860.25 3335.77 2268.77 2833.4 2296.59 2118.39 3705.04 2919.6 1150.09 1769.51 2643.66 1700.45 393.804 417.938 439.651 434.53 421.573 1834.24 2822.88 2675.19 882.163 523.485 416.166 316.534 1310.75 394.02 211.855 123.017 147.69 823.258 79.5809 58.9052 178.205 40.51 165.674 99.6324 88.8383 12.5311 43.4363 86.128 18.0784
internal_count=268644 179868 88776 160782 67360 143868 62103 60001 37922 58111 105946 86771 21416 19086 21896 19497 7954 19175 11132 9730 16914 16227 5523 10704 16026 7020 1890 2710 2102 2320 1912 5634 12021 11133 4893 2072 3270 2673 3562 1955 1919 986 888 4405 542 488 1402 365 1351 597 933 51 444 919 190
is_linear=0
shrinkage=1


Tree=1
num_leaves=49
num_cat=0
split_feature=31 114 76 116 42 135 30 75 54 73 77 132 105 117 109 135 58 132 73 105 128 106 73 92 30 104 79 75 76 71 75 73 117 115 57 118 114 85 5 52 42 100 112 116 115 122 74 31
split_gain=8951.55 4421.74 4042.73 2400.74 2013.66 1985.2 1946.61 1845.38 1647.84 1940.72 1638.77 2851.38 2322.8 1674.18 1508.16 1237.18 1164.6 1012.54 1008.5 997.375 929.414 862.094 709.487 624.04 492.748 571.854 467.334 561.109 445.93 443.212 429.409 417.152 383.119 326.164 285.446 268.165 253.177 209.474 183.729 167.186 165.258 105.819 101.565 93.4712 75.9235 29.4771 0.0118445 0.0103155
threshold=0.97778725624084484 -0.82147070765495289 -1.1715835332870481 -0.9884984791278838 1.1378492712974551 1.0000000180025095e-35 1.0993626713752749 -1.1747357845306394 1.0499210953712466 -0.73312255740165699 -0.5425266921520232 1.0000000180025095e-35 -0.90131840109825123 -1.5658695697784422 -1.0830245018005369 1.0000000180025095e-35 0.8969358801841737 1.0000000180025095e-35 -0.79672077298164357 -0.94668594002723683 1.0000000180025095e-35 -0.9122880995273589 -0.51947724819183339 -1.1853153109550474 1.0843876004219057 -0.90634745359420765 -1.2752959132194517 -1.0747032761573789 -1.1880371570587156 -0.52073866128921498 -1.1895753741264341 -0.93591162562370289 -1.4546068310737608 -0.98828554153442372 1.0247626304626467 -1.2331360578536985 -0.92315357923507679 -1.2389883399009702 0.71269053220748912 1.1947441101074221 1.13976526260376 -0.95699808001518238 -1.2836494445800779 -0.99047964811325062 -0.98740091919898976 -2.0244748592376705 -1.0289590358734129 1.0103878974914553
decision_type=2 2 2 2 2 2 2 2 2 2 2 2 2 2 2 2 2 2 2 2 2 2 2 2 2 2 2 2 2 2 2 2 2 2 2 2 2 2 2 2 2 2 2 2 2 2 2 2
left_child=1 4 3 26 10 8 24 23 17 16 11 12 -1 45 32 18 -10 19 -9 -4 -11 -15 -13 30 37 -26 27 43 -17 47 -5 46 42 -29 35 -16 -33 -7 -19 -36 -34 -25 -6 -2 -31 -12 -8 -28
right_child=2 -3 5 7 14 6 31 15 9 20 13 22 -14 21 34 28 -18 38 -20 -21 -22 -23 -24 41 25 -27 29 33 -30 44 -32 36 40 -35 39 -37 -38 -39 -40 -41 -42 -43 -44 -45 -46 -47 -48 -49
leaf_value=0.29093486670405405 -0.069913235983468477 -0.11013232863852028 0.41446397302610749 0.034865646557449996 -0.10202914225342177 -0.010905964256466347 -0.11105601482859449 0.25489778545279046 0.25303986640563658 0.34249870530902116 -0.0065972970182949621 0.066847105953648553 0.18301857829489232 0.4338001317586988 0.24878148242075657 -0.050732556660594758 0.10951380286201809 0.14180785316209193 0.32212869678820277 0.32926749183995052 0.2046771733178272 0.2840799587034214 0.19085292014066485 0.2493951932548357 0.12562440344630341 0.28324124060347516 -0.11605615833871073 -0.094301549508246624 0.1685525331355574 0.29798168076206555 0.26733552605813843 0.38007243006294517 0.64939429999740961 0.23702168200928711 0.48150863774899744 0.53026615025941892 0.56875811018889411 0.16103057348773531 -0.11596311344831839 -0.040816993145615071 0.14210976806303352 -0.091177043144880399 0.024294799639955116 0.063769439201219844 0.61423751046591202 -0.11339828004283346 -0.11724412016687547 -0.12185606094351986
leaf_weight=3740.23571934551 299.52827785909176 439.15458304435015 1462.4849660545588 152.60189311951399 358.2910590916872 75.493019834160805 11.754024565219877 9312.6491130590439 2213.7673708200455 3449.61167640239 41.408295698463917 1520.7151178792119 4273.281316883862 544.28483133018017 108.93869730830193 138.05302516371012 759.23684830218554 133.78694961220026 2934.1977942585945 22734.093241229653 570.17452219128609 1310.7509481236339 662.33134872466326 9.6143157556653005 314.33294875919819 859.87556104362011 10.89002440869808 37.424426347017288 282.50945101678371 10.628968656063078 165.77527020126581 532.05500697344542 8.1060206964611989 144.1780930608511 7.3729691356420508 49.098837092518806 82.083722993731499 1154.2763471752405 34.854539796710014 36.291093282401562 30.908569924533367 178.59546335041523 77.394365638494492 63.368367940187454 26.558702766895294 68.74665455520153 4.1978484690189353 4.2685023546218863
leaf_count=16569 2311 5257 3946 1114 3788 566 133 43768 9531 11575 369 11069 24868 2281 589 1172 4296 859 11430 78590 2631 6182 4231 44 1733 3609 92 283 1716 46 831 1375 26 655 20 117 114 6662 298 327 210 1478 705 407 41 667 34 29
internal_value=0 0.201889 0.294628 0.248842 0.212562 0.312961 0.235723 0.25773 0.320434 0.277644 0.221902 0.205787 0.233388 0.305517 0.0446285 0.265214 0.216387 0.332715 0.271006 0.334417 0.32295 0.328009 0.10447 0.0705745 0.194715 0.241048 0.0526782 0.0252418 0.0965704 0.338068 0.15591 0.392178 -0.0527058 0.168743 0.273703 0.336233 0.405292 0.150476 0.0885322 0.0473812 0.247508 -0.0737796 -0.0795892 -0.0465698 0.523845 -0.0732508 -0.112684 -0.117689
internal_weight=0 13277.3 48162.9 13770.8 12838.2 34392.1 3034.07 13174 31358 6992.79 12161.8 10196.6 8013.52 1965.19 676.402 12667.4 2973 24365.2 12246.8 24196.6 4019.79 1855.04 2183.05 506.587 2403.98 1174.21 596.845 544.499 420.562 52.3462 318.377 630.091 474.7 181.603 201.702 158.038 614.139 1229.77 168.641 43.6641 39.0146 188.21 435.685 362.897 37.1877 110.155 15.9519 15.1585
internal_count=268644 77275 191369 65417 72018 125952 14226 61553 111726 28033 66236 56737 41437 9499 5782 58086 13827 83693 55198 82536 14206 8463 15300 3467 12570 5342 3864 3656 2888 208 1945 1656 4729 938 1053 706 1489 7228 1157 347 236 1522 4493 2718 87 1036 167 121
is_linear=0
shrinkage=0.1


Tree=2
num_leaves=53
num_cat=0
split_feature=32 113 77 41 103 75 132 132 135 105 88 75 113 134 30 113 19 115 112 83 42 92 82 30 127 127 75 33 74 103 48 126 39 134 46 88 77 88 105 107 72 93 104 109 121 24 26 107 108 33 66 114
split_gain=4893 2968.13 2000.42 1978.96 1360.19 1791.3 1488.37 1308.16 1182.5 1341.89 1176.95 975.974 968.94 908.984 888.009 704.855 674.734 668.893 614.326 571.592 537.355 456.96 348.756 294.525 313.557 244.443 227.801 201.615 191.304 174.928 158.434 254.054 214.779 151.634 149.867 136.111 175.641 128.613 127.277 101.9 68.2273 84.7282 58.8895 39.0584 22.4907 49.0115 18.2818 15.2254 55.2568 16.5689 8.41494 0.236091
threshold=0.9189836084842683 -0.89037516713142384 -1.2372735142707822 1.1003217697143557 -0.90979573130607594 -0.55600130558013905 1.0000000180025095e-35 1.0000000180025095e-35 1.0000000180025095e-35 -0.87557777762413014 -1.2062303423881529 -1.1747357845306394 -0.94996610283851612 1.0000000180025095e-35 1.0930527448654177 -1.3797922134399412 1.2995346784591677 -0.94525745511054982 -1.2836494445800779 -1.3051074147224424 1.0406786203384402 -1.1918969154357908 -1.2926936149597166 1.0876803994178774 -2.4630602598190303 -1.5704766511917112 -1.1895753741264341 0.69593262672424328 -0.95656874775886525 -0.88803538680076588 1.2249684333801272 -2.7263941764831539 1.0242120623588564 1.0000000180025095e-35 1.2137657403945925 -1.1979211568832395 -1.24325954914093 -1.1969313621520994 -0.86197629570960987 -0.97173792123794545 -0.51723065972328175 -0.77715799212455738 -0.8584662377834319 -0.89684480428695668 -0.95890372991561879 1.4384553432464602 1.3173524141311648 -1.0120515227317808 -1.0660827755928037 0.90921768546104442 0.30680356919765478 -0.82147070765495289
decision_type=2 2 2 2 2 2 2 2 2 2 2 2 2 2 2 2 2 2 2 2 2 2 2 2 2 2 2 2 2 2 2 2 2 2 2 2 2 2 2 2 2 2 2 2 2 2 2 2 2 2 2 2
left_child=1 3 10 4 6 14 16 8 9 20 11 21 -11 17 -6 -7 -1 -13 27 -15 -4 26 35 24 -10 -3 -2 -5 -8 -25 31 -20 -32 46 -29 36 -12 -35 -23 47 42 -42 -41 -27 45 -45 -24 48 -9 -49 -37 -46
right_child=2 25 7 18 5 15 28 39 23 12 22 13 -14 19 -16 -17 -18 -19 30 -21 -22 38 33 29 -26 43 -28 34 -30 -31 32 -33 -34 37 -36 50 -38 -39 -40 40 41 -43 -44 44 51 -47 -48 49 -50 -51 -52 -53
leaf_value=0.35487908686331621 0.056705910417219056 0.38437305065154492 0.24887082148136186 0.54954445808483132 0.12090392296321362 -0.061870289011025439 -0.091180163220271865 -0.11839897568795704 0.24455624028842315 0.2177065113090095 -0.073860261026902047 0.17283326912377114 0.2891322124729695 -0.010303805394856817 0.24608008600149259 0.23848811795139926 0.21247084052918352 0.21921481722477926 0.35178516976874574 0.19279181746122556 0.29421805235062864 0.13343495563537383 -0.12358260250653748 0.18033296333478621 0.10385148757135304 0.35409794780164178 0.23967562809315548 0.058049388997316168 0.067180155461463456 0.32071828558564669 0.22859474819076137 -0.018357422388335112 -0.0067525834298605009 0.37458303425912504 -0.095795974143126947 -0.11859560736977215 0.10767673349761984 0.017191493284359354 -0.064041947014217587 0.075187860322468672 0.45934750030916582 0.045657791589202801 -0.11771619721562394 -0.11849023013189695 -0.11827543459030086 0.30817711140144111 0.14472023819026356 -0.090804617651368671 0.22720755384780014 0.036400166462232618 -0.054649223252502814 -0.1090756812545521
leaf_weight=353.68328565359116 132.83443104475737 10.488405629992483 7861.7597024217248 5.3003648146986952 7881.3393898978829 80.891774281859398 139.47624325752258 11.656746178865435 186.49778041243553 24189.51319667697 96.197431370615959 4778.6767636165023 2061.1048885136843 333.15984103828669 610.636284686625 2288.758044436574 5609.8476618155837 8900.7504463195801 60.250404693186283 237.26237322390079 3914.1097539737821 38.27655304223299 11.569778777658938 305.96205235272646 1050.4595981165767 1.853022813796996 139.51009221374989 75.652249105274677 168.36987610906363 125.03130260854959 58.481700047850609 26.787866443395615 115.08506631851196 44.618412755429745 388.41370264440775 97.069169588387012 119.50599254667759 13.003819920122622 221.53851465135813 68.944661676883698 9.148146681487562 10.790482774376867 20.540154695510864 7.7461807653307897 29.982608631253242 4.1264762282371521 3.2538559734821311 98.008409902453423 7.6702370941638938 11.434299141168593 26.115200765430927 400.6342485845089
leaf_count=1140 915 29 19480 13 43357 665 1128 89 742 77816 681 18475 5399 2205 1749 8377 20171 32313 262 1085 6880 195 77 1103 5379 5 531 527 1131 311 297 199 987 127 4246 752 604 87 1811 454 21 68 162 59 245 15 12 744 36 73 163 5252
internal_value=0 0.159474 0.219129 0.165897 0.172767 0.151357 0.209848 0.23088 0.232282 0.235896 0.188246 0.192889 0.223315 0.197855 0.129905 0.228235 0.220917 0.203012 0.00464513 0.0741721 0.263944 0.0599244 0.0213978 0.14987 0.125066 -0.092791 0.150433 -0.0637117 -0.00456836 0.221059 0.12776 0.237866 0.0725455 0.22055 -0.070716 -0.0211761 0.0267165 0.293929 -0.0349492 -0.00277118 0.0681823 0.235465 0.0309091 -0.104054 -0.105973 0.0298028 -0.0646889 -0.0630647 0.0187608 -0.0775146 -0.105039 -0.109716
internal_weight=0 18317.8 55126 17863 17133 10861.6 6271.38 39932.6 39694.4 38026.5 15193.3 14782 26250.6 14249.8 8491.98 2369.65 5963.53 13679.4 729.971 570.422 11775.9 532.16 411.334 1667.95 1236.96 454.831 272.345 469.366 307.846 430.993 260.605 87.0383 173.567 72.4459 464.066 338.888 215.703 57.6222 259.815 238.193 109.423 19.9386 89.4848 444.343 442.49 11.8727 14.8236 128.77 19.327 109.443 123.184 430.617
internal_count=268644 89854 178790 84249 77718 54148 23570 118757 117110 109575 60033 57530 83215 54078 45106 9042 21311 50788 6531 3290 26360 3452 2503 7535 6121 5605 1446 4786 2259 1414 1745 461 1284 303 4773 2200 1285 214 2006 1647 705 89 616 5576 5571 74 89 942 125 817 915 5497
is_linear=0
shrinkage=0.1


Tree=3
num_leaves=52
num_cat=0
split_feature=32 114 107 41 131 106 134 55 115 106 30 129 30 135 122 95 57 35 70 102 101 133 128 44 4 111 104 103 29 70 34 105 62 28 127 75 71 45 68 72 127 46 103 103 55 75 42 61 18 1 1
split_gain=3128.49 2154.59 1537.94 1344.31 1223.38 1168.51 1020.2 1987.21 1861.92 1002.06 1134.36 1364.43 858.815 815.43 792.565 763.055 677.168 1060.58 1001.99 1665.83 669.187 601.156 597.945 547.083 521.286 508.078 464.942 378.032 316.688 310.647 218.991 429.794 307.456 215.437 213.471 206.474 187.417 159.53 150.042 143.764 141.466 137.669 128.007 111.825 83.2619 23.3925 14.8873 0.000488971 1.13687e-13 3.55271e-15 3.55271e-15
threshold=0.92739203572273265 -0.82147070765495289 -0.87035655975341786 1.1003217697143557 1.0000000180025095e-35 -0.84442090988159169 1.0000000180025095e-35 0.95574060082435619 -1.0971302986145017 -0.97182887792587269 1.0930527448654177 1.0000000180025095e-35 1.061773478984833 1.0000000180025095e-35 -1.4043537974357603 -0.96448609232902516 0.95087474584579479 0.94882711768150341 -0.24953967332839963 -0.81090649962425221 -0.7815766930580138 1.0000000180025095e-35 1.0000000180025095e-35 1.1155070662498476 0.63069751858711254 -1.2342108488082884 -0.8139890432357787 -0.80929443240165699 1.1973143219947817 -0.30573870241641993 0.88098058104515087 -0.85273799300193776 0.49897605180740362 1.2377422451972964 -2.5066472291946407 -0.37710428237915034 -0.36394448578357691 1.2100589871406557 0.1157776638865471 -0.55695003271102894 -2.7860335111618038 1.2113172411918642 -0.88446363806724537 -0.86646297574043263 0.95105814933776867 -1.1653952002525327 1.13976526260376 0.55018365383148204 1.5432907342910769 0.44699633121490484 0.9760134518146516
decision_type=2 2 2 2 2 2 2 2 2 2 2 2 2 2 2 2 2 2 2 2 2 2 2 2 2 2 2 2 2 2 2 2 2 2 2 2 2 2 2 2 2 2 2 2 2 2 2 2 2 2 2
left_child=1 3 6 9 16 30 13 12 23 21 11 -11 44 22 -10 -12 18 38 19 -4 -20 36 26 -9 -14 40 -2 29 -23 -7 32 -32 -6 34 -15 37 -1 -27 -18 -19 41 -5 -35 -24 -8 -29 -37 48 -3 -50 -51
right_child=2 47 4 25 5 27 7 8 14 10 15 -13 24 33 -16 -17 17 39 20 -21 -22 28 43 -25 -26 35 -28 45 -30 -31 31 -33 -34 42 -36 46 -38 -39 -40 -41 -42 -43 -44 -45 -46 -47 -48 -49 49 50 -52
leaf_value=0.11718791806034037 0.21036818265762999 -0.10813782661537948 0.16610469622506621 0.05811689977065268 0.14960917543520177 -0.024464116471019679 -0.092444331536132046 0.15799344993228293 0.32103077066989821 0.11765201059364168 0.20160477167892576 0.23320312188227141 0.16260224274734439 0.21376959596684861 0.18895392861000529 0.024717123840712611 0.0092447385225077634 -0.083612303978931463 0.21203445477527438 0.05708174399338807 0.14978622950817108 0.25182763436886274 0.079024130443344026 -0.023681370311621361 0.023492761815097258 0.18299493572406386 0.15650679717376859 0.037685228470415631 0.11273631395561301 0.097533365661200966 0.26230928280166771 0.12223267446856892 -0.064079214130825082 0.13476766209512203 0.06780712177444502 0.39552099872432778 -0.092300248635365512 0.024605888788609157 0.080780421509918446 0.18193803701024194 0.29667015710840611 -0.10065384249705381 0.2525982446379389 0.15097787997111384 0.0062338442039381412 -0.11189601952370715 0.26453393829297339 -0.10999630289208853 -0.10813782661537928 -0.10813782661537943 -0.10813782661537948
leaf_weight=251.35274437069893 21490.083255596459 345.38006240129471 8712.7585629895329 64.689263567328453 205.4713549092412 390.77137192338705 308.01035469025373 242.95842578262091 493.14600966125727 17059.367570444942 3108.2819535881281 1087.0041392296553 620.44467640668154 117.15309651196003 5773.8476777225733 264.63410042971373 585.90974947065115 20.731977954506874 6208.6535109058022 1670.1652608960867 2392.5042583197355 1389.6969254538417 281.52384738624096 521.61827693134546 476.07696386426687 89.710273079574108 1731.8248762562871 10.985722020268438 185.54982431232929 448.0187726020813 360.98854289203882 557.05933176726103 100.15106531977654 244.41807802766562 692.30599081516266 16.801264554262161 51.447110086679459 218.40389459580183 586.90068488568068 1225.8951800018549 10.446491010487078 350.61234426498413 148.03943394869566 927.84467583149672 118.36782898753881 216.40550767630339 17.943400323390961 1.4212116822600354 1.9485476016998315 7.7245994210243252 9.533965051174162
leaf_count=1247 45756 4963 29807 404 800 2275 1933 783 739 75029 7683 2652 2012 374 15626 1207 2773 120 16010 7105 7381 2962 967 2679 2339 401 5365 62 658 1795 836 2055 572 871 3505 19 302 1645 2146 3198 29 4154 362 2906 557 1242 44 18 28 111 137
internal_value=0 0.132664 0.175276 0.136311 0.155695 0.086224 0.188846 0.158943 0.181373 0.140586 0.134472 0.124574 0.0553773 0.198825 0.199347 0.187726 0.163128 0.113303 0.169478 0.148568 0.194719 0.210639 0.202781 0.0340492 0.102205 0.00618087 0.206351 0.0096944 0.235444 0.0406978 0.152904 0.177313 0.0795845 0.118412 0.0889323 0.0967816 0.0815949 0.0707223 0.0450428 0.177522 -0.0667808 -0.075923 0.179215 0.134228 -0.0650501 -0.104669 0.327875 -0.108145 -0.108138 -0.108138 -0.108138
internal_weight=0 24531.9 57881 24165.9 23693.4 2289.85 34187.7 8554.47 7031.57 23397.3 21519.3 18146.4 1522.9 25633.2 6266.99 3372.92 21403.5 2419.44 18984.1 10382.9 8601.16 1878.05 24431.3 764.577 1096.52 768.607 23221.9 1066.18 1575.25 838.79 1223.67 918.048 305.622 1201.92 809.459 342.859 302.8 308.114 1172.81 1246.63 425.748 415.302 392.458 1209.37 426.378 227.391 34.7447 366.008 364.587 19.2071 17.2586
internal_count=268644 103693 164951 98436 78177 9637 86774 26668 19827 91740 86571 77681 6841 60106 16365 8890 68540 8237 60303 36912 23391 5169 54994 3462 4351 6696 51121 5374 3620 4070 4263 2891 1372 5112 3879 2109 1549 2046 4919 3318 4587 4558 1233 3873 2490 1304 63 5257 5239 276 248
is_linear=0
shrinkage=0.1


Tree=4
num_leaves=54
num_cat=0
split_feature=32 113 78 110 30 106 132 36 48 101 114 76 6 1 77 110 135 75 74 30 84 117 75 0 83 87 88 114 51 31 72 62 135 51 77 127 31 101 32 113 6 36 30 43 110 108 12 109 107 87 121 24 114
split_gain=2137.08 1594.85 1146.42 1120.98 956.365 1178.89 795.756 759.209 1293.7 948.114 717.656 1685.66 1001.69 659.996 577.485 638.638 535.715 530.405 437.305 603.435 431.301 407.171 292.544 359.067 292.239 279.995 305.192 276.704 266.544 239.98 222.364 476.918 187.57 149.547 147.853 131.338 127.329 122.695 104.023 87.3037 130.833 76.143 73.0626 69.8757 66.0929 59.8687 61.2257 27.2738 23.9687 22.0124 16.6124 33.5916 0.297268
threshold=0.91527539491653453 -0.89037516713142384 -1.2593397498130796 -0.91615831851959217 1.0778656601905825 -0.85602033138275135 1.0000000180025095e-35 0.84814015030860912 1.2132571935653689 -0.81532490253448475 -0.99131134152412403 -1.1271820068359373 0.61532574892044078 0.50903668999671947 -1.2391877174377439 -0.90245977044105519 1.0000000180025095e-35 -1.1747357845306394 -1.0185991525650022 1.0993626713752749 -1.2850859761238096 -0.91637471318244923 -1.0914378762245176 0.39887826144695288 -1.2841594219207761 -1.2607002854347227 -1.1908665895462034 -0.94932320713996876 1.089258134365082 1.0128061175346377 -0.27201493084430689 0.7583531141281129 1.0000000180025095e-35 1.0758754611015322 -1.2334793806076048 -3.4962053298950191 1.0100206732749941 -0.87658050656318653 0.91675427556037914 -1.2171807885169981 0.66035506129264843 0.94266459345817577 1.0810397267341616 1.0581528544425967 -0.90551653504371632 -1.0222778320312498 0.87549522519111644 -0.89641237258911122 -1.010322034358978 -1.2286105155944822 -0.95890372991561879 1.4384553432464602 -0.82147070765495289
decision_type=2 2 2 2 2 2 2 2 2 2 2 2 2 2 2 2 2 2 2 2 2 2 2 2 2 2 2 2 2 2 2 2 2 2 2 2 2 2 2 2 2 2 2 2 2 2 2 2 2 2 2 2 2
left_child=1 4 3 20 5 7 10 9 -9 -1 11 12 -4 32 15 24 -13 -17 19 -15 28 -20 27 -24 -5 44 -27 -12 36 33 31 -7 42 -22 -30 -32 -2 -34 39 41 -41 -8 -6 47 -16 48 -47 -3 -40 -31 51 -49 -52
right_child=2 43 6 14 13 30 38 8 -10 -11 22 16 -14 18 25 17 -18 -19 21 -21 29 -23 23 -25 -26 26 -28 -29 34 49 35 -33 37 -35 -36 -37 -38 -39 45 40 -42 -43 -44 -45 -46 46 -48 50 -50 -51 52 -53 -54
leaf_value=0.06477560912968576 -0.068068698066720723 0.23935533393343916 0.11706059127127262 0.044905343824858404 0.032676604091057243 0.17602162118330317 -0.079183607341359943 0.12246193440960217 -0.0035801605860491096 -0.081030053096827759 0.091626100082048384 0.15819664991760149 0.0048028462021890723 0.061197516760496395 -0.080748425237849961 0.035690227320064223 0.10126580150718106 0.13163149279702835 0.15072842676565801 0.1893813418382681 -0.095653090274226082 0.2608069498169468 0.1421837370812096 0.19713840711424069 0.17712791132725922 0.174149342320566 0.095458206447021493 0.18474333284868827 -0.06297396447963971 0.27316313380374196 0.26039189074167124 0.032693569595596064 0.020737971942464406 0.0041696340730396093 0.14140032331040461 -0.063116311581626158 0.14386591193044199 0.30240160389107917 0.011435928179003144 0.33801601020696004 -0.11990317562424951 0.45191911182184497 -0.093599055199914238 0.32576382733017273 0.075297355554460585 0.046582862991714526 -0.12057809264837692 -0.12161333344864332 -0.085985009668153783 0.11805539252073938 -0.11847203038658148 0.19959437260896418 -0.1073036997837452
leaf_weight=3935.0355697274208 122.2674913033843 2.3281607478857032 2831.5198535770178 1364.8289509266615 65.363006755709648 1320.3619917333126 21.693340584635738 5158.7206632196903 966.98063626140356 502.98148903250694 687.45508878678083 29398.394992619753 1105.1108399927616 1203.3328411206603 31.145540401339531 597.98384241014719 1751.3359585702419 15841.022553369403 5046.0411353483796 528.56821884959936 219.28447233140469 359.99820385873318 1475.2373472899199 6126.8490194901824 190.48835519701242 4397.7745128944516 555.06309559196234 595.60360819101334 37.956081852316856 27.369123041629791 278.18746092170477 281.68499348312616 36.681951440870762 475.53854978084564 525.18949005007744 13.142155289649962 36.904426395893097 26.73897297680378 33.215782947838306 26.973102271556854 8.116915285587309 3.083084136247634 153.24912993609905 3.8608062714338294 211.18564987182617 162.36259736120701 25.329317711293697 8.3092954382300359 105.36669979244471 13.744325041770933 25.669233970344067 5.3534353822469702 333.08522156625986
leaf_count=18284 620 4 7996 5820 291 4097 149 21436 7451 3118 2118 65740 4486 5285 144 3461 6930 48769 14054 1091 1316 599 3855 12218 445 10444 1789 1337 189 25 470 1458 197 1932 1355 78 85 64 193 83 59 6 1025 6 672 894 187 60 745 38 210 15 5251
internal_value=0 0.105827 0.142769 0.125478 0.1097 0.0927706 0.152378 0.0797468 0.102565 0.0482508 0.153633 0.147204 0.085547 0.138121 0.130826 0.122347 0.154996 0.128142 0.144049 0.100319 0.0404352 0.158059 0.17902 0.186474 0.0610994 0.160195 0.16533 0.134852 0.0953299 -0.0134435 0.165435 0.150821 -0.0119189 -0.0273342 0.127625 0.245798 -0.0189311 0.139491 0.00944913 0.130618 0.232092 -0.0130952 -0.0558438 -0.0974876 0.0552416 -0.0127836 0.0240242 -0.101848 -0.0626349 0.22131 -0.103981 0.00424472 -0.108103
internal_weight=0 20255.7 69005.4 24647.7 19877.1 12457.1 44357.6 10563.7 6125.7 4438.02 43971.5 35086.4 3936.63 7419.97 23189.5 17994.3 31149.7 16439 7137.94 1731.9 1458.25 5406.04 8885.15 7602.09 1555.32 5195.17 4952.84 1283.06 722.317 735.936 1893.38 1602.05 282.033 694.823 563.146 291.33 159.172 63.4209 386.141 59.8664 35.09 24.7764 218.612 378.606 242.331 326.274 187.692 374.745 138.582 41.1134 372.417 13.6627 358.754
internal_count=268644 84544 184100 77104 78998 56392 106996 50289 28887 21402 104680 85152 12482 22606 71544 58495 72670 52230 21029 6376 5560 14653 19528 16073 6265 13049 12233 3455 2249 3311 6103 5555 1577 3248 1544 548 705 261 2316 297 142 155 1316 5546 816 2019 1081 5540 938 63 5536 75 5461
is_linear=0
shrinkage=0.1


Tree=5
num_leaves=51
num_cat=0
split_feature=32 114 105 6 100 131 103 31 134 41 130 106 71 135 134 0 129 111 132 28 59 29 31 56 70 90 51 23 31 100 101 104 124 70 47 112 31 34 96 103 35 61 106 43 71 79 58 62 0 0
split_gain=1647.42 1227.36 1199.67 1008.53 1236.85 882.633 1174.91 906.989 762.9 748.987 635.17 679.06 506.167 505.04 536.092 424.651 411.705 400.512 337.566 306.28 264.859 234.747 222.816 216.065 207.205 204.324 185.374 134.323 131.07 132.649 116.532 115.3 114.971 113.037 109.562 105.687 101.615 86.7487 83.9805 72.5822 73.6582 65.5023 61.3863 28.6688 19.8693 0.0149293 0.000480104 2.72536e-09 5.68434e-14 1.42109e-14
threshold=0.92739203572273265 -0.82147070765495289 -0.87346920371055592 0.65227758884429943 -0.86597338318824757 1.0000000180025095e-35 -0.82372325658798207 1.0056723952293398 1.0000000180025095e-35 1.1003217697143557 1.0000000180025095e-35 -0.97182887792587269 -0.42630755901336664 1.0000000180025095e-35 1.0000000180025095e-35 0.46456077694892889 1.0000000180025095e-35 -1.2393520474433897 1.0000000180025095e-35 1.2015103101730349 0.8059891164302827 1.1497051119804385 1.0093981027603152 0.92960321903228771 -0.27984212338924402 -1.1436110138893125 1.0030288100242617 1.4283210039138796 0.99433395266532909 -0.92646643519401539 -0.83835107088088978 -0.95875555276870716 -1.9442446827888487 -0.30659441649913782 1.2270744442939761 -1.2006555795669553 0.9988704025745393 0.77182921767234813 -0.99245843291282643 -0.88534894585609425 0.8094555437564851 0.79371929168701183 -0.93186306953430165 0.9955594837665559 -0.55254304409027089 -1.2992708086967466 0.66648685932159435 0.46378719806671148 0.70609149336814891 0.64398369193077099
decision_type=2 2 2 2 2 2 2 2 2 2 2 2 2 2 2 2 2 2 2 2 2 2 2 2 2 2 2 2 2 2 2 2 2 2 2 2 2 2 2 2 2 2 2 2 2 2 2 2 2 2
left_child=1 8 13 5 15 7 22 12 9 10 11 -1 -4 14 18 44 -17 37 19 -2 -9 30 -7 26 -8 -12 -16 32 31 45 -6 -10 35 -25 -19 -15 -34 -11 -31 40 -29 -33 -20 -41 -5 -30 47 48 49 -3
right_child=2 46 3 4 21 6 24 20 28 17 25 -13 -14 27 23 16 -18 34 42 -21 -22 -23 -24 33 -26 -27 -28 39 29 38 -32 41 36 -35 -36 -37 -38 -39 -40 43 -42 -43 -44 -45 -46 -47 -48 -49 -50 -51
leaf_value=0.14986663729804375 0.17047842715183986 -0.10656059036905417 0.10426866511356994 0.096794964645005574 -0.029791476241366823 0.085752054193740601 -0.093750573929162195 0.1675985139499461 0.28464067513984298 0.3011333550423303 0.20342388992369123 0.091383663462400622 0.12843425134793637 0.06941081764143979 0.16954904450432209 0.087602049550131636 0.18151723654275928 0.1318876215507071 -0.12160505854728317 0.1406589637435551 0.11565241808606289 0.25315565796293676 0.15302785627640536 -0.062426066756594067 0.0072612828060517019 0.12839234029157051 -0.07420237124844245 0.27212969790642755 -0.12695574409727048 0.31121698919696206 -0.11807778339129918 -0.10208636808060355 0.0055610708034190791 0.18796388757506913 0.026179769303644962 0.27909208169953875 0.079855407395443723 -0.080636360033929932 -0.0057353301248517646 0.22592316589261721 0.082020138611020851 0.11232800863136337 0.042207621741635386 0.099794392285773748 -0.13695599490265312 -0.13436153561064468 -0.10860042501994174 -0.10655572301462035 -0.10656059036905417 -0.10656059036905417
leaf_weight=2174.6567102298141 7200.1228796243668 74.011471621692181 15618.384233281016 3.8028018027544013 381.34652293473482 1428.4584993720055 300.25415971130133 5383.4976059645414 8.4372489303350431 6.0505216419696799 698.99180842936039 22813.83132866025 19476.072381682694 51.814380496740341 37.731757283210754 5249.8085755631328 512.33611315488815 165.53099895268679 43.944777071475983 6603.4346974343061 1200.4052168577909 24.175339683890343 751.18633478134871 22.496901795268059 627.43447410315275 754.91004664450884 180.23010322451591 22.964425429701805 3.34484934806824 23.590127125382423 245.91831865906715 264.97583473473787 300.83936260640621 90.794275030493736 240.51437297463417 44.841241106390953 474.40472057461739 365.36935833841562 12.948179520666597 95.284297332167625 181.12380154430866 15.057463385164736 47.713390052318573 22.224364012479782 83.125737100839615 14.619467109441755 1.1582321971654881 1.1547737717628468 226.36763919889927 1.2133028134703625
leaf_count=5136 10103 1281 43844 12 1999 4296 1507 10099 14 8 1854 80714 46805 176 98 17503 1225 676 307 12569 2904 24 1363 95 2494 2330 829 17 20 26 1589 1509 1471 173 1701 71 1908 4246 47 138 586 78 242 68 436 77 17 20 3918 21
internal_value=0 0.0932961 0.122247 0.114893 0.0780857 0.120236 0.0688219 0.124069 0.0954998 0.0973673 0.100212 0.0964732 0.11768 0.146704 0.151946 0.0926429 0.0959524 0.000627757 0.154943 0.156213 0.158127 -0.0526192 0.108938 0.0262202 -0.025432 0.164465 -0.0320061 0.0842214 -0.0527126 0.0895084 -0.064404 -0.0795834 0.0638469 0.138242 0.0692733 0.166688 0.0510249 -0.0744172 0.198898 0.13946 0.103412 -0.0905573 -0.0363311 0.202068 -0.12673 -0.132983 -0.106568 -0.106561 -0.106561 -0.106561
internal_weight=0 27866.7 66706.2 51286.2 6500.51 44785.7 3107.33 41678.4 27562.8 27219.9 26442.4 24988.5 35094.5 15420 14226.5 5849.07 5762.14 777.465 13895.2 13803.6 6583.9 651.44 2179.64 331.253 927.689 1453.9 217.962 1193.5 342.973 54.5026 627.265 288.471 871.9 113.291 406.045 96.6556 775.244 371.42 36.5383 321.597 204.088 280.033 91.6582 117.509 86.9285 17.9643 303.905 302.747 301.592 75.2248
internal_count=268644 103693 164951 136100 22788 113312 9660 103652 98436 96665 90034 85850 90649 28851 24416 19176 18728 6631 23221 22672 13003 3612 5659 1195 4001 4184 927 4435 1771 170 3588 1601 3626 268 2377 247 3379 4254 73 809 603 1587 549 206 448 97 5257 5240 5220 1302
is_linear=0
shrinkage=0.1


Tree=6
num_leaves=52
num_cat=0
split_feature=32 105 114 6 102 30 72 101 59 103 132 30 124 45 133 71 36 135 0 81 134 101 5 136 30 132 30 55 78 56 1 74 42 23 92 28 104 70 125 106 55 66 104 36 99 101 30 4 66 59 0
split_gain=1279.35 981.536 967.235 700.513 997.086 719.736 959.919 1559.47 718.204 663.367 702.956 691.346 640.123 635.798 493.424 439.66 439.395 402.907 375.613 370.869 346.354 282.388 295.086 274.457 251.097 243.789 251.754 211.8 192.104 184.658 170.418 155.81 117.37 101.675 96.8059 85.5246 80.7937 79.3865 70.4709 57.3625 54.6564 129.036 56.1357 27.2095 25.1918 21.3615 8.94422 0.277765 0.000353305 5.88869e-09 5.68434e-14
threshold=0.92739203572273265 -0.8748568296432494 -0.82147070765495289 0.65227758884429943 -0.84433484077453602 1.0601378679275515 -0.62121957540512074 -0.82524260878562916 0.84249931573867809 -0.91529396176338185 1.0000000180025095e-35 1.0930527448654177 -2.5073829889297481 1.2033485770225527 1.0000000180025095e-35 -0.53600701689720143 0.80398142337799083 1.0000000180025095e-35 0.46456077694892889 -1.2069374322891233 1.0000000180025095e-35 -0.84152054786682118 0.64806649088859569 1.0000000180025095e-35 1.0708578228950503 1.0000000180025095e-35 1.0605988502502444 0.98265963792800914 -0.36724828183650965 0.92960321903228771 0.51040998101234447 -0.95656874775886525 0.93775486946105968 1.4283210039138796 -1.0836843252182005 1.2835165262222292 -0.86346790194511402 -0.30659441649913782 -2.0644204616546626 -0.93186306953430165 0.88496217131614696 1.0000000180025095e-35 -0.90958467125892628 0.92163810133934032 -0.91848999261856068 -0.89451104402542103 1.0922831892967226 0.62135830521583568 0.25891825556755071 0.61033591628074657 0.59363731741905224
decision_type=2 2 2 2 2 2 2 2 2 2 2 2 2 2 2 2 2 2 2 2 2 2 2 2 2 2 2 2 2 2 2 2 2 2 2 2 2 2 2 2 2 2 2 2 2 2 2 2 2 2 2
left_child=2 17 9 5 18 6 7 -3 -8 10 16 12 28 -14 30 36 19 20 45 -1 25 22 -6 -18 -20 26 -2 -17 -11 32 -13 44 -22 34 46 -33 -7 -31 -36 -27 41 -35 -42 -23 -12 -5 -19 -16 49 50 -4
right_child=1 3 48 4 21 15 8 -9 -10 11 31 14 13 -15 47 27 23 33 24 -21 29 43 -24 -25 -26 39 -28 -29 -30 37 -32 35 -34 40 38 -37 -38 -39 -40 -41 42 -43 -44 -45 -46 -47 -48 -49 -50 -51 -52
leaf_value=0.064674839493859479 0.15285219345936785 0.093313685532067189 -0.10589745269877071 0.12088428773567061 0.068895453628276093 0.039079710141966428 0.11466096543983213 -0.0033206470138561687 0.07830430146153769 -0.14568002653487111 -0.11461167704708852 -0.031568977110206897 0.067841853139576955 -0.014231860579378445 -0.12874233321251413 0.14033665681178273 0.16770952978854475 -0.13292598172283593 0.068642127458101776 0.11902776532634443 0.15702315367315547 -0.10809664357842408 -0.060138584159702413 0.0032905141501544037 0.11022040075685778 -0.11915385673870937 0.12501361864934232 0.10770399262070232 0.15067714433753518 -0.081103809219828502 0.15282491594020664 -0.030040695250887369 -0.069073560771527695 0.20630828755785804 0.12694153502105632 0.1097731754123837 -0.1023769890565086 0.16347351122313902 0.048450415991449843 0.043067915587478488 0.036815717301949401 -0.14374881656839708 0.15354638018717137 0.019114006786029251 0.1808560443051539 -0.13409402013145794 -0.0036079835717653923 -0.14191280188891769 -0.10772939909046725 -0.10589087050935786 -0.10589745272252307
leaf_weight=1931.4126511588693 5162.5877828150988 6227.3482078015804 67.050750833004713 3.4237394928932181 408.88137154281139 76.395994648337364 21785.918996721506 2281.9480175822973 7238.9229622334242 22.356151983141899 150.08306646347046 51.840845741331577 17552.636416263878 997.5074377246201 29.912327721714973 6565.9174932390451 1640.0925623103976 28.430242314934731 3112.8566670715809 3586.5810046643019 26.860612273216248 294.61157261580229 312.82656875997782 108.22376714646816 2723.0771099478006 40.538601942360401 8761.6960741430521 2853.224958345294 1011.7194004021585 15.496213942766188 1511.0023083761334 104.77911265194416 158.10355077683926 19.056789487600327 136.29304167628288 75.116732150316238 85.637767918407917 92.434212774038315 711.60165417194366 47.150608614087105 49.464166596531868 23.534508392214775 246.50276915729046 17.83181731402874 2.9421923607587805 81.481730088591576 6.5877140015363684 34.461474344134331 1.0567475371062744 1.3659515678882588 207.14737913757563
leaf_count=6257 6587 17369 1275 10 1439 238 48828 8580 19434 112 1072 257 64564 7978 187 12829 3400 157 10870 8396 65 2001 1798 435 6657 307 15251 6200 2009 71 2654 614 742 18 366 319 386 158 3015 230 171 115 505 80 14 448 26 168 17 26 3939
internal_value=0 0.10517 0.0801965 0.0988059 0.0691807 0.103179 0.0969345 0.0673991 0.105593 0.0819833 0.107335 0.072901 0.067697 0.0634285 0.135532 0.127642 0.113845 0.127331 0.0850047 0.100003 0.132039 -0.0214171 0.0129652 0.157532 0.0880428 0.134288 0.135335 0.130452 0.14427 0.0244139 0.146708 -0.034756 -0.0362397 0.0722039 0.0543381 0.0283395 -0.0356827 0.128358 0.0610673 -0.031927 0.118795 0.0128786 0.134037 -0.100836 -0.108931 -0.123812 -0.108598 -0.135793 -0.105904 -0.105897 -0.105897
internal_weight=0 69596.6 29087.3 54070.3 6954.99 47115.3 37534.1 8509.3 29024.8 28810.7 7599.23 21211.4 19584.2 18550.1 1627.22 9581.18 7266.31 15526.3 5920.84 5517.99 14304.9 1034.15 721.708 1748.32 5835.93 14012 13924.3 9419.14 1034.08 292.895 1562.84 332.921 184.964 1221.47 882.913 179.896 162.034 107.93 847.895 87.6892 338.558 42.5913 295.967 312.443 153.025 84.9055 35.018 64.3738 276.621 275.564 274.198
internal_count=268644 164951 103693 137167 23303 113864 94211 25949 68262 98436 20507 77929 74663 72542 3266 19653 18488 27784 17985 14653 23411 5318 3237 3835 17527 22375 21838 19029 2121 1036 2911 2019 807 4373 3564 933 624 229 3381 537 809 133 676 2081 1086 458 183 355 5257 5240 5214
is_linear=0
shrinkage=0.1


Tree=7
num_leaves=53
num_cat=0
split_feature=32 113 133 31 71 60 102 71 30 135 83 104 36 105 31 30 0 132 108 102 131 30 74 114 103 34 77 134 114 115 77 102 51 30 109 30 97 76 64 68 71 38 100 58 42 0 42 36 107 121 120 114
split_gain=1017.09 789.851 751.796 1059.26 788.311 1203.84 603.805 687.008 579.243 683.602 620.444 568.01 630.839 506.27 472.824 470.358 466.022 453.7 370.304 360.631 301.378 294.832 278.15 454.929 269.136 807.644 253.527 686.603 377.736 349.069 420.828 247.03 209.872 200.267 158.948 151.023 153.085 148.59 118.199 85.0078 72.1435 70.0045 66.0873 57.9559 48.1119 44.4964 22.7974 21.7943 20.3907 11.7918 26.8159 0.520094
threshold=0.91527539491653453 -0.89037516713142384 1.0000000180025095e-35 1.0056723952293398 -0.43004071712493891 0.74522107839584362 -0.79180860519409169 -0.40352158248424524 1.0824397802352907 1.0000000180025095e-35 -1.1987065076828001 -0.93289542198181141 0.846814125776291 -0.91447749733924855 0.99734655022621166 1.084931015968323 0.50603905320167553 1.0000000180025095e-35 -0.91767510771751393 -0.90829315781593312 1.0000000180025095e-35 1.0993626713752749 -1.032139718532562 -0.92220911383628834 -0.9010612666606902 0.85153147578239452 -1.2046721577644346 1.0000000180025095e-35 -0.97100567817687977 -1.015801668167114 -1.1750084161758421 -0.80775374174118031 1.0764861702919009 1.073012173175812 -0.89236328005790699 1.0888301730155947 -0.87757951021194447 -1.1330798268318174 0.29996341466903692 -0.12017533183097838 -0.54714322090148915 0.99240049719810497 -0.86296704411506642 0.68402031064033519 1.0296038985252383 0.49005958437919622 0.91521304845809948 0.84106540679931652 -0.91015204787254322 -0.95890372991561879 -0.93009501695632923 -0.82147070765495289
decision_type=2 2 2 2 2 2 2 2 2 2 2 2 2 2 2 2 2 2 2 2 2 2 2 2 2 2 2 2 2 2 2 2 2 2 2 2 2 2 2 2 2 2 2 2 2 2 2 2 2 2 2 2
left_child=1 8 3 4 5 14 20 -8 9 11 33 17 -13 -12 -2 18 35 -1 24 21 -6 38 34 -24 39 -26 27 28 -5 30 -28 -7 -29 -11 -18 36 -10 -31 -17 -4 47 42 -20 -42 48 -37 -23 -21 -3 50 -50 -51
right_child=2 44 15 26 6 31 7 -9 16 10 13 12 -14 -15 -16 19 22 -19 41 40 -22 46 23 -25 25 -27 29 32 -30 37 -32 -33 -34 -35 -36 45 -38 -39 -40 -41 43 -43 -44 -45 -46 -47 -48 -49 49 51 -52 -53
leaf_value=0.14045661470623907 0.053193470571880008 0.1743339852546818 0.18578460840786071 0.045196694268584761 0.11496788850008904 0.033665600403471323 0.030707993117192092 0.089606765964134472 0.087455190872362684 -0.094043423195254383 -0.08373645604490626 0.019687092573746515 0.073533899540387179 0.080138709300639696 0.083729176029546326 0.13001382572320686 0.00065888821939621826 -0.032514886637625237 0.02420173986793708 -0.14875302072062152 0.0075380068633197272 -0.14578537797326571 0.094472298104947103 0.17577385617610108 0.0046744926667671742 0.12183088435161871 0.020917987823940259 -0.097101613920142549 0.11014183900353197 0.12799108432755985 0.1157176668790374 -0.026362825420480109 0.11686242993621283 -0.0095485802656680024 0.12588953500442338 -0.11238009619446765 -0.099057298400838045 0.17087046597935895 -0.15211444583321357 0.13266473578053742 0.19149069110190808 0.20879127268438316 -0.12648726457467779 -0.030330301478192837 0.22162564298268969 -0.015075090733164457 -0.019104299804550296 0.0089134482726704566 -0.12903399580000707 -0.1199784243280371 0.13972155510051382 -0.10530480154978364
leaf_weight=1464.3256879001856 7212.2650706022978 2.6945917420089236 733.18650370836258 1015.026646822691 9299.2017694786191 1426.2541240006685 2408.4289541840553 11142.79593077302 191.51960168778896 457.39695107936859 222.35587640106678 2946.805544808507 8314.5061609111726 1238.8566908761859 17078.896505735815 427.32604840397835 420.59277872741222 169.15998600423336 47.319387331604958 69.485741257667542 268.67766369134188 45.446644157171249 5431.3372450843453 788.11894630640745 626.34229277074337 9718.8681191653013 545.57815654575825 230.47173980623484 7609.0478335693479 1857.2111281529069 3304.3968852460384 1320.0334472581744 57.225676506757736 725.34990121424198 133.52988653630018 115.98441673070192 57.134554326534271 1430.7170341312885 15.38439132273197 511.38952143490314 12.476741671562193 9.8341921716928464 75.606369316577911 210.48598159849644 4.7404986917972556 79.008385136723518 20.665155082941055 10.033198714256285 8.8586168959736806 26.728086583316326 6.3910546600818625 250.91022952273488
leaf_count=3279 22849 9 734 2564 18924 4430 7189 26306 547 2507 1063 12688 32111 4541 46094 720 1775 1073 129 328 903 217 13014 1246 1957 14465 1479 1108 15924 2922 5909 5198 104 3351 457 726 341 1725 69 699 14 14 349 676 6 279 74 27 56 210 20 5245
internal_value=0 0.0666863 0.0905674 0.0863159 0.0791607 0.0675679 0.0927182 0.0791388 0.0688126 0.0579394 0.0116189 0.067437 0.0594435 0.0552015 0.0746628 0.113025 0.0922229 0.122544 0.118121 0.0393886 0.111951 0.0907937 0.0987261 0.104775 0.120023 0.114738 0.108676 0.0974283 0.102498 0.12272 0.102284 0.00481227 -0.0545422 -0.0422248 0.0308364 -0.0070678 0.0445992 0.14665 0.12021 0.163958 -0.0470829 -0.0479417 -0.0684806 -0.0179174 -0.0944269 -0.0729535 -0.106188 -0.12886 -0.0994957 -0.102015 -0.0164 -0.106717
internal_weight=0 23056.3 78740.1 66206.2 50156.6 27037.4 23119.1 13551.2 22756 15538.8 2643.96 12894.8 11261.3 1461.21 24291.2 12533.9 7217.23 1633.49 11722.5 811.304 9567.88 508.822 6773.58 6219.46 11589.8 10345.2 16049.7 8911.77 8624.07 7137.9 3849.98 2746.29 287.697 1182.75 554.123 443.647 248.654 3287.93 442.71 1244.58 302.482 132.76 122.926 222.963 300.323 194.993 66.1118 79.5189 295.583 292.888 15.2497 277.638
internal_count=268644 84544 184100 163628 131893 78571 53322 33495 78998 60613 11462 49151 44799 5604 68943 20472 18385 4352 18347 2125 19827 1080 16492 14260 17855 16422 31735 19700 18488 12035 7388 9628 1212 5858 2232 1893 888 4647 789 1433 1045 492 478 690 5546 1005 291 355 5540 5531 76 5455
is_linear=0
shrinkage=0.1


Tree=8
num_leaves=54
num_cat=0
split_feature=31 77 88 114 118 130 77 113 129 31 54 117 77 99 74 96 51 6 105 36 116 75 112 99 82 110 77 106 74 78 135 83 6 21 111 28 30 91 87 31 119 49 55 34 119 41 117 45 73 110 30 64 58
split_gain=856.812 763.45 693.632 604.277 523.841 520.536 612.946 510.408 488.455 629.009 541.437 481.328 573.828 522.714 472.505 791.273 452.678 426.921 332.029 674.597 280.166 270.946 302.914 264.431 238.36 261.724 244.229 213.854 205.411 192.544 174.092 166.087 147.335 164.329 130.706 123.682 123.226 113.427 100.823 50.3343 31.1786 13.2896 41.4795 58.8294 19.0145 0.539858 0.163945 0.00806361 0.000501788 1.18793e-06 1.22556e-06 4.44606e-09 4.57106e-10
threshold=0.97778725624084484 -1.2227901220321653 -1.1969313621520994 -0.82147070765495289 -1.6114600300788877 1.0000000180025095e-35 -1.3210754990577696 -0.96435323357582081 1.0000000180025095e-35 1.0111865401268008 1.0528851151466372 -0.91003683209419239 -0.5425266921520232 -0.69944596290588368 -0.9118174910545348 -0.89372360706329335 1.1754656434059145 0.62520331144332897 -0.94668594002723683 0.83806368708610546 -1.0715635418891905 -1.0907450914382932 -0.93353262543678273 -0.82116413116455067 -1.2764911055564878 -0.92012903094291676 -1.2372735142707822 -0.86980846524238575 -1.0356014966964719 -1.399488031864166 1.0000000180025095e-35 -1.2841594219207761 0.86222249269485485 1.3643757700920107 -0.93980607390403736 1.1335957050323489 1.0882288217544558 -1.0996510386466978 -1.2540925741195676 1.0128061175346377 -1.0586857199668882 1.1971423625946047 1.0383183956146242 0.85944586992263805 -1.6672013401985166 1.1003217697143557 -1.5658695697784422 1.2033485770225527 -0.63591256737709034 -0.77925968170166005 0.9896565079689027 0.3551222831010819 0.64509516954422008
decision_type=2 2 2 2 2 2 2 2 2 2 2 2 2 2 2 2 2 2 2 2 2 2 2 2 2 2 2 2 2 2 2 2 2 2 2 2 2 2 2 2 2 2 2 2 2 2 2 2 2 2 2 2 2
left_child=3 2 5 4 41 8 29 14 9 -2 -10 12 13 -6 15 17 -14 -3 36 -20 -17 22 30 -8 25 40 -27 39 -24 -7 -9 38 35 -34 -29 -13 -16 -33 -23 -26 -4 42 44 -44 -1 46 -43 -47 49 50 -5 52 -51
right_child=1 7 24 48 11 6 23 21 10 -11 -12 32 16 -15 18 20 -18 -19 19 -21 -22 31 28 -25 27 26 -28 34 -30 -31 -32 37 33 -35 -36 -37 -38 -39 -40 -41 -42 45 43 -45 -46 47 -48 -49 -50 51 -52 -53 -54
leaf_value=-0.12032064789929729 0.049715400052671631 0.091203680629547784 -0.13368841677264248 -0.10477464390636644 0.056267245364330802 -0.11668871823538551 0.11859023138647032 0.068261750534467425 0.10979455594504087 0.1190653011769096 0.030523361801767124 0.066024710741121415 0.11957667284327003 0.010516951643452479 0.13812770171809449 -0.060375007337484722 0.047030041297377534 0.05804106251562046 -0.008593238431777863 0.089589170543577776 0.029901337486144465 -0.11690834994210478 0.0079330535498370117 -0.073793176876400204 -0.088200598440559219 -0.11067629139583564 0.028943393505886629 -0.14707718282128354 0.12620008725743509 0.036330284976770343 -0.022190910661878279 0.12028765478928559 0.20983317746011074 -0.087850876626546587 0.18841616266038394 0.12787107919104646 0.077954121866415593 0.15628264344041942 0.099605804685978572 0.083707361502024194 -0.068081892434684418 -0.11925963077403506 -0.052265781266896842 0.33884699377775956 0.11126312982048239 -0.11530331890682753 -0.13659365257049164 -0.1084619536870368 -0.10713225962343445 -0.10477464390888579 -0.10493945840604101 -0.10476746670781484 -0.10477245311891144
leaf_weight=51.005826219916344 15917.237755797803 8604.1718758270144 147.10090694576502 0.91337151825427898 12081.988792546093 93.645012743771076 3965.4774883985519 648.53918475657701 3707.4205971881747 1424.9560871198773 1122.4971862584352 417.85571762174368 2195.5147022381425 3148.0266689360142 1833.0175835341215 481.04868955165148 1414.0935928151011 7073.1589055359364 718.85532266646624 26406.538739547133 1204.6218892410398 21.777177304029465 167.31372833997011 72.756657108664513 58.782620638608932 148.44641082361341 803.04013308882713 12.650624670088289 1201.1714623421431 674.71603007614613 316.68567898869514 2252.0930900797248 24.873838827013969 72.870060682296753 141.51374209672213 1429.749293372035 417.91419446468353 1432.1790800243616 1736.3874892070889 23.980622693896294 142.71446856856346 52.205855093896389 12.146034903824331 5.6277753114700309 3.8102785870432845 1.7588679119944561 6.0931295901536933 84.097667187452316 0.90682335942983527 224.34144262969494 0.89158513024449348 0.86868789419531722 0.95646653696894546
leaf_count=381 46646 17721 768 21 39568 519 8320 1559 7782 2384 3137 1158 5383 13794 2351 1933 6312 18259 2831 51945 3457 89 621 298 255 894 2420 62 2410 2147 1192 4027 39 387 208 3277 917 2099 3404 44 670 399 71 8 20 16 32 1173 16 5158 20 20 22
internal_value=0 0.0793362 0.0660595 0.0568231 0.0585843 0.069714 0.0995472 0.0862666 0.0632466 0.0554137 0.0913715 0.0601971 0.0553071 0.0468107 0.0823198 0.0692416 0.0911559 0.0762417 0.0900498 0.0869872 0.0041387 0.109989 0.0814832 0.115124 -0.00063806 -0.0181815 0.00716059 0.0912749 0.111741 0.0176809 0.0385847 0.122212 0.107554 -0.0120963 0.160886 0.113884 0.126956 0.13428 0.096924 -0.0383903 -0.101382 -0.0960736 -0.061179 0.0715734 -0.104223 -0.113645 -0.121071 -0.108602 -0.104785 -0.104775 -0.104856 -0.104775 -0.104775
internal_weight=0 82972.4 28456.9 21230.6 21001.7 26978.7 4806.6 54515.5 22172.1 17342.2 4829.92 20785 18839.6 15230 46739.3 17363 3609.61 15677.3 29376.3 27125.4 1685.67 7776.15 2333.71 4038.23 1478.23 1241.3 951.487 236.928 1368.49 768.361 965.225 5442.44 1945.35 97.7439 154.164 1847.61 2250.93 3684.27 1758.16 82.7632 289.815 216.745 72.5899 17.7738 54.8161 144.156 58.299 85.8565 228.878 227.972 1.80496 226.167 225.298
internal_count=268644 191369 76554 77275 72018 71233 11284 114815 59949 49030 10919 69918 65057 53362 99414 41370 11695 35980 58044 54776 5390 15401 5782 8618 5321 4752 3314 569 3031 2666 2751 9619 4861 426 270 4435 3268 6126 3493 299 1438 2100 480 79 401 1620 431 1189 5257 5241 41 5200 5180
is_linear=0
shrinkage=0.1


Tree=9
num_leaves=54
num_cat=0
split_feature=32 105 131 103 114 5 134 53 73 118 29 129 129 106 31 88 135 74 134 129 33 28 128 104 70 6 56 106 31 100 19 62 127 28 104 30 123 53 37 96 104 105 3 27 49 59 41 79 73 110 75 64 58
split_gain=730.376 697.45 538.951 765.956 519.458 518.972 494.865 488.189 700.596 451.386 431.558 401.82 398.963 438.812 353.175 347.124 334.24 269.295 251.81 237.232 234.493 177.158 166.973 157.026 260.923 144.185 131.661 107.759 95.345 94.7045 93.7314 83.5645 95.7678 81.9122 92.9463 88.8047 68.3061 63.3192 60.3503 51.5855 51.1592 39.433 36.1552 28.0253 13.2615 36.7958 0.384171 0.019513 0.000388191 8.70896e-07 9.12205e-07 3.2334e-09 3.30999e-10
threshold=0.92739203572273265 -0.8748568296432494 1.0000000180025095e-35 -0.82423666119575489 -0.82147070765495289 0.66301289200782787 1.0000000180025095e-35 1.0812385082244875 -0.73312255740165699 -1.6114600300788877 1.1360135674476626 1.0000000180025095e-35 1.0000000180025095e-35 -0.96807318925857533 1.0107679367065432 -1.1197565197944639 1.0000000180025095e-35 -1.0027148723602293 1.0000000180025095e-35 1.0000000180025095e-35 0.90281102061271679 1.222828269004822 1.0000000180025095e-35 -0.81115391850471485 -0.27984212338924402 0.75093054771423351 0.92960321903228771 -0.84927272796630848 0.99433395266532909 -0.92646643519401539 1.342224180698395 0.72415131330490123 -2.5312250852584834 1.2377422451972964 -0.86199352145194996 1.0594534277915957 -1.20264196395874 1.0503792166709902 0.86972987651824962 -0.99245843291282643 -0.90958467125892628 -0.95230242609977711 0.40081417560577398 1.3257145285606386 1.1971423625946047 0.86635771393775951 1.1003217697143557 -1.2992708086967466 -0.61947765946388234 -0.77925968170166005 -1.1895753741264341 0.3551222831010819 0.64509516954422008
decision_type=2 2 2 2 2 2 2 2 2 2 2 2 2 2 2 2 2 2 2 2 2 2 2 2 2 2 2 2 2 2 2 2 2 2 2 2 2 2 2 2 2 2 2 2 2 2 2 2 2 2 2 2 2
left_child=4 16 5 14 6 7 9 11 -9 44 19 -3 13 -11 17 -14 18 -4 20 -7 25 -12 -22 24 -5 -2 30 -16 31 47 -20 41 -33 34 38 -36 40 -28 -18 -31 -35 -8 -25 -38 45 -1 -46 -30 49 50 -6 52 -51
right_child=1 2 3 23 48 10 28 8 -10 12 21 -13 15 -15 27 -17 33 -19 26 -21 22 -23 -24 42 -26 -27 37 -29 29 39 -32 32 -34 36 35 -37 43 -39 -40 -41 -42 -43 -44 -45 46 -47 -48 -49 -50 51 -52 -53 -54
leaf_value=-0.10139697363823062 0.084942618821960705 0.072844009129341025 -0.00083285652654206438 -0.088867900564326086 -0.10429911923402738 -0.064051722606867256 0.16390706770826094 0.030585856501626076 0.076427269861779112 0.089866030954163512 0.032745553199452507 0.10213998877818253 0.12830444124620879 0.049713018549020736 0.10692081638622786 0.012235184294278847 -0.13485749794336979 0.059564848589471378 -0.081338970792460885 0.094049396141105135 0.11104989528946452 0.11912511326944888 0.019490712146348451 0.032239953958049065 0.034070284745402246 -0.027814832933774937 0.17834682766994256 -0.053405124275607056 -0.12864643511504845 0.21372305233992839 0.089860823827239533 -0.12484160405255081 0.2929232750026316 0.012023523827767842 0.044294447931148007 0.19280401751739853 -0.10881303469648347 0.028103471376118849 0.0098340390183996335 -0.022402920649767219 0.10072102468559728 -0.10512882498778947 -0.10666579630314593 0.060550671473362738 -0.11869690719089761 0.064506091673207935 -0.10771777295877936 -0.13697109587944906 -0.10652636511173581 -0.10429968984402492 -0.10444827366362844 -0.10429326928605942 -0.10429773426270689
leaf_weight=51.342801347374916 7156.5246247798204 32137.931285426021 1172.9314678907394 285.60810703039169 0.82992252707481384 640.43646718561649 5.5586024820804587 6292.5765385702252 7090.583904594183 3039.3736578300595 890.00300993025303 5480.178164832294 1286.830634355545 26041.394762866199 1147.5704165548086 322.17023432999849 30.321924835443497 1991.8650622293353 153.41274347901344 111.41962063312531 7133.8363306745887 323.82019011676311 204.89893980324268 19.960055813193321 436.46666969358921 115.23056370019913 47.10800564289093 43.511967413127422 3.4613427668809917 28.091577142477036 40.402117148041725 10.098807767033579 12.016530245542524 78.512122556567192 187.11609914898872 51.305168285965919 26.936708331108093 69.339232578873634 584.5310999751091 13.795799344778059 378.63348267972469 273.88057065010071 306.12885913997889 15.331159129738806 53.751271389424801 18.075148642063141 78.291322953999043 15.095943391323088 0.78630279749631782 203.90917069464922 0.81044558435678371 0.78941282257437606 0.86918485537171264
leaf_count=400 12165 72064 4342 1298 21 3279 9 17644 14976 6702 2707 10281 2249 84629 1815 985 161 4806 709 276 9343 621 509 64 1288 358 47 154 20 26 98 71 14 243 593 123 127 182 2308 47 783 1507 1552 35 431 80 1189 77 15 5159 20 20 22
internal_value=0 0.0713676 0.0662637 0.0361808 0.0532017 0.069333 0.05425 0.0712762 0.0548733 0.0556121 0.0189129 0.0771118 0.0565915 0.0539096 0.0546488 0.105064 0.0896745 0.0371804 0.0939897 -0.0406223 0.0958828 0.0557896 0.108494 -0.040567 -0.0145565 0.0831558 0.00484226 0.101064 -0.0619911 0.0526391 -0.0456511 -0.084968 0.102154 0.0420768 0.0232507 0.0762518 0.0742423 0.0888835 0.00269847 0.135954 0.0854877 -0.0997772 -0.0981633 -0.0473824 -0.0935842 -0.0581989 -0.112187 -0.135418 -0.104309 -0.1043 -0.104373 -0.1043 -0.1043
internal_weight=0 74644.4 58371 5404.04 31461.2 52966.9 31253.2 51001.3 13383.2 30891.2 1965.68 37618.1 30689.8 29080.8 4355.88 1609 16273.4 3164.8 14920.8 751.856 14610.5 1213.82 7338.74 1048.16 722.075 7271.76 310.262 1191.08 361.999 60.4447 193.815 301.555 22.1153 1352.69 853.274 238.421 499.413 116.447 614.853 41.8874 457.146 279.439 326.089 42.2679 201.461 69.4179 132.043 18.5573 207.994 207.208 1.64037 205.568 204.778
internal_count=268644 164951 137167 15319 103693 121848 98436 114965 32620 96665 6883 82345 94565 91331 11117 3234 27784 9148 23411 3555 22375 3328 9852 4202 2586 12523 1036 1969 1771 170 807 1601 85 4373 3185 716 1188 229 2469 73 1026 1516 1616 162 2100 480 1620 97 5257 5242 41 5201 5181
is_linear=0
shrinkage=0.1


Tree=10
num_leaves=60
num_cat=0
split_feature=31 75 116 76 136 75 118 30 34 78 54 73 114 76 92 32 58 111 30 36 45 103 116 129 52 116 111 123 136 116 61 30 79 70 72 30 73 128 118 94 84 61 109 116 136 116 106 71 90 51 105 38 62 115 107 60 40 118 43
split_gain=611.323 633.025 943.061 515.381 487.477 583.216 685.033 511.105 456.708 451.481 436.186 569.526 483.686 690.029 455.978 447.479 413.627 403.289 383.076 655.415 604.705 571.401 456.505 422.237 406.534 303.541 273.82 265.608 255.199 231.002 223.832 241.749 216.694 214.587 196.568 190.322 169.331 163.523 136.179 133.401 119.562 119.447 305.497 113.811 95.1721 76.0665 64.6441 61.7507 54.9624 51.627 51.469 10.7356 23.6023 8.36095 8.24954 4.64883 0.247975 0.123141 0.0329793
threshold=0.96369829773902904 -1.0987865328788755 -0.95610249042510975 -1.1987645626068113 1.0000000180025095e-35 -1.119187533855438 -0.95755961537361134 1.0757730603218081 0.89553657174110424 -0.33885531127452845 1.0541010499000552 -0.73055166006088246 -0.95249837636947621 -1.1675654053688047 -1.1275480985641477 0.92364910244941723 0.90568587183952343 -0.91310730576515187 1.0833832025527956 0.86414834856987011 1.1962279081344607 -0.83567616343498219 -1.4857085943222044 1.0000000180025095e-35 1.1223739981651308 -1.00349885225296 -0.98711782693862904 -1.3641970753669737 1.0000000180025095e-35 -1.5074037909507749 0.73962423205375682 1.0235390067100527 -1.2009403705596922 -0.37227763235568995 -0.73511236906051625 1.0701763033866885 -0.92744526267051686 1.0000000180025095e-35 -1.1493494510650633 -1.0682128667831419 -1.28744900226593 0.78430610895156871 -1.1078019142150877 -1.4679673314094541 1.0000000180025095e-35 -0.96366885304450978 -0.99506840109825123 -0.54890602827072132 -1.0274431109428404 1.1691639423370364 -0.90912866592407215 0.96315905451774608 0.70988816022872936 -0.94967353343963612 -0.93567502498626698 0.82410210371017467 1.0608695149421694 -1.6114600300788877 1.1682015657424929
decision_type=2 2 2 2 2 2 2 2 2 2 2 2 2 2 2 2 2 2 2 2 2 2 2 2 2 2 2 2 2 2 2 2 2 2 2 2 2 2 2 2 2 2 2 2 2 2 2 2 2 2 2 2 2 2 2 2 2 2 2
left_child=9 2 3 40 5 6 -4 8 -6 18 12 16 13 25 44 -15 27 -7 19 21 24 23 -22 -1 -21 -3 46 -12 33 54 37 -32 39 -5 -9 -16 -34 -13 -18 -28 45 51 49 -44 -14 -2 -20 -42 -48 -43 -23 52 -31 -30 56 -53 57 -11 -58
right_child=1 10 4 28 7 17 -8 34 -10 29 11 30 14 15 35 -17 38 -19 26 20 22 50 -24 -25 -26 -27 32 -29 53 41 31 -33 36 -35 -36 -37 -38 -39 -40 -41 47 42 43 -45 -46 -47 48 -49 -50 -51 -52 55 -54 -55 -56 -57 58 -59 -60
leaf_value=0.0032027713087532093 -0.14116450887585946 -0.085233146846782182 -0.042309222024332155 -0.021651593107227848 -0.061369398444495848 0.03548190600430598 0.053651208037764089 -0.05512589924635905 0.051966356306653576 -0.12031566396513629 0.018170827945559593 0.087296719278161711 0.074739582478334621 0.049077616943156072 0.086309713241717989 0.073388579959334982 -0.11612333819608529 0.10295138882982101 0.19816668942427618 0.035347111435827312 -0.072757156374478424 0.024959446024661533 0.031444824581426348 0.11599668818478209 0.087047740703558321 0.029562518808552346 0.15999899890219538 0.06661659725384865 -0.1428118359895412 0.21266978266229133 0.063295804601696162 -0.0033517601234746676 0.038509254155920325 0.054220730107812622 0.12985639466179827 0.12078652854353662 0.12515818374920834 0.027235090492443534 -0.015451346455419988 -0.042062495106854725 -0.15228807686520418 0.047341696663949259 0.1351701601177113 0.033935966874914132 -0.049630840691409848 -0.069716335660785375 0.045831284767836628 0.1378997565156421 -0.15426687086226526 -0.16428874755902409 -0.094199779110475224 0.23171248208145379 0.099694797531362386 -0.031067939723025767 0.0069557669884988717 0.18938283885997137 -0.11511107187589614 -0.1367442693797209 -0.10744540779981944
leaf_weight=3557.3645922392607 271.58248281478882 250.62595785409212 815.87434147298336 608.473802536726 978.02141697704792 1148.692484408617 8435.3355588950217 67.791752681136131 558.6444199681282 15.151227392256262 2689.438826456666 4182.0785190016031 81.00975476205349 9281.9005527123809 4192.6990934386849 41081.462180137634 157.14305303990841 3873.028067573905 7.2742460221052161 2932.9419712275267 620.39203738048673 38.514173343777657 1304.4002585038543 366.03144409880042 3159.1216733753681 2845.5743666216731 40.465575501322746 1953.8693246915936 99.128651887178421 39.532627336680889 1945.2463724911213 755.67101953923702 288.75777804851532 962.2896164432168 376.38224957883358 2590.4329260885715 1030.0588417053223 508.40436588227749 927.0636405274272 169.6743980795145 9.4656127393245679 15.198487356305121 599.39868535101414 136.3072946369648 255.85399007797241 330.15289948880672 17.329335153102875 32.54825247824192 66.037638977169991 47.719211131334305 616.18998580798507 49.666493684053421 34.744837567210197 7.1809383332729331 6.0316936634480944 54.322203993797302 9.2175993993878382 6.5283401235938063 14.348902121186255
leaf_count=15701 1335 1252 2939 2076 3779 3268 23311 239 1426 115 7448 7686 173 26272 8532 78820 784 7997 7 10389 5018 147 5590 633 8672 8154 83 4639 440 34 4198 2027 708 2711 677 4262 1671 1329 3158 647 45 30 887 358 893 1303 45 60 298 222 5636 25 56 24 28 39 86 35 227
internal_value=0 0.0616139 0.0451154 -0.0145148 0.0536298 0.0600814 0.0451884 0.00714277 -0.020167 0.0399965 0.065772 0.0492402 0.0693521 0.0660912 0.0938366 0.0689081 0.0255708 0.0875181 0.0353679 0.029481 0.0467196 -0.000705928 -0.00214118 0.0137258 0.0621572 0.0202702 0.0811473 0.0385564 0.0146814 0.103988 0.0675814 0.0446489 0.0911587 0.0248297 0.101624 0.0994762 0.106186 0.0807866 -0.0300426 -0.00315255 -0.0905756 0.114848 0.0983271 0.116414 -0.019722 -0.101963 -0.087727 0.0725212 -0.112673 -0.113167 -0.08719 0.18886 0.159823 -0.135264 -0.1029 0.2096 -0.117544 -0.125263 -0.110444
internal_weight=0 92273.1 18574.6 2320.82 16253.8 14272.9 9251.21 1980.84 1536.67 15242.7 73698.5 13118.9 60579.6 53459.6 7120 50363.4 5727.51 5021.72 14214.6 12595 8016.86 4578.1 1924.79 3923.4 6092.06 3096.2 1619.6 4643.31 1677.07 1028.17 7391.4 2700.92 1528.96 1570.76 444.174 6783.13 1318.82 4690.48 1084.21 210.14 643.749 976.89 798.624 735.706 336.864 601.735 90.6412 42.0139 83.367 62.9177 654.704 178.266 74.2775 106.31 51.2778 103.989 45.2461 21.6796 23.5665
internal_count=268644 211257 51630 7994 43636 37515 26250 6121 5205 57387 159627 31269 128358 114498 13860 105092 16029 11265 55245 51786 29669 22117 10608 16334 19061 9406 3459 12087 5251 2142 15240 6225 3109 4787 916 12794 2379 9015 3942 730 2743 1651 1497 1245 1066 2638 350 105 343 252 5783 154 90 464 491 64 463 150 313
is_linear=0
shrinkage=0.1


Tree=11
num_leaves=63
num_cat=0
split_feature=32 105 106 30 129 75 130 117 88 5 102 60 70 28 62 133 74 112 30 0 5 5 101 0 135 30 131 29 101 31 5 31 27 127 34 29 4 60 33 21 88 73 116 33 82 30 51 73 124 91 45 111 105 0 94 73 74 115 30 13 32 31
split_gain=531.934 619.76 468.556 475.109 646.676 612.704 686.531 597.526 512.354 418.806 705.538 397.427 1213.19 530.285 488.336 314.441 300.306 361.372 325.12 279.412 289.973 236.766 844.449 334.087 235.769 242.257 294.186 230.136 214.926 196.254 175.081 173.319 169.501 153.523 419.43 181.78 147.024 151.214 111.634 107.161 101.4 87.6235 85.0144 75.0023 79.4442 73.7985 124.764 68.1715 59.0641 57.8888 52.1879 45.5081 44.7035 33.5755 23.3393 22.2691 31.6136 24.5265 22.0325 13.6172 7.22421 0.0868388
threshold=0.93403917551040661 -0.8748568296432494 -0.96984615921974171 1.0833832025527956 1.0000000180025095e-35 -0.55600130558013905 1.0000000180025095e-35 -1.5433247685432432 -0.9774498939514159 0.63523450493812572 -0.84368088841438282 0.73723429441452037 -0.25165423750877375 1.1371676325798037 0.62134823203086864 1.0000000180025095e-35 -1.0185991525650022 -0.95688223838806141 1.0993626713752749 0.47463123500347143 0.66301289200782787 0.60466572642326366 -0.82989227771759022 0.41408364474773413 1.0000000180025095e-35 1.0605988502502444 1.0000000180025095e-35 1.0441515445709231 -0.83835107088088978 1.009695887565613 0.64806649088859569 1.007708013057709 1.4458178877830508 -1.8940295577049253 0.84132716059684765 1.1973143219947817 0.58431854844093334 0.75291574001312267 0.859574854373932 1.408382833003998 -1.1278167963027952 -0.85032793879508961 -1.4328558444976804 0.88312634825706493 -1.177610397338867 0.94246315956115734 1.0758754611015322 -0.7660977542400359 -1.9442446827888487 -1.2299518585205076 1.0050578713417055 -1.2315768599510191 -0.87627449631690968 0.50986286997795116 -0.87763193249702443 -0.83837744593620289 -0.96627229452133168 -1.0531284213066099 1.084931015968323 1.2631416916847231 0.96598055958747875 0.97831538319587719
decision_type=2 2 2 2 2 2 2 2 2 2 2 2 2 2 2 2 2 2 2 2 2 2 2 2 2 2 2 2 2 2 2 2 2 2 2 2 2 2 2 2 2 2 2 2 2 2 2 2 2 2 2 2 2 2 2 2 2 2 2 2 2 2
left_child=2 24 15 4 5 6 -4 -7 16 11 19 21 13 -13 -14 38 18 -18 -5 41 -21 23 -23 -3 25 36 31 49 30 -28 -12 -27 33 34 -17 -35 37 -2 39 42 -29 -11 -1 55 52 51 -47 58 -46 -6 -41 -40 -45 -38 -49 56 -26 -57 -10 61 -30 -34
right_child=1 9 3 8 27 7 -8 -9 47 10 28 12 14 -15 -16 32 17 -19 -20 20 -22 22 -24 -25 43 26 29 40 60 -31 -32 -33 59 35 -36 -37 53 -39 45 50 -42 -43 -44 44 48 46 -48 54 -50 -51 -52 -53 -54 -55 -56 57 -58 -59 -60 -61 -62 -63
leaf_value=-0.13641065001421415 0.10964252206095199 0.063385022664744342 0.013596225360500173 0.0023731460610760097 0.093159837099835108 -0.011724829389636017 0.074651748721555014 0.081236943282185226 -0.028606717159248979 -0.091372640197917132 0.019416213753095032 -0.075482213305395229 0.087052541478268769 0.021027251870332064 0.051673326762906716 0.01004130001860154 0.04480782989902593 0.091264087181752884 0.083599676257213734 0.070218669165531641 0.023309267818341823 0.063397746358166071 -0.041626020525425751 0.096449932605898653 0.096805329787553449 0.070868183049644193 0.045062549208940289 0.11708251074804905 -0.12400204896442678 0.11372870606796559 -0.073140965370974351 0.032259716899833833 -0.15433246707183235 0.1558157575636463 0.10760016614467927 0.05452117793145992 -0.11475131370808528 0.052257115169348722 -0.014133329789641528 0.034446283791683449 0.046256058303257193 0.00079772614348316189 0.1595988358920514 -0.12442783914232339 0.1050768887732656 0.027930799808301515 -0.10790843380399373 0.12903817823543803 0.017231549667267601 -0.042756775021476977 -0.11111957261974206 0.19260733507294042 0.17172332695900405 0.083914191033470253 -0.066498137347271363 0.06643129575375864 -0.15674324177557353 0.19747695922429565 -0.12353537392333712 0.026714757863456364 -0.02100911934926579 -0.16660092847624033
leaf_weight=10.727905005216597 3647.8298451900482 9563.0821201875806 17251.386750645936 1457.5891075655818 40.058717243373394 870.4017044082284 2061.7664477340877 3362.6613029390574 28.502260953187943 159.48573862016201 500.30127640813589 623.572739623487 5133.9875984936953 6545.8960630074143 16250.490969367325 634.59663133323193 2836.590437181294 4086.9215989857912 744.45458426326513 3078.7742001786828 2303.8452085778117 7523.263540327549 852.32979319989681 4490.7846559584141 23.218363761901859 3098.2043597847223 532.12884809076786 1231.6094643138349 260.00672334805131 1911.0538307875395 345.51111752167344 1861.2544442266226 21.308265790343288 635.94250735640526 1442.165604390204 245.57617053389549 38.583273597061634 525.31120091676712 20.731683887541294 99.673909410834312 241.82650585472584 291.95652766525745 101.50215504691005 51.430861070752144 86.396268367767334 118.84764247387648 156.84817288070917 17.287543579936031 670.88486085832119 143.91770334169269 32.7124312967062 21.888634130358696 5.6577071249485007 10.91320565342903 9.4361876025795919 22.689650639891624 6.238980993628501 38.543079718947411 171.9476196616888 4.6424859911203376 6.9936286658048621 7.9115844070911399
leaf_count=56 4074 19140 63971 4946 139 5285 5999 9235 113 664 1646 2547 8928 17524 35785 1777 6767 7512 1421 7147 7156 16298 2913 7695 48 5087 1121 1944 1670 2331 1923 3759 94 593 1933 541 169 938 90 306 557 841 233 250 166 416 705 26 2342 501 162 24 12 26 37 51 28 37 875 12 25 33
internal_value=0 0.0572804 0.0426153 0.0390589 0.031916 0.0276662 0.0201142 0.0621222 0.0583073 0.0529186 0.0298844 0.0560572 0.0482321 0.0126332 0.0601672 0.0771847 0.0620002 0.0722308 0.0298338 0.0438029 0.0501407 0.066019 0.0527102 0.0739506 0.077446 0.0812733 0.0703706 0.092291 -0.0430848 0.0987731 -0.018393 0.0563787 0.0900845 0.092631 0.0777891 0.127597 0.100387 0.102419 0.0086188 0.0594181 0.105458 -0.0317643 0.131304 0.0282845 0.018678 -0.0304189 -0.0493505 -0.0900356 0.0272536 -0.0131625 -0.00152278 0.092043 -0.0950781 -0.0709487 0.059994 0.114549 0.0431045 0.148918 -0.110037 -0.132378 -0.121304 -0.157654
internal_weight=0 70460.6 38111.4 34556.4 25203.6 23546.2 19313.2 4233.06 9352.73 57930.3 6946.87 50983.4 28553.9 7169.47 21384.5 3555.08 9125.56 6923.51 2202.04 5834.06 5382.62 22429.5 8375.59 14053.9 12530.3 11625.3 7402.64 1657.41 1112.81 2443.18 845.812 4959.46 2992.14 2958.28 2076.76 881.519 4222.64 4173.14 562.933 244.616 1473.44 451.442 112.23 905.06 814.37 318.316 275.696 227.174 757.281 183.976 132.386 42.6203 57.0886 49.4965 26.7237 90.6901 29.4573 61.2327 200.45 33.8623 267 29.2199
internal_count=268644 152341 116303 109328 87631 84490 69970 14520 21697 131902 21072 110830 64784 20071 44713 6975 20646 14279 6367 15808 14303 46046 19211 26835 20439 17505 12298 3141 5264 3452 3569 8846 4983 4844 3710 1134 5207 5012 1992 757 2501 1505 289 2934 2770 1235 1121 1051 2508 640 468 114 262 195 63 164 76 88 988 139 1695 127
is_linear=0
shrinkage=0.1


Tree=12
num_leaves=51
num_cat=0
split_feature=75 101 72 72 31 100 5 130 75 37 39 113 45 18 37 133 41 0 77 5 31 103 5 5 92 102 31 122 134 68 105 68 100 100 60 36 101 33 135 41 99 110 130 29 74 107 36 31 1 103
split_gain=478.053 476.478 949.042 879.29 791.092 665.18 639.695 462.901 498.149 449.039 344.697 332.715 278.549 263.227 303.005 254.082 276.866 264.749 228.61 210.386 204.021 170.506 158.594 148.271 229.974 121.79 131.417 119.525 119.264 102.268 94.1443 147.203 107.13 72.0324 68.8249 68.6067 57.8007 48.9679 35.8155 26.1163 24.126 11.7742 10.4975 6.80839 4.08849 18.4208 4.01281 0.304267 0.146643 0.000420212
threshold=-1.1747357845306394 -0.7815766930580138 -0.5725744068622588 -0.59237569570541371 1.0028582811355593 -0.82394400238990773 0.58451405167579662 1.0000000180025095e-35 -1.0907450914382932 0.87456542253494274 0.96387755870819103 -1.3797922134399412 1.2173209786415102 1.1028513908386233 0.89337170124053966 1.0000000180025095e-35 1.0129736065864565 0.34687089920043951 -1.3210754990577696 0.53771445155143749 0.96560537815094005 -0.8423243761062621 0.58645644783973705 0.72309184074401867 -1.1853153109550474 -0.75851362943649281 0.94693914055824291 -1.616000175476074 1.0000000180025095e-35 0.10475076735019685 -0.85319232940673817 -0.051494391635060303 -0.91265371441841114 -0.95699808001518238 0.7277362346649171 0.87880909442901622 -0.93674799799919117 0.93055084347724926 1.0000000180025095e-35 1.0780175328254702 -0.97091296315193165 -0.86987698078155506 1.0000000180025095e-35 1.1800910830497744 -1.0705599784851072 -0.86351805925369252 0.73100584745407116 1.0100206732749941 0.72380226850509655 -0.83567616343498219
decision_type=2 2 2 2 2 2 2 2 2 2 2 2 2 2 2 2 2 2 2 2 2 2 2 2 2 2 2 2 2 2 2 2 2 2 2 2 2 2 2 2 2 2 2 2 2 2 2 2 2 2
left_child=23 3 4 5 13 7 9 8 -2 -7 25 39 -13 29 -15 17 21 19 -9 -5 -18 -17 -19 24 30 26 -4 -8 37 -3 35 40 -33 -26 -30 36 -1 -6 -27 -12 -32 -35 -43 44 46 -46 49 -48 -47 -25
right_child=1 2 10 15 28 6 27 18 -10 -11 11 12 -14 14 -16 16 20 22 -20 -21 -22 -23 -24 43 33 38 -28 -29 34 -31 31 32 -34 41 -36 -37 -38 -39 -40 -41 -42 42 -44 -45 45 48 47 -49 -50 -51
leaf_value=0.1530195514603335 0.031426696523275059 -0.11046763723138936 0.095289867397137282 0.049274537037239274 0.21637141018512829 -0.069829799529823086 0.30143553623436259 0.010660463992944173 0.051733944974639283 0.032468271185607432 -0.0019160630747003826 0.047870162029103491 -0.024977770034048677 -0.10086518765697992 0.0050534388553206307 0.064610551744671479 0.24313597881148596 0.080159412830898738 0.073676414078029578 -0.084233756032814605 0.10051340868057906 -0.046068241155932166 0.026597192591353069 -0.10400517097879276 0.11735890177454285 -0.10751947006942522 -0.037114025887934547 -0.090552882883186969 0.028533468355108223 -0.00023619296214333051 0.059747376533262231 0.15497065018040812 0.010916019678307895 0.052598382837006241 0.20864968935208858 0.23864114392084576 -0.011526376480538059 -0.038844636628465434 0.05890949338275342 -0.10945850353958049 -0.11112244759101041 -0.12217494058770245 -0.075367926066906135 0.0061988459819428271 0.1867355675119389 -0.13581257925739004 -0.13755037613224105 -0.16223333752427202 -0.10446946088379146 -0.1036504745230666
leaf_weight=40.235622197389603 17897.646152991802 602.12796494737267 103.62182006239891 5359.3829657509923 9.2776975333690626 461.91954050958157 7.8876638859510413 617.35859894007444 37160.749327141792 6037.6409003287554 26.630610041320324 15835.884902223945 542.88204510882497 356.29541737213731 1116.2691871523857 1274.3837915658951 103.3399742692709 6489.7870813906193 8531.0870690457523 120.69015668332577 3408.6561775505543 156.25817295908928 604.27230831235647 80.730897594243288 16.036481007933617 191.64824312180281 271.05366161465645 563.72277558967471 24.416511490941048 97.840312160551548 9.1005643606185895 68.726989477872849 207.4586417041719 4.7970563471317282 161.78781315684319 31.328620404005051 45.477162331342697 39.634098798036575 13.865964099764822 148.51531212776899 89.818597592413425 137.29965732246637 73.598604217171669 5.3765698969364157 2.5376575253903866 5.08368933200836 28.861528739333153 6.0391297191381446 2.1132206097245216 56.971320204436779
leaf_count=74 49446 3636 341 11826 8 2109 6 1787 83981 14824 119 41056 3514 1959 3363 2255 100 11166 16732 432 3840 516 1574 2183 31 1051 1079 2188 53 279 34 169 819 19 91 31 163 122 53 1723 510 957 471 16 4 27 150 27 52 1678
internal_value=0 0.0472099 0.0330733 0.0503211 -0.0257156 0.045388 0.0162783 0.0485938 0.0451327 0.025198 0.0413342 0.0439895 0.0454556 -0.0445727 -0.0205742 0.0703946 0.0896043 0.0628437 0.0694239 0.0463342 0.10471 0.0525219 0.075597 -0.0255106 -0.00497335 -0.0344282 -0.000495851 -0.0851438 0.148529 -0.0950597 0.0337036 0.00927251 0.0467631 -0.0871145 0.185031 0.112003 0.0657154 0.00956531 -0.0962906 -0.0931069 -0.0954024 -0.102317 -0.10584 -0.104708 -0.107978 -0.044925 -0.111535 -0.141821 -0.126609 -0.103858
internal_weight=0 108337 19541.8 88794.8 2407.65 71278 7071.17 64206.8 55058.4 6499.56 17134.1 16553.9 16378.8 2172.53 1472.56 17516.8 4942.64 12574.1 9148.45 5480.07 3512 1430.64 7094.06 911.592 723.878 580.19 374.675 571.61 235.116 699.968 492.146 375.105 276.186 231.732 186.204 117.041 85.7128 48.9118 205.514 175.146 98.9192 215.695 210.898 187.714 182.337 9.73457 172.603 34.9007 7.19691 137.702
internal_count=268644 261229 58447 202782 9511 171073 19127 151946 133427 16933 48936 46412 44570 9237 5322 31709 6711 24998 18519 12258 3940 2771 12740 7415 3278 2524 1420 2194 274 3915 1800 1532 988 1478 144 268 237 130 1104 1842 544 1447 1428 4137 4121 83 4038 177 79 3861
is_linear=0
shrinkage=0.1


Tree=13
num_leaves=56
num_cat=0
split_feature=31 133 103 35 104 129 5 30 74 29 35 54 76 37 55 31 100 133 0 134 83 106 41 103 43 40 126 117 104 76 7 52 65 40 60 7 27 120 113 73 19 71 75 116 30 26 56 58 57 15 53 104 23 40 73
split_gain=432.223 652.796 828.913 693.05 1567.67 551.561 521.668 537.166 486.873 465.506 454.984 408.992 445.009 324.318 366.865 287.052 221.328 265.995 227.563 277.549 460.981 240.811 219.358 494.417 195.349 192.808 167.067 133.689 131.347 125.913 118.407 117.382 115.972 112.954 102.679 104.451 86.9621 82.899 77.9066 68.7969 65.9932 83.2625 52.2534 154.378 46.0126 37.6569 34.8452 33.8894 27.8685 21.9976 21.3392 14.5878 9.36963 1.06159 0.0776401
threshold=1.0056723952293398 1.0000000180025095e-35 -0.79072400927543629 0.84603744745254528 -0.92456734180450428 1.0000000180025095e-35 0.80557000637054454 1.0980338454246523 -1.0131852626800535 1.2073430418968203 0.811466544866562 1.0547158718109133 -1.173180818557739 0.9617258906364442 1.0083073973655703 0.99795827269554149 -0.79134267568588246 1.0000000180025095e-35 0.35987325012683874 1.0000000180025095e-35 -1.2518070340156553 -0.85676267743110646 1.0344789624214175 -0.843532234430313 1.1185758113861086 0.99456891417503368 -1.6770845651626585 -1.4404991269111631 -0.92162108421325672 -1.2216953635215757 0.58093947172164928 1.1408457756042483 0.30300226807594305 0.89573371410369884 0.74816733598709118 0.49390971660614019 1.4921286106109621 -1.1882917881011961 -1.0891994237899778 -0.92508631944656361 1.1478051543235781 -0.36615197360515589 -0.81263461709022511 -1.2872024178504942 1.0455034375190737 1.226435720920563 0.95372214913368236 0.8969358801841737 0.88660752773284923 0.92025187611579906 1.0559070110321047 -0.82007652521133412 1.2370908856391909 0.98294690251350414 -0.74028259515762318
decision_type=2 2 2 2 2 2 2 2 2 2 2 2 2 2 2 2 2 2 2 2 2 2 2 2 2 2 2 2 2 2 2 2 2 2 2 2 2 2 2 2 2 2 2 2 2 2 2 2 2 2 2 2 2 2 2
left_child=1 5 3 4 9 6 7 8 -1 -3 -6 13 31 14 -7 -14 17 18 26 21 -21 -20 23 -5 42 32 30 -24 -9 -15 -2 -13 33 -19 48 -36 38 44 -8 -38 41 -26 43 -4 52 -28 50 -44 -27 54 -46 -48 -18 -34 -39
right_child=16 2 24 22 10 11 36 28 -10 -11 -12 12 15 29 -16 -17 37 25 19 20 -22 -23 27 -25 40 34 45 -29 -30 -31 -32 -33 53 -35 35 -37 39 49 -40 -41 -42 -43 47 -45 46 -47 51 -49 -50 -51 -52 -53 -54 -55 -56
leaf_value=0.0039616114234135892 0.033578957105512446 0.10827412881919447 0.23670645720169303 0.082727231398930401 -0.11712526506989761 0.069052558095793901 0.037842925019993 0.041301490174470323 0.033822961062051154 -0.0056118614659647053 -0.0060791147664732764 -0.061491034160481121 0.055760747545878731 -0.010885198959096575 -0.017226947584209423 -0.033929580720698516 -0.093052343328692333 -0.091481436215172129 0.071701348202952028 -0.084796615901943095 0.066139089079484306 0.043444235390453279 0.24300960522170165 0.015640109748243199 -0.11850097775331897 0.12934502350336691 0.0063235569026190864 0.099484792276571032 0.099553593591356515 0.11605034286832472 -0.10109956022529798 0.11485545914121245 -0.19789458368423721 0.0073204704297966314 0.044672054401874217 -0.22757560459019355 -0.067227927944650087 -0.16097815006055893 -0.10380512582640589 0.069731534497156855 0.1675262164422523 0.032015702709753964 -0.11457286474005531 -0.067220015800814117 0.11236307767371315 -0.16203448803571749 0.11604364693459548 -0.033741626849512672 0.06808151893046388 0.053196715214766904 -0.02019696710433827 0.17287842431017653 0.060126623646982506 -0.24132382772800015 -0.17788477452951065
leaf_weight=6033.3868384342641 932.98968727886677 1943.8626895844936 19.006917655467987 5528.5361524373293 473.08904079347849 4131.8866790309548 43.471311882138252 528.64224458485842 57457.52869322896 440.18344459682703 1676.4691909104586 542.2700335085392 3046.4653171654791 82.142397195100784 559.56458069384098 404.17793074250221 9.1105701923370379 135.29018808156252 10599.971329003572 342.06954342126846 495.39430315792561 4215.2508164569736 66.540231630206108 1370.9510690718889 43.714562565088272 144.84354329109192 16.855711251497269 2632.1535553187132 1445.4387662559748 1606.0011904090643 70.191135942935944 40.569528564810753 8.6443136185407656 799.5086515545845 45.188072741031647 20.479061335325241 73.491085648536682 5.7743591815233239 363.5755367577076 73.214392870664597 28.654503300786018 230.74616022408009 286.06591285765171 138.46528211236 61.554900676012039 62.72320257127285 55.880514994263649 63.356214389204979 152.3550236672163 7.5423513650894156 15.128303080797194 235.41843277215958 7.1092708110809317 16.133307114243507 5.1289094686508188
leaf_count=20668 1918 2685 43 7640 2490 7950 149 1159 153656 1246 5354 1814 6196 209 1491 1167 29 491 17415 1399 890 9290 51 3383 187 112 55 3178 2020 2144 239 71 35 1799 75 84 300 25 5266 180 36 640 1564 611 73 283 63 308 205 15 41 151 13 67 21
internal_value=0 0.038876 0.0579927 0.0636317 0.0314094 0.0351388 0.031765 0.0325826 0.0309853 0.0872465 -0.0305189 0.0565284 0.0316041 0.0722868 0.0587617 0.0452552 0.055652 0.054017 0.0574287 0.0604956 0.00448806 0.0636616 0.0788516 0.0693968 -0.0403872 0.0108418 0.0130923 0.103024 0.0839542 0.109874 0.0241557 -0.0492161 -0.0126387 -0.00697879 0.0729346 -0.0402316 -0.0648868 0.12898 -0.0886776 0.00112265 0.0231188 0.00804225 -0.0783629 -0.030536 0.138922 -0.126374 0.146187 -0.0999168 0.0979391 -0.0781038 0.0862112 0.161976 -0.0259129 -0.226172 -0.168931
internal_weight=0 91373.6 14941.8 14131.8 4533.6 76431.8 66018.7 65465 63490.9 2384.05 2149.56 10413.1 4033.48 6379.59 4691.45 3450.64 18460.5 18057.9 16735.4 15652.7 837.464 14815.2 9598.18 6899.49 810.01 1322.44 1082.76 2698.69 1974.08 1688.14 1003.18 582.84 959.576 934.799 362.866 65.6671 553.752 402.648 407.047 146.705 303.115 274.461 506.894 157.472 384.202 79.5789 367.982 349.422 297.199 18.4456 76.6832 291.299 16.2198 24.7776 10.9033
internal_count=268644 233856 29416 26027 11775 204440 183398 177503 174324 3931 7844 21042 9248 11794 9441 7363 34788 34357 31489 28994 2289 26705 14252 11023 3389 2868 2495 3229 3179 2353 2157 1885 2392 2290 476 159 5895 431 5415 480 863 827 2526 654 370 338 328 1872 317 61 114 214 42 102 46
is_linear=0
shrinkage=0.1


Tree=14
num_leaves=57
num_cat=0
split_feature=31 133 103 40 103 129 5 30 71 56 97 36 27 41 73 58 33 100 115 76 113 76 77 31 103 127 45 0 113 76 0 2 31 116 91 51 30 27 118 96 31 40 45 30 107 90 127 8 56 102 57 49 29 105 32 83
split_gain=357.481 561.335 699.311 594.327 934.962 446.796 429.808 444.701 424.795 334.564 302.776 299.001 284.189 276.524 242.615 446.423 237.183 185.493 233.143 393.405 337.258 231.055 189.741 171.753 177.061 158.314 154.525 150.207 143.777 147.148 134.885 129.866 123.019 111.274 98.1045 95.1145 80.567 78.4364 78.0332 75.3007 105.849 76.2684 74.1933 73.4266 64.9397 63.234 54.4483 52.9914 34.4752 25.7242 21.4535 21.1592 19.0801 15.7947 5.45541 0.0960331
threshold=1.0056723952293398 1.0000000180025095e-35 -0.80047893524169911 0.98294690251350414 -0.85541528463363636 1.0000000180025095e-35 0.80557000637054454 1.0993626713752749 -0.44236254692077631 0.99883940815925609 -0.87757951021194447 0.9683969020843507 1.2580412030220034 1.0448595285415652 -0.74868509173393238 0.89521825313568126 0.93720978498458873 -0.79134267568588246 -1.0327622294425962 -1.1271820068359373 -0.98438352346420277 -1.0993799567222593 -1.2088274955749509 0.96560537815094005 -0.843532234430313 -2.5066472291946407 1.1177977919578554 0.17909066379070285 -1.0284947752952573 -1.0780600309371946 0.36547604203224188 0.56346294283866893 0.99152320623397838 -1.0594073534011839 -1.0345796942710874 1.0134886503219607 1.0688818693161013 1.4921286106109621 -1.5042682886123655 -0.60129487514495839 0.9202399253845216 1.0164886713027956 1.0823565721511843 1.0455034375190737 -0.89687153697013844 -1.0567424893379209 -1.9904117584228513 0.45209082961082464 0.95372214913368236 -0.77350851893424977 0.89706784486770641 1.1055460572242739 1.1031533479690554 -0.84601452946662892 0.9703541398048402 -1.2336030006408689
decision_type=2 2 2 2 2 2 2 2 2 2 2 2 2 2 2 2 2 2 2 2 2 2 2 2 2 2 2 2 2 2 2 2 2 2 2 2 2 2 2 2 2 2 2 2 2 2 2 2 2 2 2 2 2 2 2 2
left_child=1 5 3 4 10 6 7 8 -1 14 -3 16 -6 38 15 -7 -11 18 21 20 26 33 -22 25 -25 -5 -20 -16 29 -23 36 -9 -13 46 -35 -32 -21 42 -4 40 -15 -41 -8 49 -39 -30 -2 -40 50 -19 51 -45 53 -50 -54 -51
right_child=17 2 13 23 12 9 37 31 -10 11 -12 32 -14 39 27 -17 -18 43 19 30 22 28 -24 24 -26 -27 -28 -29 45 -31 35 -33 -34 34 -36 -37 -38 44 47 41 -42 -43 -44 48 -46 -47 -48 -49 52 55 -52 -53 54 -55 -56 -57
leaf_value=0.020319652412035968 0.061177408845259178 0.080051080079416748 0.26852356290737306 0.089749043437286374 0.0014851502614235343 0.052990268932891452 -0.094170047722549263 -0.11536295785735665 0.036632309759480682 0.027395399022042327 0.038700747356351671 0.063069652358993741 -0.097850333975880069 0.31304205883879727 -0.12824928694940704 -0.06675135040199906 -0.094099586284929496 0.045614166606015603 -0.077746165612651991 0.030202270259169179 0.043362704114934349 -0.081535931232503939 0.072868256649193872 0.097233312495799071 0.058438582075477953 0.20598908206787425 0.056719790583836964 0.084124267885083551 0.039382190211648321 0.028200253659038062 0.028336232031615585 0.084957218500250134 -0.050425473353815559 -0.039822630627708105 0.096486418291792136 0.10715160208481855 -0.19789459460047767 0.030072561003851563 -0.10652759957670666 0.13183130084168018 0.030844077661566657 -0.10630376331962613 0.12864514304426808 -0.025451078605600027 -0.15148685367308209 0.094365122183048419 -0.15068012452030669 -0.040770346852076651 0.018912252877468921 -0.16171014070329393 -0.049623219681826515 0.11942118488703012 0.12922245352126752 0.1260736637762141 0.16687925294525749 -0.18065464193980343
leaf_weight=34716.646000752226 13.746792256832121 3034.2904422134161 6.4686139374971381 256.05225522816181 692.27673859894276 5764.0179889760911 367.62738844007254 33.036599814891815 29552.521066287532 275.382265008986 4252.4660331010818 690.12450444698334 493.17847041040659 13.668070659041403 33.694782570004463 329.13444726169109 385.78010393679142 11.263714656233789 306.35583132505417 145.24966831505299 9104.1174852252007 129.87419591844082 2865.452870182693 2602.2777310609818 2147.1795895695686 216.01450709998608 118.52731417119503 2867.2900629080832 373.53450489044189 2066.6883551850915 167.02571561932564 1586.8615323975682 110.84245416522026 259.20325665175915 66.307885214686394 1838.8221041113138 17.333175361156464 122.84559063613415 315.32664683461189 16.554675221443176 482.69546034932137 71.696357674896717 15.577510913833974 12.413739129900931 23.462974116206169 475.34879651665688 103.20740929245949 200.4596391916275 18.160693138837814 5.582400307059288 12.718166723847387 53.663459479808807 49.540849655866623 56.684909522533417 172.18178562819958 5.13914906978607
leaf_count=100241 24 4868 10 546 2042 11562 5383 167 74749 723 8965 1242 2395 14 156 1135 1357 22 951 295 18868 383 4337 2734 3332 220 222 4552 692 4224 364 2346 315 666 88 2160 70 358 1847 48 1184 335 32 29 122 640 373 876 35 24 39 57 50 65 89 21
internal_value=0 0.0348621 0.0526956 0.0588755 0.0425205 0.0314286 0.0284037 0.0291249 0.0278206 0.0506427 0.0559195 0.00627789 -0.0398408 -0.0237598 0.0578548 0.0465222 -0.0434954 0.0501189 0.0486311 0.054193 0.0473183 0.0254089 0.0504262 0.0854125 0.0796946 0.14294 -0.0402349 0.0816576 0.0352194 0.021712 0.093488 0.0808718 0.0473635 -0.0421155 -0.0120559 0.100589 0.00588456 -0.061331 -0.0766423 0.0234818 0.0386148 -0.0616329 -0.0851125 0.117704 0.000956536 0.070171 -0.125778 -0.0809711 0.128107 -0.05992 0.0693124 0.0922044 0.143728 0.100072 0.158465 -0.170791
internal_weight=0 91675.5 14800.6 13693.7 8472.21 76874.8 66418.6 65889.1 64269.2 10456.3 7286.76 1462.13 1185.46 1106.87 8994.14 6093.15 661.162 18448.1 18050.8 14562.9 12394.5 3487.91 11969.6 5221.52 4749.46 472.067 424.883 2900.98 3045.45 2196.56 2168.43 1619.9 800.967 442.465 325.511 2005.85 162.583 529.513 522.255 584.615 496.364 88.251 383.205 397.349 146.309 848.883 116.954 515.786 375.364 21.9853 78.7954 66.0772 296.568 74.8456 221.723 10.7215
internal_count=268644 233856 29416 25102 18270 204440 183398 177503 174990 21042 13833 3637 4437 4314 17405 12697 2080 34788 34357 27267 24378 7090 23205 6832 6066 766 1173 4708 5939 4607 2889 2513 1557 1151 754 2524 365 5895 2733 1581 1198 383 5415 431 480 1332 397 2723 364 67 125 86 239 100 139 45
is_linear=0
shrinkage=0.1


Tree=15
num_leaves=61
num_cat=0
split_feature=101 72 101 72 31 126 59 69 9 30 29 116 123 47 111 70 28 109 113 58 135 62 26 5 127 72 102 71 129 4 68 0 77 116 46 106 73 134 117 31 71 27 35 45 109 82 42 72 71 131 72 26 41 10 0 57 70 62 0 41
split_gain=347.23 646.261 678.65 587.433 450.162 380.183 354.05 611.703 402.947 579.953 574.927 326.625 267.851 361.421 573.966 320.743 327.289 296.989 264.661 255.12 262.808 254.909 250.261 240.964 197.216 190.928 186.411 160.026 157.347 138.369 127.52 116.272 116.213 115.04 207.886 100.616 125.43 87.5289 85.2872 82.3251 77.4563 114.523 70.3296 68.9529 65.9832 70.3498 62.5579 55.3835 52.6528 49.3104 42.5947 42.4637 35.6747 34.5256 18.1803 16.4114 7.22072 0.560442 0.0838724 0.0139671
threshold=-0.77451199293136586 -0.5969281494617461 -0.79793587327003468 -0.56545352935791005 1.0028582811355593 -1.8150085210800169 0.8013131618499757 -0.10041544958949088 0.67399418354034435 1.0712156295776369 1.1529867053031924 -1.105028450489044 -2.3062434196472164 1.217852056026459 -1.2342108488082884 -0.17713811248540876 1.1004664301872256 -1.1221905946731565 -0.96882435679435719 0.9015110731124879 1.0000000180025095e-35 0.60860931873321544 1.1927712559700014 0.59215328097343456 -2.1113244295120235 -0.59049659967422474 -0.81744700670242298 -0.19952487945556638 1.0000000180025095e-35 0.35509473085403448 0.11821525171399118 -0.39461266994476313 -0.88978350162506092 -1.4679673314094541 1.2229483127593996 -0.98702481389045704 -0.71859541535377491 1.0000000180025095e-35 -1.3557355403900144 0.99587905406951915 -0.41036675870418543 1.1621997356414797 0.90443757176399242 1.2173209786415102 -1.0876911878585813 -0.9250410497188567 1.0282489657402041 -0.583011895418167 -0.19001379609107968 1.0000000180025095e-35 -0.5725744068622588 1.2286536097526553 1.0770577788352969 0.64772328734397899 0.25272125005722051 0.90973448753356945 -0.27618137001991266 0.75087863206863414 0.12903942912817004 1.0800973773002627
decision_type=2 2 2 2 2 2 2 2 2 2 2 2 2 2 2 2 2 2 2 2 2 2 2 2 2 2 2 2 2 2 2 2 2 2 2 2 2 2 2 2 2 2 2 2 2 2 2 2 2 2 2 2 2 2 2 2 2 2 2 2
left_child=1 2 6 4 22 11 8 18 10 -10 -1 42 27 15 48 16 -14 -17 -8 20 23 -9 30 26 -13 38 -3 57 35 -27 53 -16 -25 43 -35 49 -37 50 -24 47 46 -42 -4 -29 58 -46 -7 -30 -15 -21 54 -41 -32 -2 -6 -39 -57 59 -22 -5
right_child=3 19 5 12 37 40 7 21 9 -11 -12 24 13 14 31 17 -18 -19 -20 28 44 -23 25 32 -26 29 -28 33 39 -31 52 -33 -34 34 -36 36 -38 55 -40 51 41 -43 -44 -45 45 -47 -48 -49 -50 -51 -52 -53 -54 -55 -56 56 -58 -59 -60 -61
leaf_value=0.053209401008047857 -0.1405433189932071 0.072735656873173252 -0.048015465830243437 -0.21819124682208846 0.019083789047892551 0.14307017110221262 0.012007783137097551 0.086191226800428664 0.018171101664827074 0.041004443110207664 -0.036938831166670953 0.11934626112734098 -0.023549080265228849 -0.11140582293628576 -0.14798044193796345 0.0823806673130974 0.027828954158971062 0.033224585241767163 -0.035304970807051798 -0.14758672004120274 -0.15553876068209377 0.027344824728342782 0.18136606519021789 -0.016974820106485614 0.0065563653969742848 -0.079048271988004459 0.051297550995376744 0.12767846005314018 0.099434444827738236 0.02578337577992483 0.082253329807102329 0.027071338970248639 0.10396686976624524 -0.15576484895634893 0.1205863439327573 0.0080856130806839354 0.068402826976120337 0.080001855426364121 -0.0743381252732737 -0.11055201650554702 -0.11064368164296977 0.13981558586434176 -0.14408633763540848 -0.0023046798817861415 -0.061668939570489058 0.034027162705650309 -0.12684762393168833 -0.026665356385467257 0.0016157570581801406 0.065273974531634901 0.11607294416484511 0.18207091763453412 -0.15532462465051924 -0.015509679045902863 -0.16639414555169474 0.15790603716415336 0.21126405893118749 -0.17574182814236558 -0.14438830260930388 -0.21147518180637401
leaf_weight=15383.033714048564 347.20891354419291 5789.8152590543032 330.05152115225792 8.1906856894493121 8.370659604668619 8.7682434730231744 2554.6941930353642 1060.4505588933825 20382.153159916401 24488.987935230136 741.55792808532715 217.72019815444946 1668.480801269412 510.33045987412333 39.261703051626682 1674.9759960696101 4826.5379356443882 4617.1683227829635 2200.8876875713468 45.366707608103752 8.331907242536543 2406.7950758785009 13.347681388258932 621.20874723047018 538.35527887940407 155.01422016322613 13544.531129106879 489.89336837083101 41.714770436286926 670.56024006009102 38.718760393559933 1130.4333341494203 91.103504106402397 46.682543739676476 65.29442135989666 742.82707250118256 643.36034705489874 21.387207314372063 573.17312083393335 140.57680849730968 46.2964559905231 30.14320869743824 99.073300629854202 44.51989358663559 158.48001968860626 149.08683857321739 414.40184422582388 211.02908089756966 44.840886078774929 14.317604854702948 15.733180135488508 5.1404127329587928 7.5534819066524497 23.584610292688012 14.334338605403898 77.395383268594742 37.723572790622711 4.8012776225805274 35.436118677258492 4.978833705186843
leaf_count=29683 2578 8722 1360 33 19 16 6225 1878 61434 54567 2439 291 6265 4831 203 4140 12227 10858 7062 193 37 5760 28 1840 1390 737 25358 569 92 1822 78 3973 173 184 96 1984 1097 28 2801 534 181 36 458 114 628 475 1760 613 273 28 18 7 34 80 64 42 20 20 168 20
internal_value=0 0.036018 0.0313527 0.0205459 -0.0303385 -0.0313556 0.0328791 0.0134004 0.035505 0.0306327 0.0490636 -0.000513787 0.0272654 0.0244229 -0.0185458 0.030219 0.0146306 0.04631 -0.0098886 0.0508899 0.0541103 0.0453429 -0.0449956 0.055613 0.0390354 -0.0248936 0.0577174 0.0893558 0.015273 0.00609963 -0.113057 0.0211956 -0.00150659 0.0975391 0.00537714 0.0306064 0.0360802 0.122911 -0.068519 -0.0403663 -0.10452 -0.0118776 -0.0701956 0.11685 -0.0316302 -0.0152822 -0.121255 -0.00585288 -0.102277 -0.0965238 -0.0103858 -0.100229 0.0434711 -0.13259 -0.0980139 0.160446 0.175391 -0.204989 -0.146511 -0.215652
internal_weight=0 93145.7 70903.4 17180.5 2004.11 1684.81 69218.6 8222.83 60995.7 44871.1 16124.6 1185.2 15176.4 14512 1724.87 12787.2 6495.02 6292.14 4755.58 22242.3 20398 3467.25 1829.16 20046.7 756.075 1412.1 19334.3 664.361 1844.33 825.574 417.066 1169.7 712.312 646.39 111.977 1445.87 1386.19 174.944 586.521 398.461 499.61 76.4397 429.125 534.413 351.335 307.567 423.17 252.744 555.171 59.6843 38.4382 145.717 46.2722 370.794 22.705 136.506 115.119 17.9708 43.768 13.1695
internal_count=268644 216489 174540 52155 8349 5492 169048 20925 148123 116001 32122 3499 43806 42770 9280 33490 18492 14998 13287 41949 37401 7638 8158 36093 1681 5388 34080 1036 4548 2559 2770 4176 2013 963 280 3302 3081 191 2829 1246 1993 217 1818 683 1308 1103 1776 705 5104 221 101 541 112 2658 83 90 62 73 205 53
is_linear=0
shrinkage=0.1


Tree=16
num_leaves=62
num_cat=0
split_feature=135 82 30 104 39 102 33 54 106 130 75 116 132 33 104 131 134 67 112 5 83 29 114 73 30 25 114 73 6 70 57 136 87 106 29 31 3 127 73 30 6 103 128 106 102 31 124 35 83 123 106 30 30 114 57 118 105 46 74 30 105
split_gain=326.939 692.029 503.07 430.842 455.475 510.195 410.08 534.395 400.387 368.422 460.146 416.022 356.02 343.97 324.638 641.529 320.578 302.431 293.272 338.246 324.02 258.956 256.326 393.537 288.613 237.953 232.169 223.598 216.603 213.252 203.816 189.316 194.465 168.185 160.851 152.89 147.726 136.917 131.472 129.734 113.227 112.136 107.06 95.0593 78.8376 75.6627 88.3251 69.3934 63.7703 69.0653 58.2218 78.3299 57.1526 39.304 17.675 11.2474 8.06785 45.6128 3.15525 0.391665 0.127142
threshold=1.0000000180025095e-35 -1.2224385738372801 1.0993626713752749 -0.87894329428672779 0.92745396494865429 -0.87536346912384022 0.90227714180946361 0.97507065534591686 -0.93708741664886464 1.0000000180025095e-35 -0.55600130558013905 -1.4903966784477232 1.0000000180025095e-35 0.85497361421585094 -0.82234457135200489 1.0000000180025095e-35 1.0000000180025095e-35 -0.0051200343295931807 -0.94514799118041981 0.75153851509094249 -1.2723971605300901 1.1326028108596804 -0.93459436297416676 -0.91064023971557606 1.0968738794326784 1.3196876645088198 -0.98714402318000782 -0.93591162562370289 0.73667022585868847 -0.3432429283857345 0.82732772827148449 1.0000000180025095e-35 -1.2780858874320982 -0.85009264945983876 1.1437254548072817 0.96369829773902904 0.71464315056800853 -2.1113244295120235 -0.6001649498939513 1.073012173175812 0.79632282257080089 -0.88265952467918385 1.0000000180025095e-35 -0.90202277898788441 -0.89207258820533741 1.0093981027603152 -1.9442446827888487 0.88076975941658031 -1.2250167727470396 -1.186505079269409 -0.90401187539100636 1.1032983660697939 1.066827178001404 -0.91817891597747792 0.80385226011276256 -0.93676632642745961 -0.92710387706756581 1.0954180955886843 -1.032139718532562 1.0814986824989321 -0.92852815985679615
decision_type=2 2 2 2 2 2 2 2 2 2 2 2 2 2 2 2 2 2 2 2 2 2 2 2 2 2 2 2 2 2 2 2 2 2 2 2 2 2 2 2 2 2 2 2 2 2 2 2 2 2 2 2 2 2 2 2 2 2 2 2 2
left_child=3 2 18 4 5 12 9 21 35 10 13 -12 16 -5 29 -16 -1 52 48 20 -20 44 23 24 -10 38 -25 43 -14 -9 -23 34 -33 -27 42 56 50 -36 -11 -19 -29 -34 -6 -24 -8 46 -37 -47 54 -50 51 -4 -7 -21 -2 -52 59 -58 60 -3 -38
right_child=1 8 36 6 31 17 7 14 22 25 11 -13 28 -15 15 -17 -18 39 19 53 -22 30 27 26 -26 33 -28 40 -30 -31 -32 32 41 -35 37 45 58 -39 -40 -41 -42 -43 -44 -45 -46 47 -48 -49 49 -51 55 -53 -54 -55 -56 -57 57 -59 -60 -61 -62
leaf_value=0.047881471555487207 -0.14574894122009738 -0.14228980982047931 -0.068746004533854085 -0.055292076877125507 0.076179365147116443 -0.043612287290183308 0.18724465241228724 0.014436645170216367 -0.080131376756693434 -0.0048155396593997403 -0.0039725113437667206 0.06052218563540282 0.050816489003148571 0.0050195903642406142 0.029152204069382522 -0.0595881760130796 -0.074897154593980705 0.023902897715077309 -0.078963051401255077 -0.13704850073495164 0.012274345864724853 -0.14195789578333115 -0.096810363824142237 0.023778036723791911 0.036814132192300543 0.05660817838425572 0.06990178452564752 0.13165219716558832 -0.064134885887579082 0.044346585482443329 0.043157287978576576 0.26358032201837678 -0.154276657702692 0.13789420197457816 -0.077570553416484347 0.071385225035244929 -0.15957013793576622 0.043260413810574869 0.27994813872979729 -0.071948824330693398 0.06913581800559114 0.015836061832100349 0.0048890694389403053 0.061773875341770916 -0.093332146556310447 0.091414160741897024 -0.036069389256951363 -0.14453691428537224 -0.0048580618713443893 -0.15224685881538119 0.096970713910353459 0.10351285922683601 -0.1131254699647003 -0.067247944765349885 -0.10213338911739767 0.14116295653034194 0.077914634850279496 -0.13265969951234993 -0.23314622080899292 -0.16025786872071524 -0.13693693680493693
leaf_weight=11009.77838251926 206.2156135737896 55.556991077959538 41.828544169664383 1038.6526629123837 5890.0976665988564 200.84053035080433 10.211621955037115 2626.1084001883864 519.87453511357307 689.20809102803469 1548.489584967494 2824.4501971192658 245.01672419905663 10557.608945883811 29059.532599270344 838.15171590447426 216.84954185038805 955.03779565542936 499.92113454639912 232.32995544373989 1758.2679841667414 70.246593937277794 99.16410818696022 3042.297891177237 355.23075023293495 1511.3576063662767 1701.7893856167793 420.33733093738556 495.26739533245564 25830.740749422461 387.97573786228895 19.05630274116993 82.998261570930481 306.09148073196411 104.0387064665556 86.380465090274811 2.9320030957460466 950.8506001085043 16.603558428585529 165.70677715539932 932.2330764234066 72.684933938086033 218.46588084846735 61.080673173069954 518.81591897830367 102.55136604607105 668.43773014843464 14.189069345593451 105.73268821835518 45.46340237557888 87.532701894640923 71.555707737803459 287.71732772141695 123.58265659213066 169.10501199960709 168.36882144212723 12.202742248773573 65.512653008103371 4.5411866009235373 15.520520210266112 16.170382909476757
leaf_count=23446 970 270 118 8265 8745 838 13 6333 1906 2789 7341 7104 873 31922 64679 3401 952 2615 2246 1050 5448 289 398 9037 639 2872 3394 594 2752 51058 806 14 326 461 287 168 13 1626 27 490 1677 169 593 165 2804 182 2418 67 328 212 98 84 1338 553 728 135 38 304 19 68 89
internal_value=0 0.0143905 -0.0225725 0.0320789 0.0448214 0.0339718 0.0286549 0.0327069 0.0304116 0.0156523 0.0100416 0.0376841 0.0410808 -0.000382398 0.0339412 0.0266645 0.0455099 -0.0188911 -0.0359188 -0.0222045 -0.00792392 -0.0402514 0.038794 0.0289574 -0.0326598 0.051161 0.0403235 0.0753311 -0.0260887 0.0415864 0.0147787 0.0648941 -0.0379467 0.0702982 0.0674027 -0.0281792 0.0841016 0.0313434 0.00188326 0.00973082 0.088564 -0.0748549 0.0736297 -0.0363626 -0.0879163 -0.0121851 -0.0237724 0.0627358 -0.104009 -0.0491766 0.0996165 0.0399649 -0.0845494 -0.112812 -0.126097 0.126047 -0.121865 -0.0995957 -0.158222 -0.146213 -0.140411
internal_weight=0 11685.9 3533.55 98748.7 20914.4 13576.2 77834.2 59341.8 8152.36 18492.5 15969.2 4372.94 11966.9 11596.3 58354.5 29897.7 11226.6 1609.3 3140.62 2614.1 2258.19 987.25 7132.01 5619.19 875.105 2523.26 4744.09 1512.82 740.284 28456.8 458.222 7338.19 174.739 1817.45 7163.45 1020.35 392.929 1054.89 705.812 1120.74 1352.57 155.683 6108.56 160.245 529.028 871.559 754.818 116.74 526.517 151.196 369.286 113.384 488.558 355.913 375.321 255.902 148.793 77.7154 23.6436 71.0775 19.1024
internal_count=268644 33416 12091 235228 45064 33304 190164 129383 21325 60781 54632 14445 28023 40187 125471 68080 24398 5281 11535 9297 7694 3912 17810 14976 2545 6149 12431 2834 3625 57391 1095 11760 509 3333 11251 3515 556 1913 2816 3105 2271 495 9338 563 2817 2835 2586 249 2238 540 435 202 2176 1603 1698 233 680 342 121 338 102
is_linear=0
shrinkage=0.1


Tree=17
num_leaves=51
num_cat=0
split_feature=75 116 75 31 31 115 75 75 117 92 38 102 103 75 118 35 93 75 27 128 130 0 53 118 37 105 57 92 92 36 30 22 98 98 51 89 34 36 14 77 74 73 75 110 112 53 107 105 97 107
split_gain=287.654 325.817 964.606 400.139 335.663 327.465 457.33 305.672 345 299.305 252.703 345.592 319.228 221.342 405.274 166.574 154.765 147.337 146.697 148.688 201.485 134.354 125.007 121.935 162.242 116.099 112.436 107.352 105.807 96.8596 91.7404 87.6436 83.0287 80.161 70.2118 66.4533 63.5655 38.8733 66.6758 23.8701 27.359 47.0638 9.73538 5.88666 5.59914 3.15539 25.7364 1.02858 0.217161 0.0159935
threshold=-1.1747357845306394 -0.91721042990684498 -1.119187533855438 0.97888833284378063 1.0091230869293215 -0.93434441089630116 -1.1010437011718748 -1.1368188261985777 -0.94534623622894276 -1.1227541565895078 0.91602236032485973 -0.82321733236312855 -0.84107688069343556 -1.150180399417877 -0.91378846764564503 0.84165760874748241 -1.1313288211822508 -1.1585968136787412 1.1723557710647585 1.0000000180025095e-35 1.0000000180025095e-35 0.46747621893882757 1.0452722907066347 -0.89207762479782093 0.86972987651824962 -0.85319232940673817 0.82269716262817394 -1.1560825705528257 -1.2006446719169614 0.88166379928588878 1.0634496212005617 1.2417692542076113 -0.95463627576827992 -0.99519899487495411 1.0072852373123171 -1.2588167786598203 0.92018282413482677 0.87722855806350719 1.0233845114707949 -1.2821284532546995 -1.0705599784851072 -0.92299345135688771 -1.1454539299011228 -0.82383680343627919 -0.87928533554077137 1.0498865246772768 -0.82799029350280751 -0.88117319345474232 -1.0218369364738462 -0.80366364121437062
decision_type=2 2 2 2 2 2 2 2 2 2 2 2 2 2 2 2 2 2 2 2 2 2 2 2 2 2 2 2 2 2 2 2 2 2 2 2 2 2 2 2 2 2 2 2 2 2 2 2 2 2
left_child=23 2 4 10 7 6 -5 27 -9 -7 11 -4 -12 14 16 26 35 -18 22 20 -20 30 42 44 39 37 -16 -2 29 -27 -6 -24 -23 -17 -21 -3 -30 38 -26 40 43 -42 -15 -25 -1 47 -47 -46 -49 -48
right_child=1 13 3 5 21 9 -8 8 -10 -11 12 -13 -14 18 15 33 17 -19 19 34 -22 32 31 24 25 28 -28 -29 36 -31 -32 -33 -34 -35 -36 -37 -38 -39 -40 -41 41 -43 -44 -45 45 46 49 48 -50 -51
leaf_value=-0.032471977720015886 0.088858008773391187 -0.10429501402125535 0.0090659946401243415 -0.0034774386240285604 0.046756833843990514 0.030936592592610137 0.031875199012970187 -0.08037840596856749 0.0012234969150161877 0.085420897888172587 0.060686137060055857 -0.062925430826357612 0.018210609412290787 0.038255772639976184 0.011150149210382801 0.10886127636691514 -0.12868858153979063 -0.024367336494723748 0.046622763977568801 -0.1673997750844996 0.10036179865285766 0.056050504307774668 0.044443480611055228 -0.14417947012369517 -0.0054960284334368732 -0.092230066353579443 -0.14332627924816688 -0.11536831887972748 -0.062568881666962631 0.080996836951434309 -0.17106540988473223 -0.059991757037985677 -0.043861921553911637 0.050694224426737683 0.1228977487065845 0.061217661073857545 0.25291251704862688 0.18435290833632842 0.18702389252125082 0.041331905571017964 0.14533054221066463 -0.13724616548339535 -0.12492337956053977 -0.10290217251413128 -0.18420922477915419 0.21165712458293107 -0.12592751333377902 -0.13900625222652926 -0.12087622002125922 -0.11976670119953972
leaf_weight=8.3238587826490384 27.054074332118034 28.068526968359947 8142.1601374149323 3867.7089776396751 30.862376511096954 1941.3537774384022 67875.525616038591 741.56152474880219 1719.3911519050598 2097.7243085205555 2106.5949447974563 726.28984845429659 11053.821776285768 3.9054209142923346 199.76584099046886 284.83900502324104 211.25497917830944 376.95974998176098 2670.817345816642 8.4709847085177881 944.39102180674672 703.67576535046101 764.0052682980895 51.735326565802097 51.090195864439011 40.704976428300142 61.660622492432594 529.342504799366 232.43039095401764 155.9226405620575 51.769619792699814 89.802863743156195 94.323261275887489 1408.4335319846869 506.01405607163906 178.68276728689671 6.567112296819686 38.99350730329752 27.766152009367943 12.534390695393084 11.374967847019436 12.232410004362462 57.281819924712181 104.00915371999145 2.7195352613925925 2.6258394271135357 6.1232421249151274 7.0376358926296225 107.89804253727198 13.512397736310955
leaf_count=37 51 104 25240 11106 65 4412 141437 2979 5014 3484 4534 4051 35840 10 615 408 895 1164 6402 37 1578 1144 1588 261 167 209 251 2211 1207 451 209 304 267 3317 805 317 7 39 35 34 25 99 1390 3862 11 9 38 36 788 100
internal_value=0 0.0276465 0.0261365 0.0280806 -0.0226466 0.0315291 0.0299693 -0.0384998 -0.0233657 0.0592334 0.0162175 0.00317019 0.0250097 0.0473509 0.0245254 0.0490087 -0.0356751 -0.0618339 0.0597922 0.067819 0.0606609 0.0316719 0.0235643 -0.0293211 -0.0128473 0.0146235 -0.025285 -0.105438 -0.00919825 0.0451362 -0.0897106 0.0334591 0.0442409 0.060479 0.118118 0.0387477 -0.0539002 0.102679 0.0622923 -0.0920837 -0.101408 -0.00108954 -0.114508 -0.116614 -0.112152 -0.116892 -0.0823684 -0.123425 -0.121986 -0.121688
internal_weight=0 109504 101709 97811.2 3897.98 75782.3 71743.2 3017.35 2460.95 4039.08 22028.9 8868.45 13160.4 7794.35 2749.67 1954.7 794.966 588.215 5044.69 4129.69 3615.21 880.631 914.995 893.602 745.361 553.475 261.426 556.397 435.625 196.628 82.632 853.808 797.999 1693.27 514.485 206.751 238.998 117.85 78.8563 191.886 179.352 23.6074 61.1872 155.744 148.241 139.917 22.2615 117.655 114.936 19.6356
internal_count=268644 261229 242044 230104 11940 160439 152543 10255 7993 7896 69665 29291 40374 19185 7071 4591 2480 2059 12114 8822 7980 1685 3292 7415 6396 2115 866 2262 1874 660 274 1892 1411 3725 842 421 1214 241 202 4281 4247 124 1400 4123 1019 982 147 835 824 138
is_linear=0
shrinkage=0.1


Tree=18
num_leaves=63
num_cat=0
split_feature=135 82 30 113 103 69 27 132 71 59 101 31 70 30 123 101 63 69 27 20 4 43 32 77 73 136 30 105 113 106 107 54 74 72 74 36 71 71 31 30 107 63 104 67 51 119 60 97 4 74 110 28 29 100 124 81 115 31 1 7 98 30
split_gain=252.387 606.093 450.463 419.055 381.593 714.503 609.704 453.12 410.896 393.979 366.172 322.89 446.983 289.415 287.262 255.811 249.792 409.267 498.117 377.733 228.658 218.275 209.184 208.559 204.354 202.587 198.384 195.647 194.949 189.697 226.913 164.722 159.979 147.404 138.449 138.674 134.957 115.508 110.268 100.926 97.7511 95.7865 85.2063 79.4329 62.9965 110.235 60.1397 56.665 55.6278 53.444 68.2962 46.1319 36.4945 35.1068 32.4812 30.1984 22.3502 20.7639 14.127 33.2945 12.7347 9.84882
threshold=1.0000000180025095e-35 -1.2091096639633176 1.0993626713752749 -0.99250340461730946 -0.80988219380378712 -0.097353249788284288 1.192723333835602 1.0000000180025095e-35 -0.43444117903709406 0.8013131618499757 -0.80040571093559254 1.0036496520042422 -0.28252971172332758 1.0737846493721011 -1.2546210289001463 -0.83898597955703724 0.53095760941505443 -0.073421545326709733 1.1684675216674807 1.1800074577331545 0.73287436366081249 1.0474692583084109 0.96071645617485057 -1.1522423028945921 -0.93591162562370289 1.0000000180025095e-35 1.0603736042976382 -0.91531941294670094 -0.921771079301834 -0.93708741664886464 -0.91587260365486134 1.0211217403411867 -0.98873117566108693 -0.66618168354034413 -0.95656874775886525 0.89377164840698253 -0.44580775499343867 -0.41967052221298212 0.96369829773902904 1.0393663048744204 -0.89482954144477833 0.4427208304405213 -0.89116978645324696 0.16502698510885241 0.92534464597702037 -1.0300819277763364 0.60142377018928539 -0.97118255496025074 0.68141618371009838 -1.0356014966964719 -0.91138693690299977 1.3663085103034975 1.1672484278678896 -0.95878711342811573 -2.001003503799438 -1.2174268364906309 -1.0168693065643308 0.99312031269073497 0.64904141426086437 0.80261316895484935 -0.91122320294380177 1.0712156295776369
decision_type=2 2 2 2 2 2 2 2 2 2 2 2 2 2 2 2 2 2 2 2 2 2 2 2 2 2 2 2 2 2 2 2 2 2 2 2 2 2 2 2 2 2 2 2 2 2 2 2 2 2 2 2 2 2 2 2 2 2 2 2 2 2
left_child=4 2 13 14 7 6 15 8 9 10 -1 12 -8 46 29 33 31 18 -18 -19 28 41 -23 -13 40 -11 42 58 -15 38 -31 39 -28 -6 48 37 -17 -36 -3 -7 51 -10 -26 -33 45 -16 61 -48 52 57 -51 -5 -9 -42 -37 -22 -46 -29 -4 -60 -50 -2
right_child=1 3 27 24 5 16 11 34 21 25 -12 23 -14 20 44 36 17 19 -20 -21 55 22 -24 -25 26 -27 32 49 -30 30 -32 43 -34 -35 35 54 -38 -39 -40 -41 53 -43 -44 -45 56 -47 47 -49 60 50 -52 -53 -54 -55 -56 -57 -58 -59 59 -61 -62 -63
