tree
version=v4
num_class=1
num_tree_per_iteration=1
label_index=0
max_feature_idx=136
objective=binary sigmoid:1
feature_names=Column_0 Column_1 Column_2 Column_3 Column_4 Column_5 Column_6 Column_7 Column_8 Column_9 Column_10 Column_11 Column_12 Column_13 Column_14 Column_15 Column_16 Column_17 Column_18 Column_19 Column_20 Column_21 Column_22 Column_23 Column_24 Column_25 Column_26 Column_27 Column_28 Column_29 Column_30 Column_31 Column_32 Column_33 Column_34 Column_35 Column_36 Column_37 Column_38 Column_39 Column_40 Column_41 Column_42 Column_43 Column_44 Column_45 Column_46 Column_47 Column_48 Column_49 Column_50 Column_51 Column_52 Column_53 Column_54 Column_55 Column_56 Column_57 Column_58 Column_59 Column_60 Column_61 Column_62 Column_63 Column_64 Column_65 Column_66 Column_67 Column_68 Column_69 Column_70 Column_71 Column_72 Column_73 Column_74 Column_75 Column_76 Column_77 Column_78 Column_79 Column_80 Column_81 Column_82 Column_83 Column_84 Column_85 Column_86 Column_87 Column_88 Column_89 Column_90 Column_91 Column_92 Column_93 Column_94 Column_95 Column_96 Column_97 Column_98 Column_99 Column_100 Column_101 Column_102 Column_103 Column_104 Column_105 Column_106 Column_107 Column_108 Column_109 Column_110 Column_111 Column_112 Column_113 Column_114 Column_115 Column_116 Column_117 Column_118 Column_119 Column_120 Column_121 Column_122 Column_123 Column_124 Column_125 Column_126 Column_127 Column_128 Column_129 Column_130 Column_131 Column_132 Column_133 Column_134 Column_135 Column_136
feature_infos=[-1.7844352722167969:1.5536434650421143] [-1.6962581872940063:1.5276378393173218] [-1.6161398887634277:1.5042563676834106] [-1.5440802574157715:1.4834985733032227] [-1.4800789356231689:1.465364933013916] [-1.4241359233856201:1.4498553276062012] [-1.3852788209915161:1.6617363691329956] [-1.3575865030288696:1.7939627170562744] [-1.3260828256607056:2.0758624076843262] [-1.2853907346725464:2.0974209308624268] [-1.2320997714996338:2.0165181159973145] [-1.1626077890396118:2.073509693145752] [-1.0779223442077637:2.1457490921020508] [-0.97803342342376709:2.2142360210418701] [-0.86829191446304321:2.2759943008422852] [-0.75375783443450928:2.3805651664733887] [-0.63879203796386719:2.4481546878814697] [-0.65620064735412598:2.4998569488525391] [-0.66012513637542725:2.5653238296508789] [-0.66667592525482178:2.5221147537231445] [-0.66619455814361572:2.4413206577301025] [-0.67410272359848022:2.3840618133544922] [-0.78228282928466797:2.2409591674804688] [-0.7797551155090332:2.1797337532043457] [-1.0841877460479736:2.1614029407501221] [-1.4308524131774902:2.0620582103729248] [-1.6366665363311768:1.9191513061523438] [-1.8254417181015015:1.7025836706161499] [-1.9454965591430664:1.5450669527053833] [-2.2033448219299316:1.3473584651947021] [-2.6534385681152344:1.1459542512893677] [-2.9375624656677246:1.0691677331924438] [-2.8964071273803711:1.0156075954437256] [-2.6209216117858887:0.99408984184265137] [-1.9672813415527344:0.99887841939926147] [-1.2877312898635864:1.0987448692321777] [-0.66409575939178467:1.3781088590621948] [-0.66973656415939331:1.4357191324234009] [-0.67192721366882324:1.5244829654693604] [-0.67710685729980469:1.237102746963501] [-0.67391806840896606:1.2342766523361206] [-0.67598330974578857:1.2273765802383423] [-0.67422336339950562:1.2687077522277832] [-0.67822211980819702:1.5027958154678345] [-0.67549598217010498:1.6759111881256104] [-0.67939788103103638:1.7528411149978638] [-0.67687302827835083:1.7343066930770874] [-0.68056988716125488:1.8940913677215576] [-0.67851173877716064:2.0411467552185059] [-0.68057990074157715:2.1347439289093018] [-0.67633002996444702:2.1180493831634521] [-0.68167710304260254:2.1010029315948486] [-0.6882440447807312:2.2836933135986328] [-0.69760811328887939:2.324758768081665] [-0.68820065259933472:2.0119130611419678] [-0.66498374938964844:1.7058380842208862] [-0.62701141834259033:1.5109990835189819] [-0.79989981651306152:1.3468891382217407] [-0.9627259373664856:1.3156778812408447] [-0.83332031965255737:1.3004671335220337] [-0.58463895320892334:1.2900781631469727] [-0.6056399941444397:1.6912268400192261] [-0.63135004043579102:1.8743280172348022] [-0.66003769636154175:1.7138135433197021] [-0.93073725700378418:1.3433690071105957] [-1.1747497320175171:1.0751444101333618] [-1.3727543354034424:0.99085426330566406] [-1.6713657379150391:0.88367986679077148] [-1.8910553455352783:0.75060045719146729] [-2.0949718952178955:0.59843027591705322] [-1.9126988649368286:0.44751104712486267] [-1.7446892261505127:0.31280896067619324] [-1.674402117729187:0.20973041653633118] [-1.5101885795593262:0.13722024857997894] [-1.4517455101013184:0.30397361516952515] [-1.6804615259170532:0.84510332345962524] [-1.8599822521209717:1.3364263772964478] [-1.985605001449585:1.0853415727615356] [-2.0616223812103271:1.0076425075531006] [-2.1171634197235107:0.66064220666885376] [-2.168381929397583:0.36351838707923889] [-2.1978850364685059:0.27734678983688354] [-2.2107267379760742:0.32789856195449829] [-2.208972692489624:0.37759476900100708] [-2.1915850639343262:0.42312100529670715] [-2.1574652194976807:0.46151745319366455] [-2.1063995361328125:0.49370381236076355] [-2.0390708446502686:0.51996833086013794] [-1.9571486711502075:0.54197138547897339] [-1.8639241456985474:0.55988889932632446] [-1.7629733085632324:0.64887344837188721] [-1.7565661668777466:1.0685811042785645] [-1.6500253677368164:1.4172115325927734] [-1.5946441888809204:1.6290324926376343] [-1.530011773109436:1.6652539968490601] [-1.4861346483230591:1.6182962656021118] [-1.4547033309936523:1.5608183145523071] [-1.4384253025054932:1.5584512948989868] [-1.4264529943466187:1.5645072460174561] [-1.5819015502929688:1.5648646354675293] [-2.0638625621795654:1.5687597990036011] [-2.4619696140289307:1.5680602788925171] [-2.648137092590332:1.5700795650482178] [-2.4631106853485107:1.5650482177734375] [-2.0341367721557617:1.5674868822097778] [-1.4475361108779907:1.5623446702957153] [-1.1187688112258911:1.563502311706543] [-1.117332935333252:1.561995267868042] [-1.168958306312561:1.5723429918289185] [-1.225186824798584:1.5757462978363037] [-1.369315505027771:1.5835809707641602] [-1.6010570526123047:1.5861003398895264] [-2.1418814659118652:1.5904537439346313] [-2.4733853340148926:1.5886306762695312] [-2.5047738552093506:1.5883719921112061] [-2.0072333812713623:1.5826603174209595] [-1.6131480932235718:1.5835590362548828] [-1.6321159601211548:1.7016431093215942] [-1.6862318515777588:2.5795986652374268] [-1.7458088397979736:2.8008601665496826] [-1.820858359336853:2.5472877025604248] [-1.9268163442611694:1.7180403470993042] [-2.1498878002166748:1.5744708776473999] [-2.3795907497406006:1.5728672742843628] [-2.6580204963684082:1.8138364553451538] [-2.9761693477630615:2.1645474433898926] [-3.3320021629333496:3.0688047409057617] [-3.8293700218200684:4.2020993232727051] [0:1] [0:1] [0:1] [0:1] [0:1] [0:1] [0:1] [0:1] [0:1]
tree_sizes=6151 5249 5908 5701 5717 5826 5835 5717 5922 6606 5743 6375 6793 6055 6828 6934 6247 5941 6578 6680 5353 5707 6735 6017 6665 6946 5635 5915 5320 6588 6519 6053 5963 6982 5532 6440 6745 6140 5944 6767 6933 6833 6108 6240 5706 6722 6969 6905 6948 6557 6467 6858 5264 6660 6485 6763 6874 6630 6433 5478 4582 6936 6937 4487 6922 6815 6668 6491 6993 6862 4433 6925 5668 4717 4192 6950 6141 6944 6851 6596 6876 4733 6700 6459 4414 6959 5461 6817 6982 6652 4981 6249 6719 6936 6775 5791 6454 4433 4119 6927 5787 6977 5929 6500 6992 6435 7007 6802 5616 6418 5713 4878 4823 6321 6704 6856 6790 6617 6553 6741 3370 6596 6952 6709 6905 6625 4650 6506 6859 6551 5796 5506 6808 5864 5805 6723 6839 6152 6954 6573 6931 6941 6918 6930 6660 6497 7017 7004 6804 6908 6421 5688 6344 6793 6466 4686 6276 6832 6354 6666 6428 4675 6873 6913 6379 6878 3450 6929 5542 5916 6067 6836 6961 6979 6718 6993 6114 6886 6587 4713 5440 5985 6764 6814 4091 5226 6966 6931 5032 6357 6149 4616 3445 6913 6071 6588 6704 5381 5551 6287

Tree=0
num_leaves=57
num_cat=0
split_feature=32 133 30 31 113 72 41 77 129 102 114 77 0 74 35 53 102 31 130 116 30 106 75 75 103 107 40 34 112 5 30 30 130 135 53 30 30 70 124 116 126 60 122 104 1 30 105 46 40 129 26 21 23 0 31 21
split_gain=30081.6 14103.4 10605.9 9130.5 6379.09 5968.31 4821.08 4655.05 4264.49 3600.27 3273.78 3251.08 2542.28 2625.8 2536.21 2531.16 2314.66 1987.49 1935.63 1913.09 1537.56 2654.51 2222.78 1499.45 1478.58 1448.24 1377.35 951.554 828.895 715.429 936.368 671.08 634.648 628.648 573.483 547.508 514.131 500.876 565.08 426.257 391.075 359.429 347.969 316.348 283.978 324.044 267.334 233.43 209.208 179.823 97.7529 87.1736 70.7365 40.1361 38.7233 1.13687e-13
threshold=0.91841703653335582 1.0000000180025095e-35 1.0813894867897036 1.0079336762428286 -0.83846160769462574 -0.61841428279876698 1.1004310846328738 -0.54415267705917347 1.0000000180025095e-35 -0.80473703145980824 -1.1164062619209287 -1.2370959520339964 0.50191831588745128 -1.0288746356964109 0.88833656907081615 1.0812125205993655 -0.77978938817977894 1.0091077685356142 1.0000000180025095e-35 -1.5218964219093321 1.0930644869804385 -0.92980971932411183 -1.0756953358650205 -0.98488083481788624 -0.85564836859703053 -0.86990574002265919 0.97081470489501964 0.84477806091308605 -1.2837654352188108 0.77276763319969188 1.1012201309204104 1.0558247566223147 1.0000000180025095e-35 1.0000000180025095e-35 1.065512001514435 1.0994569659233095 1.1062053442001345 -0.46649636328220362 -1.5652363896369932 -1.182017385959625 -3.1421457529067989 0.75136384367942821 -1.0687105655670164 -0.83789402246475209 0.27376276254653936 1.0408486723899844 -0.9594748020172118 1.2135195732116701 0.8960542380809785 1.0000000180025095e-35 1.3841224908828738 1.434555232524872 1.3078230619430544 0.48977179825305944 1.0116279125213625 1.7107598185539248
decision_type=2 2 2 2 2 2 2 2 2 2 2 2 2 2 2 2 2 2 2 2 2 2 2 2 2 2 2 2 2 2 2 2 2 2 2 2 2 2 2 2 2 2 2 2 2 2 2 2 2 2 2 2 2 2 2 2
left_child=2 3 4 5 6 9 7 8 -1 11 18 -2 37 29 17 -12 23 24 -7 -9 22 -22 -15 43 27 33 -26 -3 47 30 -14 -11 34 36 -27 -35 -5 51 50 -40 -30 -25 -34 -16 45 -18 54 -8 -48 -31 -39 -4 -46 -53 -19 -6
right_child=1 14 12 25 55 10 28 19 -10 31 15 -13 13 20 16 -17 44 46 -20 -21 21 -23 -24 41 26 32 -28 -29 40 49 -32 -33 42 35 -36 -37 -38 38 39 -41 -42 -43 -44 -45 52 -47 48 -49 -50 -51 -52 53 -54 -55 -56 -57
leaf_value=-1.9492862617157918 -1.8441227589278428 -1.6857327199820993 -1.6790542199898697 -1.5334591800219259 -2.2894394803493046 -1.927391926070416 -2.0613587472965755 -2.2102234449314282 -1.5990732651330783 -2.0830750403652361 -1.6394818641644215 -1.7321081693643323 -1.9458735948035515 -1.8709643539459933 -1.7120553044274862 -1.7362972765422866 -1.7834258451769565 -1.3972418069792729 -1.5783368642046285 -1.7010123105507335 -1.849979934044687 -1.516169925889159 -1.618734451949599 -1.3508052784654372 -2.0362574762058432 -1.7188596759337988 -1.6346950436228149 -1.4974996894792985 -1.5082218202149102 -2.252862902530421 -1.4813824981988237 -1.7339420786250574 -1.5119572040869826 -1.8724205509595406 -2.1005884951897928 -1.4696493187235649 -1.9343984115659889 -1.6591455542858982 -1.2537960946591897 -1.8797478329657578 -2.0440078319752186 -1.4833099894085171 -1.9045284365082684 -2.2074382312545731 -2.2894394803493046 -1.3518944913297943 -2.2523954636028947 -2.2760568945854671 -1.9260700490770808 -1.6692596201996013 -2.2688303364552818 -2.2757503733065931 -1.7763028139759929 -2.1140175297818886 -1.7475228309993851 -2.2894394803493046
leaf_weight=5861.2767797708511 4705.129839360714 317.37781935930252 2.8931359052658072 2977.1604022979736 472.27001476287842 858.45972049236298 58.069158971309662 78.023928642272949 369.62487441301346 492.04616838693619 6713.6791314482689 5766.7459371685982 280.12981933355331 675.18565434217453 32.114213824272156 4517.4412897825241 144.83007311820984 8.9068533182144147 194.94417065382004 1356.496227145195 307.40816956758499 1058.5020416975021 724.0590803027153 1236.066588640213 104.62399482727051 608.16165167093277 465.25404244661331 1745.9928879141808 14.693125128746031 72.420423865318298 51.356893718242645 61.990544676780701 214.64174175262451 105.86614829301834 42.079069912433624 49.544791698455811 32.330143868923187 2.8017523884773246 11.936051309108732 122.84588772058487 187.07495808601379 245.35001343488693 25.233366191387177 21.535373330116272 12.245391249656675 19.777439057826996 23.835529565811157 395.87136834859848 111.77696663141251 5.6948882937431327 42.843301057815552 64.501194536685944 3.4414370059967032 20.133483946323395 4.8880049586296073 4.6605593562126151
leaf_count=46460 32908 1774 16 12621 5168 6638 518 799 1782 4484 34773 34605 2212 4883 187 27276 935 27 904 7766 2166 4325 3617 3238 910 3578 2390 6845 59 769 194 373 869 767 390 182 252 15 21 898 1640 931 190 220 134 52 253 4285 863 31 461 698 22 189 30 51
internal_value=-2.17811 -1.69111 -1.87554 -1.71808 -1.93377 -1.74217 -1.91338 -1.89112 -1.92851 -1.79558 -1.69423 -1.78244 -1.72674 -1.70177 -1.52701 -1.67842 -1.43137 -1.58596 -1.8628 -1.72871 -1.66677 -1.5913 -1.74044 -1.39156 -1.56583 -1.57959 -1.70842 -1.52645 -2.17363 -1.93807 -1.87391 -2.04401 -1.69228 -1.54789 -1.74356 -1.74402 -1.53777 -2.02253 -1.9273 -1.82431 -2.00499 -1.37275 -1.55325 -1.91091 -1.77032 -1.73158 -1.94076 -2.24859 -1.98343 -2.21032 -2.23141 -2.21882 -2.17687 -2.23728 -1.52136 -2.28944
internal_weight=0 31863.5 12240.8 27365.5 8798.06 23310.4 8321.13 7665.42 6230.9 11025.9 12284.5 10471.9 3442.71 3174.76 4498.02 11231.1 1715.36 2782.66 1053.4 1434.52 2765.15 1365.91 1399.24 1535.07 2633.25 4055.02 569.878 2063.37 655.709 409.602 331.487 554.037 890.116 3164.9 650.241 155.411 3009.49 267.955 180.427 134.782 201.768 1481.42 239.875 53.6496 180.294 164.608 149.407 453.941 135.612 78.1153 45.6451 87.5278 15.6868 84.6347 13.7949 476.931
internal_count=268644 179621 89023 160810 68528 141961 63309 56807 48242 72370 69591 67513 20495 18197 18811 62049 5719 13092 7542 8565 14991 6491 8500 4576 11919 18849 3300 8619 6502 3206 2406 4857 5027 13822 3968 949 12873 2298 1395 919 1699 4169 1059 407 1143 987 1173 4803 1116 800 476 903 156 887 57 5219
is_linear=0
shrinkage=1


Tree=1
num_leaves=48
num_cat=0
split_feature=31 113 76 116 42 75 135 30 125 132 105 109 135 109 105 115 5 134 30 76 115 92 75 79 29 104 55 44 77 61 69 102 57 73 83 126 56 68 111 33 112 85 100 89 75 114 34
split_gain=9091.68 4372.17 3863.67 2848.65 2237.44 1824.22 1755.86 1774.99 1590.92 1675.42 2451.02 2185.08 1286.34 1236.52 1177.59 1180.93 2435.63 1044.05 762.707 660.222 920.595 660.146 480.941 475.705 460.835 503.731 458.936 453.127 436.388 435.841 641.652 408.104 386.989 370.396 327.479 292.229 228.038 227.816 195.872 194.048 179.982 86.4491 68.9629 35.5469 20.3824 16.134 5.54965e-05
threshold=0.97783690690994274 -0.83846160769462574 -1.1704246401786802 -0.98018547892570485 1.1379005312919619 -1.1745675802230833 1.0000000180025095e-35 1.0980363488197329 -2.7744158506393428 1.0000000180025095e-35 -0.89999848604202259 -1.1181033849716184 1.0000000180025095e-35 -1.0833776593208311 -0.9465479552745818 -0.98502740263938893 0.60909876227378856 1.0000000180025095e-35 1.089443624019623 -1.1887395381927488 -0.97967061400413502 -1.1852685809135435 -1.189220070838928 -1.2752308845520017 1.1671072244644167 -0.90792071819305409 0.9884195625782014 1.1041367053985598 -1.2243680357933042 0.80311354994773876 0.086503021419048323 -0.91628631949424733 0.78810653090477001 -0.93595194816589344 -1.1403239369392393 -2.0794212818145748 1.0673801898956301 0.21519824862480166 -0.91663828492164601 0.69617047905921947 -1.2837654352188108 -1.3529052734374998 -0.95693758130073536 -1.170338451862335 -0.94154968857765187 -0.9535326063632964 0.75107270479202282
decision_type=2 2 2 2 2 2 2 2 2 2 2 2 2 2 2 2 2 2 2 2 2 2 2 2 2 2 2 2 2 2 2 2 2 2 2 2 2 2 2 2 2 2 2 2 2 2 2
left_child=1 4 3 19 8 21 14 24 29 10 -10 -11 17 39 18 16 -16 -7 32 41 23 22 -5 -21 35 -26 -17 -22 -14 37 -31 -20 -4 43 44 -8 -36 -1 -35 -6 -41 -2 -23 -9 -15 -43 -3
right_child=2 46 6 5 13 12 7 33 9 11 -12 -13 28 34 15 26 -18 -19 31 20 27 42 -24 -25 25 -27 -28 -29 -30 30 -32 -33 -34 38 36 -37 -38 -39 -40 40 -42 45 -44 -45 -46 -47 -48
leaf_value=0.40777289349409496 0.27042121016784287 -0.11013232863852028 0.50500660879194281 0.037671654872615007 1.0738205765285194 0.28672918358526561 0.2642325120818631 0.34140467246008721 0.29546181354062756 0.24857541489215038 0.18467688466758067 0.091700421583652339 0.010845685100383744 0.46422891781655234 0.31974002963374182 0.38608741110320294 0.2293662370520918 0.15742121944654058 0.32669599469316374 -0.013085870368738732 0.14054555114244646 0.21581657457700634 0.28064642975421983 0.28668025831469385 0.10054879236416243 0.2624547806676148 0.31327046631976119 0.2986090757973251 0.20975824395840142 0.10111886768533451 0.43087041019940991 0.029456362967309115 0.38567803922215155 0.36107938467877781 0.25157209968667926 0.11601606647671983 -0.014090279989598969 0.59231747047708183 0.49505782439427337 -0.10517796634812954 0.044652451503470837 -0.10951360183543041 -0.085273017556233566 -0.11375206156397513 0.63101233583105354 -0.02650160580785918 -0.11071673827267044
leaf_weight=209.86821781098843 6.8083601593971244 434.47650492936373 584.15025527775288 155.29394514858723 1.491380214691161 11060.956917464733 160.78479339182377 1.9137087762355829 3930.2507354542613 1527.3668607622385 4059.9998321309686 2120.696490958333 231.35421398282051 15.179736375808718 22084.197921350598 2965.088349506259 3447.6796731725335 661.77211081236601 310.35883007198572 396.8041969910264 430.55233789235353 7.9531351029872885 171.3548352047801 61.088653974235058 233.85114193707705 1077.9873391538858 1222.3606712892652 313.37137188762426 210.77599292248487 104.78347571194172 135.08452297002077 54.267655678093433 508.22640798985958 576.81745989620686 124.66541162878275 770.45594671368599 43.614735461771488 98.190455727279186 134.5787661075592 330.19746477901936 105.88182766735554 123.56362329423428 174.88425795733929 16.595955938100815 14.164949610829352 28.886789165437222 1.6310166269540776
leaf_count=641 28 5201 1199 1107 2 48331 902 7 17658 8047 24095 14790 1792 42 77498 9101 15456 3949 1306 2770 2392 41 837 254 1367 4982 4562 1237 1143 613 382 386 1268 1591 641 4761 350 142 191 3840 858 1014 1463 167 21 200 19
internal_value=0 0.201244 0.294757 0.250587 0.211835 0.26535 0.31291 0.239481 0.221373 0.213533 0.23917 0.157381 0.273114 0.0288616 0.319913 0.315609 0.307536 0.279429 0.407688 0.11311 0.138464 0.0799704 0.165132 0.0269067 0.195404 0.233593 0.364831 0.207128 0.105673 0.387895 0.286822 0.282458 0.449489 0.374934 0.236473 0.141607 0.182718 0.466595 0.386425 -0.0649041 -0.0687985 -0.0782143 -0.0721761 -0.0666935 0.544737 -0.0937842 -0.110135
internal_weight=0 13257.5 48184.7 14035.4 12821.4 12674.3 34149.3 2972.99 12186.2 11638.3 7990.25 3648.06 12164.9 635.196 31176.3 29719.3 25531.9 11722.7 1457 1361.08 1201.82 509.486 326.649 457.893 2243.08 1311.84 4187.45 743.924 442.13 547.927 239.868 364.626 1092.38 729.906 197.625 931.241 168.28 308.059 711.396 437.571 436.079 159.259 182.837 18.5097 29.3447 152.45 436.108
internal_count=268644 77342 191302 66558 72122 58663 124744 13968 66368 64590 41753 22837 55215 5754 110776 106617 92954 52280 4159 7895 6653 3448 1944 3024 12012 6349 13663 3629 2935 1778 995 1692 2467 1956 1054 5663 991 783 1782 4700 4698 1242 1504 174 63 1214 5220
is_linear=0
shrinkage=0.1


Tree=2
num_leaves=54
num_cat=0
split_feature=32 113 133 31 103 71 60 40 5 72 132 103 102 71 118 135 29 77 134 115 34 102 29 116 76 116 106 45 52 30 106 102 104 30 52 127 31 70 73 76 70 123 126 96 95 74 108 109 74 32 52 24 110
split_gain=4994.86 2966.62 2093.16 2068.66 1934.12 1885.12 1630.64 1484.55 1403.93 1270.27 1268.54 896.488 842.251 964.19 743.758 635.341 1748.86 634.801 1151.88 748.682 580.424 800.031 773.682 543.806 688.004 534.855 514.994 472.629 452.051 417.876 402.482 399.033 376.568 352.289 316.771 287.386 320.047 274.759 241.94 234.043 205.814 164.996 151.859 117.094 114.425 111.871 104.032 34.3315 33.8396 24.1263 16.2582 57.0237 0.141656
threshold=0.91774681210517894 -0.89034673571586598 1.0000000180025095e-35 1.0056807398796084 -0.90781584382057179 -0.42610730230808253 0.74528324604034435 1.0649752616882326 0.62595346570014965 -0.39270725846290583 1.0000000180025095e-35 -0.82813748717308033 -0.79244258999824513 -0.40340572595596308 -1.6107702255249021 1.0000000180025095e-35 1.2143077254295351 -1.2088330388069151 1.0000000180025095e-35 -0.97967061400413502 0.87369218468666088 -0.87137672305107106 1.1503010988235476 -1.0299800038337705 -1.1227495670318601 -1.0996381640434263 -0.88428795337676991 1.2099831104278567 1.0598174929618838 1.0864649415016177 -0.9277450144290923 -0.81178608536720265 -0.92452085018157948 1.0948300361633303 1.0626556873321535 -2.5342141389846797 1.0034127831459048 -0.28119970858097071 -0.87867265939712513 -1.1330053210258482 -0.34525406360626215 -1.5904051661491392 -1.4505798220634458 -0.69640997052192677 -0.95757949352264393 -0.93620049953460682 -1.0112510919570921 -0.89688405394554127 -0.95467245578765858 0.94473192095756542 0.99990689754486095 1.4089031815528872 -0.84680640697479237
decision_type=2 2 2 2 2 2 2 2 2 2 2 2 2 2 2 2 2 2 2 2 2 2 2 2 2 2 2 2 2 2 2 2 2 2 2 2 2 2 2 2 2 2 2 2 2 2 2 2 2 2 2 2 2
left_child=1 4 3 5 10 6 8 9 -2 11 15 -6 28 -14 -11 33 -17 18 19 -5 21 29 31 24 -19 -8 35 30 -7 40 -9 -23 -31 -1 -20 43 -37 49 48 -25 -4 -39 -3 -22 -40 -24 -29 -44 -12 -28 52 -52 -49
right_child=2 42 20 17 7 12 25 27 -10 14 38 -13 13 -15 -16 16 -18 23 34 -21 26 22 45 39 -26 -27 37 46 -30 32 -32 -33 -34 -35 -36 36 -38 41 44 -41 -42 -43 47 -45 -46 -47 -48 50 -50 -51 51 -53 -54
leaf_value=0.26816798798067371 0.20957210766397616 0.35054764989776727 0.30572253433103858 0.13362147787845011 0.14966436286937498 0.064383427661764275 -0.0154916478788271 -0.055091254266499162 0.14998841515658873 -0.049458912995508419 -0.10239150063201992 0.074173664690140029 0.13713618238099279 0.2210802787904608 0.21994024780953422 0.086809160086181197 0.24048861347811817 0.09343414837524458 -0.061212151259869244 0.24613353201229968 0.31053156609269811 0.21941951344041782 0.35772664533557397 0.28126882907037387 0.25794648079944277 0.12021480320491998 0.18020770262187183 -0.097355582346874248 0.25875519628896837 0.24964826477750346 0.20142048030076387 0.026558825810684351 0.038165734066574065 0.17875444839728427 0.33293124677803965 0.30799182590722457 0.23911383029838085 0.028482205019632792 0.1781008080606333 0.34183239374372165 0.16742157886871034 0.25029933573991531 0.30209402748016295 0.1516559988527115 0.026476203837592773 -0.044099949080064399 0.045098717042506349 -0.11698601178200162 0.054844274163003387 -0.11992702415723887 -0.11794498943218142 0.31736128195412128 -0.10907566395525295
leaf_weight=2398.4390528202057 11424.289270758629 7.4794626012444487 1494.5684072971344 667.8585376739502 5411.5190377831459 122.19650273770094 337.78740908205509 101.92524395138025 6047.9753315448761 106.89728364348412 119.23526886850595 2217.8139423131943 1653.2370669171214 7939.1499536111951 2480.0084623768926 1127.5295469239354 2157.2522557601333 284.25205110013485 171.14138808101416 5167.6694671362638 60.424923866987228 1200.6971544027328 7.2437542527914038 1703.8034472987056 2405.3733393698931 2071.3517394959927 2.876804679632186 336.4142639413476 5746.5961406454444 252.00141582638025 152.97546906769276 117.80633353441954 126.44256363809109 539.82727152854204 23.149084970355034 4027.5684731453657 810.3406982421875 46.646846808493137 83.694626271724701 1020.1088054180145 115.9509796500206 119.28920662403107 2.0733167305588713 199.71449626982212 122.79549633711576 159.20491571724415 60.480428569018841 24.006742529571056 15.46245403587818 38.814517065882683 11.709699995815752 4.0501606017351142 397.1246345564723
leaf_count=8258 41155 22 2687 2513 27236 611 1958 853 27341 897 954 13969 6701 26416 9245 5782 6365 1149 1049 15130 131 3266 10 3839 6168 9513 10 3989 16069 787 909 625 692 2141 52 6263 1802 259 460 1854 360 346 6 753 842 847 446 203 105 292 93 15 5206
internal_value=0 0.158285 0.219052 0.210645 0.164804 0.19868 0.178313 0.138917 0.188947 0.148252 0.207663 0.12772 0.224869 0.206613 0.208808 0.217957 0.187737 0.247598 0.225282 0.233257 0.263857 0.232081 0.176541 0.272456 0.24056 0.101187 0.284662 -0.00740572 0.254708 0.273546 0.098851 0.202188 0.178989 0.251741 -0.0142512 0.290949 0.296455 0.130282 0.0199204 0.30395 0.295765 0.187944 -0.0962552 0.188559 0.0879327 -0.0266127 -0.0756478 -0.103868 -0.0843418 -0.099217 -0.105795 -0.00607469 -0.109527
internal_weight=0 17878.7 55565.5 46785.9 17432.3 35342.6 19881.4 10868 17472.3 10216.2 6564.24 7629.33 15461.2 9592.39 2586.91 6223.05 3284.78 11443.4 6029.82 5835.53 8779.59 3473.92 1484.95 5413.54 2689.63 2409.14 5305.68 651.795 5868.79 1988.96 254.901 1318.5 378.444 2938.27 194.29 5098.05 4837.91 207.627 341.188 2723.91 1610.52 165.936 446.444 260.139 206.49 166.449 396.895 438.965 134.698 41.6913 436.891 15.7599 421.131
internal_count=268644 87996 180648 161518 82451 129764 79967 57544 68496 51347 24907 41205 49797 33117 10142 22546 12147 31754 18744 17643 19130 9274 4748 13010 7317 11471 9856 6197 16680 4526 1762 3891 1479 10399 1101 8949 8065 907 2361 5693 3047 605 5545 884 1302 857 4435 5523 1059 302 5517 108 5409
is_linear=0
shrinkage=0.1


Tree=3
num_leaves=52
num_cat=0
split_feature=31 113 77 88 42 132 135 30 114 76 75 130 129 123 117 108 82 81 100 111 92 73 53 69 87 77 78 8 112 75 61 32 5 114 115 38 57 36 100 57 107 131 34 32 5 56 71 70 47 33 35
split_gain=3084.75 1894.26 1565.99 1155.59 1111.69 984.348 853.942 1196.48 841.973 1779.35 794.894 805.573 750.925 671.351 795.835 672.42 558.176 418.776 417.162 416.157 415.127 405.994 388.503 360.175 350.719 410.458 271.165 265.08 236.505 233.408 215.169 207.452 400.194 158.38 124.021 120.512 110.063 87.7674 70.1159 69.2522 67.4988 67.1671 65.5952 37.6712 43.9022 12.5905 0.0190105 0.000572331 6.35218e-08 1.60003e-09 5.6275e-12
threshold=0.96648335456848156 -0.83846160769462574 -1.2208254933357237 -1.1965574026107786 1.1379005312919619 1.0000000180025095e-35 1.0000000180025095e-35 1.0957687497138979 -0.98982775211334217 -1.1270924210548399 -1.1745675802230833 1.0000000180025095e-35 1.0000000180025095e-35 -2.2670766115188594 -0.91158139705657948 -1.0584020614624021 -1.2766585946083067 -1.265965938568115 -0.86232364177703846 -1.2228202819824217 -1.1852685809135435 -0.93595194816589344 1.0584780573844912 -0.22112528979778287 -1.2158377170562742 -1.2370959520339964 -0.3697828203439712 0.93782004714012157 -0.95497605204582203 -1.189220070838928 0.78798845410346996 0.92181998491287243 0.68948653340339672 -0.97599041461944569 -1.2917214035987852 0.98053339123725902 0.98325860500335704 0.8710068166255952 -0.96908125281333912 0.92598336935043346 -0.87686750292778004 1.0000000180025095e-35 0.79102137684822094 0.92930927872657787 0.58503538370132457 0.8570772409439088 -0.21446207165718076 -0.10790510103106497 0.80449971556663524 0.78531667590141307 0.72018790245056163
decision_type=2 2 2 2 2 2 2 2 2 2 2 2 2 2 2 2 2 2 2 2 2 2 2 2 2 2 2 2 2 2 2 2 2 2 2 2 2 2 2 2 2 2 2 2 2 2 2 2 2 2 2
left_child=1 4 3 10 13 6 8 17 9 -4 20 12 -12 26 15 -15 24 -8 -13 39 29 -9 -10 40 25 -5 46 -16 -25 -2 -28 32 34 -26 -7 37 -37 -21 -22 -6 -18 -41 -34 44 -33 -45 -1 48 49 50 -3
right_child=2 47 5 16 19 31 7 21 22 -11 11 18 -14 14 27 -17 23 -19 -20 35 38 -23 -24 28 33 -27 30 -29 -30 -31 -32 43 42 -35 -36 36 -38 -39 -40 41 -42 -43 -44 45 -46 -47 -48 -49 -50 -51 -52
leaf_value=-0.13184708839302509 0.013872093738462644 -0.10813782661537948 0.12127649287884708 -0.10677563720466919 0.34556297351650067 -0.11982612661454087 -0.039684222395984896 -0.028185838674459479 0.22862152580394254 0.18989020103978405 0.13891589660220402 0.23048637396745397 0.1891158523304895 0.16329465712933255 0.20844832621181633 0.098824994870561941 -0.023831505410771579 0.12045187822638462 0.16281118294265073 -0.1243305561010517 0.35868473346207341 0.22593957493127773 0.17477622979072521 -0.047083361424032889 -0.086524960258141784 0.10146169739044422 0.31434996645840391 0.062013917990713797 0.30163558600626428 0.16570410174828737 0.19625035931669491 0.052669830275169319 0.04541377065231747 0.042291360345854942 0.18788391176689084 0.20460891190824998 0.0045549271191311462 0.25189046651086916 -0.085115115462367524 -0.091632984341151358 0.33236366068111806 0.32497637984595207 -0.10010524975187565 0.030889675537023681 -0.084378874937272738 -0.12446183181757393 -0.12559736251885675 -0.11018663645021241 -0.10811638239626685 -0.10813478521059945 -0.10813765694503635
leaf_weight=7.2531880885362652 178.86470152437687 356.8625750541687 4358.3305969014764 109.02167324721813 3.7448287010192862 13.97320334613323 171.44114226102829 65.478456296026707 6239.3949666842818 28460.435524895787 13731.362415537238 2098.4984319284558 3805.6842186972499 2081.3434279412031 1260.5809580758214 7264.4118478447199 67.294068895280361 3441.7216471731663 1609.4071845561266 6.9745256826281539 3.6269970685243598 1576.3576229587197 1706.4622267186642 21.824697643518448 259.05712597072124 718.39644077420235 210.81324230879545 137.06192497909069 178.63988666236401 233.3248992562294 575.18456088751554 50.286102667450905 47.73197390884161 151.12614048272371 209.16195333003998 34.968683570623398 128.77569219470024 55.894624076783657 192.54321017116308 335.8463939204812 5.776803381741046 3.9149990677833548 88.244240440428257 5.7305112332105628 43.675625920295715 58.206566169857979 14.795101776719092 1.3684901818633068 1.3886833190917958 1.7392219901084889 1.9485130608081807
leaf_count=40 1108 5128 14639 732 12 102 1043 434 14066 71656 48837 5645 11057 8563 3969 34763 336 14803 5356 48 6 3139 4703 113 1468 2652 294 676 369 843 1428 262 275 693 945 142 896 172 1502 4224 12 13 629 30 263 376 92 17 20 25 28
internal_value=0 0.116848 0.170812 0.149688 0.123592 0.181417 0.182959 0.145019 0.18785 0.180778 0.155536 0.158764 0.14981 0.130319 0.123708 0.113183 0.0651153 0.112854 0.201112 -0.0127247 0.0428311 0.215805 0.217058 0.194391 0.0365427 0.0740241 0.218224 0.194088 0.26367 0.0998184 0.227926 0.0442033 0.0862067 -0.0390644 0.168614 0.0924642 0.0472778 0.210154 -0.0769097 -0.0821186 0.00432841 -0.0868325 -0.0490234 -0.0513254 -0.0110336 -0.110538 -0.127653 -0.108145 -0.108138 -0.108138 -0.108138
internal_weight=0 12484.9 69901.1 23364.4 12121.6 46536.6 46019.6 5255 40764.6 32818.8 21853.3 21245 17537 11551.4 10743.4 9345.76 1511.14 3613.16 3707.91 570.12 608.36 1641.84 7945.86 273.535 1237.6 827.418 808.046 1397.64 200.465 412.19 785.998 517.01 359.111 410.183 223.135 226.614 163.744 62.8691 196.17 343.506 73.0709 339.761 135.976 157.899 93.9617 63.9371 22.0483 363.307 361.939 360.55 358.811
internal_count=268644 60550 208094 80729 55332 127365 124483 19419 105064 86295 74354 70895 59894 49825 47971 43326 6375 15846 11001 5507 3459 3573 18769 830 5545 3384 1854 4645 482 1951 1722 2882 1951 2161 1047 1258 1038 220 1508 4249 348 4237 904 931 525 406 132 5218 5201 5181 5156
is_linear=0
shrinkage=0.1


Tree=4
num_leaves=52
num_cat=0
split_feature=32 105 113 5 101 30 106 106 45 131 103 0 135 134 54 73 74 114 132 133 5 0 29 115 128 101 104 14 28 75 97 104 5 35 124 34 8 69 108 41 42 45 34 12 28 135 32 58 53 71 33
split_gain=2336.98 1612.29 1576.62 1353.98 1711.64 1143.63 995.37 1110.14 1009.43 872.116 1315.19 815.903 756.292 769.625 740.892 1189.57 532.972 528.144 511.614 503.828 439.113 416.961 398.872 378.163 323.954 314.363 294.059 257.892 257.311 252.154 243.367 238.148 235.797 199.918 237.065 181.609 147.166 127.352 119.543 113.609 111.567 104.314 100.704 78.2115 71.1336 52.3479 44.9503 0.00125285 4.611e-08 4.48392e-09 1.16268e-09
threshold=0.92747706174850475 -0.87334045767784108 -0.83846160769462574 0.63502150774002086 -0.8560882806777953 1.0800235867500307 -0.97169357538223255 -0.85604190826416005 1.2032164335250857 1.0000000180025095e-35 -0.82399272918701161 0.4586645513772965 1.0000000180025095e-35 1.0000000180025095e-35 1.054117798805237 -0.73017510771751393 -1.0288746356964109 -1.079680800437927 1.0000000180025095e-35 1.0000000180025095e-35 0.69356325268745433 0.47583855688571935 1.1494692564010622 -0.9266335368156432 1.0000000180025095e-35 -0.83911827206611622 -0.81098601222038258 0.91411903500556957 1.2083410620689394 -1.1454240679740904 -0.8773098587989806 -0.86387723684310902 0.77276763319969188 0.84196811914443981 -1.9457999467849729 0.84477806091308605 0.74778360128402721 -0.30970039963722223 -1.0489760041236875 1.0346993803977969 0.93537214398384105 1.0332403182983401 0.89431747794151317 0.90357920527458202 1.260379493236542 1.0000000180025095e-35 0.92930927872657787 0.66161420941352855 0.78781089186668407 -0.31403328478336329 0.78531667590141307
decision_type=2 2 2 2 2 2 2 2 2 2 2 2 2 2 2 2 2 2 2 2 2 2 2 2 2 2 2 2 2 2 2 2 2 2 2 2 2 2 2 2 2 2 2 2 2 2 2 2 2 2 2
left_child=2 12 5 9 20 6 19 8 -8 14 29 37 13 18 17 -16 32 -3 24 35 21 -5 25 -18 -2 -6 -12 39 -9 -11 -21 -22 -13 36 38 -1 41 45 -35 -15 -29 -14 -36 -39 -38 -7 -20 48 49 50 -4
right_child=1 3 47 4 22 11 7 28 -10 10 26 16 33 27 15 -17 23 -19 46 30 31 -23 -24 -25 -26 -27 -28 40 -30 -31 -32 -33 -34 34 42 -37 44 43 -40 -41 -42 -43 -44 -45 -46 -47 -48 -49 -50 -51 -52
leaf_value=0.15519147101617728 0.18872437923976201 0.072984684497487684 -0.10730373018150315 0.033840017585495534 0.0025110919396124703 -0.1152668400522219 0.086420355382579694 0.14169452589077305 -0.024679292908028731 -0.04561654361105591 0.028664249149952366 0.093641426698319166 0.2131940587719241 0.25698568187075915 0.087338372449099602 0.15647946919913691 0.14759412103090788 0.15668352500531282 0.05242463850245567 0.34319243250895437 0.08954575940519538 0.13421325870564335 0.3352196077175732 0.21283935217142599 0.095093548346414994 -0.11758692253116601 -0.0936913326872994 0.22511061107134506 0.24838213130409015 0.14165996657945654 0.19538743166783387 -0.066033263810699169 -0.059789131412854461 0.085311989611971728 0.068230975922036433 0.004939454266280556 -0.074095594739641446 0.01980747743222545 0.33118942767523535 0.030781984514535551 -0.057635858309017518 -0.067157589552072613 -0.029453194783292516 0.21233453048171014 0.13034680429191456 0.06842319754183511 -0.106950267899804 -0.11036890313469541 -0.10728457107790031 -0.1072977583652224 -0.10730101544854148
leaf_weight=143.62850522249937 12609.395030908287 774.43451557308435 325.91849789023399 458.25155984610319 692.33737754821777 102.2657268717885 12744.937465645373 2163.9241239130497 873.88140071928501 74.624948814511299 631.24323056638241 716.51045373827219 238.68026661872864 53.656521916389465 4840.5231028720737 5120.9493567943573 6522.5770928040147 28432.44161465764 25.093505896627903 126.93637402355671 204.31176085025072 4272.8272755369544 29.915092587471008 1028.4103867262602 380.68207943439484 318.08751930296421 285.14910742640495 15.022851303219793 252.43542178720236 1965.4049038439989 910.12484350800514 189.77869509160519 116.44298692047596 33.458931475877762 601.72344748675823 182.86578718572855 32.780184149742126 230.66780041903257 48.344583094120026 37.876462876796722 196.40841716527939 14.053492337465284 127.98144659399986 23.224682718515396 35.395943954586983 18.288608752191067 60.035793364048004 1.3388052433729161 1.265765145421027 1.2677616328001011 1.5853158980607975
leaf_count=520 21512 2491 5138 1809 3290 678 54369 7222 7170 385 2507 2942 558 86 16466 13142 18059 71865 126 118 769 13608 29 1987 1125 1850 1532 43 625 5207 2015 1078 840 143 2580 956 179 969 104 153 919 72 674 65 86 91 410 17 20 20 25
internal_value=0 0.144856 0.109439 0.136073 0.0923046 0.112185 0.0973494 0.0903745 0.0792914 0.142479 0.0901066 0.141656 0.174086 0.180728 0.146432 0.122882 0.148106 0.154464 0.184379 0.179372 0.116043 0.124491 -0.0246422 0.15648 0.18598 -0.0352964 -0.00940851 0.0231595 0.15284 0.134809 0.213479 0.0146249 0.0721926 0.0956172 0.0691951 0.071037 0.162433 -0.0027671 0.230622 0.163382 -0.0375458 0.197605 0.0510983 0.0374188 0.0320476 -0.0874003 -0.0599714 -0.107316 -0.107304 -0.107304 -0.107304
internal_weight=0 62800.9 26488.5 48290.3 6165.51 26157.1 17398.7 16035.2 13618.8 42124.8 2956.42 8758.39 14510.6 13378.2 39168.3 9961.47 8383.94 29206.9 13075.2 1363.56 5125.17 4731.08 1040.34 7550.99 12990.1 1010.42 916.392 302.964 2416.36 2040.03 1037.06 394.09 832.953 1132.42 811.508 326.494 320.91 374.447 81.8035 91.533 211.431 252.734 729.705 253.892 68.1761 120.554 85.1293 331.376 330.037 328.772 327.504
internal_count=268644 164798 103846 136028 22433 98626 72995 69386 61539 113595 9631 25631 28770 24374 103964 29608 23828 74356 23173 3609 17264 15417 5169 20046 22637 5140 4039 1201 7847 5592 2133 1847 3782 4396 3501 1476 895 1803 247 239 962 630 3254 1034 265 769 536 5220 5203 5183 5163
is_linear=0
shrinkage=0.1


Tree=5
num_leaves=53
num_cat=0
split_feature=32 113 78 132 30 37 40 104 110 0 101 133 135 105 113 104 134 76 113 76 115 118 85 76 75 74 30 113 77 29 124 124 35 110 33 126 76 76 92 105 69 34 107 78 79 34 135 107 49 46 33 110
split_gain=1735.68 1205.52 1088.42 819.926 804.789 1076.24 1070.31 875.197 701.339 638.447 564.948 561.573 535.932 760.604 580.609 522.361 477.717 473.038 669.504 1074.39 665.654 471.292 395.038 387.921 364.9 364.077 531.317 240.606 231.819 185.307 238.536 161.911 248.779 205.291 98.3124 86.3805 86.3681 85.3773 85.1218 68.6842 76.6541 91.1565 47.5033 84.2563 42.3917 30.9873 24.9474 24.4594 10.0381 51.5536 5.40881 0.388865
threshold=0.91774681210517894 -0.89034673571586598 -1.2732072472572324 1.0000000180025095e-35 1.0773125290870669 0.87490737438201915 1.0573894381523135 -0.92814794182777394 -0.90906080603599537 0.50574469566345226 -0.81564962863922108 1.0000000180025095e-35 1.0000000180025095e-35 -0.87471809983253468 -1.0284960865974424 -0.87712645530700672 1.0000000180025095e-35 -1.2542096376419065 -0.89968380331993092 -1.2163988351821897 -0.88736581802368153 -1.5948581099510191 -1.2773700952529905 -1.2253457903861997 -1.1745675802230833 -1.0184667706489561 1.0994569659233095 -0.93927669525146473 -1.2431604862213133 1.201210141181946 -1.5616937875747678 -1.9457999467849729 0.84196811914443981 -1.1658391356468198 0.92151546478271495 -1.4505798220634458 -1.258062958717346 -1.2021171450614927 -1.0918615460395811 -0.90982994437217701 -0.22450978308916089 0.87527954578399669 -0.97083100676536549 -0.99077183008193959 -1.301555275917053 0.84667792916297924 1.0000000180025095e-35 -0.91023024916648854 1.017529368400574 1.0055365562438967 0.90844175219535839 -0.84680640697479237
decision_type=2 2 2 2 2 2 2 2 2 2 2 2 2 2 2 2 2 2 2 2 2 2 2 2 2 2 2 2 2 2 2 2 2 2 2 2 2 2 2 2 2 2 2 2 2 2 2 2 2 2 2 2
left_child=1 4 8 12 5 7 15 11 22 29 -9 -1 13 16 -15 -7 -4 20 19 -19 36 -8 28 -20 -22 26 -11 -27 38 30 -6 33 -33 -14 -30 -3 -10 -24 -2 40 45 -42 50 -44 -39 -5 -31 -37 51 -50 -41 -49
right_child=2 35 3 39 9 6 21 10 17 25 -12 -13 31 14 -16 -17 -18 18 23 -21 24 -23 37 -25 -26 27 -28 -29 34 46 -32 32 -34 -35 -36 47 -38 44 -40 42 41 -43 43 -45 -46 -47 -48 48 49 -51 -52 -53
leaf_value=0.07987590436773831 0.039156517795333523 0.18796267177937612 0.1527713476874577 0.046130056623152962 -0.056225808552040506 0.17392167655855872 -0.081701091008095528 0.035515981235559498 -0.10900034574219547 0.052693153629394522 -0.069349013345407093 0.24174896830119463 -0.12809715091505747 0.096835771530380976 0.13033086331384797 0.10376005775929456 0.026337853873309794 0.019139634686635331 0.12610203512387078 0.11005420702188906 0.024627668883957621 0.053828124848448899 0.31237424078090442 0.19012359220527683 0.12449923394918257 0.12347851507819961 0.16611540405151062 0.16692651627469421 -0.0027533689814012502 -0.11377587138503689 0.084405759846247555 0.11019849241759133 0.039634496546109468 0.20848821860615718 0.10237191457764545 0.203412316684109 -0.0065415512513797812 -0.12771936575146031 -0.12901846788600599 -0.12330799020880751 0.18204776063355022 -0.028307663603236544 -0.085168607824054623 0.097671366287141861 -0.049400673499871456 -0.1286314835471484 0.012602911664453865 -0.11944587409213502 0.26645514536619308 -0.12317316589887631 -0.054538508861751059 -0.10656052118069566
leaf_weight=950.4006028175354 50.163046911358833 10.652649752795694 15606.482033260167 14.928524181246756 160.89154022932053 1323.5142467394471 317.7792906910181 3498.2617568224669 202.73410932719707 1334.2306438311934 602.17953769862652 276.71761357784271 20.365558788180351 6462.7902550473809 25974.229393549263 5352.7122206017375 304.67922294139862 1455.8987033516169 3343.5968652516603 12127.487201176584 587.64681160449982 1332.3293396905065 5.818882703781127 1320.099707365036 969.23418517410755 3813.8368595615029 598.16789053380489 1914.3581476509571 105.15600840747356 90.034090474247932 481.75981441885233 962.130152374506 1039.3634275197983 164.40698254108429 577.58279427140951 2.6174388527870169 138.46285240352154 101.0247248634696 75.23708002269268 83.359425909817219 45.849474176764488 37.408687502145767 67.960625924170017 40.05974055826664 218.77860499173403 31.669966772198677 18.898532569408417 25.400421418249607 4.4193191826343563 14.66463892906904 13.255627840757368 300.54964885488153
leaf_count=3644 184 22 26997 60 907 3923 3196 16132 1132 5487 3502 422 120 17736 60990 20312 1172 5553 9199 34479 3068 7262 5 2673 2870 10014 1109 4124 420 604 1719 2865 4507 447 1549 9 590 628 448 548 160 221 424 191 1139 187 94 202 9 101 86 5202
internal_value=0 0.0894225 0.121275 0.129219 0.0923771 0.077387 0.0998446 0.0422884 0.102284 0.116708 0.0201158 0.116379 0.130252 0.132442 0.123657 0.117669 0.15035 0.106591 0.111534 0.10031 0.0590795 0.0277278 0.0257576 0.144224 0.0868026 0.125337 0.0878027 0.137999 0.0632267 0.0287546 0.0491978 0.0818236 0.073555 0.17139 0.0861804 -0.0925324 -0.067421 -0.0672342 -0.0617445 -0.0268303 0.0300542 0.0875331 -0.0629278 -0.0173617 -0.0741413 -0.072644 -0.0918506 -0.101127 -0.103437 -0.032946 -0.113873 -0.107565
internal_weight=0 22424.4 72147.9 50868.9 22066.1 13653.9 8326.34 5327.56 21278.9 8412.18 4100.44 1227.12 50534.4 48348.2 32437 6676.23 15911.2 20145.2 18247.1 13583.4 1898.08 1650.11 1133.76 4663.7 1556.88 7660.59 1932.4 5728.2 808.139 751.584 642.651 2186.27 2001.49 184.773 682.739 358.304 341.197 325.622 125.4 334.492 129.857 83.2582 204.635 108.02 319.803 46.5985 108.933 347.651 345.034 19.084 96.6151 325.95
internal_count=268644 87996 180648 116711 82451 58393 34693 23700 63937 24058 19634 4066 114834 106895 78726 24235 28169 59564 51904 40032 7660 10458 4373 11872 5938 20734 6596 14138 2601 3324 2626 7939 7372 567 1969 5545 1722 1772 632 1877 628 381 1249 615 1767 247 698 5523 5514 110 634 5404
is_linear=0
shrinkage=0.1


Tree=6
num_leaves=53
num_cat=0
split_feature=32 105 113 5 102 129 30 105 130 131 103 58 73 106 133 135 134 31 0 6 29 85 28 101 6 74 132 54 104 104 126 91 56 35 104 70 4 9 111 42 30 104 115 25 126 97 30 107 58 72 53 33
split_gain=1361.28 1083.46 956.128 896.682 1247.51 663.429 791.013 967.817 780.05 582.386 905.381 587.691 1167.93 514.903 438.49 427.048 439.052 425.916 335.045 537.267 310.947 318.231 298.011 297.387 300.092 289.848 261.938 257.491 233.708 230.903 225.918 205.677 200.008 111.696 128.099 106.336 101.866 97.3058 89.7752 84.0157 83.6884 75.7313 70.6392 111.547 70.2742 48.7567 48.2878 27.0151 0.0026986 3.1694e-05 1.97963e-07 6.14477e-10
threshold=0.92747706174850475 -0.87334045767784108 -0.83846160769462574 0.63727569580078136 -0.84451818466186512 1.0000000180025095e-35 1.0930644869804385 -0.9465479552745818 1.0000000180025095e-35 1.0000000180025095e-35 -0.82399272918701161 0.89756426215171825 -0.7328253686428069 -0.92980971932411183 1.0000000180025095e-35 1.0000000180025095e-35 1.0000000180025095e-35 1.0052568316459658 0.48018915951251989 0.68684718012809765 1.0440657734870913 -1.165750205516815 1.2011110186576845 -0.84375253319740284 0.67350962758064281 -1.0320586562156675 1.0000000180025095e-35 1.0233428478240969 -0.85000061988830555 -0.81098601222038258 -1.54442423582077 -0.93917903304100026 0.92983010411262523 0.84196811914443981 -0.86310976743698109 -0.30620014667510981 0.67385265231132518 0.93310999870300304 -0.90781298279762257 0.93537214398384105 1.0679398179054262 -0.89236682653427113 -1.0366166830062864 1.186637878417969 -1.7681563496589658 -0.82757166028022755 1.0994569659233095 -0.86491331458091725 0.67172276973724376 -0.55530497431755055 0.78781089186668407 0.78531667590141307
decision_type=2 2 2 2 2 2 2 2 2 2 2 2 2 2 2 2 2 2 2 2 2 2 2 2 2 2 2 2 2 2 2 2 2 2 2 2 2 2 2 2 2 2 2 2 2 2 2 2 2 2 2 2
left_child=2 15 5 9 18 6 7 14 -9 11 28 17 -13 31 -1 16 22 -3 30 -20 42 38 26 24 -6 -15 -2 -24 -11 -12 -5 -8 39 36 44 -34 41 -23 -22 -18 -36 -17 43 -7 -35 -44 -38 -25 49 50 51 -4
right_child=1 3 48 4 23 20 13 8 -10 10 29 12 -14 25 -16 33 32 -19 19 -21 21 37 27 47 -26 -27 -28 -29 -30 -31 -32 -33 35 34 40 -37 46 -39 -40 -41 -42 -43 45 -45 -46 -47 -48 -49 -50 -51 -52 -53
leaf_value=0.056222458514563159 0.1511570808447438 0.10586308802505162 -0.1058974460270846 0.10222288998938965 0.049693235598257807 -0.10216752518627184 0.071424193977305719 0.059310677696297276 0.13666536152065842 0.13508854262984346 0.013054566924332899 0.018424221880646467 0.10762326725209388 0.032963006475640121 0.1647167239540154 0.088385791809739933 0.1671239407530547 0.13228647958866899 0.11804649208835434 0.048404314797864965 0.19595665397952652 0.034749608667648556 0.12455077596532803 -0.12332366339939733 -0.10413612593233601 0.14491506021720288 -0.043981738275044313 0.026854393815613754 0.070458400670811924 -0.094099738475327668 -0.030969867178378976 -0.062129369727979035 -0.063126946797968542 0.049662059420673921 0.091839400537018459 0.17758628474709554 -0.1301785314074895 0.25583123642582939 0.11181528857712067 -0.062339298864171513 0.27410692784571844 0.18430006944733499 -0.12396898449467042 0.12096219160754694 -0.024244901740521466 0.2057404055456461 0.15026382550719153 -0.068312137709930873 -0.11086944781552627 -0.10644432437226199 -0.10585382180461843 -0.10589527838129664
leaf_weight=497.31183522939682 7453.0271493494511 29529.141905620694 270.41149794310331 186.92859080433846 441.3536042124033 31.32818478345871 792.1595082655549 19771.267053965479 1395.6358104199171 937.21522396802902 675.37758585810661 2150.9508675932884 4622.5194875299931 250.35649946331978 1484.4977546334267 170.01785227656364 17.451418474316597 7688.5761941820383 2921.4665838479996 1784.3459784761071 950.99760547280312 209.63150068372488 6595.5106316655874 267.78494449704885 177.94665951281786 3032.3905941545963 69.428496405482292 281.28285881876945 1388.2946058064699 286.36774652451277 399.53518405556679 134.95713129639626 23.416778653860092 434.18223461508751 223.71185730397701 84.848209172487259 22.722605988383297 21.997296512126923 146.3148230612278 186.25502346456051 28.387678921222687 159.5944709032774 42.143488988280296 78.660610891878605 182.82971054315567 5.0192624777555457 8.4129537940025312 133.90834087133408 1.0968613438308228 1.0631723143160332 1.0447302199900139 1.3142905607819546
leaf_count=1900 10012 71874 5142 503 1680 194 2404 78032 3935 1883 2522 7479 10959 1031 2260 435 43 14763 7556 6352 1587 716 11958 1531 1034 5103 466 737 3937 1542 1658 670 102 1809 780 166 131 25 391 890 58 317 192 178 854 8 12 755 14 19 20 25
internal_value=0 0.105438 0.0796844 0.0986301 0.0632325 0.0814535 0.0779189 0.0706676 0.064411 0.103357 0.0627556 0.106391 0.0792976 0.117791 0.137491 0.128326 0.133058 0.111322 0.0827572 0.0916396 0.146525 0.162255 0.135601 -0.037973 0.00549267 0.136377 0.149356 0.120555 0.0965053 -0.0188515 0.0114838 0.0519833 0.0156912 0.0717181 0.0523023 0.125522 0.118494 0.0557453 0.184737 -0.0426813 0.112364 0.134826 0.0135055 0.057408 0.0277623 -0.0888799 -0.0544019 -0.104985 -0.105919 -0.105899 -0.105897 -0.105897
internal_weight=0 69532.8 29119.6 53591.7 6313.27 28844.7 27358.6 23148.7 21166.9 47278.4 3287.26 43991.2 6773.47 4209.86 1981.81 15941.1 14711.2 37217.7 5292.28 4705.81 1486.09 1328.94 14399.2 1020.99 619.3 3282.75 7522.46 6876.79 2325.51 961.745 586.464 927.117 311.971 1229.86 869.111 108.265 360.748 231.629 1097.31 203.706 252.1 329.612 157.152 109.989 617.012 47.1628 31.1356 401.693 274.931 273.834 272.771 271.726
internal_count=268644 164798 103846 136028 21069 98626 95335 86127 81967 114959 9884 105075 18438 9208 4160 28770 24374 86637 16069 13908 3291 2719 23173 5000 2714 6134 10478 12695 5820 4064 2161 3074 1201 4396 3501 268 895 741 1978 933 838 752 572 372 2663 200 143 2286 5220 5206 5187 5167
is_linear=0
shrinkage=0.1


Tree=7
num_leaves=52
num_cat=0
split_feature=32 105 113 5 101 42 134 30 6 30 71 101 59 129 30 70 135 134 33 71 56 29 112 62 24 56 132 25 103 106 45 61 51 126 72 44 56 101 5 51 125 30 126 51 53 36 104 58 72 47 33
split_gain=1070.58 868.07 765.496 627.143 992.141 571.213 510.91 471.037 541.901 443.767 844.619 862.633 441.376 425.802 502.104 383.276 348.44 310.865 282.794 248.266 241.733 239.974 233.618 196.955 176.52 174.031 131.72 113.13 115.229 109.98 104.902 103.725 100.839 97.0356 88.0597 370.976 85.5979 76.9451 179.587 66.8698 63.9028 61.5212 60.5849 57.0527 52.6274 21.3727 12.4574 0.00197177 2.31729e-05 1.44649e-07 4.43777e-10
threshold=0.92562907934188854 -0.87471809983253468 -0.83846160769462574 0.63502150774002086 -0.84375253319740284 1.1379005312919619 1.0000000180025095e-35 1.0704470276832583 0.69007787108421337 1.0596065521240237 -0.44366241991519922 -0.83213302493095387 0.84328511357307445 1.0000000180025095e-35 1.0930644869804385 -0.37652055919170374 1.0000000180025095e-35 1.0000000180025095e-35 0.90300500392913829 -0.57255622744560231 0.94261041283607494 1.0440657734870913 -1.2837654352188108 0.47567273676395422 1.2394804358482363 0.92983010411262523 1.0000000180025095e-35 1.3942531347274782 -0.82135692238807667 -0.93082165718078602 1.2099831104278567 0.6184736192226411 1.0951597690582278 -3.1421457529067989 -0.73942327499389637 0.96886995434761058 0.98559904098510753 -0.83911827206611622 0.6406768560409547 1.003384590148926 -1.438869774341583 1.1033826470375063 -2.7257939577102657 1.2338442206382754 1.075544595718384 0.9213579297065736 -0.88325333595275868 0.67172276973724376 -0.55530497431755055 0.80449971556663524 0.78531667590141307
decision_type=2 2 2 2 2 2 2 2 2 2 2 2 2 2 2 2 2 2 2 2 2 2 2 2 2 2 2 2 2 2 2 2 2 2 2 2 2 2 2 2 2 2 2 2 2 2 2 2 2 2 2
left_child=2 16 5 9 7 6 13 8 -5 10 11 -3 -12 14 -1 23 17 18 26 -9 -17 -15 43 -11 -20 39 -2 28 31 41 42 -18 -27 -32 46 -36 -30 38 -6 -19 -31 -29 -24 44 -7 -39 -8 48 49 50 -4
right_child=1 3 47 4 37 22 34 19 -10 15 12 -13 -14 21 -16 20 27 25 24 -21 -22 -23 30 -25 -26 32 -28 29 36 40 33 -33 -34 -35 35 -37 -38 45 -40 -41 -42 -43 -44 -45 -46 -47 -48 -49 -50 -51 -52
leaf_value=0.064815505480385449 0.10594611670981893 0.087918953529941682 -0.10530485163881659 0.062672170220498702 0.12398779684650392 0.50861455528837485 -0.132289768436434 -0.012864057150772554 -0.033546934672380159 0.20150382040515466 0.10041118894788206 0.027644831769137297 0.071814083252632513 0.0023336663068096002 0.10255331908686711 0.11965336811990797 0.046595911780486554 0.086570573006927165 0.014574655707220814 0.10581749494102113 0.085074722009872039 0.13942188647430456 0.40043085612790397 -0.078123791944037443 0.13423316253573456 0.22074051882059478 -0.033509164772741011 -0.013927146347803005 0.14539884378922069 0.17120608971447338 0.14629376860975474 -0.046111279414508849 0.017936474349866349 -0.014660027428628897 0.27877579664863983 -0.080289964411458969 -0.13307586918981648 -0.12291761046586558 -0.10854939672810948 -0.073270007008833821 0.079085485198062966 0.15193338439687473 0.062369802858612038 0.15559063711735821 -0.10558735823924988 -0.027957807271416737 -0.067588684361357884 -0.10975137416716406 -0.10579502135684116 -0.10526575281374523 -0.10530292034180017
leaf_weight=22021.684453487396 7717.0782202482224 4936.588709615171 245.98505004122853 3216.5431243479252 51.433294154703617 1.4022245183587063 98.303084269165993 188.40309000015259 715.53282734006643 29.962885618209839 21669.681633211672 4574.9876965880394 7187.2332600355148 141.30156678706408 4197.7107240706682 7622.8831865563989 662.16876163333654 31.633985713124275 125.4537635371089 2734.4667238071561 2751.4501333758235 1325.7594964653254 11.883274450898172 158.08763230592012 7129.1557147577405 49.052607625722885 68.329941436648369 94.010478213429451 142.79636496305466 200.54673020541668 47.136202901601791 147.58437968790531 49.016910433769226 182.40050381422043 36.188192024827003 140.43980596959591 11.962742045521734 275.94495557248592 93.744984418153763 151.61798837780952 120.57627020776272 29.343816310167313 9.5707827657461149 8.8452969193458539 272.66554311662912 25.92881166934967 42.677154436707497 1.0020740367472161 0.96760063618421455 0.95030546560883422 1.1955673731863488
leaf_count=76671 13695 12973 5142 10267 165 2 548 767 3344 42 47100 14503 18732 491 8923 14806 2601 103 393 6400 6043 2532 33 626 9438 54 403 350 364 351 86 731 166 1208 57 737 66 1733 559 768 300 33 52 35 3825 125 223 14 19 20 25
internal_value=0 0.0916371 0.0688641 0.0856876 0.0583501 0.0703906 0.0723441 0.0677634 0.0451629 0.0897672 0.0847705 0.0589276 0.0932887 0.0737908 0.0708573 0.107918 0.111634 0.116011 0.117959 0.0981675 0.110483 0.126218 -0.0320723 -0.0335695 0.132164 0.0118605 0.104722 0.0640453 0.0448097 0.105786 0.0381572 0.0296992 0.119375 0.0183924 -0.0537659 -0.00672325 0.123873 -0.0859906 -0.0261669 -0.0456774 0.136616 0.0255282 0.24962 -0.0943774 -0.102445 -0.114761 -0.112704 -0.105324 -0.105307 -0.105305 -0.105305
internal_weight=0 72963.2 28788.1 56232.9 7302 28538 28004.1 6854.95 3932.08 48930.9 38368.5 9511.58 28856.9 27686.5 26219.4 10562.4 16730.3 15321.3 15040 2922.87 10374.3 1467.06 533.904 188.051 7254.61 281.321 7785.41 1408.99 964.512 444.477 250.991 809.753 98.0695 229.537 317.608 176.628 154.759 447.052 145.178 183.252 321.123 123.354 21.4541 282.913 274.068 301.874 140.98 250.101 249.099 248.131 247.181
internal_count=268644 168001 100643 138185 23360 95423 90182 20778 13611 114825 93308 27476 65832 88617 85594 21517 29816 25020 23929 7167 20849 3023 5241 668 9831 1091 14098 4796 3762 1034 1379 3332 220 1294 1565 794 430 2582 724 871 651 383 85 3862 3827 1858 771 5220 5206 5187 5167
is_linear=0
shrinkage=0.1


Tree=8
num_leaves=54
num_cat=0
split_feature=32 133 31 70 60 113 129 62 69 117 76 101 51 111 132 40 28 103 31 54 70 33 5 127 134 102 45 103 104 107 1 40 118 69 119 30 102 60 115 84 31 56 107 77 77 46 58 49 46 42 107 110 116
split_gain=870.549 733.362 698.706 806.233 966.97 648.393 513.236 494.284 693.689 488.844 518.57 952.532 504.129 686.051 440.213 429.473 414.072 404.547 457.989 385.154 350.436 347.723 248.581 232.89 265.625 225.65 221.436 189.231 188.689 183.178 158.399 123.513 118.593 117.927 137.559 111.81 115.277 96.2624 88.974 55.8482 37.7795 36.8384 19.5423 10.5992 62.4981 6.98917 34.1067 6.86592 40.1207 1.52092 0.787255 0.510368 0.340023
threshold=0.91554746031761181 1.0000000180025095e-35 1.0056807398796084 -0.25363354384899134 0.74528324604034435 -0.89034673571586598 1.0000000180025095e-35 0.6183747947216035 -0.073139585554599748 -1.5564031004905698 -0.54846030473709095 -0.90320464968681324 1.1794947981834414 -1.234288692474365 1.0000000180025095e-35 0.98262643814086925 1.1363613009452822 -0.86521843075752247 1.008849084377289 1.067934036254883 -0.33539304137229914 0.84870806336402904 0.60334190726280224 -2.1450554132461543 1.0000000180025095e-35 -0.79984349012374867 1.1960930824279787 -0.83536338806152333 -0.9203183352947234 -0.98146688938140858 0.31435582041740423 0.99005869030952465 -1.1784293055534361 -0.0065396076533943406 -1.6776571869850156 1.0327404141426089 -0.83356353640556324 0.6669873595237733 -1.2277980446815489 -0.94833034276962269 0.96560940146446239 1.0045669674873354 -0.91023024916648854 -1.1552292108535764 -1.1507840752601621 1.2085527777671816 0.92617008090019237 1.017529368400574 1.0055365562438967 1.1379005312919619 -0.86990574002265919 -0.84680640697479237 -1.5218964219093321
decision_type=2 2 2 2 2 2 2 2 2 2 2 2 2 2 2 2 2 2 2 2 2 2 2 2 2 2 2 2 2 2 2 2 2 2 2 2 2 2 2 2 2 2 2 2 2 2 2 2 2 2 2 2 2
left_child=5 2 3 4 6 9 -2 22 -9 26 11 14 29 -14 -11 17 -6 18 28 23 38 -13 -5 32 -25 35 33 -22 -3 -12 31 -27 -4 52 -35 40 -37 -20 -19 -32 -17 42 -7 50 -45 46 -28 51 -49 -47 -21 -44 -1
right_child=1 15 19 7 16 41 -8 8 -10 10 12 21 13 -15 -16 25 -18 20 37 43 27 -23 -24 24 -26 30 45 -29 -30 -31 39 -33 -34 34 -36 36 -38 -39 -40 -41 -42 -43 47 44 -46 49 -48 48 -50 -51 -52 -53 -54
leaf_value=-0.12350854811934629 0.061535769288447797 0.13390008458547373 0.089197709223566388 0.11815556444829833 -0.083076487042330172 0.16479339107674376 0.11088247694107943 0.030907091919708009 0.085673213534179171 0.076632018079503525 0.15207485758975445 -0.0043738948189389676 -0.094979402439370267 0.087942944343135598 -0.027488612655456449 0.26547404261732732 0.022410115332938272 0.008732849586886594 0.015527414776291167 -0.16325882173969872 0.082079985544627171 0.041904972774164849 0.02359352226745226 0.096267582542120339 0.040139217749353355 -0.14780778153005641 -0.12436929413586928 -0.061576649247607765 0.090945140350290457 0.096635001196797465 -0.1181265560043524 0.09776455627261238 0.22738543198410721 -0.12351623482289738 0.15052222544526631 0.14105713159021394 0.10826926896471911 -0.11234678174670938 -0.10052402672264293 0.041661323583941812 0.16779722132928371 0.16932917977856887 -0.12028280685534132 0.16931546714687867 -0.16524930194638474 -0.12382706909246535 0.13659112395552006 0.19673424080326826 -0.12815619369169926 -0.10692936993615323 -0.13765319070612697 -0.10477452965477074 -0.14568374926022529
leaf_weight=17.619378238916397 24389.731557421386 1485.6270744800568 90.637819111347198 4647.5217085108161 425.05081783980131 2.7798417583107939 2307.0257719010115 2780.7766583636403 13743.462597347796 11544.000786274672 1128.9953575767577 2333.476734701544 277.98052649199963 781.31123976036906 420.86299819499254 43.500718057155609 2988.1572253108025 119.81406888365746 321.88071039319038 17.426917597651482 735.0021830946207 5336.5963519699872 295.67956054955721 15134.326089181006 892.89284606277943 20.833310455083847 21.261444248259071 104.76366856694221 3281.3620956093073 1262.3412895426154 47.89107646048069 1211.3666419386864 197.27693803608418 23.071653932332993 88.894867524504662 2321.6074336767197 1992.6748316287994 72.046284824609756 197.23552022874355 40.263492003083229 441.36734066903591 5.214626118540763 23.416863776743412 7.8158980309963253 19.548458993434906 117.5702899992466 6.5515714213252059 5.1009500399231937 14.914555255323647 97.389264244586229 38.609585829079151 226.25021273642778 11.381231889128687
leaf_count=116 67477 1952 201 8354 1980 8 4848 7929 30802 31193 2667 10365 2257 2497 2276 30 9577 356 982 74 1471 21676 849 28616 2491 99 149 441 5663 3187 212 2372 118 156 248 2269 2765 282 817 92 394 9 185 9 83 841 21 8 97 1630 198 5202 53
internal_value=0 0.0797508 0.0756659 0.0699493 0.0593924 0.0579597 0.0658001 0.0847562 0.0764569 0.059757 0.0616178 0.0553348 0.0973697 0.0399403 0.0729696 0.102077 0.00927374 0.0837881 0.0957685 0.0936462 0.0303397 0.0278255 0.112499 0.094742 0.0931406 0.120958 -0.0521833 0.0641583 0.104332 0.122809 0.0843483 0.0936126 0.183883 0.0475056 0.0940543 0.13103 0.125913 -0.00785981 -0.0592355 -0.0451454 0.17656 -0.0939533 -0.0989922 -0.120704 -0.0696898 -0.110068 -0.062898 -0.101711 -0.0453579 -0.116171 -0.145616 -0.106229 -0.132211
internal_weight=0 80413.2 67975.9 51577.4 30110 23747 26696.8 21467.4 16524.2 23469.3 23085.6 19634.9 3450.63 1059.29 11964.9 12437.2 3413.21 6317.73 5160.92 16398.5 1156.82 7670.07 4943.2 16315.1 16027.2 6119.5 383.74 839.766 4766.99 2391.34 1320.35 1232.2 287.915 140.967 111.967 4799.15 4314.28 393.927 317.05 88.1546 484.868 277.677 272.462 83.4009 27.3644 242.773 27.813 269.683 20.0155 214.96 56.0365 249.667 29.0006
internal_count=268644 183803 163606 131816 83882 84841 72325 47934 38731 79332 76118 65510 10608 4754 33469 20197 11557 11964 8879 31790 3085 32041 9203 31426 31107 8233 3214 1912 7615 5854 2775 2471 319 573 404 5458 5034 1264 1173 304 424 5509 5500 364 92 2641 170 5492 105 2471 272 5387 169
is_linear=0
shrinkage=0.1


Tree=9
num_leaves=60
num_cat=0
split_feature=32 107 134 114 106 30 129 87 131 106 134 115 4 35 33 128 5 123 54 133 56 36 69 63 103 39 104 70 49 56 70 82 108 108 34 33 126 0 25 83 68 82 26 80 121 33 73 108 97 97 31 32 31 42 92 74 8 16 61
split_gain=740.18 724.575 567.856 540.633 481.686 521.327 592.263 469.05 445.237 584.335 377.224 1019.64 1212.95 661.354 557.087 396.066 323.658 309.96 301.212 266.767 250.336 529.022 307.358 237.719 234 233.49 195.794 229.457 187.78 176.873 165.997 156.5 161.086 155.613 131.926 125.567 120.214 243.677 93.5123 82.2687 255.839 72.2725 72.3942 62.7821 21.7841 18.0579 10.402 10.0898 3.56362 13.9988 0.402298 0.268106 0.0697385 0.0279517 0.0211868 0.0143064 0.00957336 0.00700539 0.000328922
threshold=0.93320736289024364 -0.87034890055656422 1.0000000180025095e-35 -0.85627919435501088 -0.97169357538223255 1.0833261013031008 1.0000000180025095e-35 -0.99752283096313465 1.0000000180025095e-35 -0.84222587943077076 1.0000000180025095e-35 -1.0970683097839353 0.58916249871253978 0.88745328783988964 0.92335268855094921 1.0000000180025095e-35 0.67195996642112743 -1.5764715671539304 1.0367280244827273 1.0000000180025095e-35 0.99358159303665172 0.96837893128395092 -0.053954565897583955 0.59789976477622997 -0.85056552290916432 0.9876217544078828 -0.80914628505706776 -0.28919433057308191 1.1126171350479128 0.92923924326896679 -0.24745932966470716 -1.3377529382705686 -0.86797824501991261 -0.85751798748970021 0.84477806091308605 0.89327806234359752 -1.3683891296386717 0.56409582495689403 1.3738754391670229 -0.98258426785469044 0.096191909164190306 -1.3148937225341795 1.1765919923782351 -1.2807303071022031 -0.98757347464561451 0.89566135406494152 -0.84676095843315113 -0.87861317396163929 -0.98464110493659962 -0.98350584506988514 0.97416576743125927 0.92687222361564647 0.9974927306175233 0.93537214398384105 -1.1607918739318845 -1.0082157254219053 0.78079906105995189 1.1910094618797304 0.52834179997444164
decision_type=2 2 2 2 2 2 2 2 2 2 2 2 2 2 2 2 2 2 2 2 2 2 2 2 2 2 2 2 2 2 2 2 2 2 2 2 2 2 2 2 2 2 2 2 2 2 2 2 2 2 2 2 2 2 2 2 2 2 2
left_child=2 10 3 4 19 6 -6 -7 16 31 15 25 14 -14 -13 17 20 23 -19 34 22 -22 -3 -2 35 29 27 -11 -21 -12 -27 33 -33 -10 -1 -18 37 39 56 40 -4 47 -43 -40 -5 -26 -28 -17 52 -50 58 -41 54 -54 -38 -51 -39 -52 -46
right_child=1 8 36 44 5 7 -8 -9 9 26 11 12 13 -15 -16 41 24 18 -20 28 21 -23 -24 -25 45 30 46 -29 -30 -31 -32 32 -34 -35 -36 -37 48 38 43 51 -42 42 -44 -45 50 -47 -48 -49 49 55 57 -53 53 -55 -56 -57 -58 -59 -60
leaf_value=0.079698429332522511 0.11683286536385296 0.063572183595370077 -0.046304320167336405 0.21109071082947364 0.04124116991707151 0.078281215481382005 0.10594724190079315 -0.03966420363534276 0.12410532024059667 -0.048220401589938795 -0.096710201189095055 0.11276360832288664 0.041571088417562019 -0.087118681747699045 0.05780582963860173 -0.15642366596409285 0.10179148271225319 0.091257180118098719 0.064234246152083729 0.098503289193283619 0.0054406146852991159 0.091272166900239704 0.09134949555814656 0.038654584766429662 -0.019847902049869758 -0.10365701661810584 -0.056207367490641813 0.057342306241829823 0.18509434137077188 0.11326140069012954 -0.0088409926794710044 0.046625532897041085 -0.088975718245877508 0.029932021542975626 -0.026819131778368418 -0.0067078372377471183 -0.12151110764385993 -0.13153892045792137 0.30751179707079296 -0.12614951253317472 0.30995521540374771 -0.021803941479880833 0.047929280480744463 0.087034330047195879 -0.10429940840784779 -0.11457322271117376 -0.12424851448088003 -0.0035914828819694428 0.075900753409585783 -0.13038420134401488 -0.12573002114138604 -0.13921318489690099 -0.13707472924415542 -0.12773112240067735 -0.12904725816047222 -0.1375101421748369 -0.13813640328087157 -0.1320722126233673 -0.10638646411785882
leaf_weight=229.56268895417452 5108.3438168019056 19031.503578819335 287.46423827856779 2.2013158798217765 21612.892008695751 8746.0546691939235 1513.6389729455113 350.69602228701115 525.29887033253908 603.22008276730776 53.978714525699615 4884.3474863171577 1333.2778527438641 570.09878146648407 2963.5388440936804 21.417934268713001 165.30096768587828 16155.976616688073 5539.0373982191086 2252.0928324759007 1845.083287037909 1175.6419614106417 5037.9956518858671 421.00317889451981 23.083255119621754 401.22931760549545 25.33845654129982 312.62890337407589 281.77473397552967 156.23457263410091 342.06100772321224 749.83119589090347 99.194446980953217 263.47242373973131 235.61922825872898 300.69697523862123 3.8797610327601424 4.6886076480150205 31.351844906806942 71.999105669558048 21.677420526742935 167.94631296396255 1311.1017229408026 21.963051289319996 205.47734867036343 157.03219969570637 198.36815458536148 5.4110238999128333 4.2680722028017071 9.0095014274120331 3.7370846271514884 20.094613835215569 16.066275060176853 3.9985160231590262 96.957656159996986 4.0992730110883686 4.1427994072437286 3.2616910040378571 0.75792021304368873
leaf_count=693 7062 46442 1266 1 76040 19950 2943 1396 1060 2583 237 9111 4125 2583 6542 95 451 28643 11902 3968 5579 2358 10036 1113 102 1751 148 958 325 285 1086 2103 396 896 1046 1102 30 26 25 450 27 523 3003 53 5199 889 1092 15 16 51 24 100 83 24 562 21 21 18 15
internal_value=0 0.0720604 0.0544196 0.0560552 0.0570212 0.0534535 0.0454762 0.0737342 0.0604901 0.022317 0.0810132 0.0649904 0.0746412 0.00302597 0.0920103 0.0869832 0.0643125 0.0897447 0.0843579 0.0953536 0.0659808 0.0388456 0.0693863 0.11088 -0.00563467 -0.0337066 -0.0326722 -0.0121861 0.108133 0.0593447 -0.0600228 0.0605777 0.0307828 0.0926487 0.0257462 0.0317795 -0.0419162 -0.0174981 0.166761 -0.0460376 -0.0213229 0.0370605 0.0400111 0.216686 -0.101876 -0.102433 -0.116542 -0.1256 -0.123743 -0.0813979 -0.105107 -0.129 -0.129829 -0.135213 -0.128757 -0.132613 -0.134634 -0.128686 -0.104307
internal_weight=0 69948.7 36039.4 35437.8 35222.3 32223.3 23126.5 9096.75 30513.7 2777.35 39435 10704.8 9751.26 1903.38 7847.89 28730.2 27736.3 27224.4 21695 2999.05 27090.2 3020.73 24069.5 5529.35 646.113 953.504 1139.56 915.849 2533.87 210.213 743.29 1637.8 849.026 788.771 465.182 465.998 601.661 463.382 62.1463 401.235 309.142 1505.88 1479.05 53.3149 215.435 180.115 223.707 26.829 138.279 17.3768 213.234 92.0937 120.902 20.0648 100.837 13.1088 8.83141 6.99878 206.235
internal_count=268644 154271 114373 111618 106361 100329 78983 21346 76195 9236 78076 25720 22361 6708 15653 52356 66959 48720 40545 6032 64415 7937 56478 8175 2544 3359 4781 3541 4293 522 2837 4455 2499 1956 1739 1553 2755 1968 125 1843 1293 3636 3526 78 5257 991 1240 110 787 88 5256 550 699 107 592 72 47 42 5214
is_linear=0
shrinkage=0.1


Tree=10
num_leaves=52
num_cat=0
split_feature=32 75 115 57 113 69 130 30 38 105 40 31 5 102 0 115 133 75 134 74 131 31 30 101 9 61 53 129 70 107 25 33 100 9 0 58 91 0 36 34 69 97 7 8 136 31 16 60 63 53 72
split_gain=621.098 659.477 1190.87 509.336 430.013 409.399 388.364 414.914 668.258 836.198 561.202 369.902 568.948 369.156 360.663 313.95 713.334 465.571 311.722 295.263 250.308 228.086 227.063 201.041 192.514 184.575 177.804 178.141 150.642 146.559 140.897 136.333 113.965 111.935 203.001 151.829 111.772 100.961 85.9137 80.502 77.2276 55.4807 50.7882 59.3064 34.4681 33.6095 21.4961 0.00260401 7.68282e-05 2.59312e-07 4.74785e-10
threshold=0.92747706174850475 -1.0031866431236265 -1.0698112249374387 0.94206574559211742 -0.83846160769462574 -0.015275701880455015 1.0000000180025095e-35 1.0800235867500307 0.91560038924217235 -0.9465479552745818 1.0599807500839236 1.0099921822547915 0.60528886318206798 -0.76287841796874989 0.47583855688571935 -1.0785314440727232 1.0000000180025095e-35 -0.99270260334014881 1.0000000180025095e-35 -1.0184667706489561 1.0000000180025095e-35 0.99877724051475536 1.0694587826728823 -0.87892624735832203 0.57002618908882152 0.73943412303924572 1.0993164181709292 1.0000000180025095e-35 -0.45606778562068934 -0.93411636352539051 1.1758345961570742 0.93392401933670055 -0.75627660751342762 0.79484516382217418 0.45723535120487219 0.70632430911064159 -1.1167602539062498 0.52835461497306835 0.91696736216545116 0.84285685420036327 -0.078533403575420366 -0.82592618465423573 0.62515240907669078 0.72887116670608532 1.0000000180025095e-35 0.99997609853744518 1.1055989861488345 0.60712739825248729 0.41367295384407049 0.80586799979209911 -0.56114116311073292
decision_type=2 2 2 2 2 2 2 2 2 2 2 2 2 2 2 2 2 2 2 2 2 2 2 2 2 2 2 2 2 2 2 2 2 2 2 2 2 2 2 2 2 2 2 2 2 2 2 2 2 2 2
left_child=4 2 29 11 6 13 7 8 9 -1 -10 12 -4 -5 28 16 17 38 26 -16 -13 -19 32 -24 41 -7 27 -17 -9 42 -28 -26 -18 34 36 37 -8 -35 -3 -36 44 -20 46 -44 -31 -37 -2 48 49 50 -6
right_child=1 15 3 5 47 25 33 14 10 -11 -12 20 -14 -15 19 18 22 21 24 -21 -22 -23 23 -25 31 -27 30 -29 -30 40 -32 -33 -34 35 39 45 -38 -39 -40 -41 -42 -43 43 -45 -46 -47 -48 -49 -50 -51 -52
leaf_value=0.096200990899728028 0.0072529264263984684 -0.01864895471994233 0.067959447126137579 0.024205552819279705 -0.10387382249858562 0.12015669840553185 0.12977049613666108 -0.11567663797470902 0.063636192291497903 0.0060807314091222489 -0.0039687370466125549 0.064608985194208643 0.044510948107865766 -0.061557207323591295 0.034116321217757477 0.085670389860500754 0.10327427709869259 0.040905426160154051 0.12088270428795622 0.075599150395266018 0.1051671393387472 0.081747089787659613 0.094116916128625008 0.028578961905887393 0.13770066843895276 0.045299076042338821 0.097849938607690937 0.14355315852124093 0.010830977827651482 -0.12130349233775024 0.018651874219618721 0.0023306134112556771 0.056628734069344377 -0.065183135372893372 0.16514150090899304 -0.1090456211824864 0.045501640652415326 0.097803538094662107 -0.12559759368253995 0.073506269108148184 0.098664657522363475 0.23234771866219137 -0.11692016363117844 0.10795773020309113 0.048510029771317936 0.056656292173696499 0.16136996870297957 -0.10985757163252025 -0.10494630959358123 -0.10381314948179443 -0.10387124520805519
leaf_weight=1176.8737538605928 13.40652848780155 145.50024837255478 27493.983537718654 2423.8791557475924 185.04273832589388 498.19256937503815 226.53146561980247 116.80214266479015 8846.8030775748193 8226.9337747395039 1425.7926391735673 2964.8097795248032 16592.39179226011 632.95589061081409 2228.0205471590161 1979.592013835907 6325.7554324269295 4457.8072130605578 53.364356577396393 7463.6451839804649 3126.1165160238743 1972.4016141444445 903.45684564113617 971.2188945710659 595.67024411261082 972.07002490758896 376.5312752276659 726.947510227561 484.85687104612589 443.87880285084248 556.82882113754749 85.015278503298759 571.06671856343746 43.636533915996552 518.53276380896568 63.793773606419563 515.74382104352117 294.52976730465889 155.26678581535816 117.61522513628006 17.276036158204079 273.59027799963951 33.282370328903198 18.108323559165001 12.283654138445852 15.147151812911032 27.851721853017807 0.73098995164036651 0.67003858834504981 0.70733387023210426 0.71761251986026664
leaf_count=2348 31 450 58165 6821 5154 854 501 705 26738 31247 9048 5497 44945 2284 6685 3610 7663 11912 95 15880 4602 4092 1314 1964 824 2352 666 944 1601 1838 1435 216 1157 179 867 273 1572 654 645 297 36 173 129 29 28 31 27 10 16 20 20
internal_value=0 0.0635803 0.0579342 0.0594274 0.0469451 0.027303 0.0478372 0.0451308 0.0366205 0.0173592 0.0542529 0.0623257 0.0591343 0.0064473 0.0613988 0.0790672 0.0722327 0.0477452 0.101864 0.0660626 0.0854251 0.0534332 0.0910236 0.0601635 0.151087 0.0706643 0.088238 0.101217 -0.0137284 -0.0863619 0.0506015 0.120793 0.099412 0.0930112 0.106746 0.0476219 0.0712193 0.076772 -0.0738597 0.148199 -0.108871 0.214155 0.0286589 -0.0376809 -0.116731 -0.0772508 0.111291 -0.103901 -0.103877 -0.103874 -0.103874
internal_weight=0 75420.5 55270.5 54704.4 31953.1 4527.1 31765.3 29969.7 19676.4 9403.81 10272.6 50177.3 44086.4 3056.84 10293.3 20150 15502.5 6730.98 4647.54 9691.67 6090.93 6430.21 8771.5 1874.68 1007.64 1470.26 3639.9 2706.54 601.659 566.087 933.36 680.686 6896.82 1795.53 1378.42 417.107 742.275 338.166 300.767 636.148 473.438 326.955 92.6489 51.3907 456.162 78.9409 41.2583 187.869 187.138 186.468 185.76
internal_count=268644 164798 127638 125520 103846 12311 98626 94252 69381 33595 35786 113209 103110 9105 24871 37160 29197 17099 7963 22565 10099 16004 12098 3278 1308 3206 6655 4554 2306 2118 2101 1040 8820 4374 3237 1137 2073 833 1095 1164 1902 268 216 158 1866 304 58 5220 5210 5194 5174
is_linear=0
shrinkage=0.1


Tree=11
num_leaves=58
num_cat=0
split_feature=32 78 87 132 128 123 45 124 104 108 51 116 72 60 57 48 36 37 0 102 131 31 111 80 59 63 58 78 62 72 103 69 113 106 117 116 36 84 70 68 106 115 77 123 127 112 39 33 106 78 83 98 107 71 39 125 90
split_gain=519.563 607.532 508.375 432.132 416.731 397.864 539.315 491.601 720.585 472.515 457.607 406.696 394.028 924.793 369.757 316.254 303.967 295.526 551.307 316.801 375.09 305.849 269.057 187.643 183.21 180.85 180.757 170.538 174.758 293.913 166.898 138.626 134.169 161.356 125.88 118.305 106.27 103.561 99.5283 91.7613 118.936 77.2738 125.13 73.5196 67.522 63.488 48.6698 40.3808 38.5394 29.5526 29.1442 20.2401 15.8438 0.0680128 0.0356924 0.0151931 0.00550985
threshold=0.91479068994522106 -1.2712047100067136 -1.2249858379364011 1.0000000180025095e-35 1.0000000180025095e-35 -2.2670766115188594 1.198414742946625 -2.2625654935836788 -0.87862741947174061 -1.0474427938461301 1.0778744816780093 -1.4629142880439756 -0.5650428533554076 0.76647585630416881 0.97822973132133495 1.1986827850341799 0.8710068166255952 0.92324680089950573 0.45586664974689489 -0.8419150412082671 1.0000000180025095e-35 0.99630868434906017 -1.2787427902221677 -0.39583750069141382 0.76724314689636242 0.57170274853706371 0.84455382823944103 -0.3697828203439712 0.75756138563156139 -0.27339516580104822 -0.86600273847579945 -0.015275701880455015 -1.3539323210716245 -0.87667414546012867 -1.5375944375991819 -1.5074898004531858 0.8664931356906892 -0.80415746569633473 -0.070617798715829835 0.087149400264024748 -0.81567105650901783 -1.2917214035987852 -0.8292894959449767 -1.4720239043235777 -2.823083639144897 -0.92594221234321583 1.0273064374923708 0.84098735451698314 -0.84053131937980641 -1.2774475812911985 -1.3086943626403806 -0.84694403409957875 -0.97212439775466908 -0.21446207165718076 1.0203241109848025 -2.7744158506393428 -0.22400722652673719
decision_type=2 2 2 2 2 2 2 2 2 2 2 2 2 2 2 2 2 2 2 2 2 2 2 2 2 2 2 2 2 2 2 2 2 2 2 2 2 2 2 2 2 2 2 2 2 2 2 2 2 2 2 2 2 2 2 2 2
left_child=5 2 17 4 12 27 7 9 10 22 -9 32 13 -3 -14 -11 -10 18 24 26 -21 -20 -7 37 -2 30 -19 53 35 36 -6 -27 48 -34 -31 47 -30 -13 -37 45 50 44 43 -43 -5 51 -25 -29 -8 -42 -41 -4 -46 56 55 -55 -1
right_child=1 3 39 41 25 6 11 8 16 15 -12 23 14 -15 -16 -17 -18 19 21 20 -22 -23 -24 46 -26 31 -28 28 29 34 -32 -33 33 -35 -36 38 -38 -39 -40 40 49 42 -44 -45 52 -47 -48 -49 -50 -51 -52 -53 -54 54 -56 -57 -58
leaf_value=-0.14535005337267209 0.034041759317050772 0.063846027561601515 -0.088192981346278565 0.31774165168040147 -0.015551503496157571 -0.13082552498370142 -0.1041460953813286 0.04082603665025817 -0.025898572464460781 -0.086688604023385046 0.10085807017473443 0.088026490606009894 0.087322534192321583 -0.0005210693543749275 0.015053257723334983 0.072693109778302289 0.024712549329493093 0.12581345023868112 -0.0069708121743617228 0.052384301279199443 -0.021587549127323302 0.049778021769373348 0.11633334415361724 0.21129509088788967 -0.041849846348166325 -0.046366102816746232 0.058619700622412702 -0.10838362721634598 0.20881081637401927 -0.038427349825757212 0.05535376322261612 0.030713010694018938 0.030886943424329877 -0.083933261121386882 0.14593381167311964 0.11425129712865284 -0.074810396546676511 -0.008619686321195778 0.1964904514521455 0.17889561596647158 -0.15009365196717875 0.0020677837536407047 0.24810342068315686 -0.11765419194759306 -0.10961544930618637 0.1738988884349062 -0.028577973098115945 0.21454919512617582 0.34530331301718542 -0.022327874503462637 -0.0028797948683655025 -0.14513579085877007 0.097501865216001959 -0.14332095777671819 -0.12831488965277504 -0.13709801330241786 -0.15033119285799837
leaf_weight=4.2450408935546875 432.62728634476662 41520.454353064299 169.39915577322245 3.9057102501392356 404.22273014485836 45.225412480533123 438.61921060085297 13513.462584365159 2160.7770133092999 229.8235099837184 1401.4594266284257 160.06461963243783 9651.55149962008 2358.9293224290013 764.00164279341698 271.65418160706758 2632.3387423753738 883.09347446262836 1101.12817068398 13426.784305475652 722.3726390376687 6906.6874064281583 1686.7609930559993 72.870673231780529 1201.5910970717669 489.1963554173708 732.36176113039255 24.968121770769361 14.478048399090765 43.75986735522747 1857.1460995823145 446.10983731597662 246.49042249470949 243.09627580270171 241.01327092200518 375.079913392663 150.95435851439834 360.77166882902384 242.17569658905268 33.601052895188332 30.179683089256287 295.44822294265032 18.484913304448128 62.068368509411812 133.89961822330952 8.1641489565372449 9.5693418532609922 4.5828624069690695 1.9161817878484715 45.243761152029037 11.959665447473524 98.84437695145607 3.7981577217578879 6.2100911736488404 3.5170723944902411 10.654427975416182 4.6566323041915911
leaf_count=20 1137 82756 842 5 1112 290 4460 39686 13290 1035 3185 435 16620 7076 2130 815 10099 1532 3921 31114 2851 18247 3603 147 3954 1534 1734 125 16 168 3948 1055 1253 1325 317 606 635 1885 172 41 141 1304 36 341 748 15 62 4 11 144 39 485 12 30 21 54 21
internal_value=0 0.055973 0.0432076 0.0616514 0.0624703 0.0394447 0.0366591 0.0406661 0.0356271 0.0851297 0.0464669 -0.0206766 0.0645361 0.0603857 0.0820214 -0.000350349 0.00189663 0.0449631 0.0311725 0.0533977 0.0486077 0.0419747 0.10988 0.0432703 -0.021759 0.0273825 0.0953514 0.097503 0.103861 0.0560203 0.0426794 -0.00960194 -0.0621524 -0.0261252 0.117604 0.13716 -0.0499889 0.0210818 0.146517 -0.0690232 0.00360926 -0.0293112 -0.00559974 -0.0187171 -0.0922727 -0.100815 0.183451 -0.0583022 -0.102191 -0.0734516 0.13118 -0.109176 -0.103902 -0.140663 -0.137478 -0.13939 -0.147956
internal_weight=0 83813.3 25804 58009.2 57491.6 24601.2 23474.9 21941.5 19708 2233.46 14914.9 1533.4 54294.9 43879.4 10415.6 501.478 4793.12 25406.6 9642.03 15764.6 14149.2 8007.82 1731.99 603.276 1634.22 3196.68 1615.46 1126.3 1097.01 450.206 2261.37 935.306 930.122 489.587 284.773 646.807 165.432 520.836 617.256 397.392 120.984 517.605 376.002 357.517 141.603 276.408 82.44 29.551 440.535 75.4234 45.5607 268.244 137.698 29.2833 20.3816 16.8645 8.90167
internal_count=268644 184874 66197 118677 116231 83770 81581 72003 66260 5743 42871 9578 108582 89832 18750 1850 23389 64490 27259 37231 33965 22168 3893 2529 5091 7649 3266 2189 2043 1136 5060 2589 7049 2578 485 907 651 2320 778 1707 365 2446 1681 1645 765 1342 209 129 4471 285 80 1327 760 146 105 84 41
is_linear=0
shrinkage=0.1


Tree=12
num_leaves=62
num_cat=0
split_feature=75 116 136 30 5 101 39 132 72 100 6 75 117 24 73 30 125 78 68 117 79 59 118 4 8 74 72 116 94 134 102 45 122 112 97 129 48 125 0 122 120 52 55 31 76 116 135 50 108 48 73 48 54 35 30 90 75 98 106 36 31
split_gain=452.271 1003.47 572.91 546.777 542.586 510.221 670.508 536.953 543.515 904.701 650.911 471.988 620.285 456.122 447.624 548.026 445.486 413.105 341.716 338.339 307.458 292.879 287.456 264.509 213.896 204.07 195.633 193.561 177.33 199.22 171.009 158.205 140.459 113.919 105.207 100.865 93.8942 103.811 88.4254 84.0291 83.8284 82.9427 115.827 72.6979 69.7529 90.3133 59.1069 139.192 75.7441 57.7169 57.4269 56.0089 51.7923 43.7916 38.6079 27.9252 25.8682 20.9222 5.8979 0.301415 0.0301289
threshold=-1.0976926684379575 -0.95823469758033741 1.0000000180025095e-35 1.0756434202194216 0.77276763319969188 -0.76874482631683339 0.96361115574836742 1.0000000180025095e-35 -0.57982674241065968 -0.82275918126106251 0.60656544566154491 -1.1189619302749632 -0.93668168783187855 1.3014704585075381 -0.74546793103218068 1.0457207560539248 -1.2767896652221677 -1.2861909866333006 -0.07880824431776999 -1.5564031004905698 -0.34545014798641199 0.84328511357307445 -1.2847607135772703 0.55045196413993847 0.76015198230743419 -0.97078013420104969 -0.55816677212715138 -0.94449651241302479 -1.0144309401512144 1.0000000180025095e-35 -0.7916169762611388 1.1960930824279787 -1.125892639160156 -0.89872783422470082 -0.99949413537979115 1.0000000180025095e-35 1.138234078884125 -2.1000527143478389 0.2333832383155823 -1.1933138370513914 -0.99114787578582753 1.0880916714668276 1.0000357627868655 0.99630868434906017 -1.2021171450614927 -0.96865949034690846 1.0000000180025095e-35 1.132860600948334 -1.0401062369346616 1.1304000616073611 -0.6481473147869109 0.98756769299507152 1.0311647057533266 0.91207155585289013 1.0786388516426089 -1.1890712380409239 -1.099209129810333 -0.91071605682373036 -0.89960879087448109 0.87448239326477062 0.96648335456848156
decision_type=2 2 2 2 2 2 2 2 2 2 2 2 2 2 2 2 2 2 2 2 2 2 2 2 2 2 2 2 2 2 2 2 2 2 2 2 2 2 2 2 2 2 2 2 2 2 2 2 2 2 2 2 2 2 2 2 2 2 2 2 2
left_child=1 17 4 13 11 7 30 8 9 22 -11 12 -3 27 15 39 -13 41 35 31 -21 23 -2 -10 34 57 -23 -4 29 -20 38 -16 -15 -26 -5 40 37 -27 50 -8 -19 44 53 -44 55 -46 48 -48 -32 -30 -7 56 -17 -43 -37 -1 -6 58 -9 -40 -38
right_child=5 2 3 24 51 6 14 25 21 10 -12 16 -14 32 19 52 -18 18 28 20 -22 26 -24 -25 33 36 -28 -29 49 -31 46 -33 -34 -35 -36 54 60 -39 59 -41 -42 42 43 -45 45 -47 47 -49 -50 -51 -52 -53 -54 -55 -56 -57 -58 -59 -60 -61 -62
leaf_value=-0.026140585004693191 0.11939271727870443 -0.017079165231586618 -0.075625675656938063 0.20126168436598391 -0.10989395815022406 -0.038067479680910531 -0.10288416710281434 -0.12714458488982794 0.081581028753347898 0.027439205151208498 -0.11731676672857677 0.089749350042181125 0.048460280542405892 0.045603501820793479 0.025650912336983092 -0.042041314907972409 0.030153955380862709 -0.067304765352824633 0.022145178348659228 0.039343564283432157 0.092706586229403518 0.0033454915640922299 0.054860118993829234 -0.005248819337909166 -0.052005891447636433 0.12382137870897721 0.060876689781470261 0.052698025308722779 -0.1316297505532624 0.13251230240260467 -0.026904401563906839 -0.10777898806901208 -0.088100820398126556 0.17863023888430085 0.086900182868376502 0.13486360627147262 -0.13144722269553807 0.0051442760318223622 -0.13421677976726148 0.14349133697385488 0.098588006093155017 0.00042253526300665306 -0.12728922158065939 -0.0094063674251066015 -0.12999164478224398 -0.030972500322578308 0.14984399964769654 -0.1286741581787266 -0.10051089589030138 0.13184353386154346 0.2495504658688292 0.10891385403744613 0.17715430074742855 0.25533038828803439 -0.01926986115006242 -0.15067783996455919 0.014199204077966552 0.12350995890920341 -0.056044875913171824 -0.16975014542303679 -0.12634742180397021
leaf_weight=19.456808179616928 700.48562072217464 1764.8852926343679 146.8619073331356 130.43354579806328 244.67218497022986 8.8932237625122017 454.54525817930698 134.70530414581299 11155.422427043319 9741.6981091946363 320.86534948460758 4251.3967086225748 7943.9276876822114 85.947784021496773 150.5471568852663 12.118700832128523 1779.2735422253609 594.3632051423192 402.89749792218208 11877.693242169917 1187.6677966862917 873.8391180485487 47289.530609959736 362.22663596644998 124.73702302575111 78.154758870601654 1826.5303606390953 588.83613745868206 63.425044804811478 275.30915548652411 199.69137432426214 216.87047043442726 915.38746258616447 25.855335369706154 209.88636884093285 38.890656724572182 29.642033360898495 1295.2893072217703 5.4195365607738477 14.277969017624853 32.105817422270775 10.992908820509912 89.123926147818565 126.66405982524157 163.00618850439787 211.78891213238239 37.616200998425484 34.309904053807259 466.15822207927704 9.5687506794929487 31.63957686722279 13.307232424616812 97.551504388451576 17.417835175991058 27.916368424892426 241.33013438433409 18.036855474114418 3.5850360095500937 12.773385360836981 4.2665748745203018 19.016256503760815
leaf_count=61 894 5628 522 117 3713 39 1991 831 18291 24502 1291 8530 21187 215 570 35 4922 2141 968 34875 2346 2483 102076 921 412 229 3770 2040 323 593 911 2642 4028 34 425 49 166 5776 29 21 79 32 425 418 797 687 117 201 3623 22 47 29 82 17 66 1127 50 16 73 19 120
internal_value=0 0.0332634 0.0411474 -0.00636504 0.047757 0.0497229 0.0327759 0.0531193 0.0543774 0.0500857 0.0228234 0.0501944 0.0365464 -0.0327011 0.0378237 -0.0483058 0.0721665 -0.0286195 0.00428238 0.041533 0.0441944 0.0719007 0.0558021 0.0788503 0.0868219 -0.00467758 0.0422596 0.0270817 0.0510077 0.0669473 -0.0569792 -0.0531069 -0.0766246 -0.0124078 0.130731 -0.046347 0.00706105 0.0118975 0.121577 -0.0953808 -0.058803 -0.0826397 -0.0331043 -0.0580939 -0.101672 -0.074038 -0.0691332 0.0169864 -0.078436 -0.0970911 0.186445 -0.0912357 0.152933 0.156699 0.0704565 -0.141386 -0.101374 -0.115184 -0.120987 -0.149869 -0.129454
internal_weight=0 20567.7 18243.4 2227.95 16015.5 88643 14799.3 73843.8 72270.6 58052.6 10062.6 15739.5 9708.81 1737.03 14011.3 578.493 6030.67 2324.26 1444.48 13432.8 13065.4 14218 47990 11517.6 490.912 1573.17 2700.37 735.698 751.2 678.207 787.995 367.418 1001.34 150.592 340.32 693.276 1422.1 1373.44 50.2189 468.823 626.469 879.781 244.199 215.788 635.582 374.795 737.776 71.9261 665.85 72.9938 40.5328 276.016 109.67 28.4107 66.807 260.787 262.709 151.064 147.479 9.68611 48.6583
internal_count=268644 59657 51852 7793 44059 208987 47548 161439 154228 128763 25793 40267 26815 6805 42562 2129 13452 7805 4241 40433 37221 25465 102970 19212 988 7211 6253 2562 1906 1561 4986 3212 4243 446 542 2335 6291 6005 134 2012 2220 3564 892 843 2672 1484 4852 318 4534 345 86 3792 117 49 115 1188 3763 920 904 48 286
is_linear=0
shrinkage=0.1


Tree=13
num_leaves=55
num_cat=0
split_feature=75 32 105 134 131 104 69 106 30 106 129 5 101 30 71 135 29 133 38 92 75 29 131 91 75 126 0 130 33 124 83 40 37 32 58 100 32 96 31 0 130 31 88 85 124 96 31 37 31 75 105 0 54 136
split_gain=411.977 415.94 460.746 406.455 327.065 484.593 317.658 307.389 385.758 475.179 417.887 306.504 442.867 287.074 270.952 261.866 200.845 200.103 178.374 167.042 228.832 155.967 122.13 106.315 135.049 97.2111 177.335 80.9316 78.3123 74.4252 73.3592 64.6392 60.6249 56.6013 50.6821 28.9411 26.9893 62.5644 20.9152 11.8223 10.5149 53.6591 8.83874 51.6476 6.90815 3.29744 15.8653 1.99064 0.11041 0.108138 0.104745 0.0241733 0.0040563 0.000577609
threshold=-1.1745675802230833 0.93320736289024364 -0.87471809983253468 1.0000000180025095e-35 1.0000000180025095e-35 -0.8481411039829253 -0.20079541206359861 -0.97169357538223255 1.0948300361633303 -0.92879199981689442 1.0000000180025095e-35 0.66403594613075267 -0.86466586589813221 1.0596065521240237 -0.48280918598175043 1.0000000180025095e-35 1.1921941637992861 1.0000000180025095e-35 0.95407092571258556 -1.1852685809135435 -1.2060647606849668 1.1974654793739321 1.0000000180025095e-35 -1.2394024729728697 -1.189220070838928 -1.3683891296386717 0.56723463535308849 1.0000000180025095e-35 0.88467067480087291 -1.9457999467849729 -0.98258426785469044 0.89353045821189891 0.87604072690010082 0.95514217019081127 0.72998803853988659 -0.96908125281333912 0.94972601532936107 -1.0626757740974424 1.0058266520500185 0.57788193225860607 1.0000000180025095e-35 1.0046061873435976 -1.2725214362144468 -1.3173701763153074 -1.1980816125869749 -1.0091073513031004 0.9895417094230653 0.76691120862960827 0.99671754240989696 -1.189220070838928 -0.87401485443115223 0.5156247913837434 1.0094772577285769 1.0000000180025095e-35
decision_type=2 2 2 2 2 2 2 2 2 2 2 2 2 2 2 2 2 2 2 2 2 2 2 2 2 2 2 2 2 2 2 2 2 2 2 2 2 2 2 2 2 2 2 2 2 2 2 2 2 2 2 2 2 2
left_child=19 3 15 7 11 6 -6 17 10 -10 -9 13 -13 -4 -7 16 18 22 -3 20 36 -19 -2 27 38 26 30 32 34 -30 -5 -28 -22 -26 -17 -21 47 -38 -25 -18 42 44 50 -44 -42 48 -47 53 -27 -29 -37 -49 -39 -1
right_child=1 2 4 25 5 14 -8 8 9 -11 -12 12 -14 -15 -16 28 39 21 -20 35 23 -23 -24 24 33 45 31 49 29 -31 -32 -33 -34 -35 -36 40 37 52 -40 -41 41 -43 43 -45 -46 46 -48 51 -50 -51 -52 -53 -54 -55
leaf_value=-0.10306315634441783 -0.0054379525709167594 0.061291795332300163 0.042485740342838238 -0.027447680862625626 0.0052990217977635914 -0.059403207093043281 0.080813867752535934 0.025368469790693959 -0.0066176363831244034 0.078641746777275534 0.074777970870643001 0.02874914731267161 -0.10146295992776361 0.059994355680514012 0.01009133168923137 -0.079891544635958323 -0.17691279165545437 0.084696503834186823 0.088885879554417957 0.12773044682526455 -0.13547123525103277 0.0021008676158476838 0.2020689510222102 -0.12873240214818868 0.061157681260324809 -0.12712908040929374 0.18021011158888936 -0.13317917802868237 0.088299595661914601 -0.0069544085479086156 -0.12897612456669877 -0.074623224677821454 0.12471104547885976 -0.077616489658299273 0.09920796137570928 -0.14654460199521027 0.2570019911567849 -0.12758605660454245 0.019289086419431226 -0.01689737749705154 -0.061752105321402455 0.15523088562598156 0.22849125749332685 -0.14777065178967255 -0.12559676595803673 -0.13157737932244881 0.098575914363948233 -0.1308342395348637 -0.13473662743116599 -0.1511822428956211 -0.12307855754889839 -0.12612029126850277 -0.13172778756506634 -0.10355261846802746
leaf_weight=80.058859186246991 465.72089160606265 8621.0957035124302 39440.879448495805 321.82986189424992 897.98851139843464 780.72258924692869 1467.209989503026 27944.340051339939 820.26146426796913 3219.0678518265486 1823.4377789460123 1296.6505076438189 327.08691518753767 12280.413591146469 1993.8092558458447 17.769323989748955 34.692127779126167 2322.5398828312755 3216.6813765838742 5.7008809652179471 9.4501669201999885 253.58340306580067 30.202831044793129 72.940247507765889 188.06699288822711 91.807347670197487 50.665971964597702 8.0367055702954513 91.850725963711739 766.89012387394905 91.372568592429161 12.387225538492201 171.12962301075459 34.834480121731758 142.59008261561394 1.9281848073005665 6.8324788659811047 3.528303384780882 10.983214542269705 5.3260571062564841 28.109237857162952 9.3015550523996335 4.9121101349592236 14.177339822053908 42.681526884436607 14.062658607959749 3.8056522309780112 19.851265080273151 24.081469371914864 5.7048713713884345 141.09345222264528 24.067100837826729 7.1698061972856522 34.499549239873886
leaf_count=2777 1691 14057 86635 1306 2317 2767 2473 90354 2385 5303 3439 3610 1679 24308 5894 60 144 3608 3993 15 84 685 53 429 487 557 58 47 172 2644 550 54 432 133 250 9 15 21 39 14 168 30 12 70 271 79 13 112 129 28 951 149 40 1044
internal_value=0 0.042272 0.0467514 0.0337429 0.0429786 0.0188866 0.0521434 0.0350821 0.03233 0.0613282 0.0283951 0.0452998 0.00251912 0.0466429 -0.00946366 0.06386 0.0680339 0.0653682 0.0687899 -0.0247457 0.000965732 0.0765661 0.00719967 0.0354165 -0.00123818 -0.0472178 -0.0260621 0.0932925 0.015213 0.00323394 -0.0498989 0.130146 0.111095 0.0394704 0.0793621 -0.0949768 -0.0971259 0.0206117 -0.109361 -0.155616 -0.100219 -0.0705758 -0.114864 -0.0509507 -0.100246 -0.122545 -0.0825586 -0.11015 -0.12871 -0.140653 -0.123395 -0.128251 -0.130362 -0.103211
internal_weight=0 108871 71381.7 37489.2 58484.8 5139.73 2365.2 36879.2 33807.1 4039.33 29767.8 53345 1623.74 51721.3 2774.53 12896.9 11877.8 3072.05 11837.8 925.058 677.154 2576.12 495.924 501.146 306.825 610.013 476.256 194.321 1019.1 858.741 413.202 63.0532 180.58 222.901 160.359 247.904 176.007 17.5306 83.9235 40.0182 242.203 80.0923 162.111 19.0894 70.7908 133.757 17.8683 158.477 115.889 13.7416 143.022 43.9184 10.6981 114.558
internal_count=268644 261281 151017 110264 129683 13451 4790 107518 101481 7688 93793 116232 5289 110943 8661 21334 18208 6037 18050 7363 5837 4293 1744 1679 1088 2746 1968 591 3126 2816 1856 112 516 620 310 1526 4158 76 468 158 1511 469 1042 82 439 778 92 4082 686 75 960 261 61 3821
is_linear=0
shrinkage=0.1


Tree=14
num_leaves=62
num_cat=0
split_feature=32 75 115 106 131 103 105 30 133 129 38 101 104 75 123 117 114 133 116 58 134 30 29 35 114 76 79 73 113 102 90 74 88 135 53 34 130 41 129 31 104 100 99 94 73 0 71 104 31 12 133 30 7 35 93 93 73 30 133 44 31
split_gain=345.424 442.932 989.248 391.917 449.581 295.582 289.076 335.826 560.589 328.836 365.18 521.534 381.462 287.782 280.144 646.069 263.859 492.41 258.607 253.465 226.666 216.196 211.847 188.722 185.294 528.346 184.29 175.766 163.073 161.538 160.788 146.823 140.152 128.061 126.398 126.386 122.982 120.831 116.388 111.837 106.662 87.3614 89.9315 83.4715 81.4658 71.5474 69.2985 123.099 64.0195 63.5969 62.938 58.9645 46.0465 31.6808 30.693 11.7279 0.266675 0.237157 0.248061 0.140759 0.0141692
threshold=0.92747706174850475 -1.0048328042030332 -1.0580940246582029 -0.85412785410881031 1.0000000180025095e-35 -0.80909758806228627 -0.95532318949699391 1.0957687497138979 1.0000000180025095e-35 1.0000000180025095e-35 0.91560038924217235 -0.80094355344772328 -0.87712645530700672 -1.021178066730499 -1.4223102331161497 -1.070867598056793 -1.0534901618957517 1.0000000180025095e-35 -1.0876737833023069 0.89584657549858104 1.0000000180025095e-35 1.0718569755554201 1.0440657734870913 0.70791837573051464 -1.0664169192314146 -1.0544291138648985 -1.1318196058273313 -0.93298959732055653 -0.92196553945541371 -0.88985762000083912 -1.0193140506744383 -0.92612081766128529 -1.1261549592018125 1.0000000180025095e-35 1.0993164181709292 0.88772940635681163 1.0000000180025095e-35 1.1073741316795351 1.0000000180025095e-35 0.98449981212615978 -0.88248032331466664 -0.92530599236488331 -0.99887597560882557 -0.93521189689636219 -0.82187354564666737 0.59771883487701427 -0.62278881669044484 -0.93287160992622364 1.0034127831459048 0.72123390436172496 1.0000000180025095e-35 1.1106792092323305 0.84016254544258129 0.91076302528381359 -0.97825515270233143 -1.0598481893539426 -0.85562440752983082 1.0930644869804385 1.0000000180025095e-35 1.175952196121216 0.96816936135292064
decision_type=2 2 2 2 2 2 2 2 2 2 2 2 2 2 2 2 2 2 2 2 2 2 2 2 2 2 2 2 2 2 2 2 2 2 2 2 2 2 2 2 2 2 2 2 2 2 2 2 2 2 2 2 2 2 2 2 2 2 2 2 2
left_child=6 2 13 14 19 -6 23 9 27 10 11 -8 -12 50 31 -16 17 24 44 -5 34 40 49 41 25 -3 -26 45 -29 -23 43 -4 -24 35 38 39 -20 -36 -18 -25 -19 42 52 -22 -15 -9 55 -48 56 -11 54 -44 -1 -32 -2 -10 -35 58 -43 -37 -59
right_child=1 16 3 4 5 -7 7 8 46 22 12 -13 -14 18 15 -17 20 21 36 -21 30 29 32 33 26 -27 -28 28 -30 -31 53 -33 -34 48 37 59 -38 -39 -40 -41 -42 57 51 -45 -46 -47 47 -49 -50 -51 -52 -53 -54 -55 -56 -57 -58 60 -60 -61 -62
leaf_value=0.0011929492743025889 -0.048302149340354511 -0.072319385288553431 -0.089370260085792783 0.038283517271188491 0.00057751158617449193 -0.11340283334827038 0.015015897894523379 -0.13621918005961314 -0.0036275513735611817 0.020658325670083633 0.083209870197089017 -0.067274391835761782 0.02735119555547158 0.072253771592470525 -0.016960221005466184 0.04985933396938369 0.062139434286090194 0.084547958768342091 0.0230707717056019 0.011137086403928674 -0.11316963544152857 0.064270112675257604 0.094294062420487434 0.11783438789316891 0.043899801325537474 0.03082747551573823 0.13047870489273328 0.064242490854779191 0.12470394599425694 -0.00056341617296078942 0.11780630031903175 0.10481187856995702 0.0085447671790129433 -0.1590469144458557 0.013205990932441795 -0.14952426817108727 -0.14335228755863624 0.10055842757483935 0.10984067116032936 0.063008499313348204 0.059936038394100215 -0.15548789819800257 0.067068822864759375 0.091958460771420447 -0.10308594048519913 0.015287709341542388 0.041162860097405975 -0.1536242542228079 0.11612219614102355 -0.11167071812493808 0.068951345509838724 -0.094754226594992566 -0.1498226389481036 0.18692985306353135 -0.14773628614561737 -0.15703441536226315 -0.14136457232230701 -0.15257105313107819 -0.18172149900146667 -0.13035111141677455 -0.15915127356304365
leaf_weight=39.59941965341568 34.921156749129295 545.29338081181049 40.448285683989525 23503.768582865596 1904.0348479822278 258.39619591832161 15023.407484306023 34.899777010083199 5.2375161796808234 71.289579451084137 1409.636347245425 811.78428157046437 9212.0825559571385 28.735832184553146 1545.9931439012289 22600.518609583378 1703.1853236556053 3426.2834520787001 709.91580677032471 4029.0748861655593 20.822274520993233 738.6301399320364 1156.3123721033335 734.41697186231613 1459.851327046752 5561.1610808745027 295.6434211730957 2157.7385283559561 562.35591521859169 801.1286191791296 85.822193771600723 1042.8818095326424 228.22788441926241 14.414409846067423 706.33397047221661 18.28597675263882 47.36572676897049 204.11456315219402 731.05937656760216 754.08212301135063 3622.4964792132378 5.3376329094171568 190.0487330108881 419.47305825352669 340.27586215734482 291.61143478006124 76.259166985750198 56.467862039804459 12.326703459024428 74.035591829568148 15.621650174260138 25.543347045779228 41.195208726450801 291.55245023965836 279.55823430418968 102.73689123243093 20.889481872320179 7.8720115274190885 11.100867927074432 4.8431723266839972 5.6005081832408905
leaf_count=106 101 1831 138 52997 6292 1368 50053 152 14 250 3003 5326 32609 49 3942 45497 2990 4074 1576 10583 69 1137 1775 1082 2952 13682 352 3611 601 1718 111 1530 585 71 1663 83 180 296 919 1368 5449 25 438 613 1329 846 181 280 26 347 25 93 221 180 1155 460 104 35 45 32 24
internal_value=0 0.041078 0.0364919 0.0386489 0.0308627 -0.0130424 0.0288701 0.0265775 0.0568132 0.023026 0.0204194 0.0107973 0.0347643 -0.044853 0.0478131 0.0455812 0.0536221 0.0479309 -0.0207877 0.034311 0.0761145 0.0644841 0.0681032 0.0668954 0.029848 0.0216167 0.0584806 0.0684206 0.0767424 0.0305376 0.123311 0.0975617 0.0801591 0.0813678 0.0645764 0.0864549 0.0126615 0.0327896 0.0764652 0.0900593 0.0718994 -0.00226267 0.014175 0.0822576 -0.0894318 -0.000906395 -0.0901034 -0.0417081 -0.0800787 -0.0467564 -0.126963 0.047896 -0.0758062 0.17121 -0.136695 -0.149593 -0.148584 -0.165142 -0.173203 -0.145509 -0.155306
internal_weight=0 76994.4 56381.5 54925.1 29695.3 2162.43 33159.6 31274.1 3287.31 27986.8 26456.9 15835.2 10621.7 1456.39 25229.8 24146.5 20612.9 16450.5 1126.29 27532.8 4162.36 8588.54 1529.87 1885.56 7861.95 6106.45 1755.49 3046.61 2720.09 1539.76 817.67 1083.33 1384.54 1559.26 3344.69 1511.63 757.282 910.449 2434.24 1488.5 7048.78 326.298 296.387 440.295 369.012 326.511 240.701 132.727 47.6306 145.325 330.101 215.592 80.7946 377.375 314.479 107.974 35.3039 29.911 16.4385 23.1291 13.4725
internal_count=268644 164798 126762 122347 71240 7660 103846 100093 6145 93948 90991 55379 35612 4415 51107 49439 38036 31195 3134 63580 6841 12378 2957 3753 18817 15513 3304 5210 4212 2855 973 1668 2360 2766 5868 2565 1756 1959 3909 2450 9523 987 858 682 1378 998 935 461 201 597 1281 531 327 291 1256 474 175 129 70 115 59
is_linear=0
shrinkage=0.1


Tree=15
num_leaves=63
num_cat=0
split_feature=75 116 123 98 129 5 114 76 117 32 30 125 118 75 116 76 5 77 114 76 134 105 123 136 76 7 136 114 95 54 35 54 74 93 114 133 1 117 114 129 129 57 77 116 3 42 6 102 31 82 121 96 36 29 57 76 50 92 105 116 20 101
split_gain=344.206 1173.27 467.134 416.114 564.423 399.908 387.317 561.301 516.782 514.449 455.151 396.898 372.27 368.088 631.514 386.337 365.755 357 352 730.147 350.559 300.4 334.439 279.989 289.129 264.093 257.679 354.47 238.851 235.713 222.669 213.368 203.048 215.928 202.967 193.744 155.504 154.367 146.946 138.951 136.51 133.116 127.68 112.303 104.02 99.726 91.339 249.826 86.9781 83.088 82.5717 59.1992 52.6869 78.4775 42.6886 34.6254 28.2072 20.0223 17.6261 14.3532 11.2682 68.2194
threshold=-1.0891564488410947 -0.96303081512451161 -1.1312152743339536 -0.97394952178001393 1.0000000180025095e-35 0.7858090102672578 -0.97204124927520741 -1.1512164473533628 -1.0348819494247434 0.92811086773872387 1.0714924931526186 -1.4306580424308775 -0.91346603631973255 -1.1146163344383238 -0.91976559162139881 -1.2320801615715025 0.62704983353614818 -1.2768539786338804 -0.99224406480789173 -1.1270924210548399 1.0000000180025095e-35 -0.95211714506149281 -2.2670766115188594 1.0000000180025095e-35 -1.1984965801239011 0.69201576709747326 1.0000000180025095e-35 -0.9423391819000243 -0.98021531105041493 1.0198037028312685 0.88338264822959911 1.0372229218482973 -1.0025391578674314 -1.0935389995574949 -0.95834979414939869 1.0000000180025095e-35 0.45410054922103887 -1.0180770158767698 -0.91930982470512379 1.0000000180025095e-35 1.0000000180025095e-35 0.97822973132133495 -1.2217184305191038 -0.97544172406196583 0.5002613663673402 1.0616563558578493 0.58394995331764232 -0.78572136163711537 1.002425014972687 -1.2996253967285154 -0.98527759313583363 -1.0049771666526792 0.91422075033187877 1.1113458871841433 0.87723618745803844 -1.1314222812652586 1.1005067229270937 -1.013907194137573 -0.82006382942199696 -1.0255655646324155 1.2611637711524966 -0.86228832602500904
decision_type=2 2 2 2 2 2 2 2 2 2 2 2 2 2 2 2 2 2 2 2 2 2 2 2 2 2 2 2 2 2 2 2 2 2 2 2 2 2 2 2 2 2 2 2 2 2 2 2 2 2 2 2 2 2 2 2 2 2 2 2 2 2
left_child=1 23 13 5 12 30 7 8 44 21 11 41 -5 14 17 -16 20 -3 19 -11 -10 35 -23 24 46 28 31 -28 -26 -20 -4 -15 34 50 51 -9 -35 -18 -36 43 -27 42 -8 -13 45 -2 47 -1 -6 -48 -34 -12 60 58 -41 -7 -55 -43 -54 -46 61 -25
right_child=6 2 3 4 48 55 10 9 16 18 32 39 -14 26 15 -17 37 -19 29 -21 -22 22 -24 52 25 40 27 -29 -30 -31 -32 -33 33 36 38 -37 -38 -39 -40 54 -42 57 -44 -45 59 -47 49 -49 -50 -51 -52 -53 53 56 -56 -57 -58 -59 -60 -61 -62 -63
leaf_value=0.11544521594732969 0.097011721284312222 -0.032456496089477961 0.030980140980448809 -0.07360176250573168 0.12659391363197403 -0.10735332150187729 0.041895790441433718 0.010429790471734125 0.0062029052324136169 0.001380149936311849 0.02309508565228904 -0.13765817591475946 0.0036182357678374829 0.080624189884524397 0.036967552631599863 0.11260070538680052 -0.14144312450322255 0.029653576105462893 0.086138341297301205 0.04395082046562316 0.084426373993878048 0.071979029886613907 0.016372901781991227 0.10202788932237164 0.02932591673589563 -0.069592340434644073 -0.097421889930545236 0.041371991951528478 -0.048821470409890669 0.046339201704112327 0.12686511611894905 0.036497645281451656 -0.10804024095359877 -0.19377067425622826 0.042923570890424437 0.076239699062086913 0.093167760475239086 -0.02776574645225275 0.12697142357628194 0.13325941895165128 0.076969699761707325 -0.14558902751143607 0.077652887561017292 -0.01833549869146079 -0.16718436947714815 -0.076435301517699991 -0.14288302996882926 -0.14150903061046502 0.003735371717853893 0.13531188572326433 0.21169005718774936 -0.099126979247341249 -0.14703410800674316 -0.015595632624049461 -0.026509198223964327 0.038151415982282694 0.17561240410358059 0.017057754349067741 -0.0073072979318175683 -0.11879420765863234 -0.15815033680036181 -0.15027591845576377
leaf_weight=64.317881777882576 38.399461388587952 1901.1779634952545 4509.5942878089845 1240.3734735995531 276.46740061044693 220.78357948735356 7500.5398099794984 616.75601676478982 2455.0648893788457 4607.6484681591392 60.85029312223196 86.136148124933243 1256.9658422544599 4121.4192735850811 2512.7754083201289 923.61326937377453 174.36925064027309 1803.1430095881224 2770.082886248827 32077.266094841063 747.30038207769394 1147.7896478958428 18759.431190006435 12.596670612692831 1572.6922359392047 747.84559679031372 206.54879400134087 1686.2212923914194 520.56809954345226 3215.5259523391724 255.93704302608967 1492.660850033164 72.818212434649467 18.987843573093414 1181.2630463838577 1628.6380016580224 3556.3747522830963 379.30815046280622 252.48239713907242 74.505886593833566 69.453101217746735 41.42695364356041 1151.9948768466711 935.80026058107615 116.87375603616238 242.45382799208164 262.94397774338722 91.905018322169781 72.796202957630157 11.192941248416899 9.0849954485893232 113.63524378836155 46.948529869318008 15.917444303631784 21.563762128353119 17.662996985018253 14.972360879182814 9.2606413364410383 11.177484631538389 128.90034784376621 152.70888701081276 71.805839523673058
leaf_count=116 64 6098 11631 5000 448 4514 15889 1809 6215 11470 148 354 4240 7823 6136 1464 859 4596 4121 61718 1238 2189 62806 21 3717 2828 832 3885 1957 6138 408 3329 257 77 2428 2610 5748 1185 288 83 102 168 1824 4181 511 897 1283 390 204 16 6 423 191 42 56 61 14 26 34 520 656 302
internal_value=0 0.023575 0.0321242 0.0124417 -0.0180828 0.0298062 0.0367065 0.0335373 -0.0015256 0.0358539 0.0512228 0.0385048 -0.0347352 0.0426733 0.0264196 0.0572958 0.0114816 -0.00222333 0.0422727 0.0386039 0.024457 0.0234899 0.019579 -0.0288758 -0.0202425 -0.00893052 0.0581342 0.0262261 0.00989162 0.0647579 0.0361297 0.0688919 0.0749443 0.0879663 0.0453312 0.0581633 0.0916439 -0.0635661 0.0577244 -0.0175837 -0.0571377 0.0457099 0.0466565 -0.0283929 -0.0942961 -0.0527209 -0.0967467 -0.0357195 0.100987 -0.131524 -0.0725746 -0.0565031 -0.117316 -0.0517169 0.0973978 -0.096575 0.0770834 -0.115873 -0.120165 -0.141805 -0.141944 -0.112621
internal_weight=0 26165.2 22498.1 7850.58 2846.6 5003.98 84192.5 69105.8 4282.67 64823.1 15086.7 9821.23 2497.34 14647.6 7140.71 3436.39 3756.04 3704.32 42670.5 36684.9 3202.37 22152.6 19907.2 3667.05 3340.92 2910.56 7506.85 1892.77 2093.26 5985.61 4765.53 5614.08 5265.5 3657.27 1608.23 2245.39 3575.36 553.677 1433.75 1118.01 817.299 8703.22 8652.53 1021.94 526.627 280.853 430.36 156.223 349.264 274.137 81.9032 174.486 326.127 89.0158 96.0696 238.447 30.8898 50.6876 58.126 245.774 237.111 84.4025
internal_count=268644 72338 60669 26506 9892 16614 196306 164350 11489 152861 31956 22581 9240 34163 18294 7600 9497 10694 83447 73188 7453 69414 64995 11669 10409 8604 15869 4717 5674 10259 12039 11152 9375 6088 3287 4419 5825 2044 2716 4674 2930 17907 17713 4535 1992 961 1805 506 652 1299 263 571 1260 281 139 4575 56 194 225 1031 979 323
is_linear=0
shrinkage=0.1


Tree=16
num_leaves=57
num_cat=0
split_feature=76 115 135 81 113 106 127 81 101 72 72 100 5 31 132 57 39 30 37 103 102 30 28 98 73 61 29 100 31 44 122 114 94 31 129 58 124 76 115 99 32 75 111 113 21 18 87 23 113 74 73 70 117 89 31 131
split_gain=310.295 377.776 290.7 661.85 477.386 434.812 371.716 497.217 347.105 646.91 562.356 751.163 645.297 477.87 301.684 298.7 384.374 272.003 260.13 254.977 249.263 242.504 237.474 204.213 208.13 200.593 183.224 182.216 148.544 138.85 108.111 267.467 76.9538 76.6952 72.3252 63.1088 58.6836 54.0762 73.0497 47.4865 64.7923 42.0189 41.5491 32.4009 31.3197 28.2575 40.9245 25.714 25.2853 19.0605 12.2695 11.757 8.82824 7.16819 5.56481 0.288818
threshold=-1.2542096376419065 -0.88736581802368153 1.0000000180025095e-35 -1.2268287539482114 -0.93927669525146473 -0.9370625615119933 -1.3459007143974302 -1.274264872074127 -0.77414387464523304 -0.56756934523582447 -0.59118548035621632 -0.82655686140060414 0.59169131517410289 1.0041202902793886 1.0000000180025095e-35 0.92906847596168529 1.018488943576813 1.1012201309204104 0.89294984936714183 -0.93265321850776661 -0.77083408832550038 1.0744357705116274 1.130427420139313 -0.9919239580631255 -0.88495469093322743 0.73943412303924572 1.2413784861564638 -0.8563036024570464 0.96648335456848156 1.1538422107696535 -1.1045508384704588 -0.96307608485221852 -1.1413230895996092 1.0093811154365542 1.0000000180025095e-35 0.82822355628013622 -1.9457999467849729 -1.258062958717346 -0.89897871017456044 -0.8945133090019225 0.95697116851806652 -1.1655743718147276 -0.87295988202095021 -0.9780975580215453 1.3245422244071963 1.2034073472023012 -1.3516643643379209 1.3319575190544131 -0.94426473975181568 -1.070338189601898 -0.88179770112037648 -0.19626572728157041 -0.89653477072715748 -1.2735660076141355 1.0023056864738467 1.0000000180025095e-35
decision_type=2 2 2 2 2 2 2 2 2 2 2 2 2 2 2 2 2 2 2 2 2 2 2 2 2 2 2 2 2 2 2 2 2 2 2 2 2 2 2 2 2 2 2 2 2 2 2 2 2 2 2 2 2 2 2 2
left_child=1 37 8 4 30 28 7 -6 10 13 11 14 -13 22 -2 20 -17 -8 33 26 -11 -21 -10 45 32 27 -7 -12 43 -27 31 -4 -25 41 -26 -15 -30 51 53 42 -41 49 -40 -5 47 46 -20 -35 -32 -3 -43 52 54 -39 -1 -55
right_child=2 18 3 5 6 19 17 -9 9 15 25 12 -14 35 -16 16 -18 -19 23 21 -22 -23 -24 24 34 29 -28 -29 36 -31 48 -33 -34 44 -36 -37 -38 38 39 40 -42 50 -44 -45 -46 -47 -48 -49 -50 -51 -52 -53 -54 55 -56 -57
leaf_value=-0.13988560423882596 0.036410379014260877 -0.11178166576180709 -0.10838173444907673 -0.12929782874208073 -0.055374204432725949 -0.087221873065280509 -0.077873431418243266 0.07311321126018698 -0.11488461984448475 0.037466758272231365 -0.05165024293601464 0.010071192444460789 -0.11041931133824556 -0.18483196669108182 -0.018829839691672959 0.057830439918280331 0.019967129952615039 0.080645634085330611 0.25106223412191281 0.013089209240503781 -0.022802102374278169 0.055284326050270963 -0.029441528885020541 0.18533465298277896 0.022668055151190619 -0.060471774895150425 0.046248919623916827 0.053381327243668765 0.065874796743702238 0.042749454662245202 -0.14491589306194649 0.014812743140969182 -0.090694845250484726 0.011951994906613139 0.079065954949931502 0.14220261073494014 -0.022871405004939952 -0.040367618969142954 0.18715487957321428 0.19375617010603816 -0.022251707330612866 0.24029611746374005 -0.11165690407431941 0.090223846017572731 -0.090654741653050014 0.24170401642934858 0.044145179570186405 0.1948476518152871 -0.091240232515985731 -0.059486840844593408 0.01497211905296604 0.042719784287153298 -0.015597203753021278 -0.15325727070888173 -0.10037299402630495 -0.1368035858785944
leaf_weight=176.40825928747654 51615.30533933267 177.81806091032922 401.2687761336565 151.85976151004434 429.67747232317924 263.64253950864077 644.55354385077953 1007.093383923173 492.04873859137297 1050.1247784793377 166.70127251371741 8141.4274356737733 470.1499091591686 6.1522723734378806 1007.9530354067683 4137.0975957587361 7618.2889883108437 130.09332574903965 15.537359148263929 1859.2965881079435 1980.3497504144907 5092.9865672439337 959.76024968922138 10.679578393697737 1123.5053154602647 268.99581849575043 168.64027889817953 18050.544715575874 82.631379991769791 252.78382148966193 202.30544672906399 314.24656504392624 186.08691193908453 14.183493927121164 285.08413394540548 144.29550975561142 758.14883922785521 6.8422455489635459 5.2676961272954932 22.325924083590508 36.73379772901535 4.5331112500280142 39.900149628520012 7.0350828468799582 10.241339176893232 40.889870643615723 24.840011596679688 16.783175364136696 155.00872296094894 114.62665992975235 5.1760094910860044 4.0837885588407508 6.7250024303793898 40.403773814439774 44.668747782707214 14.495941460132597
leaf_count=882 112132 4300 1742 698 1813 985 2719 2256 3172 2867 460 20576 1907 25 4700 9751 23109 202 19 6534 7154 10637 3788 19 3247 863 310 32645 160 583 951 960 959 36 560 121 2589 21 9 26 111 9 165 15 35 28 62 16 616 551 32 9 26 182 223 77
internal_value=0 -0.0051609 0.0309887 0.0160815 -0.0219712 0.0309874 0.00458378 0.0346881 0.0327938 0.0195355 0.0355107 0.0308719 0.003493 -0.0408197 0.0353523 0.0260759 0.0332924 -0.0512519 0.0123023 0.0393663 -0.00191764 0.0439998 -0.0584 0.0284539 0.0206249 0.0506692 -0.0351528 0.0524202 -0.0309071 -0.0104647 -0.076709 -0.0542761 -0.0757132 -0.0670358 0.0340824 0.128829 -0.0141495 -0.0942636 -0.050686 0.00037556 0.0594042 -0.0844894 -0.076808 -0.119578 0.060941 0.183108 0.123768 0.111077 -0.121631 -0.0912842 0.120174 -0.125454 -0.128469 -0.136884 -0.131902 -0.148913
internal_weight=0 2427.84 108030 11668.5 3284.25 8384.24 2211.42 1436.77 96362 16388.1 79973.9 61234.8 8611.58 1602.26 52623.3 14785.9 11755.4 774.647 2029.99 7384.57 3030.47 6952.28 1451.81 1686.62 1605.36 18739 432.283 18217.2 999.675 521.78 1072.83 715.515 196.766 343.362 1408.59 150.448 840.78 397.855 165.97 104.228 59.0597 302.154 45.1678 158.895 41.208 81.2672 40.3774 30.9667 357.314 292.445 9.70912 231.886 227.802 61.742 221.077 54.8997
internal_count=268644 11604 257040 33187 11259 21928 6990 4069 223853 49987 173866 139315 22483 7106 116832 42881 32860 2921 9873 18466 10021 17171 6960 4894 4785 34551 1295 33105 3462 1446 4269 2702 978 4979 3807 146 2749 1731 591 311 137 4892 174 713 87 109 81 52 1567 4851 41 1140 1131 280 1105 259
is_linear=0
shrinkage=0.1


Tree=17
num_leaves=54
num_cat=0
split_feature=117 76 117 128 5 136 31 82 52 111 68 76 81 69 36 30 40 60 116 134 105 8 58 114 70 115 51 93 114 69 115 41 36 127 121 69 42 125 45 110 49 38 79 116 115 58 63 45 46 106 106 37 32
split_gain=275.095 288.762 736.832 351.095 347 357.696 495.794 339.825 369.898 402.649 354.455 237.435 202.918 358.638 252.286 144.98 140.348 215.618 138.087 131.167 121.06 120.916 108.411 97.8921 88.0407 75.4505 69.0157 67.3284 55.7815 54.395 44.2292 34.5586 60.5459 41.2901 32.0792 30.8329 0.529322 0.17367 0.10199 0.0827247 0.045008 0.0347312 0.0232447 0.020013 0.010043 0.00800134 0.00653177 0.00254667 0.000324031 0.000234725 0.000191212 0.000157698 2.72365e-05
threshold=-1.565033435821533 -1.1644014716148374 -1.0044632554054258 1.0000000180025095e-35 0.75159740447998058 1.0000000180025095e-35 0.99724307656288158 -1.3088855743408201 1.1548926234245303 -1.234288692474365 0.083870775997638716 -1.2506057620048521 -1.280955374240875 -0.18838264793157575 0.93647351861000072 1.034142851829529 0.99894821643829357 0.72931405901908886 -1.007810056209564 1.0000000180025095e-35 -0.89737269282340992 0.43499544262886053 0.86304253339767467 -0.96712189912796009 -0.17733474820852277 -0.98592993617057789 0.97372668981552135 -0.78283110260963429 -1.0209218263626096 -0.35523638129234308 -0.98411247134208668 1.0895963311195376 0.90055814385414135 -3.1807808876037593 -1.8755927085876463 -0.40484312176704401 1.1379005312919619 -2.7355507612228389 1.1960930824279787 -1.2185927629470823 1.2064822316169741 0.97811132669448864 -0.31461679935455317 -1.5218964219093321 -1.4883532524108884 0.88568794727325451 0.64788404107093822 1.2099831104278567 1.2135195732116701 -0.9277450144290923 -0.93192014098167408 0.93532291054725658 0.81483805179595958
decision_type=2 2 2 2 2 2 2 2 2 2 2 2 2 2 2 2 2 2 2 2 2 2 2 2 2 2 2 2 2 2 2 2 2 2 2 2 2 2 2 2 2 2 2 2 2 2 2 2 2 2 2 2 2
left_child=31 2 12 7 5 11 -7 16 10 -10 -9 -4 14 30 25 21 17 -3 -16 -15 28 27 -18 -22 -23 -2 35 -5 -17 -28 -14 32 40 34 -34 -6 37 41 39 -39 42 -33 45 -40 -35 -1 -42 48 50 -50 -38 -49 -53
right_child=1 3 4 15 26 6 -8 8 9 -11 -12 -13 13 19 18 20 22 -19 -20 -21 23 24 -24 -25 -26 -27 29 -29 -30 -31 -32 36 33 44 -36 -37 47 38 43 -41 46 -43 -44 -45 -46 -47 -48 51 49 -51 -52 52 -54
leaf_value=-0.1236790947274836 -0.12824970802644425 0.046624338141054142 0.0016533562309634577 0.1678004760504147 -0.043083461164638653 -0.056918407264439336 0.017448143097892416 0.029416085701247326 -0.089624117424297239 0.011884052421452856 0.052031492459871445 0.033111592994245952 -0.17840175594549934 -0.14916241428502425 -0.10085387386595035 -0.094385602577347807 0.1106592383520405 -0.08628885751781426 0.002336263609830132 0.1244835872971914 0.019300924586040841 -0.04478731879148961 0.062458323061640321 0.089896917503701421 0.0005113230973094919 -0.065308202128413914 0.093041042902463122 0.0091804733774191564 -0.002248360004825515 -0.090696166752082835 0.030640240450369279 -0.13886243033219012 -0.017285281717303091 -0.12033475911022207 0.23980961728095826 -0.10771334226950235 -0.10745861786693389 -0.11842397259529758 -0.1145442456610941 -0.13225948530555212 -0.12367691152687868 -0.12552920975127127 -0.13667745331401926 -0.12221419308271531 -0.1277901615709725 -0.12946983564479417 -0.1178778685406138 -0.10658959036140395 -0.10565212647594734 -0.1073048788995036 -0.10882932083711006 -0.10588168856649943 -0.10543501076863633
leaf_weight=2.9628114700317427 382.81453640758991 1207.4329532124102 2706.6650048289448 51.102828115224838 108.61863303929567 1167.2832324206829 3864.4478899985552 59863.751640468836 466.59306987375021 2404.8092346098274 7837.6623824127018 21124.395518004894 67.797778144478798 19.197808623313904 160.38626456260681 123.80272778868675 587.78476639091969 135.7782889008522 677.38850027322769 200.01270872354507 2036.4440064877272 965.35673966631293 2263.6436628401279 217.38847869634628 772.31103008985519 379.01627366617322 42.352614998817444 56.176110059022903 140.02805708348751 26.00643203407526 11.897594347596167 3.998783975839614 7.4472566545009657 3.2053170204162598 13.933848805725574 230.37391179427505 2.5652599409222603 12.399018689990045 63.635523989796638 6.6337604820728293 4.6743517518043509 3.8199627995491028 4.2889219671487817 3.5940763503313056 4.1413395106792441 12.259220868349074 3.3231703341007233 1.2440865300595749 1.3165237233042719 2.4742243140935898 1.6870072297751884 1.4080701246857632 44.727766446769238
leaf_count=20 1805 2550 8693 58 781 4229 9015 136449 3449 7634 17479 49422 284 71 691 426 788 419 1788 233 4436 2972 4146 328 1838 1425 79 190 347 110 25 21 34 23 23 4323 40 96 589 37 31 24 23 26 25 71 26 22 26 39 23 27 915
internal_value=0 0.0273666 0.019214 0.0305779 0.0231298 0.0244233 0.000196262 0.0321869 0.0305433 -0.00461068 0.0320342 0.0295387 -0.0411574 0.0344724 -0.0552897 0.00300227 0.0598399 0.0331888 -0.0174188 0.100518 0.0186076 -0.0182932 0.0723943 0.0261101 -0.0246542 -0.0969359 -0.0685211 0.0847399 -0.0454838 0.0231403 -0.147194 -0.0883741 -0.0215495 0.0799857 0.150261 -0.0870049 -0.11351 -0.118077 -0.116784 -0.123246 -0.127585 -0.132348 -0.130175 -0.114954 -0.124537 -0.128343 -0.121267 -0.105758 -0.107403 -0.106731 -0.108002 -0.105479 -0.105449
internal_weight=0 110299 31168.7 79130.1 29270.1 28862.8 5031.73 74767.5 70572.8 2871.4 67701.4 23831.1 1898.51 298.906 1599.61 4362.61 4194.64 1343.21 837.775 219.211 2517.66 1844.95 2851.43 2253.83 1737.67 761.831 407.352 107.279 263.831 68.359 79.6954 205.74 56.2362 28.7278 21.3811 338.993 149.504 94.0811 86.2624 19.0328 27.5085 7.81875 19.511 67.2296 7.34666 15.222 7.99752 55.4229 8.04302 3.79075 4.25227 47.3799 46.1358
internal_count=268644 266483 82974 183509 76652 71359 13244 172914 165011 11083 153928 58115 6322 613 5709 10595 7903 2969 2479 304 5537 5058 4934 4764 4810 3230 5293 248 773 189 309 2161 276 105 57 5104 1885 793 748 133 171 45 114 615 48 91 57 1092 128 65 63 964 942
is_linear=0
shrinkage=0.1


Tree=18
num_leaves=60
num_cat=0
split_feature=106 32 134 74 96 116 77 128 75 57 5 30 136 53 37 0 84 74 133 41 91 36 122 36 63 70 29 125 2 125 131 93 106 127 33 127 0 127 32 24 106 118 107 33 117 123 15 120 67 32 54 101 35 127 127 118 30 99 31
split_gain=259.318 297.622 313.616 285.397 962.172 371.774 363.502 314.496 291.539 249.029 256.809 247.233 401.558 455.608 394.45 357.252 243.443 196.397 187.705 207.897 170.694 374.683 166.041 154.442 136.835 144.574 133.186 122.989 114.855 167.327 156.999 106.789 105.938 99.8483 80.9415 80.2797 132.221 72.4327 71.5309 62.5966 59.6317 58.963 55.9479 53.1066 55.5507 49.7842 47.3118 41.258 41.0249 30.4843 28.7985 28.6027 26.5733 28.7085 17.3498 9.50035 2.56464 15.3907 0.125113
threshold=-0.9697459042072295 0.9337306320667268 1.0000000180025095e-35 -0.91179162263870228 -0.89126464724540699 -1.057762563228607 -1.1851148605346677 1.0000000180025095e-35 -1.0308704972267149 0.97822973132133495 0.59070482850074779 1.082360625267029 1.0000000180025095e-35 0.98156139254570018 0.83936700224876415 0.42313599586486822 -1.0004926919937132 -0.92612081766128529 1.0000000180025095e-35 1.0281823277473452 -0.90148979425430287 0.82260501384735119 -1.2299848794937132 0.98087546229362499 0.56876859068870556 -0.17733474820852277 1.2074507474899294 -1.6299380660057066 0.42498655617237097 -1.9316399097442625 1.0000000180025095e-35 -0.93534228205680836 -0.98659315705299366 -2.1360938549041744 0.92885160446167003 -1.4659130573272703 0.56409582495689403 -1.8262321949005125 0.89148789644241344 1.3950489163398745 -0.87889477610588063 -1.3233391642570493 -1.0358402132987974 0.86004880070686351 -1.2394362688064573 -1.7407973408699033 0.96248993277549755 -1.5416381955146787 0.076837331056594863 0.91702002286911022 1.1262657642364504 -0.84375253319740284 0.89046579599380504 -2.4456385374069209 -2.355788946151733 -1.4473313093185423 1.0838376283645632 -0.95385858416557301 0.99711462855339061
decision_type=2 2 2 2 2 2 2 2 2 2 2 2 2 2 2 2 2 2 2 2 2 2 2 2 2 2 2 2 2 2 2 2 2 2 2 2 2 2 2 2 2 2 2 2 2 2 2 2 2 2 2 2 2 2 2 2 2 2 2
left_child=18 2 11 4 5 8 -7 9 -3 10 -5 12 14 -14 -2 51 -17 34 28 20 26 32 -19 -11 27 -26 37 -9 30 41 38 -28 -22 -23 -6 36 40 -20 46 -38 -4 45 -40 44 -31 -30 -1 -32 -45 55 -49 -13 53 -51 -54 -21 58 -58 -37
right_child=1 3 35 7 17 6 -8 24 -10 23 -12 15 13 -15 -16 16 -18 22 19 49 21 33 -24 -25 25 -27 31 -29 29 43 47 -33 -34 -35 -36 56 39 -39 42 -41 -42 -43 -44 48 -46 -47 -48 50 -50 52 -52 -53 54 -55 -56 -57 57 -59 -60
