tree
version=v4
num_class=1
num_tree_per_iteration=1
label_index=0
max_feature_idx=136
objective=binary sigmoid:1
feature_names=Column_0 Column_1 Column_2 Column_3 Column_4 Column_5 Column_6 Column_7 Column_8 Column_9 Column_10 Column_11 Column_12 Column_13 Column_14 Column_15 Column_16 Column_17 Column_18 Column_19 Column_20 Column_21 Column_22 Column_23 Column_24 Column_25 Column_26 Column_27 Column_28 Column_29 Column_30 Column_31 Column_32 Column_33 Column_34 Column_35 Column_36 Column_37 Column_38 Column_39 Column_40 Column_41 Column_42 Column_43 Column_44 Column_45 Column_46 Column_47 Column_48 Column_49 Column_50 Column_51 Column_52 Column_53 Column_54 Column_55 Column_56 Column_57 Column_58 Column_59 Column_60 Column_61 Column_62 Column_63 Column_64 Column_65 Column_66 Column_67 Column_68 Column_69 Column_70 Column_71 Column_72 Column_73 Column_74 Column_75 Column_76 Column_77 Column_78 Column_79 Column_80 Column_81 Column_82 Column_83 Column_84 Column_85 Column_86 Column_87 Column_88 Column_89 Column_90 Column_91 Column_92 Column_93 Column_94 Column_95 Column_96 Column_97 Column_98 Column_99 Column_100 Column_101 Column_102 Column_103 Column_104 Column_105 Column_106 Column_107 Column_108 Column_109 Column_110 Column_111 Column_112 Column_113 Column_114 Column_115 Column_116 Column_117 Column_118 Column_119 Column_120 Column_121 Column_122 Column_123 Column_124 Column_125 Column_126 Column_127 Column_128 Column_129 Column_130 Column_131 Column_132 Column_133 Column_134 Column_135 Column_136
feature_infos=[-1.8014661073684692:2.1873281002044678] [-1.7160434722900391:2.0962586402893066] [-1.6382262706756592:2.0136351585388184] [-1.5680137872695923:1.9394575357437134] [-1.5054070949554443:1.8737261295318604] [-1.4504051208496094:1.8164401054382324] [-1.4123568534851074:1.7937201261520386] [-1.3844102621078491:1.9274762868881226] [-1.3517893552780151:2.0758624076843262] [-1.3099035024642944:2.0974209308624268] [-1.2559221982955933:2.0165181159973145] [-1.1870334148406982:2.073509693145752] [-1.1039742231369019:2.1457490921020508] [-1.0067610740661621:2.2142360210418701] [-0.90047705173492432:2.2825961112976074] [-0.78966546058654785:2.355140209197998] [-0.67814630270004272:2.3940322399139404] [-0.65591526031494141:2.4998569488525391] [-0.65910369157791138:2.5653238296508789] [-0.66488730907440186:2.5221147537231445] [-0.8555336594581604:2.4413206577301025] [-0.86833834648132324:2.3840618133544922] [-0.86565589904785156:2.2409591674804688] [-0.6943366527557373:2.1797337532043457] [-0.67782151699066162:2.1696581840515137] [-0.94777458906173706:2.0883691310882568] [-1.2671374082565308:1.9448176622390747] [-1.6690099239349365:1.7314887046813965] [-1.9454965591430664:1.5598906278610229] [-2.2033448219299316:1.3455723524093628] [-2.6534385681152344:1.1459542512893677] [-2.9375624656677246:1.0691677331924438] [-2.8964071273803711:1.0182701349258423] [-2.6209216117858887:1.0153312683105469] [-1.9672813415527344:1.0222163200378418] [-1.2877312898635864:1.096311092376709] [-0.66328972578048706:1.2523990869522095] [-0.67050886154174805:1.345354437828064] [-0.67336314916610718:1.4686216115951538] [-0.67729061841964722:1.427788257598877] [-0.67367839813232422:1.3506048917770386] [-0.77278417348861694:1.3033223152160645] [-0.78214722871780396:1.4334096908569336] [-0.67821109294891357:1.6771683692932129] [-0.67593681812286377:1.8418123722076416] [-0.67998087406158447:1.9795904159545898] [-0.67735743522644043:1.8671952486038208] [-0.68031680583953857:1.7601110935211182] [-0.67738151550292969:1.8138210773468018] [-0.68022686243057251:2.0951991081237793] [-0.67672491073608398:2.3221406936645508] [-0.68167710304260254:2.3866791725158691] [-0.6882440447807312:2.2922041416168213] [-0.69760811328887939:2.1755821704864502] [-0.68820065259933472:1.8716312646865845] [-0.66555494070053101:1.7058380842208862] [-0.62731093168258667:1.5109990835189819] [-0.79989981651306152:1.3641012907028198] [-0.9627259373664856:1.3483799695968628] [-0.83332031965255737:1.3266682624816895] [-0.58480948209762573:1.2987289428710938] [-0.60407185554504395:1.5017008781433105] [-0.62945538759231567:1.6372760534286499] [-0.65896445512771606:1.5962808132171631] [-0.93073725700378418:1.2496439218521118] [-1.1747497320175171:1.0728911161422729] [-1.3727543354034424:0.99044626951217651] [-1.6713657379150391:0.88485002517700195] [-1.7223098278045654:0.75389385223388672] [-1.8893227577209473:0.60495084524154663] [-1.7363165616989136:0.45876148343086243] [-1.6730015277862549:0.33052113652229309] [-1.5550380945205688:0.23037496209144592] [-1.4212013483047485:0.15855956077575684] [-1.3100894689559937:0.2961885929107666] [-1.5821062326431274:0.9557119607925415] [-1.8401819467544556:1.3625956773757935] [-2.0371255874633789:0.97979003190994263] [-2.1728529930114746:1.1285310983657837] [-2.2573421001434326:0.92254304885864258] [-2.3058340549468994:0.73609095811843872] [-2.3315773010253906:0.28676301240921021] [-2.3403120040893555:0.33890664577484131] [-2.3343968391418457:0.39074629545211792] [-2.3124566078186035:0.5232703685760498] [-2.2730567455291748:0.47703936696052551] [-2.2140905857086182:0.50853937864303589] [-2.1362462043762207:0.53271615505218506] [-2.0426793098449707:0.55223846435546875] [-1.9374580383300781:0.56802195310592651] [-1.8240519762039185:0.65060514211654663] [-1.8478662967681885:1.0689502954483032] [-1.6520191431045532:1.4172115325927734] [-1.5958865880966187:1.6290324926376343] [-1.5394163131713867:1.6649528741836548] [-1.4922878742218018:1.6165035963058472] [-1.4547033309936523:1.5605852603912354] [-1.4384253025054932:1.5595740079879761] [-1.4264529943466187:1.5645072460174561] [-1.5388252735137939:1.5648646354675293] [-2.0638625621795654:1.5687597990036011] [-2.4585905075073242:1.5680602788925171] [-2.604130744934082:1.5700795650482178] [-2.5047333240509033:1.5659784078598022] [-2.1062953472137451:1.5674868822097778] [-1.4073458909988403:1.5623446702957153] [-1.2213733196258545:1.563502311706543] [-1.1215335130691528:1.561995267868042] [-1.168958306312561:1.5723429918289185] [-1.225764274597168:1.5757462978363037] [-1.369315505027771:1.5827798843383789] [-1.6010570526123047:1.5861003398895264] [-2.1418814659118652:1.5904537439346313] [-2.465855598449707:1.5886306762695312] [-2.5047738552093506:1.5877697467803955] [-2.0072333812713623:1.5826603174209595] [-1.6131480932235718:1.5835590362548828] [-1.6319060325622559:1.7016431093215942] [-1.6864286661148071:2.5795986652374268] [-1.7459897994995117:2.8008601665496826] [-1.8207311630249023:2.5472877025604248] [-1.9257428646087646:1.7180403470993042] [-2.1498878002166748:1.5763181447982788] [-2.3795907497406006:1.5743108987808228] [-2.6580204963684082:1.5721074342727661] [-2.9761693477630615:1.9929251670837402] [-3.3559722900390625:2.7791450023651123] [-3.8750591278076172:3.7871904373168945] [0:1] [0:1] [0:1] [0:1] [0:1] [0:1] [0:1] [0:1] [0:1]
tree_sizes=2400 1659 2754 2293 2204 2204 1882 1895 4581 5209 6161 5996 5990 5822 6893 6740 6921 7133 6630 6567 6648 6712 6497 6961 6988 6968 6957 6949 7000 7089 6166 6965 6517 6698 7127 6617 7100 7069 6610 7035 7134 6923 6506 6645 5052 6932 6926 7145 5991 6950 7071 7127 4772 7077 5194 6493 6950 4985 7013 6926 6900 6270 6947 6927 6921 5517 7025 4994 5708 6843 4706 7010 6225 6910 6954 6485 6915 6981 4427 6128 5932 6776 6832 5707 5667 6960 6570 6249 6972 6550 6872 6499 7076 6654 6687 4817 6916 6924 6714 6817 6071 5229 6140 6471 6500 6805 7056 5589 5573 5252 6471 5776 6585 7006 6939 4866 5676 7142 5569 6438 6441 5979 6597 6514 6942 6465 7151 5801 6826 5619 6666 6717 5363 6202 6813 6545 6871 6741 6660 4524 6575 5253 6520 7117 6635 4298 5523 6947 6318 5709 6777 6723 6511 5400 5445 6576 6486 6289 6746 6588 6775 7098 6464 6343 6951 6914 6382 6618 6572 5733 6958 6951 5049 5598 7040 6710 6522 6105 6167 6008 6801 6138 6473 5778 6342 6239 6088 6917 7167 6912 6117 6585 6906 6569 6459 5353 6967 5551 6020 5805

Tree=0
num_leaves=21
num_cat=0
split_feature=130 131 129 52 135 104 70 111 52 112 0 0 0 0 1 42 0 2 7 6
split_gain=235376 221073 234055 164027 69303.6 54530.6 34676.4 32573.7 23444.4 8690.06 2.27374e-13 2.27374e-13 2.27374e-13 1.13687e-13 1.13687e-13 1.13687e-13 1.42109e-14 1.42109e-14 7.10543e-15 1.77636e-15
threshold=1.0000000180025095e-35 1.0000000180025095e-35 1.0000000180025095e-35 1.053051829338074 1.0000000180025095e-35 -0.72109705209732045 -0.49872203171253199 -1.2782980203628538 1.0349540710449221 -1.3197320103645322 1.0702214837074282 0.52186292409896862 0.18667058646678927 0.63185235857963573 0.53629645705223095 1.0484801530838015 0.77050966024398815 0.56215864419937145 1.0260246992111208 1.09837281703949
decision_type=2 2 2 2 2 2 2 2 2 2 2 2 2 2 2 2 2 2 2 2
left_child=1 2 3 4 8 7 -6 -5 -1 -7 11 -2 -4 14 -3 -14 17 -13 -18 -20
right_child=10 13 12 5 6 9 -8 -9 -10 -11 -12 16 15 -15 -16 -17 18 -19 19 -21
leaf_value=-2.7777178973272676 -3.3690127571867912 -3.3690127571867912 -3.3690127571867912 -0.64115529202850841 -2.3590447793837415 -1.5159064757671572 -1.5072917122303759 -1.4805221693620059 -2.1430592300738578 -3.2859769236406233 -3.3690127571867912 -3.3690127571867912 -3.3690127571867912 -3.3690127571867912 -3.3690127571867912 -3.3690127571867912 -3.3690127571867912 -3.3690127571867912 -3.3690127571867912 -3.3690127571867912
leaf_weight=1576.5274565219879 1007.0376019477844 635.2181453704834 20.408615112304688 484.75840580463409 697.42951118946075 32.499984383583069 1519.02454662323 9998.5337144136429 922.71033239364624 189.20880603790283 6.2005341053009024 0.70863246917724509 322.00259399414062 42.199063539505005 249.61578726768494 536.18675780296326 15.093871593475344 69.197960615158081 10.700350284576412 1.4526965618133552
leaf_count=35529 28422 17928 576 963 12909 338 15672 100582 15162 5189 175 20 9088 1191 7045 15133 426 1953 302 41
internal_value=-3.26519 -1.86688 -1.78145 -1.69099 -2.18238 -1.47453 -1.7753 -1.44171 -2.5434 -3.0265 -3.36901 -3.36901 -3.36901 -3.36901 -3.36901 -3.36901 -3.36901 -3.36901 -3.36901 -3.36901
internal_weight=0 17226.3 16299.3 15420.7 4715.69 10705 2216.45 10483.3 2499.24 221.709 1110.39 1104.19 878.598 927.033 884.834 858.189 97.1535 69.9066 27.2469 12.153
internal_count=268644 237305 211141 186344 79272 107072 28581 101545 50691 5527 31339 31164 24797 26164 24973 24221 2742 1973 769 343
is_linear=0
shrinkage=1


Tree=1
num_leaves=14
num_cat=0
split_feature=130 131 129 104 32 134 68 37 134 20 0 7 3
split_gain=16598.8 14287.7 13918.5 8165.53 6551.58 10871.8 6171.55 2566.39 1838.14 752.594 2.27374e-13 2.27374e-13 1.13687e-13
threshold=1.0000000180025095e-35 1.0000000180025095e-35 1.0000000180025095e-35 -0.80850788950920094 0.95473337173461925 1.0000000180025095e-35 0.046785665675997741 0.98285177350044262 1.0000000180025095e-35 1.7298663258552553 1.0702214837074282 0.13860018551349643 0.60298031568527233
decision_type=2 2 2 2 2 2 2 2 2 2 2 2 2
left_child=1 2 3 4 5 -1 9 -8 -6 -5 11 -2 -3
right_child=10 12 -4 6 8 -7 7 -9 -10 -11 -12 -13 -14
leaf_value=0.33340123340899042 -0.10344235819131593 -0.10344235819131593 -0.10344235819131593 0.015293000176380642 0.36503059080482053 0.14156877708798274 0.25181385103761988 0.36982819064359712 0.43847117000199431 1.0958747337053014 -0.10344235819131593 -0.10344235819131593 -0.10344235819131593
leaf_weight=26620.43510633707 1.1581425815820683 573.57011352851987 797.73504431918263 1067.4885105788708 8446.0459111630917 3323.1181846708059 11466.249334067106 2195.5248805657029 5713.4959521964192 6.484484374523162 5.6298597715795031 1001.407285541296 268.14217826351523
leaf_count=97127 36 17829 24797 6111 17843 20155 32079 4187 8825 17 175 31128 8335
internal_value=0 0.305683 0.311457 0.317082 0.338616 0.312112 0.252635 0.270779 0.394664 0.0218174 -0.103442 -0.103442 -0.103442
internal_weight=0 60478.3 59636.6 58838.8 44103.1 29943.6 14735.7 13661.8 14159.5 1073.97 1008.2 1002.57 841.712
internal_count=268644 237305 211141 186344 143950 117282 42394 36266 26668 6128 31339 31164 26164
is_linear=0
shrinkage=0.1


Tree=2
num_leaves=24
num_cat=0
split_feature=130 131 129 100 73 72 101 57 101 134 0 0 0 1 8 76 0 13 68 76 69 76 13
split_gain=9831.85 8400.52 8128.51 3542.17 5637.5 5385.61 2682.46 2110.5 1372.92 825.419 1.13687e-13 1.13687e-13 1.13687e-13 7.10543e-15 7.10543e-15 7.10543e-15 3.55271e-15 3.55271e-15 3.55271e-15 3.55271e-15 1.77636e-15 8.88178e-16 2.22045e-16
threshold=1.0000000180025095e-35 1.0000000180025095e-35 1.0000000180025095e-35 -0.79562234878540028 -0.7947423756122588 -0.58787328004837025 -0.82821622490882862 0.80840995907783519 -0.87345555424690235 1.0000000180025095e-35 0.63814359903335582 0.53814586997032177 0.70830363035202037 0.78379866480827343 0.74570050835609447 -1.1077833771705625 1.0191602110862734 1.0773594975471499 -0.085275590419769273 -1.113360524177551 -0.038883101195096963 -1.0689730048179624 0.93665370345115673
decision_type=2 2 2 2 2 2 2 2 2 2 2 2 2 2 2 2 2 2 2 2 2 2 2
left_child=1 2 3 4 6 9 -1 -7 -6 -5 11 -2 -3 -12 22 19 -14 20 -18 -16 -15 -17 -13
right_child=10 12 -4 5 8 7 -8 -9 -10 -11 13 14 16 17 15 21 18 -19 -20 -21 -22 -23 -24
leaf_value=0.2183416766340355 -0.10310407202815264 -0.10310407202815264 -0.10310407202815264 0.058631246644580193 0.36478648759843602 0.70681939736891541 0.067190376556743134 0.21150980202219657 0.27250616491520796 -0.1129042364039711 -0.10310407202815264 -0.10310407202815264 -0.10310407202815262 -0.10310407202815264 -0.10310407202815264 -0.10310407202815262 -0.10310407202815264 -0.10310407202815264 -0.10310407202815264 -0.10310407202815264 -0.1031040720281523 -0.10310407202815247 -0.10310407202815255
leaf_weight=19268.17680163309 850.29892146587372 733.99601610191166 724.06807539798319 1017.2711431980133 1718.1059496849775 86.378835935145617 1250.3006688803434 21095.270934272557 26163.210511296988 387.33183983340859 4.7011719215661278 0.61319633759558101 17.198697278276089 9.4023438431322557 25.958644958212975 2.3067862223833799 8.5263490751385671 17.052698150277138 4.2631745375692836 0.61319633759558101 1.0803935471922184 2.0147879663854864 1.0511937215924261
leaf_count=73058 29120 25137 24797 4376 5031 406 5331 47273 48506 2363 161 21 589 322 889 79 292 584 146 21 37 69 36
internal_value=0 0.226741 0.230255 0.233655 0.248915 0.200955 0.209131 0.21353 0.278193 0.0113288 -0.103104 -0.103104 -0.103104 -0.103104 -0.103104 -0.103104 -0.103104 -0.103104 -0.103104 -0.103104 -0.103104 -0.103104 -0.103104
internal_weight=0 72474.1 71710.1 70986 48399.8 22586.3 20518.5 21181.6 27881.3 1404.6 915.093 882.857 763.984 32.2366 32.5578 30.8934 29.9882 27.5354 12.7895 26.5718 10.4827 4.32157 1.66439
internal_count=268644 237305 211141 186344 131926 54418 78389 47679 53537 6739 31339 30235 26164 1104 1115 1058 1027 943 438 910 359 148 57
is_linear=0
shrinkage=0.1


Tree=3
num_leaves=20
num_cat=0
split_feature=130 131 129 34 103 108 105 70 51 114 31 0 0 0 3 2 71 12 15
split_gain=6621.7 5633.03 5429.13 2635.02 2433.03 4609.58 2370.76 4752.93 1982.7 1343.63 2.27374e-13 1.13687e-13 1.13687e-13 1.13687e-13 1.13687e-13 3.55271e-15 3.55271e-15 4.44089e-16 4.44089e-16
threshold=1.0000000180025095e-35 1.0000000180025095e-35 1.0000000180025095e-35 0.8628719449043275 -0.85678225755691517 -1.0601344704627989 -0.87136515974998463 -0.31396566331386561 0.83926180005073558 -1.1972309350967405 0.99555721879005443 1.0702214837074282 0.68552565574646007 1.0702214837074282 0.54427018761634838 0.74760404229164135 -0.4644197523593902 1.1800967454910281 1.2553918361663821
decision_type=2 2 2 2 2 2 2 2 2 2 2 2 2 2 2 2 2 2 2
left_child=1 2 3 4 8 -6 9 -8 -1 -5 -2 12 -3 14 -4 -14 -17 -13 -15
right_child=10 11 13 6 5 -7 7 -9 -10 -11 -12 17 15 18 -16 16 -18 -19 -20
leaf_value=-0.011618679103796506 -0.10279997103597023 -0.10279997103597023 -0.10279997103597023 0.19774460624459722 0.21190222083600269 0.035705444788888804 0.064288828752353838 0.19396341303789516 0.184476064701068 0.25710629844424066 -0.10279997103597023 -0.10279997103597023 -0.10279997103596981 -0.10279997103597016 -0.10279997103597023 -0.10279997103597022 -0.10279997103597023 -0.10279997103597015 -0.10279997103597019
leaf_weight=534.50615929812193 330.15756484121084 665.40222160518169 501.23752601444721 6912.1899460107088 2412.7160733044147 3860.6335011050105 3042.1367928497493 39878.372914459556 14588.97227653116 8504.2742099836469 500.17771519720554 0.95382973551750083 0.87434392422437923 0.60939121991395895 153.08967255055904 23.766257576644424 1.2187824398279179 1.006820276379585 2.066631093621254
leaf_count=4460 12461 25114 18918 12294 2891 19001 15273 69414 51042 11969 18878 36 33 23 5778 897 46 38 78
internal_value=0 0.181038 0.183485 0.185844 0.155827 0.10347 0.196854 0.184772 0.177546 0.230491 -0.1028 -0.1028 -0.1028 -0.1028 -0.1028 -0.1028 -0.1028 -0.1028 -0.1028
internal_weight=0 81084 80390.8 79733.8 21396.8 6273.35 58337 42920.5 15123.5 15416.5 830.335 693.222 691.262 657.003 654.327 25.8594 24.985 1.96065 2.67602
internal_count=268644 237305 211141 186344 77394 21892 108950 84687 55502 24263 31339 26164 26090 24797 24696 976 943 74 101
is_linear=0
shrinkage=0.1


Tree=4
num_leaves=19
num_cat=0
split_feature=130 131 129 75 33 128 103 92 5 136 0 0 0 3 7 13 13 105
split_gain=4789.34 4062.29 3904.88 2028.83 1959.52 3404.7 1836.37 590.897 762.221 212.314 2.27374e-13 1.13687e-13 1.13687e-13 3.55271e-15 3.55271e-15 3.55271e-15 4.44089e-16 4.44089e-16
threshold=1.0000000180025095e-35 1.0000000180025095e-35 1.0000000180025095e-35 -1.1253519654273985 0.92271560430526745 1.0000000180025095e-35 -0.79958727955818165 -1.134028375148773 0.78616362810134899 1.0000000180025095e-35 0.55479803681373607 0.62601488828659069 0.52397194504737865 0.68626177310943615 0.8714348077774049 1.0472878217697146 1.2114155888557436 -0.92458140850067128
decision_type=2 2 2 2 2 2 2 2 2 2 2 2 2 2 2 2 2 2
left_child=1 2 3 7 5 -5 -6 8 -1 -9 -4 -2 -3 -13 16 -16 17 -15
right_child=11 12 10 4 6 -7 -8 9 -10 -11 -12 13 -14 14 15 -17 -18 -19
leaf_value=0.10794012438311439 -0.10252644150010637 -0.10252644150010637 -0.10252644150010637 0.13813859471989878 0.19468217595964171 0.23118944905522543 0.1416037073737812 -0.06700102210393237 -0.11109823166752955 0.1429124860291304 -0.10252644150010637 -0.10252644150010584 -0.10252644150010637 -0.10252644150010613 -0.10252644150010631 -0.10252644150010637 -0.10252644150010617 -0.1025264415001062
leaf_weight=1602.097561955452 725.82130043767393 496.26670457422733 576.97493752464652 49772.827686946839 20080.980232439935 4269.5302099511027 9650.6865684837103 398.83148554712534 176.35771311074495 54.804482035338879 19.011379471048713 0.67296918481588619 132.57492940872908 0.72103841230273324 5.6962034571915892 17.737544942647219 0.4806922748684882 2.0910113956779268
leaf_count=5537 30199 20648 24006 129174 23081 6107 17970 2290 2065 120 791 28 5516 30 237 738 20 87
internal_value=0 0.15072 0.152559 0.154327 0.156834 0.14549 0.177453 0.060234 0.0862195 -0.041641 -0.102526 -0.102526 -0.102526 -0.102526 -0.102526 -0.102526 -0.102526 -0.102526
internal_weight=0 87230.9 86602.1 86006.1 83774 54042.4 29731.7 2232.09 1778.46 453.636 595.986 753.221 628.842 27.3995 26.7265 23.4337 3.29274 2.81205
internal_count=268644 237305 211141 186344 176332 135281 41051 10012 7602 2410 24797 31339 26164 1140 1112 975 137 117
is_linear=0
shrinkage=0.1


Tree=5
num_leaves=19
num_cat=0
split_feature=130 131 129 36 103 70 136 105 69 126 0 0 1 2 5 69 69 69
split_gain=3612.11 3057.09 2932.87 1839.26 3249.29 3042.84 2552.05 1848.57 1803.14 1233.85 1.13687e-13 1.13687e-13 1.13687e-13 7.10543e-15 3.55271e-15 3.55271e-15 3.55271e-15 2.22045e-16
threshold=1.0000000180025095e-35 1.0000000180025095e-35 1.0000000180025095e-35 0.9047611951828004 -0.84210288524627674 -0.31396566331386561 1.0000000180025095e-35 -0.8254222273826598 -0.10749461874365805 -1.8122326731681822 0.68552565574646007 0.59338220953941356 0.55433094501495372 0.6326277256011964 0.8068845570087434 -0.030513446778059002 -0.053804242983460419 -0.046727849170565598
decision_type=2 2 2 2 2 2 2 2 2 2 2 2 2 2 2 2 2 2
left_child=1 2 3 4 6 -6 -1 9 -9 -5 -2 -3 -4 -13 -12 16 -16 -18
right_child=10 11 12 7 5 -7 -8 8 -10 -11 14 13 -14 -15 15 -17 17 -19
leaf_value=0.14206521325129368 -0.10228024953880577 -0.10228024953880577 -0.10228024953880577 0.13737075729691881 -0.039667111249863191 0.09465218511116906 0.043547218282334189 -0.026593571349359763 0.12087226100687994 0.17272973384447821 -0.10228024953880527 -0.10228024953880577 -0.10228024953880577 -0.10228024953880577 -0.10228024953880575 -0.10228024953880577 -0.1022802495388056 -0.1022802495388058
leaf_weight=25322.131009459496 661.23677158355713 533.4403847232461 509.79053315520287 20694.585411988199 2163.2685889527202 7653.499079760164 2934.0780537575483 890.01758450642228 12129.275011915714 18865.160251758993 0.69750714302063244 1.3078258931636799 30.71211139112711 35.551067195832729 19.334026120603092 0.50133325904607673 0.5449274554848671 0.78469553589820751
leaf_count=65403 30336 24473 23388 29818 10347 21271 13544 3246 22354 20361 32 60 1409 1631 887 23 25 36
internal_value=0 0.128527 0.12997 0.131355 0.114616 0.065053 0.131835 0.143476 0.110791 0.154233 -0.10228 -0.10228 -0.10228 -0.10228 -0.10228 -0.10228 -0.10228 -0.10228
internal_weight=0 91762.8 91192.5 90652 38073 9816.77 28256.2 52579 13019.3 39559.7 683.099 570.299 540.503 36.8589 21.8625 21.165 20.6636 1.32962
internal_count=268644 237305 211141 186344 110565 31618 78947 75779 25600 50179 31339 26164 24797 1691 1003 971 948 61
is_linear=0
shrinkage=0.1


Tree=6
num_leaves=16
num_cat=0
split_feature=130 131 129 34 83 106 89 128 136 114 0 0 63 19 4
split_gain=2806.34 2371.12 2271.32 1818.38 2504.1 1740.87 3690.94 1599.46 1399.5 1052.48 1.13687e-13 1.13687e-13 1.13687e-13 3.55271e-15 1.77636e-15
threshold=1.0000000180025095e-35 1.0000000180025095e-35 1.0000000180025095e-35 0.84738239645957958 -1.2262284159660337 -0.91100525856018055 -1.0584784150123594 1.0000000180025095e-35 1.0000000180025095e-35 -1.1793961524963377 0.97766751050949108 0.68552565574646007 0.48784726858139044 1.1007289886474612 0.99212029576301586
decision_type=2 2 2 2 2 2 2 2 2 2 2 2 2 2 2
left_child=1 2 3 4 8 9 -7 -6 -1 -5 -2 -3 -4 -13 -12
right_child=10 11 12 5 7 6 -8 -9 -10 -11 14 13 -14 -15 -16
leaf_value=0.14440105974566536 -0.10205854722007864 -0.10205854722007864 -0.10205854722007864 0.12764960828925848 0.047283176459647538 0.12229657880835437 0.051242442290672069 0.28871989285916333 0.0058675249346914621 0.17065856475673369 -0.10205854722007864 -0.10205854722007852 -0.10205854722007864 -0.10205854722007864 -0.10205854722007864
leaf_weight=6699.5232481509447 607.21352967619896 496.3403392881155 130.22164910286665 17634.878911979496 10240.087979763746 41000.090685293078 8897.125162139535 281.94409054517746 818.29445349425077 8400.0264649689198 2.0751666650176039 3.6167190447449711 359.85366320610046 17.13494760543108 10.079380944371222
leaf_count=12787 30724 25114 6589 25598 40698 69520 21395 507 5445 10394 105 183 18208 867 510
internal_value=0 0.111495 0.112664 0.113784 0.085245 0.120564 0.109627 0.0537526 0.129322 0.141526 -0.102059 -0.102059 -0.102059 -0.102059 -0.102059
internal_weight=0 94979.1 94462 93972 18039.8 75932.1 49897.2 10522 7517.82 26034.9 619.368 517.092 490.075 20.7517 12.1545
internal_count=268644 237305 211141 186344 59437 126907 90915 41205 18232 35992 31339 26164 24797 1050 615
is_linear=0
shrinkage=0.1


Tree=7
num_leaves=16
num_cat=0
split_feature=130 131 129 36 105 32 108 105 69 126 0 7 0 41 9
split_gain=2226.22 1878.39 1797.12 1742.62 2302.88 1868.11 1459.41 1449.34 1461.13 809.906 2.27374e-13 1.13687e-13 5.68434e-14 2.84217e-14 7.10543e-15
threshold=1.0000000180025095e-35 1.0000000180025095e-35 1.0000000180025095e-35 0.9047611951828004 -0.865604668855667 0.92977768182754528 -0.88907256722450245 -0.82592511177062977 -0.10338360816240309 -1.8122326731681822 0.51966798305511486 0.56890988349914562 0.57424533367156994 1.0661538243293764 0.82618597149848949
decision_type=2 2 2 2 2 2 2 2 2 2 2 2 2 2 2
left_child=1 2 3 4 5 -1 -6 9 -9 -5 -2 13 -3 -4 -14
right_child=10 12 11 7 6 -7 -8 8 -10 -11 -12 -13 14 -15 -16
leaf_value=0.080747757981794205 -0.10185882696149012 -0.10185882696149012 -0.10185882696149012 0.10742102346778859 -0.0003011418374944902 0.13319576345554726 0.0781874569426705 -0.021654405725303836 0.093519491339035615 0.13552800581196189 -0.10185882696149012 -0.10185882696149012 -0.10185882696149012 -0.10185882696149012 -0.10185882696149012
leaf_weight=21758.675352744758 507.61475315131247 429.32172130607069 57.080457542091608 21480.850608579814 4504.5329914242029 9872.5192354246974 4996.9708333797753 1204.2366552315652 12909.727593228221 19611.944908700883 53.855572935193777 261.32314931228757 6.7005935721099368 125.86007979698479 32.732578760012984
leaf_count=60248 28333 23963 3186 29561 18149 16079 16089 3993 22136 20089 3006 14586 374 7025 1827
internal_value=0 0.097838 0.0988052 0.0997305 0.0841493 0.0971175 0.0409771 0.11134 0.0836926 0.120835 -0.101859 -0.101859 -0.101859 -0.101859 -0.101859
internal_weight=0 97252.5 96783.7 96339.5 41132.7 31631.2 9501.5 55206.8 14114 41092.8 561.47 444.264 468.755 182.941 39.4332
internal_count=268644 237305 211141 186344 110565 76327 34238 75779 26129 49650 31339 24797 26164 10211 2201
is_linear=0
shrinkage=0.1


Tree=8
num_leaves=42
num_cat=0
split_feature=111 103 53 103 134 32 134 134 85 50 107 71 129 122 32 6 119 56 71 67 45 108 73 51 73 54 109 53 0 56 76 33 55 76 51 111 123 47 29 108 109
split_gain=1938 3170.8 1980 3743.53 3743.45 2187.38 3775.75 1602.41 1273.81 1225.21 1154.65 967.754 753.862 721.008 576.406 444.041 545.91 358.064 351.914 338.689 323.955 295.606 292.885 262.213 221.32 188.19 179.331 143.813 129.499 264.446 204 89.9988 87.3162 359.827 70.864 30.3321 18.2816 10.7933 10.7132 5.638 1.09226
threshold=-1.2694163322448728 -0.70422551035881031 1.0866947770118716 -0.79453301429748524 1.0000000180025095e-35 0.95293137431144725 1.0000000180025095e-35 1.0000000180025095e-35 -1.111730635166168 1.1176469922065737 -0.97328650951385487 -0.25720925629138941 1.0000000180025095e-35 -1.3495105504989622 0.95182549953460704 0.028896624222397808 -1.6329985857009885 1.0237946510314944 -0.29159452021121973 0.21513561159372332 1.2244818210601809 -1.0640943646430967 -0.35761877894401545 1.0565586090087893 -0.98206040263175953 1.1358373761177065 -1.1179635524749754 1.1702025532722475 -0.34472493827342982 1.0193732976913454 -0.41266326606273646 0.84540295600891124 1.0463352799415591 -0.45636233687400812 1.1916106939315798 -1.2782980203628538 -2.2698007822036739 1.2406876087188723 0.86349043250083934 -1.0601344704627989 -1.1477003097534177
decision_type=2 2 2 2 2 2 2 2 2 2 2 2 2 2 2 2 2 2 2 2 2 2 2 2 2 2 2 2 2 2 2 2 2 2 2 2 2 2 2 2 2
left_child=23 2 3 5 11 6 -2 -7 14 19 15 12 -4 -11 -6 37 21 -18 -10 -5 24 -17 27 -1 -12 -13 -24 -22 36 32 40 -32 35 -34 -26 -30 -25 39 -38 -3 -31
right_child=1 10 4 9 8 7 -8 -9 18 13 20 25 -14 -15 -16 16 17 -19 -20 -21 22 -23 26 28 34 -27 -28 -29 29 30 31 -33 33 -35 -36 -37 38 -39 -40 -41 -42
leaf_value=0.40975990371741294 0.080083122177502367 0.20894421198730867 0.13163281436863131 -0.099512197645616862 -0.11172146401302421 0.086206007365842774 -0.02782093192329238 0.13658202961191301 -0.15526839507098911 -0.019214799284752705 0.71396408947152079 -0.019847008836498134 -0.10167881276735979 0.057090061549633121 0.10724127016673797 0.026255965600346438 0.025472601186717788 0.18650851004972538 0.20631362158225666 0.095604126566551276 -0.13560732678429943 -0.1135790485950571 0.39191470583874199 0.28018700508476474 -0.14001849245160028 0.13580179790728172 -0.11807067529773747 0.072440610264861163 0.15089818451974746 -0.19867431295305024 -0.07590762934023168 0.20988451406646225 -0.12952527749731804 0.13784222226969098 -0.078939514887744811 0.17592012122116063 0.17814889930528163 0.16509288657525373 0.23669901406491844 0.25826450035739101 -0.16522634927113258
leaf_weight=38.770612685009837 36903.39589698799 48.888936273753643 17661.857065072283 1142.580444296822 159.16030393540859 14674.909565465525 3555.2757962569594 11083.193619266152 670.87217087298632 2069.9709632042795 3.157588740810751 531.11151815578341 139.58468409627676 3082.2112098690122 491.42594438791275 279.51360547542572 369.80279531888664 220.34678439609706 28.041893750429153 96.475684324279428 74.653366083279252 329.25322790443897 29.08181493729353 53.953549861907959 750.40784639120102 90.986893363296986 9.0379436686635 59.872266052290797 2813.0261583998799 14.463316053152083 16.267857113853097 34.149862365797162 55.001126311719418 593.420171700418 254.32983255572617 585.2565830051899 56.267268983647227 32.129628121852875 70.290455281734467 44.072168365120888 30.04246380738914
leaf_count=18 114315 29 27671 6843 614 46169 15811 10904 2945 6307 3 1573 8596 11057 692 626 876 225 16 204 653 1262 16 9 6663 147 107 321 692 60 55 21 206 435 1826 439 39 38 18 15 128
internal_value=0 0.0826788 0.0856887 0.0780488 0.113743 0.0851032 0.0706011 0.107882 -0.047025 0.00496184 -0.0283438 0.125519 0.129803 0.0264334 0.0536739 0.0357708 0.0170646 0.0855993 -0.140761 -0.08432 -0.10025 -0.0493742 0.0263205 0.150857 -0.121931 0.00291788 0.271001 -0.0430131 0.148535 0.144921 -0.0200648 0.11767 0.148791 0.115163 -0.124558 0.155207 0.231447 0.215058 0.210668 0.232327 -0.176096
internal_weight=0 94885.6 92381.1 72608 19773 66216.8 40458.7 25758.1 1349.5 6391.24 2504.55 18423.5 17801.4 5152.18 650.586 1324.01 1198.92 590.15 698.914 1239.06 1180.54 608.767 172.645 4360.91 1007.9 622.098 38.1198 134.526 4322.14 4141.63 94.9235 50.4177 4046.7 648.421 1004.74 3398.28 180.511 125.091 126.558 92.9611 44.5058
internal_count=268644 266524 253864 211610 42254 187199 130126 57073 4267 24411 12660 37987 36267 17364 1306 3071 2989 1101 2961 7047 9589 1888 1097 2120 8492 1720 123 974 2102 2036 264 76 1772 641 8489 1131 66 82 57 44 188
is_linear=0
shrinkage=0.1


Tree=9
num_leaves=47
num_cat=0
split_feature=130 111 103 51 101 102 71 136 111 73 107 6 119 45 109 21 51 75 50 66 0 56 28 122 46 53 103 50 122 103 32 72 57 21 24 102 76 0 0 1 5 2 69 3 6 68
split_gain=1762.87 1704.21 2580.06 1611.76 1985.38 1615.39 3206.54 1353.79 895.232 608.203 576.447 432.386 282.468 207.976 269.103 136.527 125.722 92.8591 514.014 136.055 54.5116 42.9559 15.3745 10.5076 8.51837 0.000115962 9.55588e-05 7.34054e-05 7.67519e-06 2.93839e-06 1.12606e-06 7.73871e-07 9.9935e-07 5.53244e-07 2.94994e-08 5.3378e-09 2.29051e-10 2.84217e-14 2.84217e-14 2.84217e-14 2.84217e-14 7.10543e-15 3.55271e-15 1.77636e-15 4.44089e-16 2.22045e-16
threshold=1.0000000180025095e-35 -1.2694163322448728 -0.69123858213424672 1.0889351367950442 -0.81711336970329274 -0.80679136514663685 -0.43519906699657435 1.0000000180025095e-35 -1.2189660072326658 -0.79798769950866688 -0.97328650951385487 0.028896624222397808 -1.6329985857009885 1.2244818210601809 -1.1179635524749754 1.6704097390174868 1.0565586090087893 -0.4235526025295257 1.1952491998672488 0.38695178925991064 -0.34472493827342982 0.99665436148643505 0.89542445540428173 -2.0662350654602046 1.2355321049690249 1.0866947770118716 -0.79453301429748524 1.1176469922065737 -1.3495105504989622 -0.70422551035881031 0.95293137431144725 -0.41478252410888666 1.0094913840293886 1.1284060478210451 1.1438900828361513 -0.7659076154232024 -0.6928143799304961 1.0702214837074282 0.51966798305511486 0.6064404845237733 0.55374288558959972 0.41034497320652014 -0.055422846227884286 0.46593914926052099 1.09837281703949 -0.053842065855860703
decision_type=2 2 2 2 2 2 2 2 2 2 2 2 2 2 2 2 2 2 2 2 2 2 2 2 2 2 2 2 2 2 2 2 2 2 2 2 2 2 2 2 2 2 2 2 2 2
left_child=1 16 3 4 7 9 -7 -3 -6 -5 11 24 -13 15 -15 -12 -1 18 21 -20 23 -18 -22 -19 -4 26 30 35 43 31 37 34 -33 -31 -27 42 -36 39 40 -2 -32 -30 -28 -29 -39 -40
right_child=25 2 10 5 8 6 -8 -9 -10 -11 13 12 -14 14 -16 -17 17 20 19 -21 22 -23 -24 -25 -26 29 27 28 41 33 38 32 -34 -35 36 -37 -38 44 45 -41 -42 -43 -44 -45 -46 -47
leaf_value=0.30239315251670429 -0.10181878621808767 0.076216272890783671 0.20496389935218021 0.073547923838051019 0.18435527957722198 -0.041276186783748385 0.082059126521732015 0.023235949207577732 -0.031655125123984912 0.11513910355194155 -0.11859709785923703 -0.064589201372994398 0.071126403138827773 0.13612651099580275 -0.12896757204028916 0.41831120833437191 0.14681585227761404 0.22371326653262 0.10170012022518574 -0.070559697027419085 0.10771083163738454 0.10436094576950616 0.14863855548572297 0.17552447557391848 0.15200239910478794 -0.10189278062939147 -0.10151979388805893 -0.1016468647832723 -0.1017774488417089 -0.10178976223585814 -0.1018299603243501 -0.10169238136302204 -0.10190341438928184 -0.10162418031928178 -0.10191500371475604 -0.10150707766527881 -0.1019174979725595 -0.10181878621808758 -0.10182996032435002 -0.10181878621808767 -0.1018299603243501 -0.1017774488417089 -0.10151979388805868 -0.10164686478327223 -0.10181878621808763 -0.1018299603243501
leaf_weight=46.728610215708613 179.52671739645302 30823.031954367645 82.066514693200588 4292.1987929902971 206.04395818710327 2279.6074158707634 27994.952589819208 5717.7540166303515 2787.2305141109973 19441.974787065759 828.2939223991707 412.05893063545227 244.27187133021653 81.183595541864634 72.480774686671793 4.7633070945739737 1464.3474686443806 107.01077604293823 64.351234501227736 159.48647591006011 96.30736053083092 284.65101559460163 1954.1464150184765 78.401185870170593 48.209852769970894 0.59975312650203605 16.515863239765171 3.9688877742737523 0.4804532527923574 0.56914917659014364 30.371820585802197 0.35767434537410636 0.60220983996987343 0.31262346636503935 126.25750708580017 0.33632236812263627 0.36919812671840091 0.56140476465225164 1.1471053678542373 16.473721062764525 132.9936315715313 35.313314080238342 1.3271675817668462 1.1795088164508341 2.4035141486674547 0.44119437225162883
leaf_count=18 10233 95536 33 14238 275 8176 54126 18141 9654 24150 7913 1409 478 266 757 1 552 17 62 494 74 306 536 44 49 33 1120 249 28 33 1721 22 33 20 6848 23 20 32 65 939 7536 2058 90 74 137 25
internal_value=0 0.0773536 0.0745893 0.0768546 0.0615123 0.088085 0.0727723 0.0679261 -0.0167859 0.107618 -0.0449036 0.0189527 -0.0140788 -0.0958093 0.0110863 -0.115527 0.13927 0.137459 0.121646 -0.0210366 0.151412 0.139906 0.146716 0.203337 0.185365 -0.10183 -0.101805 -0.101687 -0.101761 -0.101913 -0.101824 -0.101914 -0.101825 -0.101731 -0.101915 -0.10152 -0.101915 -0.101819 -0.10183 -0.101819 -0.10183 -0.101777 -0.10152 -0.101647 -0.101819 -0.10183
internal_weight=0 99571.6 95316.1 93542.8 39534.1 54008.7 30274.6 36540.8 2993.27 23734.2 1773.33 786.607 656.331 986.722 153.664 833.057 4255.43 4208.7 1972.84 223.838 2235.87 1749 2050.45 185.412 130.276 552.109 423.041 59.1215 40.9422 129.068 363.919 128.186 0.959884 0.881773 127.226 18.1794 126.627 198.965 164.954 196 163.365 35.7938 17.843 5.1484 2.96492 1.5883
internal_count=268644 237305 235202 224296 123606 100690 62302 113677 9929 38388 10906 1969 1887 8937 1023 7914 2103 2085 1414 556 671 858 610 61 82 31339 24330 3642 2409 7009 20688 6956 55 53 6901 1233 6868 11341 9347 11172 9257 2086 1210 323 169 90
is_linear=0
shrinkage=0.1


Tree=10
num_leaves=56
num_cat=0
split_feature=75 111 103 70 103 103 53 136 107 71 50 117 37 134 15 117 36 118 105 45 106 32 74 55 76 57 76 74 101 51 105 40 65 32 111 0 128 111 136 135 70 135 52 104 134 68 131 130 105 53 8 91 94 83 103
split_gain=1638.7 1507.88 2153.52 1304.61 3909.42 1245.06 2073.81 1104.57 841.99 793.709 377.104 354.696 375.332 337.274 329.45 388.698 315.706 290.772 286.732 260.391 239.474 207.18 205.282 103.854 406.31 167.132 167.762 103.319 66.0814 61.2817 46.7557 33.7719 83.1042 32.5376 26.0673 12.3339 4.41887 3.82241 1.58101 1.22151 0.9213 0.810906 0.570121 0.607838 0.380358 0.368699 0.139943 0.133957 0.111224 0.0213973 0.016935 0.01747 0.00890357 0.00224108 1.3404e-05
threshold=-1.1253519654273985 -1.2694163322448728 -0.70422551035881031 -0.28843577206134791 -0.82508027553558339 -0.80739352107048024 1.0866947770118716 1.0000000180025095e-35 -0.97328650951385487 -0.4635834246873855 1.1799837350845339 -0.94313487410545338 0.75042062997818004 1.0000000180025095e-35 1.2295974493026736 -0.90646031498908985 0.86432087421417247 -1.5689833760261533 -0.865604668855667 1.2244818210601809 -0.91617274284362782 0.90253058075904857 -0.39679116010665888 1.0463352799415591 -0.41266326606273646 0.97621470689773571 -0.45636233687400812 -0.98672839999198902 -0.94565185904502858 1.0565586090087893 -0.83226892352104176 1.0434103608131411 0.40851154923439031 0.8430657982826234 -1.2782980203628538 -0.21843963861465451 1.0000000180025095e-35 -1.2782980203628538 1.0000000180025095e-35 1.0000000180025095e-35 -0.49872203171253199 1.0000000180025095e-35 1.053051829338074 -0.80850788950920094 1.0000000180025095e-35 0.046785665675997741 1.0000000180025095e-35 1.0000000180025095e-35 -0.8254222273826598 1.0125458836555483 0.86511200666427623 -1.1537888050079343 -1.0495248436927793 -1.2262284159660337 -0.79453301429748524
decision_type=2 2 2 2 2 2 2 2 2 2 2 2 2 2 2 2 2 2 2 2 2 2 2 2 2 2 2 2 2 2 2 2 2 2 2 2 2 2 2 2 2 2 2 2 2 2 2 2 2 2 2 2 2 2 2
left_child=11 23 3 4 7 13 -7 -3 10 -6 20 36 39 -5 16 40 21 -12 -18 27 -4 -14 -21 29 25 26 -25 -10 -17 -2 33 32 -31 -26 -32 -33 38 -27 41 46 -16 44 49 48 -1 -45 47 -13 -44 -38 51 -41 -51 -52 -48
right_child=1 2 8 5 9 6 -8 -9 19 -11 17 12 14 -15 15 28 18 -19 -20 22 -22 -23 -24 24 30 37 -28 -29 -30 31 34 35 -34 -35 -36 -37 42 -39 -40 50 -42 -43 43 45 -46 -47 54 -49 -50 52 53 -53 -54 -55 -56
leaf_value=-0.10188664633255334 0.24664220559746086 0.072250603658402301 0.053034967110658582 0.090678754405748199 -0.097298482821752172 0.033774312603653017 0.091404958041196999 0.016878911253949604 0.30949885884203632 0.00037456731708766832 0.014558272966234902 -0.11163743002499267 0.029962476680115743 0.11736180982337029 -0.13192133324342745 0.29586901091677564 0.19173033441144155 0.12270445846579162 0.018057896342604119 -0.040964264052156911 -0.16085165500788975 -0.099394112528566905 0.21535907002671464 -0.12104730329359503 -0.0059164084651040453 -0.23882061891442585 0.081559029562142088 -0.11662393672077126 0.11533911310157186 0.12129064386567567 0.13572479575186233 0.14678440601590909 -0.065416507500841367 0.11878746394155699 0.18240696669439666 0.13371345526144857 -0.12058908891194525 -0.15485408270882206 -0.16651143712405947 -0.13894578732241841 -0.17315651598167742 -0.16949943463244876 -0.16553705575135935 -0.13489538144234978 -0.11675479076716888 -0.15170061456786801 -0.10196293870952849 -0.10155299451542897 -0.15439725736156312 -0.13407138552801698 -0.12987292675438364 -0.1311513274357399 -0.12802562837532419 -0.12769151228710252 -0.10166460032744129
leaf_weight=23.205213360488415 51.267591126263142 34706.976786416024 79.232779964804649 17084.664874310605 1594.8396177403629 11104.51568043977 14265.197183937766 4019.8620884642005 5.7268948554992667 1739.3335760459304 725.74340260773897 180.94219007343054 182.54753089696169 6554.4600549638271 25.65245584025979 84.339905668050051 100.51516907662153 378.16321999393404 1752.7591794943437 128.95555013883859 154.26577214151621 384.82325609028339 41.235503435134888 52.554585264995694 27.232968810014427 6.1945411115884772 183.79174957983196 882.99146857112646 26.693177055567503 210.74712308496237 227.51406325399876 1271.3527079224586 26.880442339926958 90.301855985075235 252.22879153490067 1670.4607467874885 2.8986739143729201 43.44745397567749 6.2410511672496787 4.1755172163248053 6.8692581281065932 2.6058102399110785 19.447957426309586 25.418719723820686 66.553092300891876 26.840693026781082 17.464768370613459 14.206554768607019 16.624216586351395 3.9133961051702491 11.157267585396765 9.2363703399896604 6.4520245790481559 8.1495713144540805 1.6480771899223317
leaf_count=1287 18 100157 146 28929 9341 31287 30693 13329 1 5709 1787 2046 840 5806 145 140 1112 471 15123 971 667 4762 126 201 61 26 241 8313 42 115 90 296 68 48 108 656 21 192 27 21 30 11 82 134 576 120 925 950 73 21 63 51 38 48 103
internal_value=0 0.0706229 0.0680149 0.0704772 0.0575575 0.0815652 0.0661796 0.066503 -0.0255607 -0.0463455 0.027184 -0.00427463 0.00488407 0.0980772 0.0162242 0.163413 0.00749526 0.0516057 0.0274773 -0.0921775 -0.0882738 -0.0577745 0.0211402 0.129874 0.0994877 0.00147169 0.036507 -0.113878 0.252468 0.138182 0.14642 0.136433 0.10017 0.0898934 0.160268 0.139362 -0.132879 -0.165332 -0.117799 -0.112852 -0.140631 -0.114507 -0.147516 -0.150419 -0.112911 -0.143527 -0.110103 -0.110903 -0.160403 -0.128184 -0.130848 -0.133578 -0.130308 -0.128952 -0.101937
internal_weight=0 97580.1 93466.2 91069.8 42061 49008.8 25369.7 38726.8 2396.31 3334.17 1337.41 3011.38 2811.18 23639.1 2564.2 143.555 2420.65 1103.91 1853.27 1058.91 233.499 567.371 170.191 4113.97 883.266 285.988 236.346 888.718 111.033 3230.71 597.278 3179.44 237.628 117.535 479.743 2941.81 200.201 49.642 98.6052 246.98 32.5217 92.3641 101.596 88.3316 89.7583 52.2594 214.262 195.149 36.0722 13.2641 32.7187 13.4119 10.3654 19.3068 19.1128
internal_count=268644 239853 237733 225251 128536 96715 61980 113486 12482 15050 3071 28791 26401 34735 22194 357 21837 2258 16235 9411 813 5602 1097 2120 967 660 442 8314 182 1153 307 1135 183 109 198 952 2390 218 1901 4207 175 1874 489 409 1863 254 4024 2996 155 80 183 72 59 111 1028
is_linear=0
shrinkage=0.1


Tree=11
num_leaves=55
num_cat=0
split_feature=111 103 52 103 36 102 102 71 53 107 134 89 103 130 55 129 69 134 47 106 36 35 57 128 58 31 0 55 74 91 76 104 32 83 30 110 51 38 112 115 111 57 122 33 48 65 42 111 61 34 57 126 105 53
split_gain=1504.55 1690.91 1559.74 1729.76 1180.34 1285.58 1052.08 2953.66 1504.42 902.581 723.707 1429.18 691.008 621.435 600.477 551.379 484.301 480.863 360.188 292.904 268.665 258.875 366.825 225.863 218.787 202.892 109.328 104.583 351.819 161.292 134.405 114.9 98.5417 75.6918 86.5932 75.3333 35.5433 32.5643 106.642 103.797 27.5884 24.0091 22.9368 19.2056 15.5264 25.3894 11.4243 8.85838 4.61063 0.821118 0.56901 0.325077 0.23349 8.17809e-05
threshold=-1.2694163322448728 -0.71679368615150441 1.0775287151336672 -0.80973342061042775 0.9018191695213319 -0.83247655630111683 -0.79013153910636891 -0.40472012758254999 1.0887212157249453 -0.97906190156936634 1.0000000180025095e-35 -1.1115950942039488 -0.82766553759574879 1.0000000180025095e-35 1.0677688121795657 1.0000000180025095e-35 -0.02062435261905193 1.0000000180025095e-35 1.1453304886817934 -0.89174911379814137 0.91375657916069042 0.89372286200523388 0.94219195842742931 1.0000000180025095e-35 0.92436182498931896 0.98406007885932933 -0.2834517210721969 1.0450432300567629 -0.42377406358718867 -0.29629467427730555 -0.45636233687400812 -0.7571219503879546 0.87325656414031994 -0.26641215384006495 0.9538053870201112 -1.2181964516639707 1.0565586090087893 0.97284677624702465 -1.3354260325431822 -1.4435334205627439 -1.2782980203628538 0.97858139872550975 -2.0662350654602046 0.85332670807838451 1.2181012034416201 0.50955861806869518 1.1273941993713381 -1.2782980203628538 0.63853830099105846 0.85615500807762157 0.97621470689773571 -2.781160712242126 -0.83759829401969899 1.0866947770118716
decision_type=2 2 2 2 2 2 2 2 2 2 2 2 2 2 2 2 2 2 2 2 2 2 2 2 2 2 2 2 2 2 2 2 2 2 2 2 2 2 2 2 2 2 2 2 2 2 2 2 2 2 2 2 2 2
left_child=27 2 3 4 5 -2 13 17 -9 16 18 -12 -6 15 25 -4 49 -8 -5 20 -16 22 -18 -21 -23 26 -11 36 29 30 32 33 -29 34 -30 -32 -1 38 48 -40 42 -42 -33 -35 46 -46 -39 -31 -38 52 -49 -51 -3 -15
right_child=1 9 6 10 12 -7 7 8 -10 14 11 -13 -14 53 19 -17 21 -19 -20 23 -22 24 -24 -25 -26 -27 -28 28 31 47 35 40 -34 43 -36 -37 37 44 39 -41 41 -43 -44 -45 45 -47 -48 50 -50 51 -52 -53 -54 -55
leaf_value=0.21176414185648898 0.04839833549915299 -0.17298662755920399 0.088743435273703195 -0.10142762617447061 0.10153051463281443 -0.02681877180661691 -0.012327067601250739 0.030502402596896162 0.093782447639942534 -0.038587451117353934 0.10441330827880171 -0.17314597196911155 0.053396514944054167 -0.10170616181848811 0.17950942654563787 -0.10200397210664436 -0.11560799323262666 -0.1033702250351408 0.12201102583399824 -0.06138555056811671 -0.038134983941561264 0.046154259867758243 0.093203582985375483 0.21092936417187294 -0.12283864867770862 0.18722562135465873 -0.14230173511248276 -0.16783198752692716 -0.25981382505366313 -0.27199137693040115 -0.075940379419348725 0.17594783003516365 0.11358515316147136 0.0075079369075518451 0.17359688118685268 0.1272188795396062 0.092917269521080703 0.1225690043439443 -0.20980047417256689 0.13489703170747647 0.18063814995387056 0.12068547155855885 0.10793333114675352 0.12562270648523594 0.016508951191627787 0.13290823942563673 0.13759994676992468 -0.16870151041113701 0.13294108095098595 -0.17842121054418481 -0.14515370425441307 -0.19391084332341108 -0.15753593509222868 -0.10186608475277122
leaf_weight=53.591251783072948 29567.368567945436 24.489186525344849 27708.462080508471 1182.9427831461653 6481.7387347780168 2461.4618387147784 1877.0304240696132 5729.7814252404496 10911.434332644567 117.6417702306062 677.39377042651176 255.4794608168304 5524.5325159290805 132.0405406774953 143.23957376182079 152.37529109604657 91.298356682062149 839.63775809109211 76.831843710504472 443.6057064961642 93.897131253033876 180.50381650775671 1071.4576848819852 32.703500419855118 133.1003284920007 20.886094374582171 747.09876338206232 45.009603616781533 16.514591133221987 7.6649309396743766 22.297515981830657 61.506057262420654 17.196869343519211 23.549332931637764 6.3948626518249503 100.60299083776772 36.708473119884729 678.56058865785599 20.854397982358932 15.033327072858809 223.98632319271564 95.182890117168427 255.76632882654667 33.138123989105225 30.092185460031033 49.6703050583601 1984.450025036931 17.767745643854141 133.29647700861096 29.324550747871399 24.290678054094315 25.185365572571754 16.284772142767906 42.1948351431638
leaf_count=18 103947 101 38167 7819 12394 9742 8363 14935 21088 2615 681 1123 11933 8039 135 7980 332 3333 94 3872 268 326 1577 20 469 32 4497 199 88 34 54 10 21 36 1 93 29 303 86 11 68 85 134 11 45 15 547 75 42 120 115 101 71 2350
internal_value=0 0.058962 0.0613944 0.0483253 0.0526417 0.0426178 0.0741421 0.0562118 0.0719943 -0.0128586 -0.0383623 0.0284001 0.0793823 0.0865228 -0.0657527 0.0877002 0.0409587 -0.0404657 -0.0878004 0.0025219 0.0933305 0.0550611 0.0768079 -0.0426883 -0.02557 -0.120754 -0.128192 0.121902 0.093 -0.0132161 0.0297373 0.127834 -0.0900347 0.0145623 -0.138833 0.0903602 0.131055 0.129589 0.0912326 -0.0654071 0.142001 0.162759 0.121119 0.076555 0.132468 0.088994 0.13377 -0.17312 0.124299 -0.177549 -0.155102 -0.185578 -0.166816 -0.101745
internal_weight=0 96791.4 93620.7 46227.7 44035.1 32028.8 47393 19357.9 16641.2 3170.72 2192.65 932.873 12006.3 28035.1 1599.07 27860.8 1571.64 2716.67 1259.77 713.446 237.137 1476.36 1162.76 476.309 313.604 885.627 864.741 3953.13 950.869 234.83 185.107 716.039 62.2065 79.5969 22.9095 122.901 3002.26 2948.67 205.893 35.8877 636.442 319.169 317.272 56.6875 2742.77 79.7625 2663.01 49.7234 170.005 95.2839 42.0584 54.5099 40.774 174.235
internal_count=268644 266524 251988 147733 138016 113689 104255 47719 36023 14536 9717 1804 24327 56536 11439 46147 3097 11696 7913 4295 403 2704 1909 3892 795 7144 7112 2120 1024 591 367 433 220 136 89 147 1096 1078 168 97 297 153 144 47 910 60 850 224 71 393 190 221 172 10389
is_linear=0
shrinkage=0.1


Tree=12
num_leaves=55
num_cat=0
split_feature=111 71 52 102 71 101 104 68 102 69 103 103 59 72 133 108 63 38 53 6 117 108 38 102 55 76 57 109 73 52 106 50 41 36 39 51 40 64 61 104 48 26 32 104 61 42 122 40 111 104 105 111 112 105
split_gain=1395.36 1369.19 1365.3 1583.65 1278.02 1194.09 1027.8 1791.09 1143.36 829.842 2253.84 703.289 694.379 691.502 794.572 450.4 347.415 296.188 259.81 245.556 263.338 179.652 192.209 114.704 104.87 297.398 135.424 162.198 157.779 85.8332 75.9464 46.4845 36.0594 126.496 66.3881 22.0977 30.0962 64.1289 68.5003 18.8441 13.0031 23.0208 12.9172 12.2361 11.9001 10.8843 9.64056 5.8869 4.08389 3.46773 3.10007 1.56341 0.20912 0.190837
threshold=-1.2694163322448728 -0.25720925629138941 1.066026568412781 -0.8264765441417693 -0.49070437252521509 -0.85842356085777272 -0.80850788950920094 0.10230081155896188 -0.77998843789100636 -0.11255731806159018 -0.80973342061042775 -0.68459036946296681 0.77857312560081493 -0.63331103324890126 1.0000000180025095e-35 -1.0472126603126524 0.6256040930747987 0.93954530358314525 1.1424337625503542 0.028896624222397808 -1.5566428899765012 -1.0371307134628294 0.98926463723182689 -0.70272326469421376 1.0450432300567629 -0.41266326606273646 0.97621470689773571 -1.1558580994606016 -0.39597719907760615 1.1338967084884646 -0.8874891698360442 1.0787242054939272 1.1033599972724917 0.90518298745155346 1.0209301114082339 1.0565586090087893 1.0434103608131411 0.4955404549837113 0.6981056034564973 -0.75270059704780568 1.2181012034416201 0.98952683806419384 0.84948208928108226 -0.72109705209732045 0.63404494524002086 1.1273941993713381 -2.0662350654602046 1.0487994551658633 -1.2782980203628538 -0.75508037209510792 -0.83991336822509755 -1.2782980203628538 -1.3197320103645322 -0.81719666719436634
decision_type=2 2 2 2 2 2 2 2 2 2 2 2 2 2 2 2 2 2 2 2 2 2 2 2 2 2 2 2 2 2 2 2 2 2 2 2 2 2 2 2 2 2 2 2 2 2 2 2 2 2 2 2 2 2
left_child=24 2 3 4 5 -2 9 8 -8 10 -4 -9 -6 31 -15 16 29 -11 43 30 -21 22 -20 -23 35 26 27 48 -29 50 -18 -5 33 -27 -35 -1 37 44 -39 42 45 -42 -34 49 -37 -38 -41 -31 -26 -17 -3 -28 -45 -53
right_child=1 15 6 13 12 -7 7 11 -10 17 -12 -13 -14 14 -16 18 19 -19 21 20 -22 23 -24 -25 25 32 51 28 -30 47 -32 -33 39 34 -36 36 40 38 -40 46 41 -43 -44 52 -46 -47 -48 -49 -50 -51 -52 53 -54 -55
leaf_value=0.18763582494717246 0.041662832202511081 -0.18723100511080581 0.068440070624971205 -0.087444562212152299 0.088905747162201565 -0.040813608291091368 0.042967055278004589 0.080692539297743948 -0.033276037245859751 -0.14150324482140075 -0.052014677489004679 -0.13288766846596892 -0.0014284514928305282 0.018946366533447355 -0.11011569295964455 -0.16139978708525596 0.15974146352312854 0.087522672105601773 0.17228745764586997 -0.10769941040738469 0.024185016967543011 0.078488923879259195 -0.083918691608605697 -0.1224045383270142 -0.27522187809014159 0.13589076417776977 -0.19893317290841261 -0.072088461199902212 0.10660599907074908 0.094284578344658643 -0.0061230770958096651 -0.14469381494624112 0.039946699696794201 0.10728229942139014 -0.30209602412849651 0.058411281154535866 0.11611264696849864 0.12643903201116377 -0.19969091825065316 0.1717770283653913 0.12912234930583644 0.016373190022695498 0.12594790453740298 -0.13303462469769839 0.1201336983202051 0.13134917303531887 0.13473414432079453 -0.0082847773507129935 -0.16739764800523138 -0.13587907307684469 -0.14999232851037733 -0.15116872974552553 -0.10534531694018817 -0.13723925680845867
leaf_weight=54.37886256724596 21595.939364925958 86.547384889796376 19271.815619844943 248.04825876187533 8020.4891744405031 1910.72342627123 4478.2700181240216 7817.1159186344594 3507.3426462421194 56.621020508930087 1689.556551896967 157.27621817775071 951.9205719102174 2913.4448435949162 570.41342820227146 66.722263769246638 152.26301372796297 20810.961311109364 80.576601386070251 174.01864321902394 1164.8177242800593 36.31135263107717 45.99707012809813 130.80379372369498 14.265580356121065 53.801855996251106 6.2422574907541266 69.294624065048993 172.20365998148918 9.2185105383396166 33.719174239784479 331.21234489325434 32.716964853927493 5.8548188190907267 12.248679704032837 39.160147240385413 624.99394497647882 11.331947162747385 14.919960528612135 85.486384868621826 46.996974259614944 29.460936546325684 37.462326800450683 2.7822395712137213 154.38390780799091 1876.5792004317045 394.38714687526226 14.238409966230391 4.6602142155170432 263.54379332251847 30.140924379229546 22.681164607405663 138.72592677921057 17.366024538874626
leaf_count=18 80154 367 43085 3231 17658 9206 18616 17340 14374 212 6354 865 2967 7559 2780 323 87 28617 197 747 2663 60 299 1745 62 28 26 236 162 12 170 2380 45 4 64 45 291 4 64 14 14 43 18 15 70 547 153 32 20 1374 141 103 2894 89
internal_value=0 0.0530707 0.0549801 0.0398511 0.0472142 0.0349588 0.0645468 0.0429568 0.0094805 0.0727845 0.058731 0.0764802 0.0793218 -0.0190069 -0.00218501 -0.0210376 0.0081513 0.0869012 -0.0845265 0.0219998 0.007043 -0.0106869 0.0791817 -0.0787537 0.114996 0.0858094 0.0052248 0.0332392 0.0553321 -0.142524 0.12967 -0.120179 0.125549 0.0589527 -0.1697 0.1245 0.123272 0.0877519 -0.0589131 0.134255 0.126301 0.0856776 0.0858549 -0.130493 0.107645 0.127542 0.141333 0.0320247 -0.248672 -0.141035 -0.177612 -0.152384 -0.10589 -0.145128
internal_weight=0 96761.6 94331.2 36542.2 32479.1 23506.7 57789 15960 7985.61 41829 20961.4 7974.39 8972.41 4063.12 3483.86 2430.43 1664.96 20867.6 765.463 1524.82 1338.84 293.689 126.574 167.115 3780.88 928.672 306.714 260.424 241.498 140.145 185.982 579.261 621.958 71.9054 18.1035 2852.21 2797.83 219.796 26.2519 550.053 2578.03 76.4579 70.1793 471.774 193.544 2501.57 479.874 23.4569 18.9258 330.266 116.688 46.2894 141.508 40.0472
internal_count=268644 266524 255398 125935 109985 89360 129463 51195 32990 78268 49439 18205 20625 15950 10339 11126 4219 28829 6907 3667 3410 2301 496 1805 2120 1024 698 480 398 552 257 5611 326 96 68 1096 1078 183 68 230 895 57 63 4606 115 838 167 44 82 1697 508 218 2909 192
is_linear=0
shrinkage=0.1


Tree=13
num_leaves=52
num_cat=0
split_feature=131 110 130 102 53 134 103 108 51 70 53 83 51 76 40 64 109 55 105 41 38 107 104 75 16 103 36 53 105 51 117 104 71 52 68 117 18 103 103 71 59 37 90 70 71 103 112 102 97 70 8
split_gain=1306.71 1262.84 1226.07 1186.21 1318.86 2703.72 2145.38 753.792 462.98 422.86 117.365 349.938 93.1103 77.4627 54.7044 132.201 49.704 39.2952 51.6682 81.8727 46.9829 14.2337 0.00207146 0.000719228 0.000713914 0.000480552 0.000342428 0.00030454 0.000258537 0.000204087 0.000142305 0.000128222 0.00010892 9.94421e-05 7.71014e-05 5.63591e-05 4.89917e-05 4.43555e-05 4.4032e-05 5.7745e-05 3.88328e-05 3.05022e-05 2.79863e-05 1.86286e-05 1.6909e-05 1.01734e-05 1.34395e-06 8.92778e-07 1.3432e-07 7.39358e-08 1.77636e-15
threshold=1.0000000180025095e-35 -1.2101279497146604 1.0000000180025095e-35 -0.66911283135414112 1.0866947770118716 1.0000000180025095e-35 -0.788876712322235 -1.0487626791000364 1.1916106939315798 -0.1578656658530235 1.1197110414505007 -0.26641215384006495 1.1796252131462099 -0.45636233687400812 1.0660273432731631 0.57613810896873485 -1.1477003097534177 0.90249153971672069 -0.92837950587272633 0.74556174874305736 0.97284677624702465 -0.9993634521961211 -0.74384278059005726 -1.1253519654273985 0.96532174944877636 -0.82508027553558339 0.86432087421417247 1.0866947770118716 -0.865604668855667 1.0851860642433169 -0.94313487410545338 -0.80850788950920094 -0.45224836468696589 1.0775287151336672 0.10230081155896188 -0.94313487410545338 1.3711377978324892 -0.70422551035881031 -0.82561543583869923 -0.49070437252521509 0.82856991887092601 0.75042062997818004 -0.64332073926925648 -0.28929869830608362 -0.40472012758254999 -0.80973342061042775 -0.44199772179126734 -0.82529175281524647 -1.1660038232803343 -0.67097696661949147 -0.62106579542160023
decision_type=2 2 2 2 2 2 2 2 2 2 2 2 2 2 2 2 2 2 2 2 2 2 2 2 2 2 2 2 2 2 2 2 2 2 2 2 2 2 2 2 2 2 2 2 2 2 2 2 2 2 2
left_child=1 10 3 4 6 -6 -3 9 -9 -5 17 12 13 -12 15 -13 -14 -1 19 -19 -20 -16 23 26 34 33 36 -27 30 38 -28 32 -31 -26 44 -30 45 -36 39 -25 -33 -38 46 -40 -4 -2 -24 48 -48 50 -44
right_child=22 2 24 7 5 -7 -8 8 -10 -11 11 14 16 -15 21 -17 -18 18 20 -21 -22 -23 42 29 25 27 28 -29 35 31 -32 40 -34 -35 37 -37 41 -39 43 -41 -42 -43 49 -45 -46 -47 47 -49 -50 -51 -52
leaf_value=0.19509245341671821 -0.10196941195655035 0.050197892222402077 -0.10183756673394236 -0.15381585054719768 0.085715244922202713 -0.061875583036340526 -0.017792106164097175 -0.13059018782621373 0.0055817842167512162 0.034832474958887791 -0.088820613327590225 0.13919000150987634 -0.19146442980512776 0.067507042754628058 0.098341023523930454 -0.21821194601701543 -0.031317899639813081 0.15807136393615986 0.058250187484496702 -0.22103194407627869 0.12089800876794748 0.1373151930219608 -0.10163190435770515 -0.10231273117282194 -0.10190071213759276 -0.10160428460907196 -0.10196820171945642 -0.10187925134815189 -0.10197654080398558 -0.10245234062679334 -0.10263742249653225 -0.10211569414713369 -0.10262047546206386 -0.10173968946725387 -0.10222537111956156 -0.1022195157009011 -0.1019428954810736 -0.10140800972130869 -0.10180279654128588 -0.1024899536373213 -0.1023941930987947 -0.10249604366562202 -0.10101695694543973 -0.10223755629692888 -0.10203164070266198 -0.10171017756905509 -0.10151703088306865 -0.10127945351902873 -0.10143578912886285 -0.10107191068040318 -0.10101695694543958
leaf_weight=65.581592630594969 59.858646394684911 68487.451378179714 5.4712340431287911 126.18695315718651 17502.516293371096 1335.9427356403321 4978.3758288975805 660.0150720924139 401.60974169149995 2035.3583015054464 47.065452381968498 29.210839003324509 42.854885443113744 97.073148405179381 125.51511198282242 16.028574988245964 35.379723730497062 11.292091846466066 125.47237019240856 11.496564010158179 2606.3202587515116 369.73916280269623 0.33958844374865282 136.5745453722775 190.61319302394986 179.34821781981736 3.689545430243018 51.945998565293849 10.714218078181146 116.12382783647627 22.893489807844162 11.043325738050045 57.660821034573019 48.013327193446457 37.00628449395299 87.587216475047171 1.5140612795948971 0.67605376616120239 2.1760665951296692 21.24561327509582 9.1591764930635673 2.918496135622263 10.125301748514172 1.8014419618993986 25.015027729794383 1.5531211681663979 0.2923945877701043 0.38005310297012407 0.66945566609501839 0.25012942962348184 1.4251162894070155
leaf_count=23 3165 147328 310 505 27744 4263 16450 5767 2702 4284 161 10 199 115 70 70 109 2 142 49 1023 139 22 6186 10463 11720 195 2889 568 4997 915 552 2326 2861 1743 4139 81 50 127 898 406 126 1016 85 1289 94 20 31 48 24 143
internal_value=0 0.0508874 0.0487133 0.0495612 0.0516435 0.0752487 0.0455906 -0.0100717 -0.0790767 0.0238195 0.109178 0.0743798 -0.0312109 0.0164615 0.117823 0.0125605 -0.119042 0.118591 0.11677 -0.0331811 0.118021 0.127438 -0.102297 -0.102327 -0.101813 -0.101769 -0.102171 -0.101666 -0.102268 -0.102411 -0.102545 -0.10248 -0.102508 -0.101868 -0.102115 -0.102193 -0.101986 -0.102211 -0.102328 -0.102337 -0.102242 -0.102307 -0.101073 -0.102 -0.101997 -0.101963 -0.101454 -0.101409 -0.10146 -0.101018 -0.101017
internal_weight=0 99648.6 96065.5 95527.5 92304.3 18838.5 73465.8 3223.17 1061.62 2161.55 3583.03 762.867 222.373 144.139 540.494 45.2394 78.2346 2820.16 2754.58 22.7887 2731.79 495.254 559.996 546.514 538.089 469.921 190.729 231.294 124.884 355.785 26.583 193.987 173.785 238.627 68.1686 98.3014 65.8443 37.6823 161.798 157.82 20.2025 4.43256 13.482 3.97751 30.4863 61.4118 1.68149 1.3419 0.96185 11.8005 11.5504
internal_count=268644 242480 240368 209043 195785 32007 163778 13258 8469 4789 2112 873 584 276 289 80 308 1239 1216 51 1165 209 26164 24860 31325 27933 9283 14609 5817 15577 1110 8281 7323 13324 3392 4707 3466 1793 7296 7084 958 207 1304 212 1599 3259 121 99 68 1183 1159
is_linear=0
shrinkage=0.1


Tree=14
num_leaves=63
num_cat=0
split_feature=73 34 133 125 3 101 72 50 34 31 110 105 53 135 114 118 136 24 40 2 99 56 134 70 56 97 72 31 114 68 5 90 34 73 37 74 99 128 4 103 5 115 111 136 30 29 109 29 25 106 94 39 128 53 105 1 30 78 106 56 53 51
split_gain=1296.88 1547.27 1263.6 1204.71 1060.96 994.758 1951.23 1172.21 1037.56 790.034 765.887 742.389 692.564 794.218 635.094 631.9 585.39 2405.89 821.547 771.307 668.241 1411.91 476.987 573.636 423.966 394.415 357.872 336.169 306.007 293.045 260.491 255.296 246.447 239.159 234.861 233.027 219.457 287.368 216.439 194.725 193.793 283.676 185.041 175.563 170.968 205.644 167.157 166.741 157.865 142.572 136.918 125.155 117.299 109.799 99.6416 95.751 93.496 75.3601 59.4259 33.7235 1.9681 0.0113948
threshold=-0.80694058537483204 0.84053903818130504 1.0000000180025095e-35 -1.5002672076225279 0.71544909477233898 -0.81506422162055958 -0.61856359243392933 1.1238095164299013 0.92254167795181286 0.96635952591896068 -1.2101279497146604 -0.90914246439933766 0.88837766647338878 1.0000000180025095e-35 -1.07466584444046 -1.0229610204696653 1.0000000180025095e-35 1.2932288050651553 1.011096775531769 0.62461352348327648 -0.86557695269584645 0.9252135455608369 1.0000000180025095e-35 -0.40631595253944391 0.76627299189567577 -0.87931063771247853 -0.61776801943778981 1.004473924636841 -0.94305074214935292 0.045639753341674812 0.6626316010951997 -1.0705378055572508 0.82986727356910717 -0.76078411936759938 0.84873816370964061 -0.37448151409626002 -0.90938434004783619 1.0000000180025095e-35 0.60927781462669384 -0.86937075853347767 0.78616362810134899 -0.89649021625518788 -0.93077826499938954 1.0000000180025095e-35 1.0829318761825564 1.1695115566253664 -0.89283889532089222 1.1278471946716311 1.2251531481742861 -0.87221732735633839 -0.93223553895950306 0.8876299560070039 1.0000000180025095e-35 1.2017992138862612 -0.80113181471824635 0.65994089841842662 1.0981633067131045 -1.1576212644577024 -0.84970518946647633 0.93225082755088817 1.0297481417655947 0.83926180005073558
decision_type=2 2 2 2 2 2 2 2 2 2 2 2 2 2 2 2 2 2 2 2 2 2 2 2 2 2 2 2 2 2 2 2 2 2 2 2 2 2 2 2 2 2 2 2 2 2 2 2 2 2 2 2 2 2 2 2 2 2 2 2 2 2
left_child=3 2 11 22 9 16 29 8 -8 15 -9 24 46 -14 44 52 20 18 -18 -19 30 -22 23 36 25 -2 -26 42 -17 43 -3 57 53 34 -34 -33 38 -38 -1 51 41 -16 59 -7 45 -6 -11 49 -35 -29 -41 -25 -5 56 -31 -42 -4 -13 -44 -24 -49 -46
right_child=1 5 32 4 14 6 7 10 -10 12 -12 31 13 -15 40 28 17 19 -20 -21 21 -23 27 39 26 -27 -28 47 -30 54 -32 35 33 48 -36 -37 37 -39 -40 50 55 -43 58 -45 61 -47 -48 60 -50 -51 -52 -53 -54 -55 -56 -57 -58 -59 -60 -61 -62 -63
leaf_value=0.15201934856614974 -0.13654102868379503 0.10931397024827783 -0.11027699459312355 -0.14085008726287848 0.054589922771182603 -0.13049640382296865 0.029236466634170906 0.10341413681877654 -0.072936154083800081 -0.11878051198509923 0.051980361685079281 0.10491704928537025 0.013535960744649507 0.055873670080879248 -0.045410299136372172 0.062830075478499114 0.031331985563643951 -0.11501760887182631 0.1015111318039582 0.40496457012126685 0.020169089458480362 0.086832674122251888 -0.12075688358989196 -0.17541127026615752 0.01021181664985988 0.28112010331290066 0.15090822057178946 0.17637564347589593 0.11661019018760116 0.19200977933034788 -0.022129549059385439 -0.072086581191483298 -0.095679240495180992 0.13992462779007064 0.12053383084988441 0.093984453588542821 -0.13286138086653487 0.11964128325159551 -0.060214498488283877 0.01136608866279832 0.12409028973667667 0.18459824152086407 0.12462747324523181 0.06541094787341975 -0.1231482432326039 0.3307374443737251 0.23868313276797648 -0.12897131467496117 -0.089272468355381954 -0.068239772661227258 -0.16717779300134417 0.090512269295656325 0.13103552706340019 0.16179842964355243 -0.16233139638135322 -0.10025212828170452 0.090754958314524695 0.36765921338934215 -0.15573968894334125 -0.16763139153477427 -0.1775646759782154 -0.12841411339758177
leaf_weight=71.234268505126238 25.714253732934594 5966.091837878339 1056.5729005821049 154.67583810351789 47.256568413227797 758.35287908930331 6952.2730814451352 3228.3457197267562 1159.6902867741883 358.16810352355242 28049.227488735691 36.053847735747695 10066.556545523927 7914.3608579039574 446.17146640084684 2957.9703749064356 3241.1645681113005 960.83421029150486 3436.8836807608604 29.399496540427208 4538.7946249265224 10589.892629969865 284.21581276878715 18.337315902113914 421.50542972423136 187.30651579704136 316.55617672204971 74.274569272994995 1647.1578123811632 42.45274059753865 154.67864208482206 546.95807482209057 71.934666745364666 32.681168247014284 166.58075814694166 99.929617727175355 492.83894419111311 49.608872786164284 147.64844581857324 497.75376519560814 19.452884515747428 60.945462729781866 35.180911853909492 48.680099658668041 6.7473791539669064 62.809209253638983 13.57752178609371 26.061978597193956 373.47920513898134 35.080406837165356 47.006890370510519 508.00874808151275 17.681919857859612 15.545127671211956 9.7605068804696185 864.56808459106833 23.65253721922636 15.657163327559827 9.6291972920298559 333.67305141501129 12.253479003906248 10.510120078921316
leaf_count=144 145 10829 5506 801 149 4479 14519 1961 5002 1648 63319 100 61107 12964 1936 9616 4872 3238 2590 17 11616 17477 1425 88 1230 224 510 33 3567 57 668 5292 370 48 343 697 2369 61 667 3870 75 107 49 77 45 98 13 164 1660 107 336 968 29 6 62 7569 82 12 45 1473 51 62
internal_value=0 0.0521841 -0.0137765 0.0266119 0.0334915 0.055417 0.0452518 0.0485038 0.0146298 0.0388073 0.0572891 0.0489322 0.0293779 0.032171 -0.0474814 0.0750302 0.0695654 0.0458808 0.06745 -0.0995796 0.0781124 0.0668328 -0.0375521 -0.00930025 0.106426 0.230703 0.0705568 -0.101436 0.0820661 -0.103825 0.105992 -0.0293407 -0.0732148 -0.0241556 0.0553254 -0.0464323 -0.0756644 -0.109769 0.00885593 0.0378706 -0.0670467 -0.0177678 -0.13184 -0.118679 0.166289 0.212174 -0.105725 0.0350057 -0.0708304 0.0979045 -0.0040403 0.0812478 -0.112958 -0.102078 0.125771 -0.0953155 -0.105875 0.184471 0.0643797 -0.14607 -0.144512 -0.126355
internal_weight=0 72556.6 3390.13 27291.4 24648.6 69166.5 40248.8 39389.5 8111.96 23130.1 31277.6 1649.68 18352.7 17980.9 1518.46 4777.49 28917.7 7668.28 6678.05 990.234 21249.5 15128.7 2642.81 1832.44 951.082 213.021 738.062 810.369 4605.13 859.246 6120.77 698.599 1740.45 644.676 238.515 646.888 761.331 542.448 218.883 1071.11 1391.14 507.117 662.699 807.033 127.323 110.066 371.746 147.67 406.16 109.355 544.761 526.346 172.358 1095.77 52.2132 884.021 1080.23 51.711 44.8101 617.889 38.3155 17.2575
internal_count=268644 157008 16225 111636 99786 140783 89476 84801 19521 89745 65280 8210 75732 74071 10041 14013 51307 10717 7462 3255 40590 29093 11850 8503 2109 369 1740 3347 13183 4675 11497 6101 8015 2421 713 5989 3241 2430 811 5262 9687 2043 2992 4556 354 247 1661 355 1708 140 4206 1056 830 5594 119 7644 5588 112 94 2898 215 107
is_linear=0
shrinkage=0.1


Tree=15
num_leaves=61
num_cat=0
split_feature=72 101 129 128 135 72 84 110 100 134 123 53 105 104 48 104 70 75 47 5 26 30 53 13 72 9 102 37 44 71 63 84 103 53 83 31 62 40 110 38 3 53 47 135 107 17 103 67 52 110 53 50 103 73 73 53 36 71 104 71
split_gain=1142.13 1878.68 910.505 847.964 901.904 1571.88 1448.02 839.287 1292.58 1717.2 1164.13 1152.05 839.142 721.26 670.227 1049.24 613.566 564.549 491.544 394.803 291.454 406.603 305.465 256.194 244.038 241.844 222.52 270.874 282.371 179.325 453.23 152.325 129.842 123.565 323.516 102.55 74.1118 48.6761 27.0302 91.0281 25.7029 22.6048 7.87627 4.49486 0.504744 0.0232707 0.000427549 0.00081223 0.000354704 0.000175796 0.000143016 0.000123037 0.000181736 0.00010849 7.97944e-05 7.87495e-05 3.81849e-05 3.04588e-05 2.55236e-05 1.12888e-05
threshold=-0.6517064869403838 -0.85239398479461659 1.0000000180025095e-35 1.0000000180025095e-35 1.0000000180025095e-35 -0.67650049924850453 -1.2457035183906553 -1.2101279497146604 -0.79458218812942494 1.0000000180025095e-35 -1.4889703392982481 1.0900920629501345 -0.865604668855667 -0.95904570817947377 1.1428145170211794 -0.80224379897117604 -0.57251253724098194 -1.1179040670394895 1.0694134235382082 0.63166403770446788 1.3736825585365298 1.0949215888977053 1.004692614078522 0.99982306361198436 -0.50961983203887928 0.64948871731758129 -0.84204879403114308 0.86177483201026928 1.0092540979385378 -0.48382005095481867 0.47389499843120581 -1.3413016796112058 -0.83960744738578785 1.1197110414505007 -0.26641215384006495 0.86234658956527721 0.54754608869552623 1.0660273432731631 -1.2181964516639707 0.97382080554962169 0.55985805392265331 1.1150700449943545 1.2489991188049319 1.0000000180025095e-35 -0.95069089531898487 1.3808579444885256 -0.80973342061042775 0.22103730589151385 1.0775287151336672 -1.2101279497146604 1.0866947770118716 1.1238095164299013 -0.79453301429748524 -0.80694058537483204 -0.80694058537483204 1.0887212157249453 0.9018191695213319 -0.43609546124935145 -0.82867053151130665 -0.45065040886402125
decision_type=2 2 2 2 2 2 2 2 2 2 2 2 2 2 2 2 2 2 2 2 2 2 2 2 2 2 2 2 2 2 2 2 2 2 2 2 2 2 2 2 2 2 2 2 2 2 2 2 2 2 2 2 2 2 2 2 2 2 2 2
left_child=1 3 7 4 5 13 17 33 14 11 -11 -10 20 -1 15 -9 -8 -6 -7 25 22 -22 -5 26 -16 -14 27 43 -29 36 -31 -21 44 38 35 -35 -28 -36 41 -40 -34 -2 -42 -3 45 -25 48 51 53 -49 54 52 -48 58 -50 -51 -55 -53 -4 -52
right_child=2 23 46 12 6 18 16 8 9 10 -12 -13 19 -15 24 -17 -18 -19 -20 31 21 -23 -24 32 -26 -27 29 28 -30 30 -32 -33 40 34 37 -37 -38 -39 39 -41 42 -43 -44 -45 -46 -47 47 49 50 55 59 57 -54 56 -56 -57 -58 -59 -60 -61
leaf_value=0.081890102281411872 0.11660268534430214 -0.13753505407399988 -0.10261586733889863 -0.077862389791230419 0.014268513564201321 -0.0028326616909730255 -0.064868056078705258 0.054202361264797008 0.0070922581609482137 -0.13152282906862087 0.050813739256786929 0.052930682761228733 -0.22567608835452591 -0.052447440891296215 0.08167549256532565 -0.018501053768766727 0.025811839740616828 0.10752926860976651 0.07588021993943328 -0.027673210568997499 0.22114217350609741 -0.13914367872808786 0.11109962659940992 -0.12399864774433843 -0.10786158147480773 0.068076029606914126 -0.097886564531128317 0.38460687002897903 0.00088397282154824329 0.11338953042891962 -0.12290566590507941 -0.1643965395687243 0.30836998984547898 -0.19666878372615113 0.0033624095559723908 -0.010766489197217677 -0.15294871092729845 0.11500544058884601 -0.070706270742822097 0.099033903906105752 0.081940383362938296 0.074368378247025524 0.22554007893346006 -0.18056863488981512 -0.17274445612051856 -0.13591007706601135 -0.10211342463798312 -0.10671383107585297 -0.102142658153099 -0.10226356762631594 -0.10200920871223458 -0.10183899743834419 -0.10173629151026167 -0.10262286393803091 -0.10247365562453459 -0.1024429124855937 -0.10286050550276907 -0.10214809412117759 -0.10235572089698497 -0.10216017460963996
leaf_weight=440.67111128009856 1849.4588054120541 90.431820241734385 6.3356062900274983 91.138972856104374 808.39800751209259 1217.3858567168936 817.86205080151558 33173.354851701297 9176.1948882010765 1084.338688198477 517.14279257506132 13622.762543287128 29.108178064227104 4295.0926757398993 9058.4598924042657 2111.3512716889381 8512.6987270563841 3293.7063277214766 2277.753086081706 332.95019839704037 398.25992325693369 33.997898533940315 1394.6795083135366 3.5737512707710248 68.444372250698507 754.41856761276722 656.50461089331657 20.245545897632837 363.4085224699229 128.78174745850265 219.56886877957731 107.89209423959255 22.726536771282554 35.590061866678298 42.731077522039413 178.4944186899811 389.45667787175626 453.68560700118542 33.636810645461082 520.25387579202652 9.1338961608707887 136.04953494668007 6.5647901790216556 33.176145523786545 4.5516962967813015 3.0313666760921478 28.55239827837795 0.094651388004421189 8.8628829848021251 31.548721423372626 7.6183707593008902 3.3055443242192259 23.127778959460557 9.9714554212987441 40.863298319280148 109.32367036305368 21.004629705101252 89.681957269087434 9.3185291141271573 14.159068869426845
leaf_count=2304 647 542 256 427 1754 6081 3549 61425 22015 4534 1023 28787 119 44382 14252 8306 18494 3150 8569 1387 426 172 1343 23 261 989 5636 11 1320 343 2349 505 8 167 80 417 3130 210 91 396 53 103 3 135 23 18 1427 2 433 1464 398 191 1400 404 1739 4708 781 4377 419 686
internal_value=0 0.0232716 0.0474472 0.030703 0.0236613 -0.0024046 0.0396332 0.0482862 0.0459409 0.0274505 -0.0726436 0.0344815 0.0792477 -0.0399471 0.0560998 0.049852 0.0178634 0.0891505 0.0484639 0.0145691 0.120534 0.192805 0.0995088 -0.0712081 0.0802541 0.0571631 -0.0770593 -0.0203451 0.0211332 -0.0976924 -0.0355497 -0.061135 0.153197 0.0979454 0.0610819 -0.0416715 -0.118389 0.105395 0.10826 0.0887259 0.240395 0.113709 0.14199 -0.149085 -0.147122 -0.129465 -0.102301 -0.102235 -0.102461 -0.102406 -0.102321 -0.102068 -0.101945 -0.102676 -0.102415 -0.102403 -0.102784 -0.102137 -0.102461 -0.102107
internal_weight=0 26757.2 72465.7 24806 21663.6 8230.9 13432.7 72061.9 68812 24400.4 1601.48 22799 3142.45 4735.76 44411.6 35284.7 9330.56 4102.1 3495.14 1224.37 1918.08 432.258 1485.82 1951.16 9126.9 783.527 1901.57 507.262 383.654 1394.31 348.351 440.842 49.582 3249.9 710.501 214.084 1045.96 496.417 2539.4 553.891 38.4252 1985.51 15.6987 123.608 11.1568 6.60512 403.769 285.635 118.134 140.967 71.5036 144.668 51.6802 46.6302 49.7262 140.872 30.9761 92.9875 15.6541 21.7774
internal_count=268644 107245 161399 93651 88283 61336 26947 142714 140603 56359 5557 50802 5368 46686 84244 69731 22043 4904 14650 3000 2368 598 1770 13594 14513 1108 13466 2008 1331 11458 2692 1892 128 2111 874 584 8766 290 1237 487 64 750 56 677 64 41 18685 13569 5116 6174 3256 7395 2827 1860 2172 6172 1185 4568 675 1084
is_linear=0
shrinkage=0.1


Tree=16
num_leaves=63
num_cat=0
split_feature=50 102 70 134 136 83 101 72 111 71 60 53 71 106 136 103 89 52 73 134 32 30 136 135 69 68 108 0 107 116 61 131 84 75 66 57 30 32 60 31 30 69 35 59 62 50 124 135 55 73 51 136 23 31 32 17 76 101 52 44 40 31
split_gain=1033.69 1144.74 893.723 1020.05 978.129 877.147 846.179 2047.21 882.231 1104.85 765.87 686.572 674.865 621.166 589.705 621.622 657.77 513.475 488.285 583.477 749.711 437.376 633.447 411.173 405.46 383.028 345.746 329.812 305.443 275.282 324.438 273.154 263.089 508.454 251.511 248.54 246.782 220.063 207.863 524.644 249.24 203.623 420.481 191.675 186.175 160.71 238.306 148.85 102.997 269.239 101.943 70.7474 76.8028 66.9039 36.7433 34.542 31.7916 30.2434 5.32521 0.405897 0.293018 0.222382
threshold=1.0989219546318056 -0.8264765441417693 -0.32518762350082392 1.0000000180025095e-35 1.0000000180025095e-35 -1.2427606582641599 -0.80798605084419239 -0.60121077299118031 -1.2694163322448728 -0.25720925629138941 0.71577444672584545 1.0866947770118716 -0.45546863973140711 -0.97166460752487172 1.0000000180025095e-35 -0.80796828866004933 -1.1236143112182615 1.0896728038787844 -0.79152989387512196 1.0000000180025095e-35 0.95587646961212169 1.0629101991653445 1.0000000180025095e-35 1.0000000180025095e-35 -0.12518251687288282 -0.01989609561860561 -1.0705867409706114 0.38642975687980657 -0.97798076272010792 -0.93367782235145558 0.68956664204597484 1.0000000180025095e-35 -1.2790994048118589 -1.103152275085449 0.1579166576266289 0.89836651086807262 1.0567495226860049 0.95182549953460704 0.73655381798744213 1.001749634742737 1.0499467849731448 -0.13935172557830808 0.89648380875587474 0.78514045476913463 0.57279571890831005 1.0961853861808779 -1.3914967775344846 1.0000000180025095e-35 1.0450432300567629 -0.39597719907760615 1.1098064184188845 1.0000000180025095e-35 1.2822853326797488 1.0088729262351992 0.96755784749984752 1.2115288376808169 -0.45636233687400812 -0.80574062466621388 1.053051829338074 1.1376683712005617 1.0617936253547671 0.98950839042663585
decision_type=2 2 2 2 2 2 2 2 2 2 2 2 2 2 2 2 2 2 2 2 2 2 2 2 2 2 2 2 2 2 2 2 2 2 2 2 2 2 2 2 2 2 2 2 2 2 2 2 2 2 2 2 2 2 2 2 2 2 2 2 2 2
left_child=1 2 3 4 5 -1 18 17 48 11 21 -10 23 -6 15 16 -14 51 19 31 27 25 -23 41 44 -4 59 -21 -11 30 -19 35 33 -5 53 -2 -26 -34 40 -40 -28 54 -43 -22 -12 58 -47 -17 56 -50 -31 57 -53 -25 -3 -36 -9 -8 -16 61 -61 -20
right_child=6 12 10 32 13 -7 7 8 9 28 24 -13 14 -15 45 47 -18 29 26 20 43 22 -24 34 36 -27 38 -29 -30 50 -32 -33 37 -35 55 -37 -38 -39 39 -41 -42 42 -44 -45 -46 46 -48 -49 49 -51 -52 52 -54 -55 -56 -57 -58 -59 -60 60 -62 -63
leaf_value=0.062019548936687152 0.082007994597192435 -0.1266425355913835 0.045936069350473084 -0.069238678400109652 0.25548489718604478 0.019221009328634017 -0.10363553432874889 0.083773029918158812 0.024798415774472286 0.0011619994817714209 -0.03208425056476228 0.056434952371449632 0.087320278242355137 -0.048076532210018008 -0.16456144268497583 -0.099536723919183612 -0.019443410153087141 -0.014619923305120741 -0.23360450277922365 -0.1726107054560439 0.11756581209815126 0.067213420340529684 -0.048461331113516762 -0.15166563811256484 0.058745093950743899 0.10462032266481114 0.037767989599037599 -0.026701331483644061 -0.071975629968714802 -0.16039296045547713 -0.12816043424624363 -0.10232780527186978 -0.11608136312655147 0.15599385302165256 0.10701631990093459 0.035728157478338934 -0.062008830934728615 0.037094049367656222 0.07604559297042901 0.022194937858331636 0.085565065438570176 0.11483988793574358 -0.14958859451700535 -0.098064759294260631 -0.15702393182109031 -0.24071674929609344 0.083785297470761688 0.1511334420298536 -0.10618403518373881 0.082905406374521082 0.13097285448416188 0.11127501723636382 -0.18610648807916641 0.18768880613212865 0.0668055671561779 0.23591603867754427 0.11190781369709797 -0.16269904818818562 -0.2257084334587893 -0.2254665389437662 -0.18998729230217037 -0.25661710930884046
leaf_weight=6842.0758837088943 1826.9487449945882 929.8775495570153 1603.9647155283019 351.98664633184671 69.651472620666027 15956.113915203139 108.42204862460494 532.24140184186399 12515.398129654583 1371.9804794406518 296.02153344918042 15179.9427630594 1230.1757898200303 2093.2118931263685 16.11682915687561 464.77743985503912 1086.9487666161731 956.37077313475311 21.372060925699774 315.73651497066021 280.17195837199688 1679.4896510113031 659.22320169210434 53.442940451204777 702.39506908413023 3627.7255521770567 1256.4249148666859 304.14992268383503 978.09716335870326 13.269411971792577 341.54718402307481 116.42846870329231 748.05134773254395 140.12996139377356 104.56194082647562 3180.6525114318356 222.96701423451304 107.23850504308939 5228.2709039724432 2766.5001943549141 8284.9276618575677 116.60613770037889 124.17338398564607 48.335357964038849 199.74439192190766 38.304554477334023 55.306824833154678 24.960959184914827 84.140590369701385 716.79760766588151 126.34360875561833 21.902887314558029 14.390469476580618 6.5181307792663565 9.9233720032498223 25.948701977729797 1636.6324310488999 432.61716361250728 122.46776401996613 8.5519857201725227 3.1983841983601442 5.2260220348834983
leaf_count=29378 4100 7167 4719 2454 59 48153 503 394 28621 3088 1353 31674 1529 10411 70 2919 3233 3620 96 1363 150 4490 2098 260 1356 5407 2130 807 7913 86 2540 5350 4459 584 133 12460 663 356 7776 6865 9518 287 963 131 1237 159 54 32 335 639 350 17 61 1 36 8 630 2793 500 45 39 22
internal_value=0 0.0246943 0.0306955 0.0213934 0.0259683 0.0320655 0.0455863 0.0357198 0.0416919 0.0365525 0.0579128 0.0421385 -0.0233416 -0.0383008 0.00293329 0.0156029 0.0372381 -0.0621379 0.0602024 0.0357563 -0.0362951 0.0705578 0.0346077 -0.0815823 -0.00944738 0.0866285 0.0686492 -0.10102 -0.0292777 -0.0301459 -0.0444981 0.0490921 -0.0633577 -0.00510383 0.054756 0.0526127 0.0296493 -0.0968758 0.0693051 0.0574112 0.079271 -0.103579 -0.0215296 0.0858387 -0.0824225 -0.150222 -0.0489967 -0.0867606 0.0936865 0.0630411 0.10328 -0.141796 -0.00663801 -0.114776 -0.1246 0.132645 0.105004 -0.150863 -0.218597 -0.231288 -0.215809 -0.238126
internal_weight=0 39710.1 35300 26308.5 24961.1 22798.2 58677 35030.1 33015.2 30045.4 8991.53 27695.3 4410.11 2162.86 3039.06 2806.86 2317.12 2014.86 23646.9 6072.42 948.394 7570.4 2338.71 1371.05 1421.13 5231.69 17574.5 619.886 2350.08 1437.53 1297.92 5124.03 1347.41 492.117 190.472 5007.6 925.362 855.29 17536.1 7994.77 9541.35 1180.58 240.78 328.507 495.766 232.196 93.6114 489.738 2969.81 800.938 139.613 577.333 36.2934 59.9611 939.801 130.511 2168.87 541.039 138.585 38.3485 11.7504 26.5981
internal_count=268644 134528 117177 95854 88001 77531 134116 83264 73294 71296 21323 60295 17351 10470 8496 7713 4762 9970 50852 24361 2451 16714 6588 8855 4609 10126 26491 2170 11001 6596 6160 21910 7853 3038 402 16560 2019 4815 26289 14641 11648 8453 1250 281 2590 783 213 2951 1998 974 436 3374 78 261 7203 141 1024 3296 570 202 84 118
is_linear=0
shrinkage=0.1


Tree=17
num_leaves=63
num_cat=0
split_feature=130 131 129 34 133 103 69 30 71 101 72 105 53 61 104 104 103 66 103 71 104 73 61 73 73 102 102 52 72 53 71 101 72 102 53 103 49 104 52 104 68 103 72 101 38 102 59 72 71 104 103 72 72 73 103 50 102 103 72 69 103 72
split_gain=976.426 979.611 989.78 908.095 1606.81 858.5 922.973 744.975 397.284 356.855 0.00280243 0.00165817 0.00164954 0.00129243 0.000701287 0.000478976 0.000455836 0.000440105 0.000581524 0.000405977 0.00032079 0.000304446 0.000246105 0.000233598 0.000188732 0.00019137 0.000141091 0.000127994 0.000148781 0.000126161 0.000117706 0.000110806 9.35588e-05 7.60939e-05 6.91544e-05 6.77437e-05 6.6699e-05 0.000108442 6.05023e-05 5.47675e-05 5.00815e-05 5.69022e-05 4.61063e-05 8.23597e-05 4.15606e-05 2.93998e-05 2.64439e-05 2.3661e-05 2.33666e-05 2.23017e-05 2.19242e-05 2.09642e-05 1.76075e-05 1.74416e-05 1.6847e-05 1.43249e-05 8.98684e-06 6.16512e-06 3.78517e-06 2.86211e-06 1.49119e-06 1.25947e-06
threshold=1.0000000180025095e-35 1.0000000180025095e-35 1.0000000180025095e-35 0.83833003044128429 1.0000000180025095e-35 -0.88976305723190297 -0.14612524211406705 1.0915145277976992 -0.39841897785663599 -0.9496358036994933 -0.63722169399261464 -0.80879381299018849 1.0866947770118716 0.65037050843238842 -0.816013604402542 -0.80980709195137013 -0.77059587836265553 0.32508909702301031 -0.80739352107048024 -0.40472012758254999 -0.95904570817947377 -0.79152989387512196 0.65930476784706127 -0.80694058537483204 -0.80778655409812916 -0.8264765441417693 -0.8282715082168578 1.0775287151336672 -0.67650049924850453 1.0866947770118716 -0.4635834246873855 -0.81506422162055958 -0.67650049924850453 -0.79013153910636891 1.0887212157249453 -0.79453301429748524 1.1340390443801882 -0.80224379897117604 1.0775287151336672 -0.80224379897117604 0.10230081155896188 -0.70422551035881031 -0.60121077299118031 -0.80798605084419239 0.97428038716316234 -0.77998843789100636 0.77925929427146923 -0.6517064869403838 -0.43967202305793757 -0.82272332906723011 -0.80973342061042775 -0.61856359243392933 -0.403806522488594 -0.80609318614006031 -0.80796828866004933 1.1000300049781802 -0.77998843789100636 -0.76924648880958546 -0.70048004388809193 -0.11255731806159018 -0.78800958395004261 -0.50961983203887928
decision_type=2 2 2 2 2 2 2 2 2 2 2 2 2 2 2 2 2 2 2 2 2 2 2 2 2 2 2 2 2 2 2 2 2 2 2 2 2 2 2 2 2 2 2 2 2 2 2 2 2 2 2 2 2 2 2 2 2 2 2 2 2 2
left_child=1 2 3 4 7 8 -7 -1 -5 -6 11 20 14 27 24 21 54 18 -15 42 55 46 35 -22 26 38 32 28 -4 39 -27 -23 -2 52 -19 50 37 -24 -26 -17 45 -42 43 53 -31 -35 -12 -28 -38 -29 -16 -45 61 -14 -13 -3 59 -37 -18 -44 -58 -21
right_child=12 10 13 5 9 6 -8 -9 -10 -11 15 16 19 17 22 29 58 34 -20 33 23 31 36 -25 25 30 47 49 -30 44 -32 -33 -34 40 -36 57 48 -39 -40 -41 41 -43 56 51 -46 -47 -48 -49 -50 -51 -52 -53 -54 -55 -56 -57 60 -59 -60 -61 -62 -63
leaf_value=0.036591841574552246 -0.1017118775662548 -0.10264260855851466 -0.10243185788165393 0.089280950317673954 0.070213970442084397 0.019237820871892033 0.044723849158352369 -0.022043052425241114 -0.24403345290431488 -0.078308635888276718 -0.10277731744420636 -0.10164448699407012 -0.1018536063513716 -0.1022430141191024 -0.10143012897452233 -0.10225442809754939 -0.10111481339110656 -0.10213512375778876 -0.10192179329963685 -0.10200666755269068 -0.10208490888241997 -0.10290220146328091 -0.10164934349121527 -0.10244838674768555 -0.10217466066360709 -0.10149400195371093 -0.10118068811187741 -0.10229111913541383 -0.10264399462464785 -0.10201204061174132 -0.10187108358957685 -0.1026100332675602 -0.10186768038574937 -0.10235152764767833 -0.10232410152685029 -0.10099749383020624 -0.10143788139066977 -0.10135904213814129 -0.10191715970413823 -0.10186783486675073 -0.10238540119420546 -0.10148014287680869 -0.10194401306340323 -0.10136515981013763 -0.10267970384319021 -0.10214731141093114 -0.10238301600583928 -0.10151251846773557 -0.10169998107471939 -0.10158049558612409 -0.1012132760268778 -0.10168667708752409 -0.10135939730075039 -0.10203597863102409 -0.101437019070287 -0.10245236574865613 -0.10207192768551834 -0.10077421337299908 -0.1006859673527397 -0.10206771253443808 -0.10191945243877008 -0.1018246850365911
leaf_weight=12796.62678546086 114.04261915478855 9.0864899326115864 77.435421102680266 3881.3945112749934 176.38107599318027 19116.998243166134 55355.662269344553 2608.5587064176798 36.092122331261635 1953.2895739786327 1.8461218178272272 13.739686058834197 10.398512374609711 98.6366066634655 9.2150088949129021 6.6019659535959372 0.2112210551276793 23.678252164274454 131.48743376880884 6.7057891339063644 344.45008554635569 52.747491782531142 26.490674117580056 18.637969747185707 26.080551889725029 10.538813522085546 4.2250852501019835 25.172078696079556 57.692728959023952 1.1242082640528668 38.589203679002821 17.21784963645041 58.217103133909404 9.7563302814960462 106.28160283900797 3.8619438288733363 3.7253194693475953 25.021624031476676 14.03487577755004 8.2359587028622627 37.980008038692176 0.70728958956897159 2.1321006249636438 2.753335683606565 5.4622853621840477 25.410051271319389 21.616310589015484 4.3727363254874927 39.123570121824741 0.44951698603108425 9.4364972650073469 7.6982986498624069 0.46221657190471788 10.579277839511635 5.4730934128165272 7.0126664508134118 0.69296099245548148 1.819134423509239 8.0454367310740036 15.243053033947946 8.6218837751075608 0.40316803567111481
leaf_count=33110 6945 365 3364 6036 608 45818 82791 7849 152 9980 71 871 591 4673 682 314 20 1163 7248 348 17446 1935 1696 821 1269 763 377 1160 2353 62 2174 713 3286 435 4803 404 271 1932 762 476 1671 50 115 212 219 1238 958 304 2400 33 825 475 36 544 402 301 35 240 1190 769 467 23
internal_value=0 0.0344945 0.0352336 0.0359801 0.015408 0.0405818 0.0381816 0.0266632 0.0862101 -0.0660079 -0.102192 -0.102069 -0.10182 -0.102248 -0.101714 -0.102628 -0.101318 -0.102143 -0.102059 -0.102115 -0.102123 -0.102726 -0.101512 -0.102104 -0.101804 -0.101923 -0.101745 -0.102484 -0.102522 -0.102202 -0.10179 -0.10283 -0.101765 -0.102259 -0.10229 -0.101228 -0.101585 -0.101508 -0.102085 -0.10204 -0.10229 -0.102369 -0.101913 -0.101831 -0.102566 -0.102204 -0.102414 -0.101349 -0.101677 -0.102279 -0.10132 -0.101602 -0.101957 -0.101946 -0.101585 -0.10256 -0.10201 -0.100926 -0.100697 -0.102053 -0.101931 -0.101996
internal_weight=0 96967.3 96445.8 95925 17534.9 78390.1 74472.7 15405.2 3917.49 2129.67 521.509 406.657 528.339 520.834 388.795 114.852 27.4694 360.084 230.124 139.544 379.187 93.4278 118.694 363.088 270.101 89.2434 180.858 160.75 135.128 21.4244 49.128 69.9653 172.26 81.4249 129.96 24.3326 94.3612 51.5123 40.1154 14.8379 73.8537 38.6873 58.1194 31.4294 6.58649 35.1664 23.4624 8.59782 42.8489 25.6216 18.6515 10.4516 7.57117 20.9778 19.2128 16.0992 26.69 5.68108 8.25666 17.3752 9.31484 7.10896
internal_count=268644 237305 211141 186344 51547 134797 128609 40959 6188 10588 26164 21416 31339 24797 24330 4748 2483 17887 11921 7009 18933 3677 8450 18267 15880 4968 10912 6910 5717 1071 2937 2648 10231 3801 5966 2151 6299 3628 2031 790 3394 1721 3208 1822 281 1673 1029 681 2671 1193 1507 687 407 1135 1273 666 1386 644 1210 884 502 371
is_linear=0
shrinkage=0.1


Tree=18
num_leaves=61
num_cat=0
split_feature=111 102 52 103 35 136 134 83 75 123 129 108 130 83 135 100 53 5 118 33 55 76 110 57 72 50 63 35 53 70 108 112 121 40 6 52 41 36 39 104 46 104 37 53 30 121 109 40 111 33 103 105 74 52 47 60 105 74 113 67
split_gain=944.356 888.982 921.044 1635.18 968.162 918.487 776.941 2951.29 837.752 769.408 612.715 564.311 486.327 362.64 308.109 320.61 295.423 258.47 437.584 135.886 115.79 218.814 102.359 123.83 116.917 96.173 90.1294 78.2127 77.5904 69.2143 47.7291 41.0778 78.119 111.262 41.5589 117.311 31.0043 107.404 40.2631 14.6093 22.001 12.1217 9.11677 8.40932 21.1515 29.6173 6.48491 11.3272 5.29703 5.24515 4.79318 3.74342 3.04357 1.75056 1.03509 0.649054 0.46885 0.462395 0.0242071 0.000265177
threshold=-1.2694163322448728 -0.66911283135414112 1.0912055969238283 -0.79819083213806141 0.90371567010879528 1.0000000180025095e-35 1.0000000180025095e-35 -1.1774960756301878 -1.0393182039260862 -1.4200311899185178 1.0000000180025095e-35 -1.0413500070571897 1.0000000180025095e-35 -1.1465536952018736 1.0000000180025095e-35 -0.79875510931015004 1.0900920629501345 1.0000000180025095e-35 -1.5889245867729185 0.90398606657981884 1.0450432300567629 -0.41266326606273646 -1.2181964516639707 0.97621470689773571 -0.32014347612857813 1.2134068608283999 0.66957503557205211 0.86547675728797924 1.1214267015457156 -0.16518349945545194 -1.0371307134628294 -1.3354260325431822 -1.8664439916610716 1.0730754137039187 0.10254823416471483 1.1421560049057009 1.1033599972724917 0.90518298745155346 1.0235524177551272 -0.75270059704780568 1.2228439450263979 -0.72109705209732045 0.95781946182250988 1.1150700449943545 0.87212863564491283 -1.8581519722938535 -1.1558580994606016 1.0638620853424074 -1.2782980203628538 0.84075692296028148 -0.70422551035881031 -0.83991336822509755 -0.42377406358718867 1.1490499377250674 1.2176628708839419 0.77102380990982067 -0.82850360870361317 -0.42377406358718867 -1.3729928731918333 0.22301286458969119
decision_type=2 2 2 2 2 2 2 2 2 2 2 2 2 2 2 2 2 2 2 2 2 2 2 2 2 2 2 2 2 2 2 2 2 2 2 2 2 2 2 2 2 2 2 2 2 2 2 2 2 2 2 2 2 2 2 2 2 2 2 2
left_child=20 2 3 4 5 -2 10 8 -8 -6 12 16 -4 -9 15 -5 51 27 -19 -16 31 22 28 24 -24 41 29 -18 -22 -27 -28 43 33 49 54 -36 37 -23 -39 40 -38 50 -41 46 53 -46 52 -48 -30 -33 -13 55 -1 -45 -34 -3 -53 -25 -43 -12
right_child=1 11 6 14 9 -7 7 13 -10 -11 59 25 -14 -15 19 -17 17 18 -20 -21 21 36 23 57 -26 26 30 -29 48 -31 -32 32 34 -35 35 -37 39 38 -40 42 -42 58 -44 44 45 -47 47 -49 -50 -51 -52 56 -54 -55 -56 -57 -58 -59 -60 -61
leaf_value=0.10478755923044683 0.025166977610806336 -0.16756464371011009 0.052380076408963284 -0.037251658797525608 -0.014277289110795148 -0.018171740458318462 -0.12030203370652399 -0.035082620322710138 0.090939199177463459 0.060615284328142061 -0.10186748209053409 -0.16687593000742562 -0.10176265562839143 -0.13582788025939116 -0.084636461673643124 -0.11473665093277369 -0.12609907704373455 -0.082798193533313566 0.021202734270356575 0.14746887667072359 0.019418439827291578 0.10760490000956852 -0.058682853013166648 -0.14188847316514375 0.10200306031523419 -0.1413229055834945 0.021113971723074471 0.1368091430470062 -0.2595109884989944 0.1244187140882283 -0.12454056254098263 -0.21638125987160861 0.13663929497437668 0.13999125161126347 0.082635785402145431 -0.12702311325624735 0.097731606007148086 0.043619034850456331 -0.28707355942005514 0.11914881519815793 -0.04148279087121675 -0.1219980763358586 0.080959713174276124 0.11965998206812792 0.10263836788289933 -0.08588740797333877 0.032517567079077457 0.11192963501406974 -0.15885624580873106 -0.34511968065803533 -0.13402024424988487 -0.15273995201127827 0.1154332382340906 0.092815265455993501 0.12004647819790831 -0.19042295816014035 -0.13501810106122336 -0.16806038931142439 -0.10439038659647544 -0.10206955409900756
leaf_weight=382.85787028633058 37646.702583450824 21.207187220454216 28211.734438885003 1445.0837112236768 1569.5554803926498 5620.1690908074379 205.24538676440716 536.77310902625322 2201.2707034647465 10885.488244200591 147.21265702042729 52.638304654508829 206.17920352285728 1068.5775798428804 33.590615693479776 846.98558734729886 12.110611524432896 531.56769948080182 1693.2764282831922 101.26192216575146 18.313974678516388 47.369733095169067 70.223587372340262 31.688717603683472 127.48926568031311 12.734305784106253 29.446032583713531 172.32265310361981 25.358939912170175 42.551689183339477 95.339415887370706 5.2521618306636828 85.154225066304207 10.686389923095701 392.65816120803356 28.634012550115585 37.31906133890152 5.3432422336190966 11.840561137534676 298.71267893910408 16.314873738214374 0.78507739678025146 79.055868566036224 53.757706049829721 18.032775804400444 15.492026709020136 28.625409379601479 48.216834012418985 6.5862568020820609 7.9629628211259842 283.77500868029892 30.644583821296692 899.54457880556583 44.317963762208819 67.315220132470131 29.986489355564117 29.108780931681395 8.5779513716697675 143.17520052660257 116.20437709614635
leaf_count=172 121629 89 40473 7916 3814 18274 739 1368 1968 20847 8275 236 12469 4488 147 3790 148 1969 3491 87 25 28 234 160 99 122 155 241 112 72 1326 22 19 2 300 83 20 7 61 111 43 7 56 18 8 35 34 18 30 39 1574 139 290 29 27 122 160 38 4521 5868
internal_value=0 0.0288407 0.0306602 0.02311 0.0266097 0.0195375 0.044089 0.00287056 0.072923 0.0511775 0.0498545 -0.0231247 0.0512617 -0.102142 -0.0572421 -0.0658846 -0.00156222 0.0057849 -0.00364554 0.0896534 0.0870454 0.0542814 -0.0150086 0.0123771 0.0449307 -0.105406 -0.0430791 0.119546 -0.144681 0.0632091 -0.09017 0.0993476 0.0771976 -0.0999369 0.0845766 0.0683859 0.0945512 0.0299158 -0.184246 0.104223 0.0553841 -0.12877 0.111157 0.108227 0.0840902 0.0155194 0.110564 0.0823469 -0.238759 -0.293954 -0.139161 -0.161109 0.112255 0.10753 0.129314 -0.180954 -0.144107 -0.147464 -0.104486 -0.101957
internal_weight=0 94022.7 90842 58148.8 55721.9 43266.9 32693.2 4011.87 2406.52 12455 28681.3 3180.67 28417.9 1605.35 2426.92 2292.07 2520.22 2409.28 2224.84 134.853 2872.7 784.195 288.239 237.98 197.713 660.445 180.071 184.433 50.2592 55.286 124.785 2088.51 597.663 23.9015 573.762 421.292 495.956 64.5535 17.1838 431.402 53.6339 480.374 377.769 1490.85 131.6 33.5248 1359.24 76.8422 31.9452 13.2151 336.413 110.947 1282.4 98.0757 152.469 51.1937 59.7534 40.2667 143.96 263.417
internal_count=268644 266524 252152 176504 164564 139903 75648 8563 2707 24661 67085 14372 52942 5856 11940 11706 6359 5849 5460 234 2120 1024 698 531 333 8013 1675 389 167 194 1481 1096 492 63 429 383 326 96 68 230 63 6338 167 604 90 43 514 52 142 61 1810 510 462 47 46 211 299 198 4528 14143
is_linear=0
shrinkage=0.1


Tree=19
num_leaves=60
num_cat=0
split_feature=111 45 131 71 130 129 50 107 74 95 109 114 106 55 76 112 41 105 110 97 112 121 40 6 60 41 37 37 105 32 65 37 53 107 101 109 41 84 74 111 68 34 47 135 3 135 131 130 95 70 73 16 104 102 75 73 39 103 50
split_gain=861.143 819.849 779.952 778.685 780.943 781.165 285.762 282.32 130.317 200.819 186.755 125.54 124.65 108.715 189.528 103.433 86.2297 86.4641 92.8001 76.123 44.4593 64.9158 85.0315 38.4151 105.517 28.3937 93.7593 19.7862 15.5889 28.5652 14.371 9.05292 8.76867 19.9827 17.9585 6.61345 12.4771 5.61527 3.39973 2.7057 2.20994 2.16792 1.08804 0.777227 0.198835 0.129919 0.085551 0.074195 0.0700342 0.0111832 0.00258064 0.000346816 0.000293171 0.000248537 0.000178028 0.000163683 0.000149967 1.9981e-05 9.17493e-06
threshold=-1.2694163322448728 0.77388346195220958 1.0000000180025095e-35 -0.25720925629138941 1.0000000180025095e-35 1.0000000180025095e-35 1.1799837350845339 -0.96820253133773793 -0.99271443486213673 -0.99796104431152333 -0.90646913647651661 -1.0771977901458738 -0.91617274284362782 1.0450432300567629 -0.41266326606273646 -1.0441369414329527 1.120052218437195 -0.83136221766471852 -1.2181964516639707 -0.97201707959175099 -1.3354260325431822 -1.8664439916610716 1.0730754137039187 0.10254823416471483 0.81174179911613475 1.1051365137100222 0.95168259739875805 0.95438244938850414 -0.83478474617004383 0.85149338841438305 0.49763545393943792 0.95781946182250988 1.1150700449943545 -1.0044487714767454 -0.57293266057968129 -1.1558580994606016 1.1002629399299624 -1.2224022150039671 -0.42377406358718867 -1.2782980203628538 0.17819941043853763 0.85317987203598034 1.2176628708839419 1.0000000180025095e-35 0.71544909477233898 1.0000000180025095e-35 1.0000000180025095e-35 1.0000000180025095e-35 -1.0546622872352598 -0.57251253724098194 -0.79880881309509266 0.96354198455810558 -0.95904570817947377 -0.80679136514663685 -1.1253519654273985 -0.79152989387512196 1.0141075253486636 -0.79676073789596547 1.1000300049781802
decision_type=2 2 2 2 2 2 2 2 2 2 2 2 2 2 2 2 2 2 2 2 2 2 2 2 2 2 2 2 2 2 2 2 2 2 2 2 2 2 2 2 2 2 2 2 2 2 2 2 2 2 2 2 2 2 2 2 2 2 2
left_child=13 8 3 4 5 -3 12 -8 37 10 19 15 -5 20 16 -11 17 18 -15 -10 32 22 41 42 -25 26 30 -28 29 -27 -16 -30 35 34 -34 38 -37 46 -1 -19 -35 -22 -23 -13 49 -46 47 -2 -12 -39 52 -6 58 55 -54 -52 -55 -48 -4
right_child=1 2 50 6 51 -7 7 -9 9 11 48 43 -14 14 25 -17 -18 39 -20 -21 21 23 -24 24 -26 28 27 -29 31 -31 -32 -33 33 40 -36 36 -38 44 -40 -41 -42 -43 -44 -45 45 -47 57 -49 -50 -51 53 -53 54 56 -56 -57 -58 -59 -60
leaf_value=0.10157926643674958 -0.11008567754402272 0.030374958706435168 -0.10248156834230081 -0.046742185556985297 -0.10184063420289409 -0.10196710156541011 0.011337760035991712 -0.081344587904685128 0.057498602393016365 -0.13142976814728216 -0.11841201402412296 -0.12143698320353308 -0.14485948360605835 -0.12644429029221257 0.1233969366060732 0.19002841171278101 0.12842150365287974 -0.22007137716253544 0.032560658138089747 0.34694754097488023 -0.19447833928916491 0.13163790735718381 0.13476718696963194 0.076176461146869601 -0.14414107453128541 -0.05890729337611688 -0.045612383275426119 -0.28061669439653908 0.11678408501209565 0.11366694312279089 0.032107659332469403 0.077588638793029241 -0.062672877939950508 0.089276965076407311 0.078958984022072312 0.026666857116320577 0.11168378412753499 -0.13903455958932925 0.11325412695950572 -0.14820121667200012 0.12095258924108282 -0.27571909767325053 0.11412883491060551 -0.13673020533171673 -0.12370203207952567 -0.13240016107437924 -0.10147829971121936 -0.10111703174433742 -0.13596701553024529 -0.14411039201941042 -0.10233208766954682 -0.10157528864776888 -0.10186928025928027 -0.10193399460419197 -0.10201342223402504 -0.10269874872207758 -0.10246678557316172 -0.10103966494255534 -0.10232157299671368
leaf_weight=356.80587405711412 153.64345216285437 89040.274888405576 8.1389110162854177 263.07487584929913 56.196058796718717 448.25787535961717 1376.446001175791 431.75180988758802 13.64669958502054 16.146625640802085 2.6556286634877351 62.689065750222653 254.9703705701977 48.614909152500331 41.972737595438957 26.334127908572555 37.054712185170501 6.0086467415094367 149.82817112375051 27.187292635440826 5.1859140992164638 79.825207442045212 10.024612426757811 384.85307209193707 23.039513766765594 16.416725643910468 5.8798253089189521 9.1704242834821326 270.39051007479429 23.070222746580839 29.269739329814911 75.348418489098549 15.731857500970362 42.013441359624267 20.775074169039726 28.22553950548172 44.444054268300533 29.231546197086573 828.79783047735691 40.852534174919128 46.297182440757751 8.959649518132208 63.902728766202927 70.72032918035984 19.140998758375645 166.93161508440971 13.026332772336898 9.8131776433438045 15.752804253250359 5.097550392150878 15.091679342091082 398.95994613831863 147.62109155440703 9.0285182963125425 204.22815561899915 63.000887841917574 12.734706361778079 1.1284748199395824 6.4045682698488227
leaf_count=172 2013 169283 347 730 3197 24520 3145 5560 49 109 35 1572 1613 159 13 25 20 26 287 17 22 19 2 314 69 41 12 50 100 14 41 55 33 29 14 35 17 151 290 206 14 39 27 362 148 904 911 950 83 24 686 27095 8336 518 10701 2485 553 113 289
internal_value=0 0.0261439 0.0269182 0.0275701 0.0290475 0.029712 -0.0295526 -0.0107924 -0.0872625 -0.0282368 0.131003 -0.0818709 -0.0950333 0.0832985 0.051029 0.0678445 -0.013765 -0.0352432 -0.00639263 0.250214 0.0957175 0.0723684 -0.0880385 0.0793969 0.063732 0.0898295 0.0379815 -0.188805 0.101444 0.0419191 0.085891 0.108242 0.105438 0.0801571 0.0179259 0.107946 0.0786624 -0.122133 0.109741 -0.157417 0.105883 -0.245935 0.123853 -0.129544 -0.132796 -0.131505 -0.108901 -0.109547 -0.133435 -0.139788 -0.102094 -0.101608 -0.101971 -0.102545 -0.101953 -0.102628 -0.102246 -0.101443 -0.102411
internal_weight=0 93369.3 92736.2 92269.9 89943.7 89488.5 2326.24 1808.2 633.146 235.133 59.2424 175.89 518.045 2712.76 753.878 42.4808 282.359 245.304 198.443 40.834 1958.88 575.791 24.1702 551.621 407.893 471.519 86.2927 15.0502 385.226 39.4869 71.2425 345.739 1383.09 124.818 36.5069 1258.27 72.6696 398.013 1185.6 46.8612 88.3106 14.1456 143.728 133.409 220.402 186.073 177.611 163.457 18.4084 34.3291 466.249 455.156 366.393 99.8558 351.849 78.0926 21.7632 14.1548 14.5435
internal_count=268644 266524 259058 235143 224095 193803 11048 8705 7466 2252 184 2068 2343 2120 1024 134 698 678 446 66 1096 492 63 429 383 326 116 62 210 55 54 155 604 90 47 514 52 5214 462 232 43 61 46 1934 1227 1052 3987 2963 118 175 23915 30292 19673 4242 19037 3171 1071 1024 636
is_linear=0
shrinkage=0.1


Tree=20
num_leaves=61
num_cat=0
split_feature=111 34 105 108 128 54 35 51 104 68 102 69 136 31 77 81 133 51 124 46 134 32 78 31 73 29 129 25 50 41 58 55 73 105 109 76 112 121 40 38 116 37 123 33 39 50 63 56 53 30 82 109 41 74 122 112 52 33 112 53
split_gain=783.354 738.916 1045.19 1228.66 959.387 947.268 1145.21 877.87 822.86 1004.9 1411.14 752.101 703.024 671.881 638.119 598.287 479.811 395.475 396.542 823.466 611.167 329.181 302.47 281.012 279.3 271.044 220.604 212.252 190.542 128.721 121.394 102.703 166.504 89.0108 103.586 67.1305 47.2967 54.3655 67.9558 37.805 129.402 36.294 21.0491 20.0005 64.185 16.6477 16.1824 11.6166 9.10503 18.7843 23.2736 6.74892 12.0052 3.78445 2.69735 2.01313 1.68926 1.0379 0.936915 4.29455e-05
threshold=-1.2694163322448728 0.90872284770011913 -0.85456010699272145 -0.89963302016258229 1.0000000180025095e-35 1.0392667055130007 0.90572869777679454 1.1556151509284975 -0.8121875226497649 0.10648372024297716 -0.77577310800552357 -0.10440478846430777 1.0000000180025095e-35 1.0055418610572817 -1.3213376402854917 -1.2235568761825559 1.0000000180025095e-35 1.0801464915275576 -1.558110177516937 1.1457247734069826 1.0000000180025095e-35 0.9623105823993684 -1.2563290596008299 1.0086239576339724 -0.64279714226722706 1.1087486147880556 1.0000000180025095e-35 1.4123243689537051 1.1335108876228335 0.99652576446533214 0.79347130656242382 1.0450432300567629 -0.37040847539901728 -0.8186625838279723 -1.1558580994606016 -0.45636233687400812 -1.3354260325431822 -1.8664439916610716 1.0730754137039187 0.97284677624702465 -1.4769001603126524 0.96676725149154674 -2.1961743831634517 0.86058336496353161 1.0343894958496096 1.1930403709411623 0.67562663555145275 1.0193732976913454 1.1150700449943545 0.87212863564491283 -0.28971877694129938 -1.1558580994606016 1.1002629399299624 -0.42377406358718867 -2.0353373289108272 -1.3354260325431822 1.1490499377250674 0.84075692296028148 -1.3354260325431822 1.0887212157249453
decision_type=2 2 2 2 2 2 2 2 2 2 2 2 2 2 2 2 2 2 2 2 2 2 2 2 2 2 2 2 2 2 2 2 2 2 2 2 2 2 2 2 2 2 2 2 2 2 2 2 2 2 2 2 2 2 2 2 2 2 2 2
left_child=31 2 4 7 5 12 -7 15 17 10 11 -10 -2 14 -5 -4 -9 21 19 -19 -20 25 -15 27 -12 -3 28 -6 -11 -23 -25 36 33 34 55 -36 48 38 57 40 -39 -41 45 44 -44 46 -34 -47 51 56 -51 53 -53 -1 -35 -33 -50 -38 -56 -28
right_child=1 8 3 13 23 6 -8 16 9 26 24 -13 -14 22 -16 -17 -18 18 20 -21 -22 29 -24 30 -26 -27 59 -29 -30 -31 -32 32 42 54 35 -37 37 39 -40 41 -42 -43 43 -45 -46 47 -48 -49 49 50 -52 52 -54 -55 58 -57 -58 -59 -60 -61
leaf_value=0.098508971435837575 0.018180674758918623 -0.066920838529030954 -0.019011912886233797 -0.093617991756166918 0.077723207510021319 0.061171346639335482 -0.076486534579774834 -0.014193379115411435 -0.10974177000878699 -0.0099829201962817696 -0.099673755408777584 0.026506524798698101 -0.039224486403716056 -0.030698943213611021 0.033413624927158568 -0.10278075926551336 0.093901171978767684 -0.056794850222556696 0.047538250315389337 0.052166441330570579 0.095573801500781583 0.1295084890396411 -0.17260750429449917 -0.1464164284316597 0.068536879417885416 0.075187630648750226 -0.10155548411555862 0.15115131926546871 0.063676671868540966 -0.11744266743856382 0.018888516843753925 -0.22831628092191952 -0.03126123110376363 -0.21602107177922139 -0.073614723380452093 0.054160276620312746 -0.17898049099397878 -0.23570836629693803 0.13038383463750791 0.091511370367212214 0.09899188969037466 -0.011421289545207547 0.084296535413146287 0.11784035306082018 -0.27535166238560949 0.11418048582189633 0.088026613894691005 0.068939967688397663 0.11376688952018109 -0.076258025818264977 0.093467467551359401 0.024390944777528178 0.10953588176306768 0.11129520649940346 -0.17759024587355787 -0.16205909255889572 0.085651619555339689 -0.23491486834807371 -0.1345136911469853 -0.10172488420300348
leaf_weight=332.40005890652537 32114.114622741472 197.97497339081019 1402.4949925765395 413.67938894452527 2121.6773102879524 8207.47979354579 652.37776463478804 3180.3571483474225 435.36295746825635 383.50380789767951 1482.3503440977074 5837.803126480896 2285.188630245626 1041.2985957716592 8967.5712982108817 2174.5293131354265 471.52353619411588 886.46231514029205 7389.027805285994 3187.758750458248 4128.7121981680393 22.855867682956159 175.51455988036469 59.12711389362812 105.75298799294978 416.73513344861567 19.054858377203345 483.34814101457596 4166.8461961913854 275.84625164652243 178.65958015620708 13.349996581673624 18.764011211693287 6.483345925807952 51.278691165149212 207.50320375431329 5.1287712603807476 16.743627518415451 9.3596625328063947 439.45829433202744 37.248943462967873 37.151299938559532 13.961305126547815 11.89987250883132 7.6985131343826643 258.80650489032269 28.869156077504158 72.701373748481274 46.422031331807375 15.636238947510718 16.716681145131588 27.796777486801147 40.962855689227581 762.45006173849106 6.576242968440055 6.9850375801324835 39.600430447608232 9.3930446654558164 21.743568785488609 69.732801585458219
leaf_count=172 93950 661 3810 7357 2434 12007 1914 13219 3562 815 7819 19970 10078 6102 29086 9556 616 2640 16696 5327 2650 42 1306 294 158 543 1267 569 5996 1568 322 56 34 28 201 277 22 72 2 271 24 62 9 11 43 98 18 65 18 34 9 35 17 290 30 32 29 39 122 4190
internal_value=0 0.0236303 0.0176241 -0.00293813 0.0255752 0.0218771 0.0510352 -0.0347255 0.0368681 0.017514 -0.00426662 0.0170508 0.0143672 0.0187439 0.027812 -0.0699363 -0.000236427 0.0515259 0.0552724 0.0284588 0.0647573 -0.0124275 -0.051168 0.0818484 -0.0884725 0.0294198 0.0544226 0.0913474 0.0574686 -0.0985466 -0.0222156 0.0796711 0.0478476 -0.00703896 0.0117641 0.0288411 0.0922625 0.0678608 -0.0797341 0.0745037 -0.00480195 0.0834879 0.0895969 0.0136883 -0.0435326 0.096316 0.0410359 0.104259 0.102817 0.0763943 0.0114388 0.105505 0.0751152 0.107413 -0.157837 -0.205557 0.100824 -0.21516 -0.144517 -0.101689
internal_weight=0 92934.7 63928.9 17827 46102 43259.2 8859.86 7228.9 29005.8 12500.4 7861.27 6273.17 34399.3 10598.1 9381.25 3577.02 3651.88 16505.4 15592 4074.22 11517.7 913.412 1216.81 2842.81 1588.1 614.71 4639.14 2605.03 4550.35 298.702 237.787 2563.09 726.621 313.92 279.117 258.782 1836.47 554.484 23.8815 530.602 53.9926 476.61 412.701 33.5597 21.6598 379.141 47.6332 331.508 1281.99 118.375 32.3529 1163.61 68.7596 1094.85 34.8032 20.335 86.0225 14.5218 28.3198 88.7877
internal_count=268644 266524 192620 71052 121568 117949 13921 27201 73904 43777 31509 23532 104028 43851 36443 13366 13835 30127 27313 7967 19346 2814 7408 3619 7977 1204 12268 3003 6811 1610 616 2120 1024 746 566 478 1096 492 63 429 96 333 278 63 52 215 52 163 604 90 43 514 52 462 180 88 47 61 152 5457
is_linear=0
shrinkage=0.1


Tree=21
num_leaves=61
num_cat=0
split_feature=111 131 33 134 32 107 93 136 32 77 134 123 51 103 54 106 80 55 73 105 109 47 112 121 40 0 48 37 32 55 104 71 56 53 107 82 109 42 74 74 55 122 112 112 32 72 105 104 104 104 73 75 71 53 101 103 69 101 52 0
split_gain=709.873 682.409 648.992 1329.45 2411.75 872.576 831.209 805.984 1343.7 1069.5 773.517 2308.09 719.265 983.733 455.631 313.751 294.329 96.526 145.59 76.2582 84.9488 62.5603 48.7367 45.8905 55.85 36.4753 110.165 20.3734 52.9757 64.8991 10.2281 10.1051 11.3237 9.40761 18.1611 15.1189 6.89291 13.4827 5.00198 4.19555 3.15631 1.67561 1.11999 0.626987 0.546005 0.00242301 0.00121858 0.000367001 0.000303252 0.000218763 0.000206228 0.000175325 0.000101017 6.94669e-05 6.64604e-05 2.80156e-05 1.37394e-05 1.31313e-05 8.49715e-06 7.34012e-06
threshold=-1.2694163322448728 1.0000000180025095e-35 0.92271560430526745 1.0000000180025095e-35 0.95044839382171642 -0.87076163291931141 -0.99063917994499195 1.0000000180025095e-35 0.92672640085220348 -1.2639639377593992 1.0000000180025095e-35 -1.4647253751754759 1.1171428561210635 -0.8067878484725951 0.99482369422912609 -0.94595423340797413 -1.1392977237701414 1.0450432300567629 -0.37040847539901728 -0.8186625838279723 -1.1558580994606016 1.2295278906822207 -1.3354260325431822 -1.8664439916610716 1.0730754137039187 -0.19865879416465757 1.2081561088562014 0.95300725102424633 0.83810532093048107 1.0571036934852602 -0.75270059704780568 -0.19042655825614926 1.0117449164390566 1.1150700449943545 -1.0044487714767454 -0.28971877694129938 -1.1558580994606016 1.132295608520508 -0.43371452391147608 -0.42377406358718867 1.0425809025764468 -2.0353373289108272 -1.3354260325431822 -1.3354260325431822 0.8430657982826234 -0.63888901472091664 -0.80879381299018849 -0.8121875226497649 -0.95904570817947377 -0.73972469568252552 -0.79152989387512196 -1.1253519654273985 -0.43609546124935145 1.0866947770118716 -0.81506422162055958 -0.79819083213806141 -0.67685815691947926 -0.81506422162055958 1.0750440359115603 -0.2834517210721969
decision_type=2 2 2 2 2 2 2 2 2 2 2 2 2 2 2 2 2 2 2 2 2 2 2 2 2 2 2 2 2 2 2 2 2 2 2 2 2 2 2 2 2 2 2 2 2 2 2 2 2 2 2 2 2 2 2 2 2 2 2 2
left_child=17 2 3 7 5 -5 -6 8 -2 -9 12 16 13 -4 -13 -14 -12 22 19 20 42 -22 33 24 44 38 -27 31 29 -29 -30 32 -20 36 35 -35 39 -38 -25 -1 -36 -21 -19 -43 -24 46 48 50 58 56 57 -50 55 -54 -52 -49 -48 -47 -3 -51
right_child=1 45 10 4 6 -7 -8 9 -10 -11 11 14 15 -15 -16 -17 -18 18 27 41 21 -23 23 25 -26 26 -28 28 30 -31 -32 -33 -34 34 40 -37 37 -39 -40 -41 -42 43 -44 -45 -46 47 49 52 51 59 54 -53 53 -55 -56 -57 -58 -59 -60 -61
leaf_value=0.095540250961332673 0.013463899139634045 -0.1021511142829902 0.02539820412440303 -0.11405830612951695 0.060051445290378973 0.022005857922178879 -0.052616961498851422 0.046636824266444082 0.048655522188658845 -0.045836997391966949 -0.043023758971850172 -0.041125829716570715 0.11234234092031348 -0.039062019110483251 0.08234871420914848 0.038029677030661159 -0.15535453275473929 -0.20363055274883179 0.11128667396211733 -0.19581641049724441 0.053113456348007015 -0.065689839658514007 -0.17331531457693206 0.087593468126597018 0.12666976108416292 0.067598806448354962 -0.15762978290346255 0.040168309357637488 0.03578189182490412 -0.2744206683526908 0.098019798509337785 0.12624946314516017 0.035119313109066262 -0.059159764473670433 0.07760942799752639 0.073038581802944105 0.011891960977541496 0.10630474561233777 0.12623056069510072 0.10951850240312011 0.11816098848303945 -0.16643918384284329 -0.15348166375485536 -0.13038049660025242 -0.21216027957275385 -0.10215409428026832 -0.10198238962352409 -0.10171316703410396 -0.10169668347977563 -0.10050970132636168 -0.10255580051642672 -0.10184997360688169 -0.10191448510589191 -0.10234105492051758 -0.10230738063254004 -0.10120870634123157 -0.10122796062256015 -0.10161729812529835 -0.10231440909925485 -0.10083284147499967
leaf_weight=309.63738642446697 32149.428443872835 4.8350599016994229 7922.523858982604 2591.0792122725397 2581.3647010475397 576.11599014699459 877.34635609574616 1884.9236820600927 16376.753808606882 3716.8384904228151 691.70873361080885 311.25251960381866 601.22265007905662 3376.5477561936714 7502.3340476676822 10326.532426435966 351.93706560879946 13.462344571948053 48.276752591133118 6.4384219497442237 197.27204311825335 57.16946888063103 6.8880147784948367 52.168963551521301 8.7043657302856428 339.46512067317963 23.201026380062103 20.802197806537155 33.360786845907569 9.5766607783734781 126.64144296944141 119.3184771835804 32.766330949962139 15.875697672367094 35.117299998179078 19.010039616376162 23.890648078173399 41.227946504950523 93.666402995586395 700.51275765150785 42.330447819083929 6.3278022632002822 6.6548077315092078 20.265609130263332 7.6231963038444519 21.741492436267439 0.24569446034729381 3.4994101459160447 128.43495085090399 5.9385673287324616 46.948396952822804 178.05051506264135 11.028045590035619 5.8389886934310189 13.97508513741195 1.606188341043892 13.798899505753072 0.4654685715213408 9.3465997539460641 0.79732355428859403
leaf_count=172 85726 236 18090 12627 4730 2635 2464 4801 40949 13229 1868 868 359 15315 6173 29048 1492 56 19 28 286 192 30 35 2 297 73 23 46 50 70 31 39 32 28 15 34 18 24 290 15 30 32 122 31 1062 13 217 7955 1177 1949 10125 624 269 654 144 1171 30 425 99
internal_value=0 0.0214323 0.0220319 0.0160189 -0.0262613 -0.0893081 0.0314717 0.0211945 0.0253405 -0.0147207 0.0337843 0.0587737 0.0238262 0.00613529 0.0774301 0.0421182 -0.0809038 0.0763242 0.0449717 -0.00649101 0.0107795 0.02642 0.0890586 0.0638966 -0.0735953 0.0701738 0.0531901 0.0854829 0.0620578 -0.059003 0.0850431 0.107741 0.0804916 0.100324 0.0727878 0.0128782 0.103201 0.0716667 0.112409 0.105234 0.0997736 -0.150043 -0.187041 -0.138961 -0.193722 -0.101888 -0.101759 -0.102308 -0.101807 -0.101016 -0.102404 -0.101786 -0.101944 -0.102062 -0.102499 -0.101554 -0.101241 -0.102143 -0.102259 -0.100548
internal_weight=0 92284.5 91837.9 60753.9 6625.91 3167.2 3458.71 54127.9 48526.2 5601.76 31084.1 8857.23 22226.8 11299.1 7813.59 10927.8 1043.65 2417.65 698.333 307.59 274.559 254.442 1719.32 531.717 23.2156 508.502 362.666 390.743 190.381 30.3789 160.002 200.362 81.0431 1187.6 112.333 34.8857 1075.27 65.1186 145.835 1010.15 77.4477 33.0318 20.1172 26.5934 14.5112 446.551 341.448 105.103 320.667 20.7805 83.1304 306.485 21.9726 16.867 60.9235 5.1056 14.0446 22.207 14.1817 6.73589
internal_count=268644 266524 240374 167161 22456 15262 7194 144705 126675 18030 73213 10401 62812 33405 7041 29407 3360 2120 1024 746 566 478 1096 492 63 429 370 278 189 73 116 89 58 604 90 47 514 52 59 462 43 180 88 152 61 26150 21201 4949 18741 2460 3695 18080 1254 893 2603 361 1184 1092 661 1276
is_linear=0
shrinkage=0.1


Tree=22
num_leaves=58
num_cat=0
split_feature=45 130 129 131 111 83 74 95 96 114 56 28 96 106 98 83 135 131 3 120 135 95 3 75 30 130 131 131 1 130 30 70 103 114 73 52 68 104 53 55 104 102 75 52 32 103 104 71 103 53 103 53 102 103 84 48 35
split_gain=657.074 648.932 637.263 602.519 583.079 590.554 123.632 153.898 134.792 120.618 90.7982 69.7277 37.2555 21.3411 9.90766 4.24906 0.5405 0.233575 0.146321 0.106648 0.0953005 0.0574293 0.0529466 0.0512186 0.0286879 0.0213005 0.0164433 0.0156328 0.0155729 0.0142313 0.0111567 0.00746007 0.00306112 0.0029616 0.00173868 0.0008743 0.000447035 0.000503553 0.000351276 0.000319068 0.000238404 0.000136864 0.000110409 9.78628e-05 7.97955e-05 8.44394e-05 6.31943e-05 5.49425e-05 5.34234e-05 4.71584e-05 3.00101e-05 2.81564e-05 1.72755e-05 7.47769e-06 1.52669e-06 1.42664e-06 4.6902e-07
threshold=0.77388346195220958 1.0000000180025095e-35 1.0000000180025095e-35 1.0000000180025095e-35 -1.2694163322448728 -1.2276624441146848 -0.99271443486213673 -0.99796104431152333 -0.98833081126213063 -1.0771977901458738 0.99665436148643505 1.3445353507995608 -0.89021748304367054 -0.90790611505508412 -0.96124061942100514 -1.2477124929428098 1.0000000180025095e-35 1.0000000180025095e-35 0.71544909477233898 -1.0581337809562681 1.0000000180025095e-35 -1.0546622872352598 0.71544909477233898 -1.3941605091094968 1.0000000180025095e-35 1.0000000180025095e-35 1.0000000180025095e-35 1.0000000180025095e-35 0.68059220910072338 1.0000000180025095e-35 1.0915145277976992 -0.57251253724098194 -0.80973342061042775 -0.94305074214935292 -0.79880881309509266 1.0912055969238283 0.10230081155896188 -0.81437990069389332 1.0866947770118716 0.86592796444892894 -0.95904570817947377 -0.80679136514663685 -1.1253519654273985 1.1109700798988345 0.95336434245109569 -0.82561543583869923 -0.80224379897117604 -0.42811976373195643 -0.82611021399497975 1.0866947770118716 -0.70422551035881031 1.0866947770118716 -0.79013153910636891 -0.79453301429748524 -1.4253920912742613 1.1428145170211794 0.90865445137023937
decision_type=2 2 2 2 2 2 2 2 2 2 2 2 2 2 2 2 2 2 2 2 2 2 2 2 2 2 2 2 2 2 2 2 2 2 2 2 2 2 2 2 2 2 2 2 2 2 2 2 2 2 2 2 2 2 2 2 2
left_child=6 2 3 4 10 -6 15 8 21 11 -2 12 -9 -10 -15 23 17 -11 31 -13 24 -8 -18 27 -20 26 -25 29 -23 -1 -22 33 35 -17 40 42 37 44 46 -34 -5 -36 -4 -41 45 -3 -39 -40 -46 -37 51 55 -53 -29 -27 -38 -52
right_child=1 36 32 34 5 -7 7 9 13 16 -12 19 -14 14 -16 18 22 -19 20 -21 30 28 -24 25 -26 54 -28 53 -30 -31 -32 -33 39 -35 41 49 50 38 47 43 -42 -43 -44 -45 48 -47 -48 -49 -50 -51 56 52 -54 -55 -56 -57 -58
leaf_value=-0.10657486371075833 0.089211183080464163 -0.10155374182711324 -0.10201439142607467 -0.10205628578285252 0.030726990831509916 0.01442821875730867 -0.11675911389868457 0.28123295591220693 0.25536201476829745 -0.12198781200742251 0.048429078628016334 -0.12033067695484621 0.05869114603427325 0.20825815271984616 0.062559052095031847 -0.13381461691657409 -0.13541644966584779 -0.10050368324635357 -0.14042465754708908 -0.1391561353887234 -0.12984777980091397 -0.13854981395245181 -0.12970843526191453 -0.10942885553610034 -0.1208065720352848 -0.10106169117967995 -0.10116845191360389 -0.10108535563454142 -0.13112434837871642 -0.10085192306202446 -0.12801781500552098 -0.13941827734593484 -0.10693488090698733 -0.13596100948234013 -0.10220925020201642 -0.10181889637651585 -0.10127246713976901 -0.10128653084310209 -0.10128609390456358 -0.10145954306949062 -0.10161079948845836 -0.10190045652760481 -0.10223119113970372 -0.10160002851449708 -0.10170435627057109 -0.10135246902841893 -0.10110878850887323 -0.1015771405376576 -0.10155856545710357 -0.10162656232342888 -0.10102906713666369 -0.1014772232160657 -0.1019118359328533 -0.10075287819271539 -0.10129854828604019 -0.10150509891120735 -0.1012159373560543
leaf_weight=34.621712673455477 1373.9598545879126 137.69373592361808 28.422075867652893 12.529137518256901 40570.924415159971 49176.330092719756 2.5457579130306867 12.22677516937256 26.067381531000137 52.824392771348357 905.8709649592638 9.0421008830890042 19.552132226526737 7.5109679382294443 12.327106565237044 10.159271670505406 39.702231675386429 5.5966258100233963 0.77879281342029827 4.5103774024173608 110.58689077198505 3.7864625900983802 27.511162668466568 100.45015522278845 17.380906447768211 3.0128184705972676 2.4690658878535023 7.4381097033619881 11.115872293710707 4.9687598189339033 47.680244877934456 4.8670907020568839 0.10943158343434234 17.505219131708145 66.068411409156397 24.691717469133437 0.34483633935451408 39.357459174934775 7.6435445924289516 93.950912492815405 291.51296673202887 18.337024656590074 135.37163752410561 105.00539404340088 53.990987196564674 24.561822053045034 40.676531733945012 42.832678463310003 47.027285089716315 26.355002413503826 0.25850058672949572 0.94269508775323529 30.67702977638692 0.74413721961900403 0.29915106017142434 1.1192738832905886 0.27956756949424744
leaf_count=644 883 9266 1496 641 73831 106295 36 6 21 380 1199 69 35 13 32 59 206 1192 6 25 625 19 156 1369 145 291 220 702 63 634 279 24 6 90 3178 1420 28 3272 627 6821 19037 1073 6429 6820 3340 1989 3915 2831 3220 1693 26 68 1672 102 24 77 24
internal_value=0 0.0214198 0.0219858 0.0225403 0.0230649 0.0217962 -0.0838016 -0.0271773 0.105955 -0.076511 0.0730068 0.0633208 0.144313 0.195881 0.117723 -0.120357 -0.126965 -0.11993 -0.129646 -0.126596 -0.128509 -0.13064 -0.13308 -0.107754 -0.121648 -0.108977 -0.109231 -0.105034 -0.133011 -0.105857 -0.129296 -0.135808 -0.101819 -0.135173 -0.101741 -0.102081 -0.101517 -0.101487 -0.101326 -0.101537 -0.101629 -0.102142 -0.102194 -0.101534 -0.101567 -0.101523 -0.101196 -0.101533 -0.101636 -0.10172 -0.101867 -0.101879 -0.101899 -0.101055 -0.101083 -0.10145 -0.101126
internal_weight=0 93256.8 92829.4 92415.5 92027.1 89747.3 597.282 234.319 63.3535 170.966 2279.83 45.3314 31.7789 45.9055 19.8381 362.962 125.634 58.421 208.958 13.5525 176.427 17.4481 67.2134 154.004 18.1597 106.231 102.919 47.7727 14.9023 39.5905 158.267 32.5316 413.906 27.6645 388.448 214.84 427.406 393.784 130.51 199.066 304.042 84.4054 163.794 198.956 263.274 162.256 80.034 50.4762 101.018 51.0467 33.6219 33.0838 31.6197 8.18225 3.31197 1.46411 0.538068
internal_count=268644 261177 230822 206137 182208 180126 7467 2253 184 2069 2082 135 41 66 45 5214 1934 1572 1228 94 1055 118 362 3986 151 1904 1589 2082 82 1278 904 173 24685 149 23929 11038 30355 28460 10645 13647 19678 4251 7925 13641 17815 11255 7187 3458 6560 3113 1895 1845 1740 804 315 105 50
is_linear=0
shrinkage=0.1


Tree=23
num_leaves=63
num_cat=0
split_feature=51 102 35 101 71 107 113 58 71 134 94 111 135 102 136 81 75 71 103 134 55 51 61 133 35 128 71 101 35 31 30 73 107 78 104 135 132 103 59 30 124 53 69 107 99 28 102 71 67 29 70 72 31 69 31 114 54 9 21 73 31 27
