tree
version=v4
num_class=1
num_tree_per_iteration=1
label_index=0
max_feature_idx=136
objective=binary sigmoid:1
feature_names=Column_0 Column_1 Column_2 Column_3 Column_4 Column_5 Column_6 Column_7 Column_8 Column_9 Column_10 Column_11 Column_12 Column_13 Column_14 Column_15 Column_16 Column_17 Column_18 Column_19 Column_20 Column_21 Column_22 Column_23 Column_24 Column_25 Column_26 Column_27 Column_28 Column_29 Column_30 Column_31 Column_32 Column_33 Column_34 Column_35 Column_36 Column_37 Column_38 Column_39 Column_40 Column_41 Column_42 Column_43 Column_44 Column_45 Column_46 Column_47 Column_48 Column_49 Column_50 Column_51 Column_52 Column_53 Column_54 Column_55 Column_56 Column_57 Column_58 Column_59 Column_60 Column_61 Column_62 Column_63 Column_64 Column_65 Column_66 Column_67 Column_68 Column_69 Column_70 Column_71 Column_72 Column_73 Column_74 Column_75 Column_76 Column_77 Column_78 Column_79 Column_80 Column_81 Column_82 Column_83 Column_84 Column_85 Column_86 Column_87 Column_88 Column_89 Column_90 Column_91 Column_92 Column_93 Column_94 Column_95 Column_96 Column_97 Column_98 Column_99 Column_100 Column_101 Column_102 Column_103 Column_104 Column_105 Column_106 Column_107 Column_108 Column_109 Column_110 Column_111 Column_112 Column_113 Column_114 Column_115 Column_116 Column_117 Column_118 Column_119 Column_120 Column_121 Column_122 Column_123 Column_124 Column_125 Column_126 Column_127 Column_128 Column_129 Column_130 Column_131 Column_132 Column_133 Column_134 Column_135 Column_136
feature_infos=[-1.8014661073684692:2.1475074291229248] [-1.7160434722900391:2.0597634315490723] [-1.6382262706756592:1.9801409244537354] [-1.5680137872695923:1.9086390733718872] [-1.5054070949554443:1.8452587127685547] [-1.4504051208496094:1.7899996042251587] [-1.4123568534851074:1.7937201261520386] [-1.3844102621078491:1.9274762868881226] [-1.3517893552780151:2.0758624076843262] [-1.3099035024642944:2.0974209308624268] [-1.2559221982955933:2.0165181159973145] [-1.1870334148406982:2.064321756362915] [-1.1039742231369019:2.1106562614440918] [-1.0067610740661621:2.1771299839019775] [-0.90047705173492432:2.2825961112976074] [-0.78966546058654785:2.4052433967590332] [-0.67814630270004272:2.5269482135772705] [-0.65620064735412598:2.5277442932128906] [-0.66012513637542725:2.5653238296508789] [-0.66667592525482178:2.5221147537231445] [-0.8555336594581604:2.4413206577301025] [-0.86833834648132324:2.3840618133544922] [-0.86565589904785156:2.2409591674804688] [-0.7797551155090332:2.1797337532043457] [-1.0841877460479736:2.1614029407501221] [-1.4308524131774902:2.0620582103729248] [-1.6366665363311768:1.9191513061523438] [-1.8254417181015015:1.7314887046813965] [-1.9454965591430664:1.5598906278610229] [-2.2033448219299316:1.3473584651947021] [-2.6534385681152344:1.1458766460418701] [-2.9375624656677246:1.0691677331924438] [-2.8964071273803711:1.0182701349258423] [-2.6209216117858887:1.0153312683105469] [-1.9672813415527344:1.0222163200378418] [-1.2877312898635864:1.096311092376709] [-0.66409575939178467:1.2162210941314697] [-0.67050886154174805:1.4357191324234009] [-0.67336314916610718:1.5244829654693604] [-0.67729061841964722:1.3777114152908325] [-0.67391806840896606:1.3165556192398071] [-0.77278417348861694:1.2266663312911987] [-0.78214722871780396:1.2687077522277832] [-0.67822211980819702:1.5027958154678345] [-0.67542338371276855:1.6759111881256104] [-0.67939788103103638:1.7528411149978638] [-0.67687302827835083:1.7291663885116577] [-0.68056988716125488:1.8940913677215576] [-0.67851173877716064:2.0411467552185059] [-0.68057990074157715:2.1347439289093018] [-0.67672491073608398:2.1180493831634521] [-0.68208664655685425:2.0443711280822754] [-0.6882440447807312:2.3278176784515381] [-0.69760811328887939:2.41339111328125] [-0.68820065259933472:2.0181429386138916] [-0.66498374938964844:1.5468263626098633] [-0.63047897815704346:1.3939603567123413] [-0.79989981651306152:1.3603483438491821] [-0.9627259373664856:1.3460699319839478] [-0.83332031965255737:1.3262704610824585] [-0.62303602695465088:1.3006186485290527] [-0.62908732891082764:1.4134206771850586] [-0.65896600484848022:1.6372760534286499] [-0.67422842979431152:1.5962808132171631] [-0.89532732963562012:1.2496439218521118] [-1.1747497320175171:1.0751444101333618] [-1.3727543354034424:0.99085426330566406] [-1.6713657379150391:0.88485002517700195] [-1.8910553455352783:0.75389385223388672] [-2.0949718952178955:0.60495084524154663] [-1.9126988649368286:0.45876148343086243] [-1.7446892261505127:0.33052113652229309] [-1.674402117729187:0.23037496209144592] [-1.5674382448196411:0.15855956077575684] [-1.3374539613723755:0.2961885929107666] [-1.5821062326431274:0.9557119607925415] [-1.8401819467544556:1.4404212236404419] [-2.0371255874633789:1.2026444673538208] [-2.1728529930114746:1.1285310983657837] [-2.2573421001434326:0.92254304885864258] [-2.3058340549468994:0.73609095811843872] [-2.3315773010253906:0.28676301240921021] [-2.3403120040893555:0.33890664577484131] [-2.3343968391418457:0.39074629545211792] [-2.3124566078186035:0.5232703685760498] [-2.2730567455291748:0.47703936696052551] [-2.2140905857086182:0.50853937864303589] [-2.1362462043762207:0.53271615505218506] [-2.0426793098449707:0.67684948444366455] [-1.9374580383300781:0.56802195310592651] [-1.8240519762039185:0.65060514211654663] [-1.8478662967681885:1.0689502954483032] [-1.648851752281189:1.4172115325927734] [-1.5846540927886963:1.6290324926376343] [-1.5209465026855469:1.6649528741836548] [-1.4698792695999146:1.6182941198348999] [-1.4279601573944092:1.5608183145523071] [-1.3987493515014648:1.5597559213638306] [-1.3791044950485229:1.5645072460174561] [-1.5819015502929688:1.5648646354675293] [-1.8966314792633057:1.5687597990036011] [-2.4585905075073242:1.5680602788925171] [-2.604130744934082:1.5700795650482178] [-2.5047333240509033:1.5662518739700317] [-2.1062953472137451:1.5674868822097778] [-1.3859066963195801:1.5623446702957153] [-1.2213733196258545:1.563502311706543] [-1.1215335130691528:1.561995267868042] [-1.168958306312561:1.5723429918289185] [-1.225764274597168:1.5757462978363037] [-1.369315505027771:1.5835809707641602] [-1.5990560054779053:1.5861003398895264] [-2.1418814659118652:1.5904537439346313] [-2.465855598449707:1.5886306762695312] [-2.5047738552093506:1.5883719921112061] [-2.0072333812713623:1.5865405797958374] [-1.6131480932235718:1.5868538618087769] [-1.6319060325622559:1.611059308052063] [-1.6864286661148071:2.4495923519134521] [-1.7459897994995117:2.6529664993286133] [-1.8207311630249023:2.5047237873077393] [-1.9280952215194702:1.7488086223602295] [-2.1567583084106445:1.6308574676513672] [-2.3918964862823486:1.6220458745956421] [-2.6616356372833252:1.6080794334411621] [-2.9761693477630615:1.9341119527816772] [-3.3320021629333496:2.598928689956665] [-3.8750591278076172:3.4483489990234375] [0:1] [0:1] [0:1] [0:1] [0:1] [0:1] [0:1] [0:1] [0:1]
tree_sizes=4568 6415 5930 4269 4837 5002 5182 5143 5190 4858 4730 5169 4712 5165 4843 5080 4607 5016 5099 4005 5020 4825 4332 4720 4202 5104 4956 4623 4854 4736 4947 4741 4839 5055 5229 4846 4621 4856 5036 4864 4979 4353 4868 4918 4883 4221 5115 4768 4098 4775 5302 4141 4785 4263 4657 4350 4771 4250 4666 4996 6183 6038 6924 6015 6149 5896 4004 6909 6562 6942 5812 5482 4566 6188 6818 6090 6160 6424 5477 4772 5537 6357 6444 6417 6953 6940 6307 6159 5944 6498 5421 6092 5828 6611 6967 6894 6196 6731 6373 6034 6622 6612 6944 6998 6139 6565 6991 6151 6250 6810 6946 6753 6709 5281 6064 5564 5712 6174 6811 6350 6916 6445 6765 6888 6849 6718 6572 6655 5532 5685 6957 5867 6487 6194 5979 6725 6121 6845 5607 5704 6578 6577 6741 6930 5094 6028 6565 6832 5820 5386 6717 6816 6912 6402 6635 6945 6411 5325 6319 6190 6374 6570 6118 5736 6091 6804 6665 5700 6264 6912 6206 6950 6833 5913 6848 6908 4414 6755 6413 5898 5817 6579 5847 6467 6139 6723 5784 6090 6402 6949 6686 6729 6199 6897 5798 6495 6577 6787 4540 6569

Tree=0
num_leaves=42
num_cat=0
split_feature=4 135 130 32 132 105 114 107 78 106 90 113 70 55 31 15 106 106 30 97 125 114 70 97 112 19 96 82 1 32 104 130 128 73 30 20 33 33 67 54 0
split_gain=190450 48188.9 30021 35028.8 16307.3 19626.1 18722.9 12832.1 7980.85 5158.2 4364.76 3353.59 3053.28 2983.19 2943.91 2677.1 2518.7 2223.82 2177.79 2218.94 2032.54 1600.35 1528.05 1715.37 1189.87 1078.61 921.173 621.206 620.77 564.363 522.641 514.068 366.155 191.889 171.912 57.7866 16.6709 0.764116 1.115 0.516582 3.55271e-15
threshold=0.86222824454307567 1.0000000180025095e-35 1.0000000180025095e-35 0.95939016342163097 1.0000000180025095e-35 -0.84792745113372792 -1.0152403712272642 -0.87846255302429188 -1.1683404445648191 -0.89047011733055104 -1.1163216233253477 -0.91347452998161305 -0.20826262235641477 1.0489007830619814 0.99386706948280346 0.88724634051322948 -0.89784023165702809 -0.96631571650505055 1.1033576130867007 -0.99017995595931996 -0.39156544208526606 -0.92979916930198658 -0.49492926895618433 -0.96910473704338063 -1.0679301619529722 1.0697375535964968 -1.0488167405128477 -1.1826043725013731 0.56897655129432689 0.96461483836174022 -0.90304040908813465 1.0000000180025095e-35 1.0000000180025095e-35 -0.45670934021472925 1.0607424974441531 0.93759089708328258 0.77517658472061168 0.76972517371177684 0.044713858515024192 0.75126060843467724 0.70621231198310863
decision_type=2 2 2 2 2 2 2 2 2 2 2 2 2 2 2 2 2 2 2 2 2 2 2 2 2 2 2 2 2 2 2 2 2 2 2 2 2 2 2 2 2
left_child=1 2 3 4 6 -6 -1 16 14 10 18 22 15 -10 -5 -9 29 33 19 -3 31 -19 27 -24 -18 -14 -20 -11 -13 -4 -30 32 34 -12 40 -22 37 39 -39 -37 -2
right_child=20 9 7 8 5 -7 -8 12 13 11 17 28 25 -15 -16 -17 24 21 26 -21 35 -23 23 -25 -26 -27 -28 -29 30 -31 -32 -33 -34 -35 -36 36 -38 38 -40 -41 -42
leaf_value=-1.8710995611149768 -2.6243748350759386 -2.1336167960893651 -1.401076313819555 -2.1972561353384461 -2.5442584897809959 -2.0067670182489268 -2.0982154605714558 -1.4110050205352733 -2.1321180426815105 -1.3316483796371712 -1.4317254318707489 -1.4045962420068718 -1.42098815932106 -1.573126523415953 -2.4592416950797689 -1.9393449211056892 -1.4244295532335005 -1.7537039825565404 -2.624374835075939 -1.8421973464489887 -2.624374835075939 -1.4839332140031767 -1.8055065581491077 -1.5125203919938601 -1.7086317411353735 -2.4860275642227814 -1.4915737853668014 -2.0413036911655142 -1.5807185634970995 -2.2857077723445616 -2.3306344183659506 -1.1972393445361875 -1.2159445662073987 -1.1900961525850238 -1.7867988099859513 -1.1780305911505919 -1.2716665344751004 -1.2159445662073987 -1.1780305911505919 -1.1953414595890317 -2.624374835075939
leaf_weight=7357.8540948629379 2.1433349847793677 499.58866202831268 522.31446897983551 507.34603279829025 1236.4702261686325 1507.717106461525 7163.7783696651459 100.01098275184631 432.66477131843567 386.02302998304367 158.85227590799332 10.151583671569822 10.2898633480072 122.50190258026123 2774.4844226837158 2335.434990644455 169.23773777484894 2294.0092639327049 7.6053822040557852 547.75404322147369 0.27655935287475486 243.2146692276001 263.1176655292511 830.81761789321899 1137.2007815241814 125.30610918998718 127.89307361841202 12.742202639579771 10.678243696689604 7.3126003742218009 71.663830935955048 5.2059602737426749 2.6375500559806815 41.440262675285339 2.9567905664443961 3262.7371132969856 19.223388612270355 13.18775027990341 18.835008263587952 17.330154299736023 12.168611526489256
leaf_count=55471 31 4972 1681 5346 16973 13247 68964 331 4300 996 556 33 35 588 35917 19072 581 14819 110 3984 4 968 1825 3525 6875 1653 518 116 52 83 843 7 4 53 20 3811 39 20 22 23 176
internal_value=-2.5163 -1.97864 -2.03655 -2.08612 -2.02539 -2.24895 -1.98314 -1.79916 -2.35942 -1.71033 -1.77188 -1.55811 -1.94336 -2.00877 -2.41874 -1.91765 -1.59724 -1.70252 -1.9324 -1.98121 -1.18569 -1.72784 -1.5219 -1.58299 -1.67182 -2.40521 -1.55516 -1.35432 -2.14242 -1.41329 -2.23338 -2.08197 -2.31335 -1.38173 -2.48096 -1.17893 -1.17881 -1.17827 -1.19364 -1.17812 -2.62437
internal_weight=0 31015.5 25509.9 21102.8 17265.8 2744.19 14521.6 4407.11 3837 5505.55 3920.36 1585.19 2571.04 555.167 3281.83 2435.45 1836.07 2737.52 1182.84 1047.34 3356.7 2537.22 1492.7 1093.94 1306.44 135.596 135.498 398.765 92.4937 529.627 82.3421 25.1122 19.9063 200.293 17.2687 3331.59 3331.31 3312.09 32.0228 3280.07 14.3119
internal_count=268644 264487 231117 200806 154655 30220 124435 30311 46151 33370 25980 7390 21091 4888 41263 19403 9220 16396 9584 8956 4157 15787 6462 5350 7456 1688 628 1112 928 1764 895 238 231 609 227 3919 3915 3876 42 3834 207
is_linear=0
shrinkage=1


Tree=1
num_leaves=59
num_cat=0
split_feature=32 0 32 132 130 80 136 108 35 105 109 72 131 31 107 58 31 47 108 53 26 56 70 60 55 112 62 105 79 71 37 0 71 60 105 136 5 107 109 30 105 104 70 105 74 76 115 32 23 67 86 51 108 4 0 80 84 39
split_gain=14485.6 10309.3 8205.42 10002.8 5585.29 5714.5 5224.85 5477.71 4614.95 3400.65 3238.17 4974.11 2689.69 2537.18 2339.15 2047.5 2011.48 1867.98 1730.59 1564.07 1529.24 1377.28 1675.58 1611.96 1355.99 1313.97 1259.87 1098.91 930.605 857.704 840.696 632.382 1420.42 582.428 501.515 498.066 481.55 470.81 462.608 457.051 382.255 281.174 274.003 217.027 188.206 131.115 117.638 101.122 83.8587 73.3293 65.3333 54.6336 28.903 25.533 25.4321 23.2699 5.3108 0.00130122
threshold=0.95697873830795299 -0.23979804664850232 0.86067304015159618 1.0000000180025095e-35 1.0000000180025095e-35 -1.2129478454589842 1.0000000180025095e-35 -0.84966555237770069 0.90869200229644786 -0.85133871436119068 -1.1323121190071104 -0.34022250771522516 1.0000000180025095e-35 0.99758559465408336 -0.8943141996860503 0.91139140725135814 0.99257838726043712 1.1936433315277102 -1.0583544373512266 1.2006999254226687 1.2471496462821963 0.95742541551589977 -0.25373631715774531 0.7664332687854768 0.98887223005294811 -0.99139896035194386 0.61425125598907482 -0.81487473845481861 -1.2452613115310667 -0.48499961197376246 0.93434461951255809 -0.28346435725688929 -0.20068169385194776 0.72116112709045421 -0.8352680206298827 1.0000000180025095e-35 0.61038869619369518 -0.96668076515197743 -0.93208190798759449 1.062646806240082 -0.87085834145545948 -0.81819209456443776 -0.34027321636676783 -0.84189933538436879 -0.5899791121482848 -0.45600569248199457 -1.4169580340385435 0.95939016342163097 1.0169382095336916 0.11924146115779878 -0.77353987097740162 1.1913742423057558 -0.91773083806037892 -0.051744099706411355 -0.14420778304338452 -0.61926287412643422 -0.33889287710189814 0.5573081672191621
decision_type=2 2 2 2 2 2 2 2 2 2 2 2 2 2 2 2 2 2 2 2 2 2 2 2 2 2 2 2 2 2 2 2 2 2 2 2 2 2 2 2 2 2 2 2 2 2 2 2 2 2 2 2 2 2 2 2 2 2
left_child=1 19 10 6 5 13 8 -8 -4 40 46 14 25 15 -12 16 -2 -13 -11 31 21 29 26 -24 36 27 -23 -7 35 33 -30 50 44 -6 43 -15 39 -34 -17 -22 -5 -31 -38 -26 -33 55 54 -27 57 -36 -1 52 -14 -52 -3 -21 -57 -47
right_child=4 2 3 9 20 12 7 -9 -10 18 11 17 51 28 -16 38 -18 -19 -20 45 24 22 23 -25 34 47 -28 -29 30 41 -32 32 37 -35 49 -37 42 -39 -40 -41 -42 -43 -44 -45 -46 48 -48 -49 -50 -51 53 -53 -54 -55 -56 56 -58 -59
leaf_value=0.43358564445271863 0.43378203698176138 -0.1125312063864056 0.2979250706139655 -0.078851375020938946 0.025771718987565376 0.35922166215662077 0.4042609910461028 0.83441068567366239 0.41163239944056107 -0.099993825255334123 0.31110895146191031 0.044052233436252176 -0.10334798143928557 -0.0084906025198063766 0.41813456843019625 0.5495964651061177 0.16478212814461601 0.69249490573551808 0.36008661485569138 0.37889694426649401 0.013238798262623889 0.33290878765310195 -0.016394135524805602 0.30031766544153127 0.51979826353908709 0.6959710166511055 0.63216317010460299 -0.058430975437356619 0.34018490204176072 0.12248158745835239 0.081747223891484339 0.48383838706134363 -0.11337851290872669 0.74893947661961546 0.77490041659097664 0.088809131865480617 0.31818646689199553 0.54133873919393616 -0.059343408954500833 0.44386694408941091 0.059954298290763541 -0.0786084258394045 -0.012854283861579352 0.12886807831626323 -0.080408956342884474 -0.11676161571748733 0.41965506677491571 0.94891473128004877 0.44885166601217358 0.59701275810590515 -0.11315898978008064 0.37486125851616059 0.14394751074027251 -0.052196213693338961 0.0081279955577805603 0.48471268556838931 0.54999989843396058 -0.11384523189989121
leaf_weight=2.2702392116188994 426.84134721755981 111.44590923190117 23690.800129711628 725.84015356004238 17.670423030853271 1246.2572397217155 3252.0494236424565 325.69549622386694 4202.5249404087663 100.99761064350605 2509.825399748981 47.199315302073956 141.31849769502878 1887.9931006655097 10958.686847917736 13.04254539310932 797.05745216459036 755.84027996659279 429.16553263366222 17.306352496147156 28.377391710877419 361.80533289909363 200.58972601592541 808.19933393597603 205.73407658934593 44.266051523387432 230.19162838160992 66.352803304791451 175.48789478093386 140.50112868845463 445.19434545189142 6.1038748770952216 13.09627805650234 30.120533347129822 107.21780097484589 729.32238503545523 42.725745841860771 68.080263763666153 287.05130591243505 187.47840866446495 273.02683654427528 137.66181027889252 60.2771036028862 15.253761097788809 187.52601188421249 2.3690702915191633 4.6214344501495352 24.582097455859184 4.3584178239107132 29.562621235847473 457.17714761197567 2.5164504498243323 4.8897114098072043 80.852724455296993 20.715844310820103 28.546368740499016 22.109801739454273 4.319027453660965
leaf_count=13 2462 1165 114164 10558 138 6228 17024 512 15590 1068 11290 386 1501 22608 10986 46 7778 1622 2379 39 193 1666 1592 4138 394 56 418 601 1257 921 4795 5 127 35 99 7836 186 242 3086 542 3623 1197 467 103 1746 20 17 91 11 68 4455 9 53 728 221 33 14 42
internal_value=0 0.338659 0.345004 0.317514 0.199796 0.148827 0.329649 0.443419 0.315057 0.0677379 0.407965 0.412606 0.316944 0.0948054 0.398191 0.201202 0.258597 0.654382 0.27244 0.00225593 0.322984 0.277565 0.315717 0.237342 0.452316 0.360445 0.449271 0.338109 0.0447289 0.0902007 0.154816 -0.0389218 0.0845838 0.481552 0.585961 0.0186222 0.302363 0.435713 -0.0328779 0.387255 -0.0409107 0.0229629 0.124462 0.492814 -0.062622 0.427071 -0.0762766 0.786284 0.107542 0.736453 -0.101739 -0.0871261 -0.0950776 -0.103998 -0.0936183 0.479007 0.513208 -0.114878
internal_weight=0 48302.6 47408.4 33000.1 8895.54 6292.17 31471.1 3577.74 27893.3 1529.03 14408.3 14271.6 1530.18 4761.99 13468.5 1523.99 1223.9 803.04 530.163 894.116 2603.37 1926.74 1600.79 1008.79 676.627 1381.46 591.997 1312.61 3238 325.954 620.682 815.107 274.806 47.791 357.768 2617.32 318.859 81.1765 300.094 215.856 998.867 278.163 103.003 220.988 193.63 79.009 136.783 68.8481 11.0465 136.78 540.3 148.725 146.208 538.03 132.162 67.9625 50.6562 6.6881
internal_count=268644 198080 190605 164918 70564 58407 147290 17536 129754 17628 25687 24284 8539 49868 22276 13372 10240 2008 3447 7475 12157 10105 7814 5730 2052 6976 2084 6829 36496 2291 6052 7316 2120 173 664 30444 1388 369 3132 735 14181 2118 653 497 1751 159 1403 147 73 167 5196 1563 1554 5183 1386 86 47 62
is_linear=0
shrinkage=0.1


Tree=2
num_leaves=54
num_cat=0
split_feature=35 32 132 0 31 130 130 107 129 129 127 3 68 60 72 30 132 98 131 84 70 102 106 131 129 38 57 70 60 0 73 113 104 104 71 115 112 125 109 29 4 130 71 32 74 86 105 54 30 107 104 49 0
split_gain=9402.49 4450.96 3768.35 3508.79 3731.94 4263.88 3051.08 2679.4 5453.09 3799.88 2570.7 1630.64 1524.6 1438.39 1021.52 892.996 695.218 681.303 670.06 556.409 457.916 410.357 385.154 489.564 339.446 291.988 290.014 263.61 402.13 165.109 325.552 112.912 162.7 107.883 74.0306 70.2512 65.8923 63.5494 43.2059 36.4953 24.6048 17.9806 28.8359 0.0803203 0.0482095 0.017751 0.0137067 0.00222775 0.00814732 0.00118579 4.09918e-06 3.39778e-07 2.84217e-14
threshold=0.80991587042808544 0.96360594034194957 1.0000000180025095e-35 -0.25923068821430201 0.99734172224998485 1.0000000180025095e-35 1.0000000180025095e-35 -0.98591360449790943 1.0000000180025095e-35 1.0000000180025095e-35 -1.9687542915344236 0.7731800675392152 0.0049221795052289971 1.0000000180025095e-35 -0.48820394277572626 1.1062218546867373 1.0000000180025095e-35 -0.96806442737579335 1.0000000180025095e-35 -1.3017352819442747 -0.19878328591585157 -0.73746049404144276 -0.85416018962860096 1.0000000180025095e-35 1.0000000180025095e-35 0.98699232935905468 0.92961454391479503 -0.26851275563240046 0.73935267329216015 -0.28346435725688929 -0.38020372390747065 -1.0014814734458921 -0.94623798131942738 -0.76452928781509388 -0.66508269309997547 -0.99633345007896412 -0.93293520808219899 -0.39156544208526606 -0.8540857434272765 1.2357674837112429 -0.051744099706411355 1.0000000180025095e-35 -0.27466081082820887 0.86067304015159618 -0.7426159381866454 -0.77353987097740162 -0.84675359725952137 0.68596395850181591 1.062646806240082 -0.8943141996860503 -0.8788195252418517 0.90076142549514782 0.53816890716552745
decision_type=2 2 2 2 2 2 2 2 2 2 2 2 2 2 2 2 2 2 2 2 2 2 2 2 2 2 2 2 2 2 2 2 2 2 2 2 2 2 2 2 2 2 2 2 2 2 2 2 2 2 2 2 2
left_child=2 3 11 16 7 10 14 8 -5 -9 -6 13 -7 34 22 17 41 -15 -17 27 26 24 23 -3 -16 -24 -21 28 -8 40 -31 32 38 -22 45 -29 39 -38 -13 -33 -18 42 -2 46 -23 -1 47 48 -4 -49 51 -45 -53
right_child=1 6 43 4 5 12 19 9 -10 -11 -12 31 -14 15 21 18 29 -19 -20 20 33 44 25 -25 -26 -27 -28 35 -30 30 -32 36 -34 -35 -36 -37 37 -39 -40 -41 -42 -43 -44 50 -46 -47 -48 49 -50 -51 -52 52 -54
leaf_value=-0.11973238076237575 0.33353919621887107 0.1198423213127081 -0.11116629018545821 0.1331098883179038 0.24484102485669024 0.29868192331443139 -0.03828865484258008 0.26502824520245877 0.53622576444470382 0.094209870200547927 0.12930985000793821 -0.12137545587059502 0.14723207822109921 0.21621363990841741 0.057403550325997046 0.37453739346663772 -0.11201867824353462 0.27086338407877086 -0.11672016126485306 0.20227190644416343 -0.066720145268051798 -0.11315283478242551 -0.067991018986847049 -0.068111376160957679 0.4583218137636933 0.022310579550066913 0.31287541942001806 0.24041994255160445 0.43887902636210535 -0.11296727441362786 0.19526793378380994 0.30312587672108066 0.38311744788248192 0.44786777213064166 0.50457516777776068 -0.033781513626216009 0.20291117609291887 0.31404264332161813 0.29256454814186517 0.46584658736722578 -0.049247943198660979 0.35030265135677752 0.11107671277954659 -0.10720521010051474 -0.12970351510316971 -0.11101773644271676 -0.11726311978529305 -0.11073407406681286 -0.11785799997540235 -0.11181334906592383 -0.10743683339618899 -0.10725767964421735 -0.10725767964421735
leaf_weight=2.390319660305976 13.288081914186479 606.40899679064751 13.237387247383593 3940.4005182720721 2360.0899122133851 3257.8080220222473 31.751153938472271 19979.642592273653 366.80772458016872 1393.0690627023578 10470.945079661906 16.454029761254787 835.06359419226646 3146.6414874196053 27.317964933812618 877.01588293910027 314.08614175021648 8294.2079356238246 28.672571331262589 385.09921076893806 50.78873748332262 18.754312574863437 545.33580791205168 179.63415345549583 93.054889798164368 1042.7756427079439 616.75790327042341 10.141232803463934 39.799712032079697 75.135744579136372 62.993437997996807 20.030496075749397 14.683589980006216 4.4294461011886588 1.9883119761943806 118.7951116040349 51.710309639573097 10470.537604831159 2.9779113829135921 44.19300102442503 77.942392580211163 32.878099128603935 10.37673147022724 1.2532521411776532 1.9422137588262547 105.4709397777915 3.5061220079660407 131.12817826867104 2.109381988644599 11.03667466342449 1.285608299076556 21.008028544485569 60.12207568436861
leaf_count=19 16 4631 147 23684 9086 8678 245 69209 264 8372 63996 117 3974 12043 143 1587 3281 23067 234 1552 468 194 7167 2237 86 11227 1603 34 78 751 316 39 30 26 4 900 167 3922 9 69 731 15 43 20 11 1182 29 1500 18 117 20 333 953
internal_value=0 0.202923 0.2806 0.212022 0.215367 0.178909 0.0987608 0.239394 0.16744 0.253894 0.15056 0.28474 0.267782 0.260194 0.0351732 0.2634 -0.0308629 0.255833 0.358985 0.225941 0.254909 0.296614 0.0196387 0.0768893 0.367336 -0.00869776 0.270361 0.0732048 0.227133 -0.0664129 0.0276026 0.313528 0.131895 -0.0254414 -0.100065 -0.0122147 0.314113 0.313497 -0.0579399 0.415096 -0.0995387 0.30246 0.235992 -0.109773 -0.114706 -0.111211 -0.111079 -0.110941 -0.112086 -0.110818 -0.10726 -0.107257 -0.107258
internal_weight=0 46963.3 23321.7 43190.5 42603.8 16923.9 3772.79 25679.9 4307.21 21372.7 12831 23077 4092.87 12456.4 2515.22 12346.5 586.701 11440.8 905.688 1257.56 1057.08 141.069 2374.15 786.043 120.373 1588.11 1001.86 200.487 71.5509 530.158 138.129 10620.6 34.1155 55.2182 109.85 128.936 10586.5 10522.2 19.4319 64.2235 392.029 56.5429 23.6648 244.687 20.6965 107.861 161.018 157.512 15.3468 142.165 83.669 82.3834 81.1301
internal_count=268644 223018 45626 192416 187263 85734 30602 101529 23948 77581 73082 42489 12652 38136 25696 36931 5153 35110 1821 4906 3649 434 25262 6868 229 18394 3155 1257 323 5079 1067 4353 156 494 1205 934 4197 4089 126 108 4012 74 59 3137 205 1201 1811 1782 165 1617 1326 1306 1286
is_linear=0
shrinkage=0.1


Tree=3
num_leaves=39
num_cat=0
split_feature=4 135 102 136 111 130 108 109 76 94 106 87 30 30 52 96 74 33 31 75 53 85 115 93 76 113 97 22 127 26 128 106 33 25 33 30 30 107
split_gain=7600.1 3699.83 2872.24 2534.15 3821.12 4364.97 2356.2 1562.25 987.596 589.031 421.441 702.692 474.533 391.554 294.505 247.059 346.682 252.437 222.59 198.162 153.675 126.984 74.0674 64.5066 35.2074 155.999 22.3952 5.99289 5.08096 62.6456 115.61 3.86576 1.4065 0.102994 0.0627914 0.0492771 0.00733178 0.000229902
threshold=0.86222824454307567 1.0000000180025095e-35 -0.57703179121017445 1.0000000180025095e-35 -0.96328252553939808 1.0000000180025095e-35 -1.0583544373512266 -0.86500138044357289 -1.2115615606307981 -1.0846711397171018 -0.89659059047698964 -1.1518469452857969 1.0923364162445071 1.1012237071990969 1.0814365744590761 -1.0224970579147337 -1.0080200433731077 0.85627645254135143 0.99953174591064464 -1.1330379247665403 1.2006999254226687 -0.80567440390586842 -1.4529920816421507 -1.1064442396163938 -1.0623977184295652 -0.89267536997795094 -1.0081521868705747 0.93252414464950573 1.0000000180025095e-35 1.2012248635292055 1.0000000180025095e-35 -0.89721512794494618 0.77517658472061168 1.4472780227661135 0.76972517371177684 1.062646806240082 1.1033576130867007 -0.8933906853199004
decision_type=2 2 2 2 2 2 2 2 2 2 2 2 2 2 2 2 2 2 2 2 2 2 2 2 2 2 2 2 2 2 2 2 2 2 2 2 2 2
left_child=1 2 3 4 6 -6 -1 8 -5 18 11 13 -13 -11 -9 17 -17 -12 23 36 21 -4 -23 26 27 33 -3 -2 29 30 -29 -31 34 -26 -30 37 -20 -35
right_child=24 9 20 7 5 -7 -8 14 -10 10 15 12 -14 -15 -16 16 -18 -19 19 -21 -22 22 -24 -25 25 -27 -28 28 32 31 -32 -33 -34 35 -36 -37 -38 -39
leaf_value=0.061186983817161859 -0.11439412113177833 -0.11941087956158863 0.46096593075469522 -0.020127561005243377 0.078188009588821633 0.1766824636338723 0.18180006607897473 0.34465176860106567 0.2010434473147388 0.1281949353166679 0.07644800913980751 0.20043684594299327 0.26481744504791649 0.23350430958730883 0.061884529693457348 0.26708143742808627 0.21803828997597879 0.39833859338260175 -0.11963656941824785 0.44759346581633191 0.21947522217175047 -0.011503211049196565 -0.10930425477251104 0.19961547617356115 -0.13694792231994873 0.25521841215962127 0.073078484184916373 -0.13375511680777749 0.2562004839903026 0.30253339933455153 0.25618223597622952 0.25594959888259111 0.27151306962688432 -0.10895535405343025 0.2586163518529187 -0.12573977111706963 -0.11365169878109611 -0.10994619356886669
leaf_weight=1735.3066683225334 0.43692126870155235 79.735468909144402 4.2039368152618399 208.30715661495924 12044.088075645268 7182.7697700709105 24302.958057314157 885.14807951450348 6557.5921418070793 1696.3409586697817 167.32938702404499 4515.2626045793295 1533.7668926790357 445.86749719083309 38.431964673101902 2384.9988251999021 3643.0191263929009 28.515144556760788 6.696620240807535 17.34992677718401 16.974241130053997 95.377343438565731 411.64213564246893 7.5708515495061866 2.0599383860826483 62.129589132964611 6.5399993211030951 12.042083784937857 10979.431018829346 19.247941255569458 20.627493143081665 239.14251925051212 60.499228477478027 4.3384082168340647 108.65007925033569 2.3268664777278891 2.9480165466666222 5.0881424769759196
leaf_count=11966 4 605 2 1280 77843 23044 82943 1210 27276 6659 845 11111 2595 771 159 3850 6694 56 51 33 33 849 4512 29 13 25 43 87 3726 13 7 89 21 58 37 15 28 62
internal_value=0 0.167656 0.155497 0.157811 0.148795 0.114984 0.173762 0.210887 0.194234 0.212392 0.214235 0.199331 0.216761 0.150113 0.332885 0.233851 0.237442 0.123316 -0.00746919 0.245587 -0.0765397 -0.0863683 -0.0909065 -0.0802598 0.255502 0.187638 -0.104819 0.255952 0.255967 0.242923 0.11245 0.25942 0.256307 -0.116322 0.256224 -0.112707 -0.117807 -0.10949
internal_weight=0 68018.7 53482.8 52954.6 45265.1 19226.9 26038.3 7689.48 6765.9 14535.9 14415.1 8191.24 6049.03 2142.21 923.58 6223.86 6028.02 195.845 120.841 26.9946 528.198 511.223 507.019 93.8463 11516 75.9429 86.2755 11440.1 11439.6 291.06 32.6696 258.39 11148.6 13.8134 11088.1 11.7534 9.64464 9.42655
internal_count=268644 264487 231117 225721 195796 100887 94909 29925 28556 33370 32581 21136 13706 7430 1369 11445 10544 901 789 112 5396 5363 5361 677 4157 173 648 3984 3980 196 94 102 3784 148 3763 135 79 120
is_linear=0
shrinkage=0.1


Tree=4
num_leaves=44
num_cat=0
split_feature=4 32 92 31 132 72 130 76 130 133 106 72 69 99 53 69 114 76 103 135 129 70 4 70 62 59 32 85 88 114 127 26 128 106 33 79 25 25 30 32 103 53 93
split_gain=7133.58 2705.56 2043.12 1971.5 1826.65 5211.75 1774.75 1841.09 1665.48 1212.68 1080.82 590.874 395.2 532.185 427.722 430.159 269.508 457.839 234.202 204.258 191.59 189.211 167.868 293.489 95.8322 65.2503 47.5395 45.3497 24.0805 116.203 4.49437 46.2493 93.0261 1.00706 0.612224 0.39279 0.181901 0.0711138 0.0374469 0.0298057 0.0189933 0.00751875 0.000581553
threshold=0.86222824454307567 0.96360594034194957 -0.26955907046794886 0.99616131186485302 1.0000000180025095e-35 -0.39448007941246027 1.0000000180025095e-35 -1.1278947591781614 1.0000000180025095e-35 1.0000000180025095e-35 -0.84701126813888539 -0.48820394277572626 -0.062895502895116792 -0.78582787513732899 1.0770978927612307 -0.10518553107976912 -0.93897360563278187 -1.1962317228317259 -0.75112497806549061 1.0000000180025095e-35 1.0000000180025095e-35 -0.19259978830814359 -0.051744099706411355 -0.078804459422826753 0.63435685634613048 0.85675466060638439 0.96895429491996776 -0.80567440390586842 -1.1263985633850095 -0.95750960707664479 1.0000000180025095e-35 1.2012248635292055 1.0000000180025095e-35 -0.87782108783721913 0.77517658472061168 -1.6232996582984922 1.3029270768165591 1.4472780227661135 1.062646806240082 0.82593497633934032 -0.7420784831047057 0.75998446345329296 -1.0210390090942381
decision_type=2 2 2 2 2 2 2 2 2 2 2 2 2 2 2 2 2 2 2 2 2 2 2 2 2 2 2 2 2 2 2 2 2 2 2 2 2 2 2 2 2 2 2
left_child=1 2 3 4 9 -6 7 -5 11 -1 -8 16 14 25 15 -10 17 -3 20 22 -13 -15 27 -24 -16 -14 -18 -4 30 37 31 32 35 -33 39 -2 -35 -30 42 41 -20 -32 -39
right_child=28 8 19 6 5 -7 10 -9 12 -11 -12 18 13 21 24 -17 26 -19 40 -21 -22 -23 23 -25 -26 -27 -28 -29 29 -31 34 33 -34 36 -36 -37 -38 38 -40 -41 -42 -43 -44
leaf_value=0.17073165602054841 -0.15012705734141665 0.27212955490502505 0.30119184912852048 0.077829447127242643 -0.066710720862143386 0.16631231198360641 0.19678301053874409 0.14105114295060736 0.16847553010670857 0.12568422660248532 0.10054684679005549 0.020458319186447173 -0.07587748939787986 0.25994953042783159 0.18886191655578824 -0.013428285319527292 -0.090342447938935894 0.0084370082017707574 -0.11933155764432253 0.25385108841658899 0.29226671597076198 -0.03168109606930708 -0.10199227289900069 0.17195060687644337 0.26744101594635783 0.059048465651813375 0.014521289491100549 -0.10675674583668487 -0.13274198208749266 0.21958020808195028 0.22089106319787707 0.23873472784645078 0.2208852041539916 0.21453276147003697 0.23073161315129775 -0.11323256716158206 0.22149749528435311 -0.11046064005215916 -0.12344021239241516 0.22305978388080583 -0.11302384253323983 0.22156372304333943 -0.10835069234167422
leaf_weight=33192.359834231436 5.1495402306318265 67.858306176960468 2.7462415695190421 10462.536317303777 1376.4659893885255 3170.8374814540148 4088.4446498602629 8229.1607139110565 406.47021386027336 7288.0881816223264 1633.1973938792944 32.870129659771919 170.66102506220341 112.84495840966702 305.28762469440699 191.12890640646219 317.03507047891617 2218.3014853224158 7.0607342123985317 20.856937646865845 122.86982626467943 27.71055169403553 87.639658942818642 70.623861879110336 315.69493420422077 45.370586685836315 50.057954132556915 351.98524575680494 1.9198993444442738 62.076796352863312 11317.771459341049 33.108931064605713 21.475967168807983 46.903451427817345 63.855820655822754 6.5635925009846687 187.03381395339966 1.6211975663900329 2.1946349591016761 64.310441255569458 14.737944729626177 168.6468403339386 6.7254773676395443
leaf_count=82567 24 558 1 55665 14761 11123 7875 27083 1146 23314 6014 151 1043 141 637 1098 3945 20159 58 9 72 196 822 291 409 236 600 4360 13 33 3689 13 7 22 21 68 61 20 15 21 153 55 95
internal_value=0 0.13718 0.141966 0.143464 0.155871 0.0957764 0.120581 0.105663 0.0611737 0.162621 0.169313 0.015311 0.143595 0.0509997 0.170691 0.110298 0.00349279 0.016264 0.19193 -0.052917 0.234899 0.202454 -0.0653893 0.0202526 0.22881 -0.0475406 -0.0760429 -0.103599 0.2203 0.163639 0.220655 0.208575 0.0972435 0.222411 0.220967 -0.129453 0.220101 -0.115041 -0.111817 0.220913 -0.115067 0.220901 -0.108761
internal_weight=0 74380.9 69974.9 69441.1 45027.8 4547.3 24413.3 18691.7 4405.96 40480.4 5721.64 2830.79 1575.17 356.587 1218.58 597.599 2653.25 2286.16 177.539 533.852 155.74 140.556 512.995 158.264 620.983 216.032 367.093 354.731 11989.4 74.538 11914.8 300.235 33.1891 267.046 11614.6 11.7131 233.937 12.4612 10.5413 11550.7 21.7987 11486.4 8.34667
internal_count=268644 264487 233885 228402 131765 25884 96637 82748 30602 105881 13889 25696 4906 1616 3290 2244 25262 20717 434 5483 223 337 5474 1113 1046 1279 4545 4361 4157 176 3981 195 99 96 3786 92 83 143 130 3765 211 3744 115
is_linear=0
shrinkage=0.1


Tree=5
num_leaves=46
num_cat=0
split_feature=4 135 110 113 132 37 113 48 97 74 95 93 29 24 123 104 30 106 108 113 105 110 109 51 2 74 129 126 101 40 100 78 114 127 26 128 27 33 27 79 25 30 33 54 93
split_gain=6891.34 2092.09 1609.25 1968.01 2026.16 2350.48 1866.4 1821.79 432.275 494.049 1075.43 378.969 366.079 344.153 336.26 285.378 277.036 273.602 417.231 319.748 230.729 229.307 210.155 397.985 160.366 151.807 141.174 96.8414 58.428 41.0895 41.0491 18.1551 91.6675 3.57531 34.293 75.4858 0.520304 0.303078 0.287139 0.264294 0.051564 0.026714 0.0166608 0.0139844 0.000425123
threshold=0.86222824454307567 1.0000000180025095e-35 -1.1970667243003843 -1.3536489605903623 1.0000000180025095e-35 0.93991512060165416 -1.0374903082847593 1.2201236486434939 -0.98352119326591481 -1.0015085339546201 -1.0060687661170957 -0.6500101089477538 1.2304594516754153 1.6495086550712588 -2.2685089111328121 -0.86402004957199086 1.0489452481269839 -0.89721512794494618 -0.91924428939819325 -0.91623497009277333 -0.9070589244365691 -1.1800103187561033 -1.1323121190071104 1.1631932854652407 0.67425084114074718 -1.0041818022727964 1.0000000180025095e-35 -1.146101653575897 -0.94102391600608815 1.0792285203933718 -0.82810598611831654 -1.146231412887573 -0.95750960707664479 1.0000000180025095e-35 1.2012248635292055 1.0000000180025095e-35 1.323096036911011 0.77517658472061168 1.2256067395210268 -1.6232996582984922 1.4472780227661135 1.062646806240082 0.76972517371177684 0.75126060843467724 -1.0210390090942381
decision_type=2 2 2 2 2 2 2 2 2 2 2 2 2 2 2 2 2 2 2 2 2 2 2 2 2 2 2 2 2 2 2 2 2 2 2 2 2 2 2 2 2 2 2 2 2
left_child=1 2 11 7 6 -6 -5 14 12 16 13 29 17 -11 -4 -12 25 18 -3 -19 -18 -9 26 -24 28 -10 -13 -26 -14 30 -1 33 40 34 35 39 38 42 -36 -2 -33 44 43 -35 -42
right_child=31 8 3 4 5 -7 -8 21 9 10 15 22 24 -15 -16 -17 20 19 -20 -21 -22 -23 23 -25 27 -27 -28 -29 -30 -31 -32 32 -34 37 36 -37 -38 -39 -40 -41 41 -43 -44 -45 -46
leaf_value=0.19765120895826921 -0.14322046863265742 0.17104990280981625 -0.12077988771006259 0.13484378810199119 -0.074514028270622951 0.10055510013509535 0.096766409770638925 -0.12743463969573057 -0.15730523992231746 0.010396224105142619 0.14302712962911929 -0.10567209682401962 -0.10586029924726931 0.16231789618367742 0.26731403560104811 0.18181149978343422 0.10932245542985584 0.15273262966730453 0.036530823352818952 0.049770899693517751 0.20310735670790617 0.09641607195923535 0.29423348360229268 -0.12291120745864925 0.18831716947002966 0.18049980491215736 0.16858973396886229 0.11846541906739877 0.15472149031425009 0.27598974542407156 -0.13812436496578076 -0.12908586536242675 0.19441143439590466 0.19692653716673633 0.18678759173435786 0.19692680615387556 0.20480962552736526 0.20379468406164591 0.196754282474388 -0.11187726012409945 -0.10938169676605053 -0.12077860387894353 0.19814675743248089 0.1984335342012965 -0.10749369781980554
leaf_weight=10.643911868333818 4.8723293393850309 295.74758894741535 22.70230396091938 19698.838211469352 1314.3352794498205 1841.2341712787747 37148.078520677984 142.47864157706499 35.087512359023094 730.80921179056168 6096.9951857924461 496.59016547724605 28.929686561226845 187.33489735424519 1345.0867658481002 2754.1824533492327 289.80261187255383 1218.0950040668249 1046.291651032865 400.88091540336609 2766.4442754685879 67.413432080298662 42.298728562891483 49.797664068639278 878.66842839121819 21.427463620901108 19.505397111177444 256.38893713802099 12.247430741786955 34.456216707825661 5.5337525308132163 1.7838496714830387 63.030019782483578 11475.942639350891 35.228680610656738 21.664419412612915 73.907622337341309 64.986554145812988 161.06293199956417 6.0072405785322189 1.4806488007307024 2.0272857993841171 114.52044486999512 61.90918231010437 6.131497636437417
leaf_count=15 24 627 208 49313 14036 8618 151097 1013 156 2420 11870 4649 126 286 1429 4024 660 2503 4110 1616 3225 218 38 404 1205 23 32 496 23 18 29 13 33 3708 19 7 24 21 53 68 20 15 37 20 95
internal_value=0 0.115363 0.106867 0.10853 0.105632 0.0276366 0.109961 0.218778 0.146432 0.155464 0.14441 -0.0485915 0.11831 0.0413938 0.260873 0.155095 0.190158 0.099562 0.066175 0.127238 0.194214 -0.055538 -0.070475 0.0686782 0.165506 -0.0292276 -0.0953066 0.172539 -0.0283547 0.214264 0.0827954 0.196402 0.147174 0.196707 0.185978 0.089 0.197658 0.196985 0.194966 -0.125914 -0.113468 -0.110578 0.196947 0.196935 -0.107861
internal_weight=0 79258.3 62239 61580.2 60002.5 3155.57 56846.9 1577.68 17019.3 12882.1 9769.32 658.826 4137.25 918.144 1367.79 8851.18 3112.76 2961.02 1342.04 1618.98 3056.25 209.892 608.192 92.0964 1176.23 56.515 516.096 1135.06 41.1771 50.6339 16.1777 12094.6 74.4533 12020.1 302.743 32.544 270.199 11717.4 196.292 10.8796 11.4233 9.63943 11652.4 11537.9 7.61215
internal_count=268644 264487 231117 225932 223064 22654 200410 2868 33370 22664 18600 5185 10706 2706 1637 15894 4064 8856 4737 4119 3885 1231 5123 442 1850 179 4681 1701 149 62 44 4157 176 3981 195 99 96 3786 72 92 143 130 3765 3728 115
is_linear=0
shrinkage=0.1


Tree=6
num_leaves=47
num_cat=0
split_feature=4 32 3 56 37 134 132 32 130 32 70 36 111 71 109 130 130 134 0 73 105 71 6 136 31 110 70 32 45 53 71 112 88 113 127 25 128 14 79 33 18 48 30 32 53 93
split_gain=6761.03 1894.99 1786.4 1621.5 1946.27 3710.13 2233.31 2069.53 1277.93 1109.53 974.41 1327.74 782.429 961.383 704.099 664.14 578.148 551.912 504.067 361.727 265.927 257.478 388.648 226.8 644.262 208.535 198.905 134.849 132.565 125.768 114.773 100.982 14.4769 74.3733 2.96052 26.9121 68.3915 0.277993 0.166732 0.163202 0.132667 0.0353972 0.020899 0.00918819 0.00201077 0.000298619
threshold=0.86222824454307567 0.95697873830795299 0.52721950411796581 1.0116264224052431 0.93825379014015209 1.0000000180025095e-35 1.0000000180025095e-35 0.94506561756134044 1.0000000180025095e-35 0.96647396683692943 -0.18307508528232572 0.95525527000427257 -1.2635523080825803 -0.25783868134021753 -1.1178406476974485 1.0000000180025095e-35 1.0000000180025095e-35 1.0000000180025095e-35 0.14901875704526904 -0.67221796512603749 -0.81652492284774769 -0.45472507178783411 0.6347491741180421 1.0000000180025095e-35 1.0083517432212832 -1.2006421685218809 -0.21161108464002606 0.94725617766380321 1.1026425957679751 1.0340542793273928 -0.36173085868358607 -1.0462734699249265 -1.1263985633850095 -0.95515903830528248 1.0000000180025095e-35 1.241457521915436 1.0000000180025095e-35 1.3286833167076113 -1.6232996582984922 0.77517658472061168 1.4276462197303774 0.87594759464263927 1.062646806240082 0.82593497633934032 0.75998446345329296 -1.0210390090942381
decision_type=2 2 2 2 2 2 2 2 2 2 2 2 2 2 2 2 2 2 2 2 2 2 2 2 2 2 2 2 2 2 2 2 2 2 2 2 2 2 2 2 2 2 2 2 2 2
left_child=1 3 9 4 5 6 -1 -7 14 10 11 -3 25 -14 30 23 19 -16 31 -11 -12 22 -17 28 -25 -6 -18 -20 -4 -23 -5 -10 34 41 35 36 38 -37 -2 43 -39 42 45 44 -36 -34
right_child=32 2 15 8 12 7 -8 -9 18 16 20 -13 13 -15 17 21 26 -19 27 -21 -22 29 -24 24 -26 -27 -28 -29 -30 -31 -32 -33 33 -35 39 37 -38 40 -40 -41 -42 -43 -44 -45 -46 -47
leaf_value=0.11250166420883678 -0.13751161287621702 0.094806285389218869 -0.061725478510310072 0.23821936705737679 -0.094481047247374744 -0.088197836792723069 -0.023760481174766326 0.058335752901219506 0.18938826433037306 -0.032819401495245183 0.11514197317207475 0.2116788050696323 0.13524087907780191 0.20982632182613858 0.046579396976953291 0.1371288239303112 0.11221799260205585 -0.10843315080595484 -0.042430286742685105 0.11338727720039286 -0.035710128049897906 0.23895677616322902 -0.010688830246896769 -0.039763976151817176 0.20731061870666673 0.22975348253738687 -0.047371024067613302 0.12009146450828433 0.0085243112478832241 -0.048294660650644972 -0.11432888778658677 0.017532786491109668 -0.10842195274228184 0.17592642571847592 0.17960433428723971 0.1866294270050762 0.17976929784037937 0.17410918237889669 -0.11231018158590611 0.18465805497171753 0.18017329740228333 -0.1252306787403378 -0.11898043224637377 0.18080846573053214 0.17995271429389087 -0.1067609572241633
leaf_weight=47104.379037842155 4.5820789188146573 6682.2650443017483 1366.4089064672589 9.4282609075307828 167.98374155908823 1359.3242615163326 1234.3322349525988 3312.6320120245218 693.23564119637012 1296.5653658360243 144.36674439907074 1137.519879899919 10050.190584547818 2087.0564376711845 2006.6023494638503 578.63937230408192 668.46313924342394 259.37679179012775 154.39598490297794 194.61792077869177 613.28043395280838 16.41347798705101 256.81315575540066 392.76609339565039 144.31538607925177 22.492232322692871 88.429131604731083 76.275154024362564 334.34831386059523 213.58167631179094 448.83154099434614 35.965430185198784 1.3509987927973242 62.680615119636059 11272.645901441574 58.124297380447388 24.451492786407471 46.66834944486618 6.1471551954746246 64.560346126556396 158.96027302742004 1.7600049898028363 1.8896651118993757 64.271178483963013 168.14589166641235 5.4437788948416719
leaf_count=118305 24 27633 11429 9 1669 7102 12025 13119 547 11671 303 2629 25122 2684 8011 1323 1642 1111 539 615 3956 29 1087 2792 712 27 545 154 3084 1114 3388 111 20 34 3689 19 8 20 72 21 52 15 15 21 55 92
internal_value=0 0.0986509 0.0652844 0.105481 0.109121 0.100798 0.109022 0.0157012 0.0409334 0.0849264 0.101316 0.111807 0.14491 0.148066 0.00597336 0.00091375 0.0223922 0.0288358 0.140154 -0.0137376 -0.00696584 0.0658975 0.0916906 -0.0300254 0.0266257 -0.056194 0.0935729 0.0113102 -0.0479152 -0.0277951 -0.107076 0.180912 0.179117 0.134759 0.17939 0.169565 0.0874101 0.180523 -0.123073 0.179644 0.178797 -0.112299 -0.109678 0.179616 0.179609 -0.107091
internal_weight=0 83151.3 14128.8 69022.5 65338.4 53010.7 48338.7 4671.96 3684.11 10825.5 8577.43 7819.78 12327.7 12137.2 2724.24 3303.29 2248.08 2265.98 959.872 1491.18 757.647 1065.45 835.453 2237.84 537.081 190.476 756.892 230.671 1700.76 229.995 458.26 729.201 11941.7 73.1251 11868.6 298.934 35.1807 263.753 10.7292 11569.6 205.629 10.4444 8.68444 11505.1 11440.8 6.79478
internal_count=268644 264487 70564 193923 180053 150551 130330 20221 13870 48994 34521 30262 29502 27806 12519 21570 14473 9122 1351 12286 4259 3553 2410 18017 3504 1696 2187 693 14513 1143 3397 658 4157 176 3981 195 104 91 96 3786 72 142 127 3765 3744 112
is_linear=0
shrinkage=0.1


Tree=7
num_leaves=47
num_cat=0
split_feature=4 135 136 130 31 56 106 114 31 105 31 131 31 81 51 70 75 107 92 73 47 30 90 31 71 108 71 90 6 102 70 107 77 114 127 25 128 29 25 13 33 25 30 33 54 93
split_gain=6649.67 1524.04 1309.8 1699.97 2939.32 1990.17 1257.04 1086.78 1006.75 1173.47 1104.25 599.843 361.925 527.435 391.397 356.281 350.293 340.377 398.424 446.113 402.339 391.246 337.751 276.818 275.085 189.437 180.119 164.792 130.852 118.012 86.6198 74.9025 12.0404 61.8098 2.48671 21.4242 57.6416 0.213491 0.120975 0.114677 0.0932608 0.0288256 0.0136501 0.00584102 0.00486682 0.000219475
threshold=0.86222824454307567 1.0000000180025095e-35 1.0000000180025095e-35 1.0000000180025095e-35 1.0064308047294619 1.0133122205734255 -0.84750103950500477 -0.92158001661300648 0.99669757485389721 -0.83807572722434986 1.0083517432212832 1.0000000180025095e-35 1.0016631484031679 -1.3985854983329771 1.0640038847923281 -0.22086020559072492 -1.1742556095123289 -0.88687011599540699 -1.0231748223304746 -0.87111976742744435 0.99176618456840526 1.0526077151298525 -1.1658419370651243 1.001769006252289 -0.57466369867324818 -0.87862873077392567 -0.43883110582828516 -1.1902375817298887 0.81531450152397167 -0.90825328230857838 -0.41568335890769953 -0.88553589582443226 -1.1102877855300901 -0.95750960707664479 1.0000000180025095e-35 1.241457521915436 1.0000000180025095e-35 1.1352682709693911 1.3038358688354494 1.2914759516716006 0.77517658472061168 1.4472780227661135 1.062646806240082 0.76972517371177684 0.75126060843467724 -1.0210390090942381
decision_type=2 2 2 2 2 2 2 2 2 2 2 2 2 2 2 2 2 2 2 2 2 2 2 2 2 2 2 2 2 2 2 2 2 2 2 2 2 2 2 2 2 2 2 2 2 2
left_child=1 2 3 4 5 -1 16 8 9 -4 -10 -6 13 -9 -14 -8 -5 18 19 21 -21 -3 25 26 -25 29 -20 -27 30 -19 -24 -30 34 41 35 36 39 38 -37 -2 43 -34 45 44 -36 -43
right_child=32 17 7 6 11 -7 15 12 10 -11 -12 -13 14 -15 -16 -17 -18 22 23 20 -22 -23 28 24 -26 27 -28 -29 31 -31 -32 -33 33 -35 40 37 -38 -39 -40 -41 -42 42 -44 -45 -46 -47
leaf_value=0.075726468133240854 -0.13178783290174473 -0.13785629680249004 0.090263899850097973 0.28973884273530542 0.0055359385137759487 -0.019709483972112491 0.073509303132093265 0.22245053869084233 0.036020630892659583 0.19746845272739855 0.19385397765627146 -0.083142432385203385 0.2567761917993226 0.078535501184279446 0.08144156888398657 -0.0043716808827628569 0.12305464592615233 0.091082633877724084 0.14304231659025379 -0.070241363361785325 0.066025390156343719 0.10356373328591689 0.16908440558650495 0.17556373068238729 0.029278754653452001 -0.093470521378086924 0.097959644498175708 0.17332258094907405 0.12598429005523565 -0.03480987221855382 0.12440474512544074 -0.16423241032717797 -0.12338707705286954 0.16191474920911331 0.16651469119551243 0.1609017957832963 0.1666444604453865 0.17224277822196521 0.16677997234387532 -0.11024157191297596 0.17038373288699293 -0.10756668449870072 -0.1164210766061234 0.16725142619255623 0.16742101985315783 -0.10607928399155123
leaf_weight=38152.153991315514 4.6934341266751272 67.708155587315559 2918.9417421072721 127.90093146264553 1939.154455691576 2317.8195636570454 4357.4049567878246 440.75819254666567 3242.263236194849 1570.3581535741687 513.474166482687 1257.3941370919347 730.79377807676792 603.1281439140439 154.1753208860755 678.91504823416471 8850.1832745373249 127.582160115242 4062.584840670228 264.6276088654995 1195.7778510451317 7833.0824690833688 1952.1276471912861 171.14887611567974 516.44783686101437 26.421619430184364 1133.4744901657104 187.08666887879372 16.222715049982071 178.83116711676121 557.9185691177845 19.682996064424515 1.5547405704855908 61.361844621598721 11014.542964458466 45.528112709522247 23.772906303405762 59.819539785385132 151.56994533538818 5.2148389518260956 63.044920921325684 1.2316567935049505 1.7172195091843603 110.13630890846252 59.568467855453491 5.0991380028426656
leaf_count=139698 28 288 7291 81 10037 12144 12369 240 15038 2151 1834 9000 1059 1744 570 2795 15066 351 5893 930 2744 16064 1591 222 1427 143 1978 241 21 639 752 86 13 33 3708 20 8 20 51 68 21 20 15 37 20 95
internal_value=0 0.0854383 0.0785296 0.0726946 0.062969 0.0702606 0.102998 0.111611 0.0958029 0.127764 0.0575992 -0.0293466 0.179184 0.1393 0.22623 0.0630107 0.125429 0.11104 0.104926 0.0921093 0.0413337 0.101495 0.141443 0.125317 0.0656904 0.0679951 0.133208 0.140307 0.156442 0.0176083 0.159153 -0.0331083 0.16606 0.124995 0.166312 0.157179 0.0821881 0.16701 0.165422 -0.120448 0.166548 -0.110922 -0.108514 0.166527 0.16652 -0.106369
internal_weight=0 86165.5 67854.8 57680.9 43666.5 40470 14014.4 10173.9 8245.04 4489.3 3755.74 3196.55 1928.86 1043.89 884.969 5036.32 8978.08 18310.7 15244.9 9361.2 1460.41 7900.79 3065.87 5883.66 687.597 519.922 5196.06 213.508 2545.95 306.413 2510.05 35.9057 11608.9 70.9646 11537.9 290.599 33.6812 256.918 197.098 9.90827 11247.3 9.60275 8.04801 11184.2 11074.1 6.33079
internal_count=268644 264487 231117 201190 170879 151842 30311 29927 26314 9442 16872 19037 3613 1984 1629 15164 15147 33370 29546 20026 3674 16352 3824 9520 1649 1374 7871 384 2450 990 2343 107 4157 176 3981 195 104 91 71 96 3786 143 130 3765 3728 115
is_linear=0
shrinkage=0.1


Tree=8
num_leaves=47
num_cat=0
split_feature=4 31 69 101 134 131 72 132 45 51 132 52 37 104 110 33 134 114 129 104 69 6 10 62 108 58 45 28 27 88 113 73 1 127 25 128 25 82 13 33 25 30 32 33 54 93
split_gain=6533.03 1338.6 1559.55 1517.7 1581.71 1420.77 1119.24 1963.08 1514.6 2139.68 1137.62 923.614 917.209 957.779 904.813 899.119 1896.75 1107.3 794.04 698.135 696.549 647.517 378.696 329.451 300.553 289.653 266.55 250.094 128.325 10.3351 51.8263 9.01376 91.2034 2.13649 17.4243 49.1753 0.200883 0.107723 0.0798822 0.0556952 0.0191897 0.0141491 0.0138308 0.00351553 0.00291593 0.000168254
threshold=0.86222824454307567 0.99588376283645641 -0.11235321313142775 -0.81369963288307179 1.0000000180025095e-35 1.0000000180025095e-35 -0.54897242784500111 1.0000000180025095e-35 1.1866398453712466 1.1750680208206179 1.0000000180025095e-35 1.0926885008811953 0.92693105340003978 -0.77922964096069325 -1.2006421685218809 0.9205298423767091 1.0000000180025095e-35 -0.91386470198631276 1.0000000180025095e-35 -0.85151028633117665 -0.070238135755062089 0.59800219535827648 0.61810624599456798 0.5917131006717683 -0.84373202919960011 0.84446418285369884 0.6348690688610078 1.1646659374237063 1.2144206166267397 -1.1263985633850095 -0.95515903830528248 -0.65930387377738942 0.42897781729698187 1.0000000180025095e-35 1.241457521915436 1.0000000180025095e-35 1.3038358688354494 -1.4072614908218382 1.2914759516716006 0.77517658472061168 1.4472780227661135 1.062646806240082 0.86067304015159618 0.76972517371177684 0.75126060843467724 -1.0210390090942381
decision_type=2 2 2 2 2 2 2 2 2 2 2 2 2 2 2 2 2 2 2 2 2 2 2 2 2 2 2 2 2 2 2 2 2 2 2 2 2 2 2 2 2 2 2 2 2 2
left_child=1 6 3 4 5 -3 7 15 12 14 -11 23 26 -14 -10 16 -1 -17 20 -6 -13 22 -5 28 -20 -25 -8 -23 -4 33 40 42 -33 34 35 38 -36 -38 -2 43 -31 45 -9 44 -35 -42
right_child=29 2 11 21 19 -7 8 31 9 10 -12 18 13 -15 -16 17 -18 -19 24 -21 -22 27 -24 25 -26 -27 -28 -29 -30 30 -32 32 -34 39 36 -37 37 -39 -40 -41 41 -43 -44 -45 -46 -47
leaf_value=0.092771076132453598 -0.12793146112394588 0.08276942295909738 -0.11600577399105437 0.0731466171346076 -0.09530855583272807 0.0079226859400616748 0.27447330698534395 -0.11050048556227828 -0.092463167748599639 0.094430860592578214 -0.043326155227315123 0.094006337201608434 0.065375051711364845 -0.03678556127692819 0.16127385903593514 0.14076498128843853 -0.014693605195868249 0.013457257283088615 -0.10511949552632197 0.020825100508980482 -0.0036662396242300903 -0.10650423637888243 0.17308567278009113 0.23354344180760955 0.09060957838088711 -0.01833318453928864 -0.073500956239078097 0.10083681380923409 0.088671811589340441 -0.12124366799232678 0.15051371717579193 -0.10906328032243873 0.7014488360256691 0.15631228661873131 0.15032954600399381 0.15641470644426803 0.15633510101213063 0.16143694015928964 -0.10920562713908395 0.15935749250903553 -0.1068032846009303 -0.11599009689412383 -0.10932229341962225 0.15689521524779074 0.15702772715056401 -0.10543673072800092
leaf_weight=33996.078238196671 4.3681476712226885 18094.561440475285 470.87674710154533 464.54297568649054 624.88011254370213 2949.5977201536298 22.514162302017212 142.40853494405746 147.60013171285391 1159.9306349605322 1240.6730103679001 2362.7045109793544 3556.4356282800436 1236.8477635793388 2936.9212742447853 6224.6199224442244 1725.7717694491148 767.4479920193553 423.36873463541269 3016.074862152338 1056.6852596178651 136.14883876591921 2062.8362590894103 46.659243725240231 96.297753766179085 2124.5264553576708 989.43084805831313 101.5769842416048 32.763109311461449 1.3106849119067172 59.477311745285988 15.182847116142513 1.528053045272826 10582.076035261154 43.937842100858688 22.842124938964844 145.53288507461548 57.832050800323486 4.7610517181456089 60.780555009841919 1.1220077611505956 1.7485166341066358 331.72653611749411 105.88110518455505 57.276169061660767 4.5734233632683781
leaf_count=71589 28 49072 3323 1092 3501 16106 8 1665 1403 2088 8492 7712 12673 6865 4918 11953 6178 2893 3853 13377 6059 765 3526 160 729 14038 5497 278 105 12 34 203 9 3708 20 8 51 20 68 21 20 16 4357 37 20 94
internal_value=0 0.0746669 0.0591166 0.0696194 0.0617497 0.0722787 0.0843871 0.0917132 0.0563525 0.0940326 0.0232357 0.0155256 0.0207502 0.0390138 0.149132 0.0939982 0.0875793 0.126792 0.0463198 0.000893623 0.0638228 0.139875 0.154716 -0.0298231 -0.0688496 -0.0129203 -0.0657591 -0.0179102 -0.102691 0.155877 0.117077 -0.107132 -0.0349496 0.156116 0.14748 0.0780101 0.156461 0.157786 -0.118166 0.156339 -0.110086 -0.108122 -0.109676 0.156322 0.156316 -0.105706
internal_weight=0 88559.2 34064.1 27450.2 24685.1 21044.2 54495.1 43204.8 11290.4 5485.13 2400.6 6613.88 5805.23 4793.28 3084.52 42713.9 35721.9 6992.07 3939.06 3640.95 3419.39 2765.11 2527.38 2674.83 519.666 2171.19 1011.95 237.726 503.64 11153.5 68.2319 490.846 16.7109 11085.3 279.274 31.9713 247.303 203.365 9.1292 10806 8.75463 7.44395 474.135 10745.2 10639.4 5.69543
internal_count=268644 264487 123696 87717 82056 65178 140791 98847 41944 16901 10580 35979 25043 19538 6321 92613 77767 14846 18353 16878 13771 5661 4618 17626 4582 14198 5505 1043 3428 4157 176 6234 212 3981 195 104 91 71 96 3786 142 130 6022 3765 3728 114
is_linear=0
shrinkage=0.1


Tree=9
num_leaves=44
num_cat=0
split_feature=4 105 31 34 134 108 130 32 52 136 73 114 38 49 49 49 78 69 35 103 41 6 70 118 82 73 26 53 30 78 114 127 25 128 26 120 13 33 25 30 32 75 93
split_gain=6381.55 1136.48 1080.14 1451.28 2452.61 1532.33 1381.99 891.066 876.312 788.823 696.607 864.159 841.105 743.061 651.391 626.096 495.259 442.813 763.361 453.465 405.733 488.735 382.268 363.518 303.727 277.944 159.876 150.226 103.025 9.13023 44.1477 1.87015 14.4016 42.3462 0.205882 0.0708291 0.0560219 0.0344086 0.016601 0.00703506 0.00229765 0.000756798 0.000110303
threshold=0.86222824454307567 -0.81235241889953602 0.99782541394233715 0.90493261814117443 1.0000000180025095e-35 -1.0601227879524229 1.0000000180025095e-35 0.95835453271865856 1.079456686973572 1.0000000180025095e-35 -0.75350165367126454 -1.4025729894638059 0.99799934029579174 1.2130411863327029 1.108548700809479 1.2455725669860842 -1.2189069390296934 -0.082156408578157411 0.92005169391632091 -0.82298576831817616 0.95122441649436962 0.63370096683502208 -0.24313695728778836 -0.98198944330215443 -1.4996761679649351 -0.87401884794235218 1.2471496462821963 1.0530601143836977 1.0564997196197512 -1.146231412887573 -0.95750960707664479 1.0000000180025095e-35 1.241457521915436 1.0000000180025095e-35 1.2791188955307009 -0.59971609711647023 1.2914759516716006 0.77517658472061168 1.4472780227661135 1.062646806240082 0.82593497633934032 -1.1475735902786253 -1.0210390090942381
decision_type=2 2 2 2 2 2 2 2 2 2 2 2 2 2 2 2 2 2 2 2 2 2 2 2 2 2 2 2 2 2 2 2 2 2 2 2 2 2 2 2 2 2 2
left_child=1 2 3 4 5 -1 7 9 24 -4 12 13 22 -12 -6 -13 -9 19 -19 -5 25 -22 -10 -14 -3 -8 27 -26 -28 31 38 32 33 36 -34 -36 -2 40 -31 42 41 -33 -40
right_child=29 8 6 17 14 -7 20 16 10 -11 11 15 23 -15 -16 -17 -18 18 -20 -21 21 -23 -24 -25 26 -27 28 -29 -30 30 -32 37 34 -35 35 -37 -38 -39 39 -41 -42 -43 -44
leaf_value=-0.018330423331315873 -0.1246289345268804 0.26870248119940693 0.040060656597009997 0.055297101713178365 -0.11501556108784412 0.07940421083816307 0.05659117548888918 -0.030042278614328666 0.086008958003871289 0.093370869566730519 0.16216244128095381 -0.014857182465113271 0.19309521295935617 -0.10581934918414077 0.0055428602485313137 0.13387244674463075 0.036706433996592701 -0.018429819469622948 0.10661991795541444 0.14413081904552946 0.098166982466597053 0.032103676345519847 0.017677736822587112 -0.031836567610086873 -0.094916042520289332 0.17833401065763665 0.097996889676686447 -0.0038750150724037834 -0.13557606593080085 -0.1190621949474121 0.14131034697668252 0.1481645148415196 0.1416682832561138 0.14824621570470828 0.15241389662432489 0.14817952016810107 -0.10828077551261515 0.15061363185471488 -0.10612091503177411 -0.11306952296612083 0.14880288752313667 0.14838711949635042 -0.10496314146069259
leaf_weight=1671.4163113869727 4.0517634339630622 29.091612055897713 12844.798766955733 656.5483860373497 729.6135379076004 39881.244587469846 245.48094862699509 2375.9446562603116 1661.8960356637836 3540.7200396507978 605.86737333610654 3418.0174029245973 677.57818301767111 124.7798022814095 1161.8622468560934 308.59244655072689 2088.8945165872574 568.14713140577078 3467.5182430818677 4605.4223161488771 4569.3757487758994 1483.3642014786601 1613.6466598138213 80.372225232422352 724.36439234018326 794.38232716917992 94.283950969576836 241.73210240155458 23.613640494644642 1.3446971848607043 57.123060643672943 10016.737389564514 42.057310298085213 21.746768236160278 55.258435010910034 138.55047392845154 4.3428915180265903 58.019370317459106 1.0214291960000963 1.4437537491321562 57.306796550750732 155.09004878997803 4.2333780452609089
leaf_count=10611 28 18 44114 1591 3847 90502 495 19760 4907 9431 866 19158 1319 1293 3794 430 9632 1677 6325 6458 8706 3974 7676 359 5187 697 220 1313 127 13 33 3687 20 8 20 51 68 21 20 15 21 57 95
internal_value=0 0.0657851 0.0696558 0.0780775 0.0704036 0.0754729 0.0537598 0.0407891 0.033266 0.0515804 0.044203 0.0169554 0.0743132 0.116397 -0.0409611 -0.00254121 0.0011864 0.113935 0.0890152 0.133047 0.0918902 0.0819766 0.0523466 0.169244 -0.0501627 0.149594 -0.0587203 -0.0721362 0.0512147 0.147741 0.110425 0.147971 0.139693 0.0746036 0.148011 0.149387 -0.116171 0.148185 -0.108922 -0.106887 0.148171 0.148168 -0.105188
internal_weight=0 90288.6 80684.7 52741.8 43444.1 41552.7 27943 20850.4 9603.84 16385.5 8490.75 4457.26 4033.49 730.647 1891.48 3726.61 4464.84 9297.64 4035.67 5261.97 7092.6 6052.74 3275.54 757.95 1113.09 1039.86 1083.99 966.096 117.898 10618.3 65.1663 10553.2 266.008 30.1414 235.866 193.809 8.39465 10287.2 8.04326 6.69856 10229.1 10171.8 5.25481
internal_count=268644 264487 221614 124805 108754 101113 96809 82937 42873 53545 36008 21747 14261 2159 7641 19588 29392 16051 8002 8049 13872 12680 12583 1678 6865 1192 6847 6500 347 4157 176 3981 195 104 91 71 96 3786 143 130 3765 3744 115
is_linear=0
shrinkage=0.1


Tree=10
num_leaves=43
num_cat=0
split_feature=4 135 102 71 132 51 110 78 70 97 74 95 30 30 73 74 107 29 106 69 70 0 74 53 85 115 88 114 127 25 128 106 30 25 71 13 33 2 30 33 54 113
split_gain=6207.91 1058.22 857.277 960.026 1538.58 1097.16 896.99 879.556 806.762 357.192 383.635 622.459 348.991 260.902 251.814 251.609 238.902 222.658 205.256 197.578 194.345 153.948 133.47 79.8954 56.2739 61.1107 8.23458 37.6745 1.66258 12.0525 36.7353 1.23539 0.292165 0.219661 0.0520755 0.0395215 0.0218365 0.0125227 0.00591497 0.00148608 0.00124853 7.43258e-05
threshold=0.86222824454307567 1.0000000180025095e-35 -0.57703179121017445 -0.24385606497526166 1.0000000180025095e-35 1.1792473793029787 -1.2006421685218809 -1.1929339766502378 -0.18053831160068509 -0.98352119326591481 -1.0070518255233762 -1.00785756111145 1.1012237071990969 1.0489452481269839 -0.88486286997795094 -0.99096027016639698 -0.89687445759773243 1.2357674837112429 -0.90705731511116017 -0.43318520486354822 -0.091365460306406007 0.58166655898094188 -1.0565137863159177 1.2006999254226687 -0.80567440390586842 -1.4529920816421507 -1.1263985633850095 -0.95750960707664479 1.0000000180025095e-35 1.241457521915436 1.0000000180025095e-35 -0.89047011733055104 1.1033576130867007 1.3038358688354494 -0.66508269309997547 1.2914759516716006 0.77517658472061168 0.68909066915512096 1.062646806240082 0.76972517371177684 0.75126060843467724 -0.99835464358329762
decision_type=2 2 2 2 2 2 2 2 2 2 2 2 2 2 2 2 2 2 2 2 2 2 2 2 2 2 2 2 2 2 2 2 2 2 2 2 2 2 2 2 2 2
left_child=1 2 3 4 7 6 -5 -1 -6 12 13 14 16 31 -12 -13 17 -3 -15 -18 -7 32 -23 24 -4 -26 28 37 29 30 35 -11 -14 -31 -35 -2 39 -28 41 40 -30 -39
right_child=26 9 23 5 8 20 -8 -9 -10 10 11 15 21 18 -16 -17 19 -19 -20 -21 -22 22 -24 -25 25 -27 27 -29 36 33 -32 -33 -34 34 -36 -37 -38 38 -40 -41 -42 -43
leaf_value=0.044039995604649794 -0.12178231486650846 -0.0070082531514659707 0.21309721552578981 -0.099284539151232976 -0.088456160540152359 -0.082308286240830364 0.1532900888498368 0.067249267496796369 0.024052799206359384 -0.14916415308499473 0.053704633684372866 0.12342199114660105 -0.15340434687802124 0.0047197051594952341 -0.033446352151562705 0.08113662474852637 0.11660338662152066 0.078573503922668569 0.13392971812547491 0.045694809226087332 0.035906426150558605 -0.13752019694778447 0.11740093108253735 0.12128364491432564 -0.017820178751274115 -0.10887027295158694 -0.11835492664047345 0.13335864819839069 0.14153113154826968 0.1343867067377521 0.14159888559184716 -0.19031968892863038 -0.1802640225414926 0.14149847020013723 0.14522691452524691 -0.10745378214709403 0.14353682872366277 -0.10438164735527869 -0.11182485506480222 0.14193053243714812 0.14202437966591316 -0.1052193787842817
leaf_weight=37351.775688938797 3.7474459521472481 1284.2921404838562 6.1678674221038809 149.76760998368263 1116.0258988775313 251.90266115218401 2298.8906107917428 29009.910519316792 1485.9200699590147 19.393862009048465 759.17321047186852 1669.9756987690926 5.7610554695129421 129.97373785078526 588.57718183100224 8941.716229096055 531.13039714097977 398.27575865387917 2272.7279928773642 1510.4641084372997 310.47451514750719 20.97197961807251 994.19326543807983 19.16759055107832 91.780218828469515 374.51238247379661 1.0113499723374832 54.567422941327095 9519.7064092159271 39.997262701392174 20.552284240722656 11.690177023410795 13.633239254355429 130.83255767822266 52.490274429321289 3.9583082459867001 54.949557065963745 3.2371561564505087 1.5126891583204267 95.352086305618286 51.595895767211914 1.5740609578788292
leaf_count=134114 28 4213 2 1536 12786 1566 2405 65090 7086 89 1472 1953 26 316 1774 14799 770 648 2213 3665 1138 125 1203 33 849 4512 10 33 3708 20 8 48 56 51 20 68 21 81 17 37 20 35
internal_value=0 0.0582676 0.0527426 0.0536415 0.0512283 0.108913 0.137842 0.0541859 -0.0242045 0.0791731 0.0870256 0.0796607 0.0554222 0.123216 0.0156449 0.0877911 0.0411489 0.0132496 0.12694 0.064142 -0.0170449 0.106803 0.112135 -0.0788599 -0.0869797 -0.0909489 0.141116 0.104756 0.141341 0.133315 0.0717839 -0.164642 -0.172285 0.141101 0.142566 -0.114422 0.141549 -0.108023 -0.106371 0.141538 0.141534 -0.104656
internal_weight=0 91618.2 72466.3 71974.7 68963.6 3011.04 2448.66 66361.7 2601.95 19152 14393.2 11959.4 4758.72 2433.79 1347.75 10611.7 3724.16 1682.57 2402.7 2041.59 562.377 1034.56 1015.17 491.628 472.46 466.293 10035.1 61.9027 9973.18 251.578 28.258 31.084 19.3943 223.32 183.323 7.70575 9721.6 7.33526 6.32391 9666.65 9571.3 4.81122
internal_count=268644 264487 231117 225721 219076 6645 3941 199204 19872 33370 22664 19998 10706 2666 3246 16752 9296 4861 2529 4435 2704 1410 1328 5396 5363 5361 4157 176 3981 195 104 137 82 91 71 96 3786 143 133 3765 3728 116
is_linear=0
shrinkage=0.1


Tree=11
num_leaves=47
num_cat=0
split_feature=4 135 136 111 129 134 75 53 29 103 109 74 118 0 106 105 90 30 105 114 108 31 31 101 90 72 98 113 104 112 91 32 77 113 94 127 25 128 26 114 78 13 33 106 32 75
split_gain=6014.11 891.358 738.586 1166.46 1514.83 1005.52 998.43 874.237 1470.71 988.827 829.422 651.067 804.393 719.44 343.745 365.352 263.769 245.058 384.474 186.105 143.518 131.453 148.894 131.328 119.077 88.266 355.363 89.0361 85.3552 77.4991 69.3469 35.6374 7.5832 28.0087 14.3362 1.49818 10.1857 32.0579 0.238809 0.0682427 0.0356949 0.0280261 0.0141602 0.00904729 0.0010023 0.00050102
threshold=0.86222824454307567 1.0000000180025095e-35 1.0000000180025095e-35 -0.96165332198142994 1.0000000180025095e-35 1.0000000180025095e-35 -1.0832468867301939 1.0189082622528078 1.1993027329444887 -0.87903916835784901 -0.86600679159164418 -0.9843570590019225 -0.96268752217292775 0.50016263127326976 -0.88742798566818226 -0.9344017207622527 -1.1658419370651243 1.1033576130867007 -0.9031362235546111 -0.9687194526195525 -0.87862873077392567 1.0044753551483157 0.899662345647812 -0.88897451758384693 -1.1902375817298887 -0.7268269658088683 -0.93446439504623402 -0.91623497009277333 -0.93039587140083302 -0.91357314586639393 -1.1897226572036741 0.93765723705291759 -1.1102877855300901 -0.89267536997795094 -1.0161113142967222 1.0000000180025095e-35 1.241457521915436 1.0000000180025095e-35 1.2791188955307009 -0.9470044970512389 -1.3848974108695982 1.2914759516716006 0.77517658472061168 -0.80853620171546925 0.82593497633934032 -1.1475735902786253
decision_type=2 2 2 2 2 2 2 2 2 2 2 2 2 2 2 2 2 2 2 2 2 2 2 2 2 2 2 2 2 2 2 2 2 2 2 2 2 2 2 2 2 2 2 2 2 2
left_child=1 2 3 7 5 -5 -6 8 -1 -9 11 13 -13 -4 15 21 20 18 -17 30 29 22 -3 -21 -22 27 -27 -18 -19 -16 -12 -23 35 34 -34 36 37 41 -38 43 -40 -2 44 -36 45 -37
right_child=32 14 10 4 6 -7 -8 9 -10 -11 19 12 -14 -15 16 17 25 28 -20 23 24 31 -24 -25 -26 26 -28 -29 -30 -31 -32 -33 33 -35 39 42 38 -39 40 -41 -42 -43 -44 -45 -46 -47
leaf_value=0.0015711800955585252 -0.11931489279628292 -0.18076949183741942 -0.08969073914845882 0.04428278748121061 0.01649569295841611 -0.015704773765380334 -0.092912945979990155 0.12062605198613548 0.11189633193694187 0.05617876116447388 0.084147431318328053 0.058144011269296504 0.14209186806764174 0.048301662647655869 0.035357847764589785 0.03479867900572127 0.12332002845355659 -0.036119978471827456 0.07001566852395856 0.19286351161847617 -0.10098131859363485 0.017193690394229088 0.13373631013483259 0.12680620736728185 0.12159063016249112 -0.073658143187210381 0.10117888897322769 8.8799396622233538e-05 0.11697910993265125 -0.059523505366931642 -0.17312338366913935 -0.17603104411961903 0.13649515178501712 0.13371044450792416 -0.10577353725347256 0.13605056254107775 0.12816247793801011 0.13610661680572642 0.13602160889353321 -0.1295833862454869 0.1392037650242495 -0.10671328173837993 0.13771547838762979 -0.1165640169633784 0.13649835447026079 0.13624271791319406
leaf_weight=6008.0849322900176 3.457328304648402 15.285397231578825 549.67438673973083 19345.834024410695 1720.8444952443242 3266.0182279869914 1618.6527478396893 2619.8533092364669 1512.4968645200133 26084.116044592112 18.513014078140259 6796.4973857477307 1371.8182086870074 1208.4482725858688 188.03157892823219 5185.9253911674023 1938.359345972538 38.059674948453903 7707.102023884654 473.03640960156918 27.369244277477264 54.536531336605549 989.73591083288193 827.37365091592073 197.44868132472038 124.88403816521168 1682.1392167210579 60.459355264902115 842.89232248812914 158.78115245699883 24.137630566954613 11.57014164328575 3.2463896721601477 47.190878093242645 5.4632850252091858 8891.9865403175354 37.854451179504395 19.307492256164551 122.91915822029114 1.754145339131356 49.423922777175903 3.6052091717720032 51.711620807647705 0.90586813539266575 50.932344198226929 137.7933361530304
leaf_count=20705 28 63 2215 65434 8128 15966 10989 4242 2740 72986 30 20766 2352 3070 420 11632 1709 114 13935 316 141 130 916 1076 240 387 1968 147 896 624 102 48 8 22 126 3687 20 8 51 10 20 68 21 10 21 57
internal_value=0 0.0518027 0.0467853 0.0425159 0.0263334 0.0356183 -0.0365346 0.0541091 0.0237592 0.062061 0.0703399 0.0603609 0.0722425 0.00515855 0.0709734 0.0637118 0.0955993 0.0593371 0.0558504 0.144094 0.0322609 0.119968 0.128953 0.150835 0.0944948 0.105113 0.0890958 0.119593 0.110365 -0.00808165 -0.061452 -0.0166249 0.135638 0.0997644 -0.0411317 0.135862 0.128005 0.0694213 0.135354 -0.112118 0.136934 -0.112882 0.136065 -0.107308 0.136056 0.136053
internal_weight=0 92668 73445.4 62175.9 25951.3 22611.9 3339.5 36224.6 7520.58 28704 11269.5 9926.44 8168.32 1758.12 19222.6 14845.1 4377.47 13774 12893 1343.06 571.631 1071.13 1005.02 1300.41 224.818 3805.84 1807.02 1998.82 880.952 346.813 42.6506 66.1067 9427.55 58.5606 11.3697 9368.99 236.568 26.37 210.198 8.1233 172.343 7.06254 9132.42 6.36915 9080.71 9029.78
internal_count=268644 264487 231117 201190 100517 81400 19117 100673 23445 77228 29927 28403 23118 5285 33370 27734 5636 26577 25567 1524 1425 1157 979 1392 381 4211 2355 1856 1010 1044 132 178 4157 176 154 3981 195 104 91 146 71 96 3786 136 3765 3744
is_linear=0
shrinkage=0.1


Tree=12
num_leaves=43
num_cat=0
split_feature=4 32 90 31 30 0 131 131 74 130 74 92 106 31 35 56 69 71 33 80 124 135 126 104 85 115 2 36 77 113 76 127 25 128 25 114 71 13 33 107 33 54
split_gain=5803.21 816.769 683.387 652.219 598.548 605.093 577.858 208.177 200.836 158.739 193.25 306.997 145.667 229.596 138.145 136.503 161.717 158.01 120.13 91.1065 73.0466 70.9192 59.7088 33.5259 25.3 17.9765 17.7296 10.5074 6.79248 24.3279 12.6809 1.36607 8.67502 28.1128 0.26447 0.0484467 0.0262851 0.0199655 0.009351 0.00713379 0.000673264 0.000569554
threshold=0.86222824454307567 0.96729949116706859 -0.22279337048530576 1.0116301178932192 1.1033576130867007 0.35950434207916265 1.0000000180025095e-35 1.0000000180025095e-35 -0.99353778362274159 1.0000000180025095e-35 -0.83461064100265492 -0.95206463336944569 -0.79822951555252064 0.9989861547946931 0.92219439148902904 0.97323685884475719 -0.048499984666705125 -0.43268509209156031 0.94810867309570324 -1.2839992642402647 -1.6022116541862486 1.0000000180025095e-35 -1.9518111348152158 -0.76452928781509388 -0.80567440390586842 -1.4706258177757261 0.34024262428283697 0.88576757907867443 -1.1102877855300901 -0.89267536997795094 -1.0623977184295652 1.0000000180025095e-35 1.241457521915436 1.0000000180025095e-35 1.3038358688354494 -0.9470044970512389 -0.66508269309997547 1.2914759516716006 0.77517658472061168 -0.73003602027893055 0.76972517371177684 0.75126060843467724
decision_type=2 2 2 2 2 2 2 2 2 2 2 2 2 2 2 2 2 2 2 2 2 2 2 2 2 2 2 2 2 2 2 2 2 2 2 2 2 2 2 2 2 2
left_child=1 2 3 4 5 -1 8 -6 -5 10 12 20 14 -14 -3 17 19 18 -11 -17 -12 24 -13 -18 -4 -26 -19 -8 31 30 -30 32 33 37 -34 39 -36 -2 40 -32 41 -33
right_child=28 9 21 6 7 -7 27 -9 -10 15 11 22 13 -15 -16 16 23 26 -20 -21 -22 -23 -24 -25 25 -27 -28 -29 29 -31 35 38 34 -35 36 -37 -38 -39 -40 -41 -42 -43
leaf_value=0.058544286814837532 -0.11716577827947619 0.028486304879381499 0.18673326910575616 -0.076953533565394833 0.1079235475883869 0.041454690500856761 -0.1236349278650134 -0.13330311117822177 0.037436554680703532 -0.024326726585008649 0.13543747673896292 -0.053986987794383767 -0.027159337809204778 0.29286190438514798 -0.074480812952714623 -0.0058512196705095007 -0.12576595097243951 0.062172691966166219 0.1861066329885335 0.11093841495041634 0.33272872691388256 0.15117031276262657 0.099527429183130331 0.16687045676631246 -0.043030083126905927 -0.11018041930430052 -0.1334365134338886 -0.090244153716613068 0.12884026305559382 0.12856961550172652 -0.10510120002218833 0.13146472358958172 0.12271524352939592 0.13151208817129095 0.13141811557312752 -0.12599671092755116 0.13423865141896904 -0.1060494357788991 0.13286324019036777 -0.11520858695487426 0.13175151266783519 0.13182007153235586
leaf_weight=33810.019813083112 3.1827418990433243 150.70101900026202 3.0800452232360831 179.22486408799887 1955.4832558967173 53507.388551287353 295.35129922628403 36.44196629524231 1068.6779107525945 88.658272877335548 52.561166256666183 149.05361536890268 84.624290607869625 30.49797835201025 962.40611079707742 87.396074742078781 49.283076085150242 4.8533229231834403 39.088809117674828 283.3565329760313 29.187837436795235 11.755251824855803 30.524711228907108 4.252754032611846 46.056396383792162 296.63474005833268 102.3537639901042 138.40311914682388 3.1350736357271654 44.318301737308502 5.0382399670779687 8359.0906579494476 35.681150585412979 18.048571109771729 114.82245326042175 1.630048736929895 46.38913631439209 3.2815057672560215 48.40997314453125 0.81065797060728062 83.790616035461426 45.349966526031494
leaf_count=85483 28 1151 1 776 2483 151556 1792 202 2858 282 95 650 713 195 8872 269 361 9 23 408 36 5 89 17 471 3951 503 1236 6 22 129 3708 20 8 51 10 20 68 21 9 37 20
internal_value=0 0.046171 0.0476045 0.0481466 0.0493084 0.0480719 -0.0135522 0.10351 0.0210078 -0.0147691 -0.0328507 0.0452363 -0.0494651 0.0576201 -0.0605403 0.0260863 0.0599481 -0.0350624 0.0400629 0.083408 0.205879 -0.0903792 -0.0278926 -0.10252 -0.0985912 -0.101156 -0.124581 -0.112981 0.131056 0.096002 -0.0399827 0.131276 0.123521 0.0674217 0.130506 -0.110751 0.13223 -0.111523 0.131477 -0.106502 0.131469 0.131467
internal_weight=0 93497.3 91348.5 90991 89309.3 87317.4 1681.66 1991.93 1247.9 2148.8 1489.56 261.327 1228.23 115.122 1113.11 659.243 424.288 234.954 127.747 370.753 81.749 357.526 179.578 53.5358 345.771 342.691 107.207 433.754 8812.98 54.9323 10.614 8758.05 221.406 24.5128 196.893 7.47895 161.212 6.46425 8536.64 5.8489 8488.23 8404.44
internal_count=268644 264487 250814 246386 239724 237039 6662 2685 3634 13673 11801 870 10931 908 10023 1872 1055 817 305 677 131 4428 739 378 4423 4422 512 3028 4157 176 154 3981 195 104 91 148 71 96 3786 138 3765 3728
is_linear=0
shrinkage=0.1


Tree=13
num_leaves=47
num_cat=0
split_feature=4 135 130 31 53 51 28 106 69 136 87 70 58 60 106 105 95 30 71 113 72 96 5 29 29 107 31 1 31 28 73 122 78 113 75 127 25 128 28 114 97 13 33 48 32 74
split_gain=5584.65 765.823 641.207 935.628 1378.31 1554.89 1137.15 888.923 779.759 1263.6 530.503 410.041 754.464 590.023 325.4 342.526 302.044 256.178 224.366 219.523 203.418 316.049 195.681 266.133 174.623 157.117 172.971 123.409 141.805 108.478 63.1597 14.9794 6.14009 21.2245 11.1407 1.25906 7.43424 24.7533 0.299895 0.0337963 0.0196001 0.014281 0.00626744 0.00481589 0.000464124 0.000238758
threshold=0.86222824454307567 1.0000000180025095e-35 1.0000000180025095e-35 0.99806863069534313 1.0196617245674136 1.1771480441093447 1.2737268805503847 -0.87617164850234974 -0.12871128320693967 1.0000000180025095e-35 -1.1343851685523985 -0.27136221528053278 0.88056817650794994 0.74740177392959606 -0.89105886220931996 -0.92441636323928822 -1.0435619950294492 1.0980792641639712 -0.6881599724292754 -0.91623497009277333 -0.76530316472053517 -0.9825763702392577 0.70968106389045726 1.1955312490463259 1.1759282946586611 -0.91958290338516224 0.9989861547946931 0.56897655129432689 0.97612357139587413 1.344784200191498 -0.93565678596496571 -1.062188923358917 -1.146231412887573 -0.89267536997795094 -1.0338324904441831 1.0000000180025095e-35 1.241457521915436 1.0000000180025095e-35 1.1710190176963808 -0.9470044970512389 -1.1373605132102964 1.2914759516716006 0.77517658472061168 0.88575145602226268 0.82593497633934032 -1.0232151746749876
decision_type=2 2 2 2 2 2 2 2 2 2 2 2 2 2 2 2 2 2 2 2 2 2 2 2 2 2 2 2 2 2 2 2 2 2 2 2 2 2 2 2 2 2 2 2 2 2
left_child=1 2 3 4 6 -6 -1 22 9 -5 -10 13 -13 -9 15 25 18 -18 -17 20 24 -22 23 -4 -16 26 -3 31 -29 -24 -27 -21 35 34 -34 36 37 41 -38 43 -40 -2 44 -36 45 -37
right_child=32 14 7 8 5 -7 -8 11 10 -11 -12 12 -14 -15 19 16 17 -19 -20 27 21 -23 29 -25 -26 30 -28 28 -30 -31 -32 -33 33 -35 39 42 38 -39 40 -41 -42 -43 -44 -45 -46 -47
leaf_value=-0.019173139638496688 -0.11528597176765749 0.11302462940017975 0.088684207965436204 0.010485510549275892 0.057031245339739495 -0.027872980153279988 0.060062514750075825 0.043849955858610387 -0.035269464544712921 0.079718220495450867 0.037835385184143727 -0.064437043093027405 0.038538686131646786 0.13383803086200408 -0.081170625155616224 0.075832657988818442 0.043023576943967315 0.091334165510683629 -0.054210573378969389 0.073022611438798485 0.023713641556195514 0.089825468178271306 0.15202077704679698 -0.10728488705381765 0.11892263745898118 0.040023912483814358 0.029970077262476347 0.045789016015573614 -0.078456214939187682 -0.06071126794874139 -0.15009657853045744 0.1711492296756586 0.12025253383836601 0.12410536648374282 -0.10456740931373382 0.12758879463369036 0.11780174643787776 0.12762884711709283 0.1275161852506555 -0.12292623256935904 0.13000240891922343 -0.10545369044197649 0.12877455200779669 -0.11237207341343991 0.12791518718980008 0.1277419539356742
leaf_weight=5881.3445724584162 2.9244039803743389 1376.2744655758142 3468.925223082304 11478.273127797991 28782.551404938102 2331.6830268464983 2617.2750692181289 6118.8716640025377 4153.0483632907271 3422.2518368512392 1304.4291760325432 931.96645521372557 3007.5044845789671 827.10605500638485 44.81911763548851 179.96179541200399 9889.3000150769949 1234.6724001318216 504.8914158269763 24.431678935885429 1005.2101221978664 2576.4964542388916 636.83524562418461 70.711137354373932 1623.4700565040112 34.916455700993538 306.61902015656233 198.29730141162872 171.14220380783081 24.908020496368408 34.977930068969727 42.826394617557526 3.0431083254516107 41.465993240475655 4.3694743625819665 7754.1879255771637 33.472046613693237 16.802025556564331 104.74890995025635 1.509859368205072 45.474252223968506 2.98514748737216 45.121408224105835 0.96528085321187962 44.35723876953125 103.13581252098083
leaf_count=22262 28 1445 4440 44592 76216 11023 6320 13408 28302 8070 4021 3577 7090 1029 129 358 19438 1709 1820 33 2059 2992 482 218 1304 93 637 428 776 67 132 17 7 22 124 3695 20 8 50 10 21 68 21 13 21 49
internal_value=0 0.0411648 0.0366014 0.0319655 0.0409198 0.0506686 0.00522865 0.0550291 0.0145422 0.0263864 -0.0177962 0.039949 0.0141776 0.0545655 0.0589597 0.0505402 0.0444174 0.0483857 -0.0200386 0.0790385 0.0847051 0.0712711 0.0941007 0.0847693 0.113547 0.0917908 0.0978923 0.0109147 -0.0117674 0.144014 -0.0551199 0.135504 0.127182 0.0927122 -0.0389407 0.127399 0.119688 0.0657147 0.126362 -0.109718 0.128269 -0.110319 0.127599 -0.10598 0.127593 0.127591
internal_weight=0 94306 75057.7 59970.9 39612.9 31114.2 8498.62 15086.8 20358 14900.5 5457.48 10885.4 3939.47 6945.98 19248.3 13561.6 11808.8 11124 684.853 5686.69 5250 3581.71 4201.38 3539.64 1668.29 1752.79 1682.89 436.698 369.44 661.743 69.8944 67.2581 8204.56 51.3537 9.88772 8153.21 206.407 22.7116 183.695 6.84461 150.223 5.90955 7946.8 5.33476 7901.68 7857.32
internal_count=268644 264487 231117 200806 115821 87239 28582 30311 84985 52662 32323 25104 10667 14437 33370 25632 23325 21147 2178 7738 6484 5051 5207 4658 1433 2307 2082 1254 1204 549 225 50 4157 176 154 3981 195 104 91 147 71 96 3786 137 3765 3744
is_linear=0
shrinkage=0.1


Tree=14
num_leaves=44
num_cat=0
split_feature=4 105 31 107 129 132 70 51 129 52 131 71 114 20 129 47 52 118 11 75 3 24 103 9 0 32 76 113 78 113 94 31 127 25 128 25 114 82 13 33 48 33 54
split_gain=5329.07 668.551 604.213 601.001 1963.16 966.676 921.361 854.005 694.418 600.392 542.4 475.982 811.289 690.782 490.693 485.432 406.152 295.039 258.52 171.579 189.813 115.317 96.9723 94.1381 68.6797 53.3502 7.89581 174.484 5.85648 18.3435 9.89217 3.27128 1.17189 6.40247 21.8697 0.33548 0.0236239 0.0141505 0.0102517 0.00425236 0.00336153 0.000319638 0.000271935
threshold=0.86222824454307567 -0.81235241889953602 1.0116301178932192 -0.99042451381683339 1.0000000180025095e-35 1.0000000180025095e-35 -0.13017643243074414 1.1771480441093447 1.0000000180025095e-35 1.0744290947914126 1.0000000180025095e-35 -0.36637951433658594 -1.398527920246124 1.153545677661896 1.0000000180025095e-35 1.2489097118377688 1.1632437705993655 -0.98198944330215443 0.8392588496208192 -1.1144787669181822 0.72034788131713878 1.2973313927650454 -0.82508662343025196 0.24601504206657412 0.44942489266395574 0.94473817944526683 -1.2161818146705625 -0.91969159245491017 -1.140866160392761 -0.89267536997795094 -1.0161113142967222 1.0121509432792666 1.0000000180025095e-35 1.241457521915436 1.0000000180025095e-35 1.3038358688354494 -0.9470044970512389 -1.4072614908218382 1.2914759516716006 0.77517658472061168 0.88575145602226268 0.76972517371177684 0.75126060843467724
decision_type=2 2 2 2 2 2 2 2 2 2 2 2 2 2 2 2 2 2 2 2 2 2 2 2 2 2 2 2 2 2 2 2 2 2 2 2 2 2 2 2 2 2 2
left_child=1 2 3 4 5 -1 8 -8 -5 18 19 13 16 17 -15 -14 -13 -11 21 25 -21 22 -3 -6 -23 -4 27 -12 32 30 -30 -28 33 34 38 -35 40 -37 -2 41 -32 42 -34
right_child=28 9 10 6 23 -7 7 -9 -10 11 26 12 15 14 -16 -17 -18 -19 -20 20 -22 24 -24 -25 -26 -27 31 -29 29 -31 36 -33 39 35 -36 37 -38 -39 -40 -41 -42 -43 -44
leaf_value=0.015408504690985873 -0.11363563522891869 0.06694342153618521 0.0070801635503585179 0.044062983952800158 -0.16984801490196161 -0.085275176814233578 0.13708373629367815 -0.045837414091026318 -0.0031766523345164487 0.14559419642256952 0.62118129944523359 0.10390146737294492 -0.056004682685102863 0.036025208236505034 -0.047878677236375955 0.098450017287919647 -0.091470499145355696 -0.017267808833484218 0.21092173200334471 0.019179178847840577 0.34838948578374818 0.082248981123823797 -0.10114647185515008 0.18809035167330027 -0.15326668640119928 -0.14746444833416772 -0.089744148003312096 -0.108826241682771 0.11370469867659981 0.11992300990595786 -0.10428845536309031 -0.1209362846386928 0.12428401433298286 0.11344008420898651 0.12431838829082012 0.12424009381321277 -0.12028000357795705 0.12646278123066487 -0.10491855763704186 0.1252977960591308 -0.1111065099099699 0.12449660506560881 0.12454814396058525
leaf_weight=5675.6444405391812 2.6825637780129918 36.138890571892262 30.768385916948318 69824.49733741954 7.4363045692443839 1146.1646366231143 1735.4082852192223 299.24066513031721 3256.9170936308801 712.95368981361389 3.3745314404368392 696.74705147743225 2134.3976734057069 4394.422657109797 828.41960306838155 224.92501477897167 125.58450206369162 131.79745434969664 31.72455221414566 1409.0476355291903 17.734200224280357 62.347697235643864 682.42305407300591 616.38330718874931 15.450306639075277 81.51630387455225 37.75216767936945 110.09339383989573 2.9315817207097989 36.708689957857132 3.9968302920460683 307.35029834881425 7220.3856663703918 31.394110977649689 15.586915254592896 99.138781189918518 1.3946787118911759 40.280435681343079 2.7141469940543175 41.90152895450592 0.88286123238503922 72.39774489402771 39.190628290176392
leaf_count=14013 28 120 103 172333 31 10933 1625 1248 12786 1162 13 1341 13464 14413 5041 383 1271 508 19 4200 9 124 4956 248 71 474 272 896 8 21 123 2430 3709 20 8 51 10 20 68 21 13 37 20
internal_value=0 0.0369031 0.0398046 0.0411195 0.0140198 -0.00150784 0.0438057 0.110181 0.0419577 0.0125561 -0.0145386 0.0198595 -0.0114678 0.0362866 0.0227168 -0.0412798 0.0740647 0.120185 -0.0690195 0.0139045 0.0232711 -0.0801715 -0.0926927 0.183824 0.0354767 -0.105116 -0.11 -0.0871158 0.123876 0.08827 -0.0379463 -0.117524 0.124093 0.116376 0.0642473 0.122779 -0.108802 0.124882 -0.109252 0.124293 -0.105522 0.124288 0.124285
internal_weight=0 94636.7 84559.3 82561.7 7445.63 6821.81 75116.1 2034.65 73081.4 10077.3 1997.64 9249.25 3181.65 6067.59 5222.84 2359.32 822.332 844.751 828.085 1539.07 1426.78 796.36 718.562 623.82 77.798 112.285 458.57 113.468 7611.59 45.9146 9.20595 345.102 7565.67 191.797 20.9836 170.813 6.27437 139.419 5.39671 7373.88 4.87969 7331.97 7259.58
internal_count=268644 264487 221614 213217 25225 24946 187992 2873 185119 42873 8397 37583 16459 21124 19454 13847 2612 1670 5290 4786 4209 5271 5076 279 195 577 3611 909 4157 175 154 2702 3982 195 104 91 146 71 96 3787 136 3766 3729
is_linear=0
shrinkage=0.1


Tree=15
num_leaves=46
num_cat=0
split_feature=4 135 53 29 129 106 108 128 65 101 21 112 131 45 120 107 103 32 106 90 69 40 31 34 34 7 108 1 115 70 102 28 125 86 82 128 28 33 93 33 74 114 24 77 48
split_gain=5070.15 611.137 548.575 1339.08 1092.52 2411.35 1350.73 1020.16 841.352 783.338 734.776 720.983 687.146 580.75 529.165 309.85 342.427 374.513 414.87 235.137 202.029 257.719 166.458 144.578 107.916 106.314 101.496 100.443 97.4352 84.9862 83.4754 46.7997 16.8839 18.8548 12.2728 8.66954 0.658982 0.361978 0.211878 0.0173438 0.0273256 0.017299 0.013655 0.00119121 0.00109978
threshold=0.86222824454307567 1.0000000180025095e-35 1.0436861515045168 1.1193106770515444 1.0000000180025095e-35 -0.91013094782829274 -1.0583544373512266 1.0000000180025095e-35 0.40816885232925421 -0.86904078722000111 1.3096358776092532 -1.2895168066024778 1.0000000180025095e-35 1.099400579929352 -1.5243257284164426 -0.88687011599540699 -0.85152262449264515 0.93473279476165783 -0.93708020448684681 -1.1658419370651243 -0.15978316962718961 0.98809489607810985 0.99257838726043712 0.82156431674957286 0.90225252509117138 0.84790194034576427 -0.87862873077392567 0.37916842103004461 -0.91270029544830311 -0.41568335890769953 -0.90825328230857838 1.3668042421340945 -0.39156544208526606 -1.1048545837402342 -1.3606625795364378 1.0000000180025095e-35 1.1531031131744387 0.77517658472061168 -0.72833949327468861 0.76972517371177684 -1.1862566471099851 -0.9470044970512389 0.95292809605598461 -1.1726180911064146 0.81382977962493908
decision_type=2 2 2 2 2 2 2 2 2 2 2 2 2 2 2 2 2 2 2 2 2 2 2 2 2 2 2 2 2 2 2 2 2 2 2 2 2 2 2 2 2 2 2 2 2
left_child=1 2 3 9 6 22 14 12 -7 10 -1 -8 -5 -11 -4 16 17 18 -3 26 23 -22 -6 -18 -9 29 30 -19 -28 -21 -17 -27 33 34 35 36 -2 39 41 42 -41 44 -34 -44 -35
right_child=32 15 4 7 5 8 11 24 -10 13 -12 -13 -14 -15 -16 19 20 27 -20 25 21 -23 -24 -25 -26 31 28 -29 -30 -31 -32 -33 37 38 -36 -37 -38 -39 -40 40 -42 -43 43 -45 -46
leaf_value=0.11132556415381985 -0.10438176639776116 0.09233961893121917 -0.090671960492565457 0.037795499695344043 0.16680926642240421 -0.089281470267785268 0.095608219572387632 -0.091574741600797011 0.011216574781100642 -0.062619475431564986 -0.094957320342597754 0.040782206954029385 -0.015648837357729456 0.031529378873828 0.05288598649733986 0.043335727044161138 0.002048851048666723 0.029075723949635892 0.034250925322366538 0.1059754267803361 -0.19123119189859261 0.052963722642398348 -0.012669469764849768 0.1060545410683937 0.089731932274974738 -0.18859816922756978 0.098060126308727485 -0.05773831618016665 -0.097302739023651844 0.061052633752749712 -0.058622738351533268 0.015769657214057285 0.11975263936665648 -0.10374443682356514 0.11930516361021669 0.12484450146039104 -0.19308615132924908 0.11195294705665282 -0.16395769122139495 0.12179389403832196 0.11776835896218812 -0.11798627996313125 0.12144930536839826 0.12202118411572951 -0.10853916098993327
leaf_weight=663.18386861309409 2.5460218582302363 1381.911488622427 1056.4124669097364 21612.166813194752 668.6376698166132 2017.8665076233447 2563.2516056448221 754.7355157583952 1418.7223678939044 3518.5872766673565 233.46156279742718 37332.601664438844 2707.0559831745923 805.08958535641432 339.21235631033778 139.46380870044231 146.35364145040512 180.49892716109753 11147.796967752278 1800.1669829338789 44.764661580324173 1251.5437585711479 56.002910599112511 1540.4520674794912 34.321798659861088 16.522009760141373 192.51832388341427 509.36604987084866 29.431654423475266 549.73277118802071 189.2831537425518 34.819698885083199 47.592942722141743 3.0731565356254573 21.300461011007428 1.9738138914108274 1.2480269372463224 40.580048330128193 0.78483909927308548 34.559825539588928 32.92969024926424 1.2852238714694975 6815.4748126268387 36.618942141532898 0.56658228300511826
leaf_count=1439 71 1655 9018 55939 386 12138 5258 3175 6870 17911 1074 102366 11510 2866 828 351 283 353 21942 1561 171 1970 161 1654 178 70 230 1518 154 752 639 67 33 105 28 1 5 39 5 19 23 10 3785 20 13
internal_value=0 0.033084 0.0290502 0.0186345 0.0360002 -0.0128374 0.0409219 0.0282156 -0.047793 -0.0274481 0.0576152 0.0443047 0.0318464 -0.0450885 -0.0557796 0.0490427 0.043614 0.0367081 0.0406576 0.0788401 0.074217 0.0445311 0.152938 0.0970306 -0.0836884 0.092356 0.0199058 -0.035024 0.0721541 0.0954662 -0.0153691 -0.0499969 0.121035 0.0494324 0.084266 -0.045132 -0.13356 0.12137 -0.115703 0.121425 0.11983 -0.108013 0.121441 0.121452 -0.104491
internal_weight=0 94935.9 75781.3 30328.6 45452.7 4161.23 41291.5 25108.3 3436.59 5220.32 896.645 39895.9 24319.2 4323.68 1395.62 19154.6 16202.7 13219.6 12529.7 2951.94 2983.11 1296.31 724.641 1686.81 789.057 2401.24 550.697 689.865 221.95 2349.9 328.747 51.3417 7040.53 32.7781 27.0683 5.76786 3.79405 7007.76 5.7098 6967.18 67.4895 4.92496 6899.69 6852.09 3.63974
internal_count=268644 264487 231117 94092 137025 19555 117470 70802 19008 23290 2513 107624 67449 20777 9846 33370 29546 25468 23597 3824 4078 2141 547 1937 3353 2450 1374 1871 384 2313 990 137 4157 238 105 77 76 3919 133 3880 42 128 3838 3805 118
is_linear=0
shrinkage=0.1


Tree=16
num_leaves=42
num_cat=0
split_feature=4 32 113 75 3 135 38 113 92 106 130 56 47 52 70 68 56 54 131 60 99 53 71 56 90 70 73 125 86 82 128 33 28 104 76 33 60 24 114 79 47
split_gain=4799.03 543.799 499.841 941.176 623.269 447.154 626.03 327.966 317.762 273.962 250.27 277.089 153.309 136.637 210.003 133.701 119.11 118.238 379.738 105.471 96.9098 92.5718 79.6224 78.6575 29.3427 26.6183 26.577 15.3957 16.5489 10.6309 7.59889 0.459018 0.425026 0.146224 0.0541356 0.0227228 0.0329344 0.018639 0.0123925 0.000826573 0.000811262
threshold=0.86222824454307567 0.96548068523406994 -0.85590827465057362 -1.1693109869956968 0.64701741933822643 1.0000000180025095e-35 0.9752025604248048 -0.87299311161041249 -1.4091107845306394 -0.89659059047698964 1.0000000180025095e-35 1.0234645605087282 1.0559225082397463 1.1003972291946413 -0.21161108464002606 0.032822117209434516 0.99547022581100475 1.0028176307678225 1.0000000180025095e-35 0.73935267329216015 -0.78235012292861927 1.1594589948654177 -0.43350107967853541 0.97207671403884899 -1.2167897224426267 -0.14995688199996945 -0.6641256809234618 -0.39156544208526606 -1.1048545837402342 -1.3606625795364378 1.0000000180025095e-35 0.77517658472061168 1.1531031131744387 -0.90230539441108693 -0.93083515763282765 0.76972517371177684 0.51307979226112377 0.95292809605598461 -0.9470044970512389 -1.2274748682975767 0.84088918566703807
decision_type=2 2 2 2 2 2 2 2 2 2 2 2 2 2 2 2 2 2 2 2 2 2 2 2 2 2 2 2 2 2 2 2 2 2 2 2 2 2 2 2 2
left_child=1 2 3 4 7 6 -5 -1 -4 -7 11 12 -3 15 22 19 -14 26 -19 -12 -16 25 -15 -17 -6 -13 -10 28 29 30 32 35 -2 38 -23 37 -37 -29 40 -39 -30
right_child=27 10 8 5 24 9 -8 -9 17 -11 13 21 16 14 20 23 -18 18 -20 -21 -22 34 -24 -25 -26 -27 -28 31 33 -31 -32 -33 -34 -35 -36 36 -38 39 -40 -41 -42
leaf_value=0.20531752054417282 -0.10395462708488806 0.34964046809702903 0.19618600333959987 0.021779299447281901 -0.13790776342349567 0.034491723565281657 0.043645579258317968 0.089673872819913347 -0.10888014370572381 0.05889864568566993 -0.01949462662419979 0.056596584117388264 -0.029834523726894564 0.15456058051313798 -0.12933675082526516 -0.12608575888495133 -0.10448491306187489 -0.065878035514323419 0.14681648742073802 0.11209412789102696 0.057833067170773939 -0.14580048412992705 0.05993104880205357 0.013020291120327619 0.010775019546267049 0.16641072189757855 0.186404800947231 0.11693472947705484 -0.10338008317608981 0.11476549877355471 0.12192860646777892 0.10794468793856707 -0.17674942459088261 -0.15500332204498424 -0.16038262356833521 0.11447258644160406 0.11910037160526195 0.1189962929100005 -0.11598822999729344 0.1194921410121806 -0.10766456447305268
leaf_weight=502.50115995854139 2.3127191923558743 10.25047993659973 53.233539342880249 53004.451616473496 83.340013034641743 11266.104813180864 17388.493332128972 479.00705786049366 301.35001811385155 7771.4533275738358 162.49610596895218 29.206300940364599 1955.2558419145644 105.57296353578568 82.66834345459938 126.01675121486187 239.97133249044418 485.30061744898558 101.49565971642733 97.433436691761017 41.574694663286209 3.7576398625969887 563.5723834335804 60.004246436059475 15.787784144282339 90.377357684075832 3.0792040824890128 44.048248659819365 2.7852314915508063 19.996620399877433 1.8264784812927244 38.011999927461147 1.2279343754053114 0.74609926901757351 7.8948795199394208 27.424574248492718 35.00927722454071 6287.450868844986 1.1819188147783277 33.79964017868042 0.52529050596058358
leaf_count=604 71 14 18 155832 439 21474 47477 1100 2262 11834 466 121 15680 58 562 676 1935 2088 228 139 124 21 999 192 55 54 1 33 105 28 1 39 5 5 34 21 21 3785 10 20 13
internal_value=0 0.0297279 0.0312238 0.0319789 0.124745 0.030858 0.0271807 0.14888 -0.0411482 0.044455 -0.0085271 -0.0277932 -0.0361933 0.0277983 0.052692 -0.01649 -0.0379949 -0.0553243 -0.0290892 0.0298308 -0.0667052 0.113373 0.074861 -0.0812147 -0.114228 0.13959 -0.105893 0.118566 0.0478049 0.0812249 -0.0437393 0.118901 -0.129201 -0.114007 -0.15568 0.118966 0.117068 0.118985 -0.107198 0.118999 -0.10406
internal_weight=0 95031.7 91455.6 90511.1 1080.64 89430.5 70392.9 981.508 944.459 19037.6 3576.05 2336.71 2205.48 1239.34 793.388 445.951 2195.23 891.225 586.796 259.93 124.243 131.236 669.145 186.021 99.1278 119.584 304.429 6496.35 30.6023 25.3638 5.36713 6465.74 3.54065 5.23854 11.6525 6427.73 62.4339 6365.3 4.49244 6321.25 3.31052
internal_count=268644 264487 243412 238815 2198 236617 203309 1704 4597 33308 21075 17859 17629 3216 1743 1473 17615 4579 2316 605 686 230 1057 868 494 175 2263 4157 238 105 77 3919 76 133 55 3880 42 3838 128 3805 118
is_linear=0
shrinkage=0.1


Tree=17
num_leaves=45
num_cat=0
split_feature=4 71 38 132 114 51 106 12 72 128 132 73 100 4 136 103 46 58 134 55 45 69 6 114 104 125 86 72 120 82 128 20 33 28 104 32 35 33 60 54 114 20 106 47
split_gain=4532.03 517.23 1646.89 931.018 838.853 754.826 777.606 751.033 1023.83 753.673 675.633 616.935 505.732 448.194 401.338 501.518 474.151 360.203 609.619 299.026 297.267 295.491 307.189 166.669 111.434 14.1079 14.5465 9.57678 67.7018 9.20961 6.68878 0.840108 0.578298 0.280425 0.101037 0.0480185 0.038706 0.0296733 0.0413569 0.0150627 0.00890888 0.00657532 0.00488129 0.000601213
threshold=0.86222824454307567 -0.42995773255825037 0.97134831547737133 1.0000000180025095e-35 -1.0594592094421384 1.1771480441093447 -0.9169216752052306 0.75708988308906566 -0.61781662702560414 1.0000000180025095e-35 1.0000000180025095e-35 -0.73683595657348622 -0.82363617420196522 0.56435802578926098 1.0000000180025095e-35 -0.82561543583869923 1.2312124371528628 0.8940275013446809 1.0000000180025095e-35 0.93125367164611828 1.1052288413047793 -0.08466209843754767 0.59608191251754772 -1.028770327568054 -0.80739906430244435 -0.39156544208526606 -1.1048545837402342 -0.55541378259658802 -1.4185118079185484 -1.3606625795364378 1.0000000180025095e-35 0.93759089708328258 0.77517658472061168 1.1531031131744387 -0.90230539441108693 0.86067304015159618 0.80991587042808544 0.76972517371177684 0.51307979226112377 0.75126060843467724 -0.9470044970512389 1.4004863500595095 -0.95076996088027943 0.84088918566703807
decision_type=2 2 2 2 2 2 2 2 2 2 2 2 2 2 2 2 2 2 2 2 2 2 2 2 2 2 2 2 2 2 2 2 2 2 2 2 2 2 2 2 2 2 2 2
left_child=1 3 14 7 5 6 -4 17 9 -9 -7 12 -6 -10 15 20 -17 19 -19 -1 -3 22 -16 -13 -23 26 29 35 42 30 33 -27 37 -2 40 41 -37 39 -39 -33 43 -5 -29 -28
right_child=25 2 4 27 11 10 -8 8 13 -11 -12 23 -14 -15 21 16 -18 18 -20 -21 -22 24 -24 -25 -26 31 34 28 -30 -31 -32 32 -34 -35 -36 36 -38 38 -40 -41 -42 -43 -44 -45
leaf_value=-0.071971371204357565 -0.10357008920511186 -0.068122374665187127 0.0066059857454394662 -0.11510530684314253 -0.041966719809712755 0.039906698326600029 0.075051771650537724 0.033833913944750271 -0.004928719244390518 -0.022911087338100468 -0.068104976035824424 -0.0094661294195947446 0.033756743560314377 -0.09043637012171829 0.079171245147782551 -0.075713632843290427 0.11023362090550944 0.042329207094919066 -0.14680903251165575 0.064912239370316691 0.041402832283974948 -0.11702853413616016 -0.060123196682806149 -0.063112829112836194 0.044626678248834789 -0.10471545805059401 -0.10305395915546078 -0.10807531271751857 0.5238260532758694 0.1104488098240223 0.11941145749908327 0.11686833113948206 0.10405350002566978 -0.16432137523234458 -0.14738389901251508 -0.1073057318984013 -0.10981905707538125 0.11156180222811721 0.11695587175132947 0.11466345350947499 -0.11424026646044261 -0.11120318134939558 -0.11365540240873251 -0.10691976410545936
leaf_weight=162.35080546140671 2.1000085044652255 353.79553199186921 2183.545992963016 4.4483577758073798 1065.811579387635 1409.0483904629946 6920.5503543280065 52222.736344583333 3286.0375713557005 2450.4313827455044 983.22975103929639 1034.455294303596 5113.5876889042556 753.56719222292304 674.72383324801922 3105.0873699858785 143.46758614107966 727.31866920366883 222.55722966790199 9385.2117898762226 827.22206060215831 181.98293077200651 206.85967223346233 1315.6796591244638 55.691786237061024 0.17127924039959808 2.5277508608996899 11.763891100883482 1.9323583245277394 18.764600003138188 1.6857022047042844 5828.0233145952225 35.615225441753864 1.1905808448791502 0.70815433561801544 83.336978841573 231.45471778139472 25.429127231240273 32.228577136993408 31.149351216852665 1.0849655792117117 147.72044304013252 1.8086877837777127 0.47844446823000897
leaf_count=1469 71 1587 8713 40 5792 2543 11225 125691 9727 9683 6620 3878 17624 3620 1706 15514 278 1453 876 17310 2048 971 1157 8750 138 4 105 176 5 28 1 3811 39 5 5 1323 2906 21 21 23 10 1645 19 13
internal_value=0 0.0266773 0.0145138 0.0311409 0.0278715 0.0455006 0.0586356 0.0321059 0.0277012 0.0312906 -0.00448625 0.00411053 0.0206961 -0.0208797 -0.0336944 -0.0472133 -0.0675015 0.0567418 -0.00198614 0.0625846 0.00859254 0.0198076 0.0464864 -0.0394992 -0.0791496 0.116415 0.0462757 -0.107291 -0.0299733 0.0783746 -0.0425706 0.116752 0.116758 -0.125551 -0.112509 -0.109859 -0.109154 0.116834 0.114577 0.116857 -0.106473 -0.111317 -0.108819 -0.103669
internal_weight=0 95267.4 25574.7 69692.7 20025.9 11496.4 9104.1 69210.2 58712.8 54673.2 2392.28 8529.53 6179.4 4039.6 5548.83 4429.57 3248.55 10497.4 949.876 9547.56 1181.02 1119.26 881.584 2350.13 237.675 5981.16 28.5402 482.465 15.5049 23.7409 4.97629 5952.62 5952.45 3.29059 4.79932 466.96 314.792 5916.83 57.6577 5859.17 4.09116 152.169 13.5726 3.0062
internal_count=268644 264487 88544 175943 65145 29101 19938 169829 148721 135374 9163 36044 23416 13347 23399 19427 15792 21108 2329 18779 3635 3972 2863 12628 1109 4157 238 6114 200 105 77 3919 3915 76 133 5914 4229 3876 42 3834 128 1685 195 118
is_linear=0
shrinkage=0.1


Tree=18
num_leaves=46
num_cat=0
split_feature=4 32 4 34 134 32 56 72 45 132 24 102 96 38 130 69 119 130 130 6 99 133 31 111 67 62 128 50 36 73 35 104 125 86 82 128 20 33 28 104 33 96 0 114 47
split_gain=4259.57 434.715 960.177 730.449 1616.9 1028.07 896.811 859.942 842.363 648.959 509.723 466.458 470.716 649.123 403.933 337.626 312.846 285.438 280.388 251.121 377.268 232.38 220.327 171.268 141.89 468.994 149.09 124.648 120.849 59.901 101.395 48.6433 12.9951 12.7987 7.97265 5.90837 0.747296 0.721649 0.188305 0.0731678 0.0382364 0.0561508 0.0199416 0.00644873 0.000447873
threshold=0.86222824454307567 0.95513343811035167 0.55943343043327343 0.90493261814117443 1.0000000180025095e-35 0.94693833589553844 0.99740716814994823 -0.61940917372703541 1.1844521760940554 1.0000000180025095e-35 1.3369609117507937 -0.73746049404144276 -0.85944256186485279 0.95716044306755077 1.0000000180025095e-35 -0.12393540889024733 -1.2584129571914671 1.0000000180025095e-35 1.0000000180025095e-35 0.63370096683502208 -0.86478739976882923 1.0000000180025095e-35 1.0011367201805117 -0.98719555139541615 0.12445576116442682 0.57190510630607616 1.0000000180025095e-35 1.0993446111679079 0.93224585056304943 -0.72637423872947682 0.9536120891571046 -0.78476670384407032 -0.39156544208526606 -1.1048545837402342 -1.3606625795364378 1.0000000180025095e-35 0.93759089708328258 0.77517658472061168 1.1531031131744387 -0.90002402663230885 0.76972517371177684 -1.2376309037208555 0.14901875704526904 -0.9470044970512389 0.84088918566703807
decision_type=2 2 2 2 2 2 2 2 2 2 2 2 2 2 2 2 2 2 2 2 2 2 2 2 2 2 2 2 2 2 2 2 2 2 2 2 2 2 2 2 2 2 2 2 2
left_child=1 3 11 4 7 22 14 9 -9 -1 -7 12 13 -3 21 -16 -14 23 24 20 -20 -5 -6 -8 25 -4 -26 -21 -19 30 -13 -31 33 34 35 38 -34 40 -2 43 42 -42 -38 44 -35
right_child=32 2 18 6 5 10 17 8 -10 -11 -12 29 16 -15 15 -17 -18 28 19 27 -22 -23 -24 -25 26 -27 -28 -29 -30 31 -32 -33 36 39 -36 -37 37 -39 -40 -41 41 -43 -44 -45 -46
leaf_value=0.036387238206818599 -0.10322371620626816 0.07151619653155257 -0.041659138077218126 0.0844464218290919 -0.092497386725725647 -0.004519496212405695 -0.021813689995265968 -0.0078489166385925686 0.042935696816516204 -0.10892979159534322 0.13085816204302822 -0.066945515934836025 -0.016941523406921202 0.0044695164475259067 0.097219447484457613 -0.044456249419259325 0.064469765095277118 -0.17140373339356518 0.06397904372880249 -0.063547683637226252 -0.080269098548788567 0.0031290698182759938 -0.0054111228754357282 -0.12146333051100051 -0.089489691412749414 0.10813230497215975 -0.016478117465636339 0.15951093773281899 0.0567522996888499 0.046629760337214693 0.24701903068707909 -0.11934394421617911 -0.1042468221728185 -0.10275265276892516 0.10626738057751134 0.11722654461750488 0.11230160260277045 0.10022223870414687 -0.15457938967595342 -0.142149726523537 0.11532027818008948 0.10880391478775671 0.11500758532905778 -0.1127053361593383 -0.10624861911201092
leaf_weight=45425.939172182232 1.9062175452709227 1718.140404753387 2040.0126853585243 5739.9365476891398 1956.6844702288508 2547.6878940612078 850.6621026918292 10486.026377499104 4743.6824392341077 309.40838716924191 312.20794570446014 48.145942941308022 539.58905963599682 9050.8135847337544 250.87164464592934 510.47864426672459 3769.4636832624674 24.288431704044342 894.60305046290159 458.63809531927109 227.4016692340374 374.34445530176163 341.16962783038616 216.33707548677921 926.90587509796023 232.88410471379757 400.53971951082349 26.49982787668705 525.56808941066265 18.87582004070282 13.080959178507326 273.7208558395505 0.15564102306961913 2.3111239820718796 17.612849317491058 1.5522481203079221 27.373104989528656 33.395115733146667 1.1415470689535139 0.65018006227910152 28.521394014358521 24.653778046369553 5355.6831637620926 0.99440024793148074 0.43550955317914475
leaf_count=95647 71 4016 11195 8738 8515 8574 2117 33532 15390 4255 799 237 1395 38352 307 1322 8739 89 1822 1654 857 854 1468 885 6972 966 3043 35 736 33 38 1905 4 106 28 1 22 39 5 4 20 22 3812 10 13
internal_value=0 0.0239951 0.0111504 0.0275481 0.0240023 -0.0297598 0.0551564 0.0285506 0.00796925 0.0354041 0.0102594 0.0236799 0.0263432 0.0151665 0.0709148 0.00222714 0.0542753 -0.0118557 -0.0259794 0.00875102 0.0347436 0.0794678 -0.0795674 -0.0420179 -0.0414826 -0.0263113 -0.0674594 -0.0513635 0.0466741 -0.089815 0.000132146 -0.108637 0.114532 0.0448114 0.0756503 -0.0415785 0.114871 0.114877 -0.122459 -0.111186 0.114967 0.112299 0.114994 -0.105805 -0.103307
internal_weight=0 95254.6 20639.3 74615.3 66122.8 5157.75 8492.49 60965.1 15229.7 45735.3 2859.9 15431.8 15078 10769 6875.63 761.35 4309.05 1616.86 5207.49 1607.14 1122 6114.28 2297.85 1067 3600.34 2272.9 1327.45 485.138 549.857 353.824 61.2269 292.597 5496.39 26.6041 22.2129 4.60001 5469.78 5469.63 3.04776 4.39121 5436.23 53.1752 5383.06 3.74103 2.74663
internal_count=268644 264487 81259 183228 168180 19356 15048 148824 48922 99902 9373 54715 52502 42368 11221 1629 10134 3827 26544 4368 2679 9592 9983 3002 22176 12161 10015 1689 825 2213 275 1938 4157 238 105 77 3919 3915 76 133 3876 42 3834 129 119
is_linear=0
shrinkage=0.1


Tree=19
num_leaves=36
num_cat=0
split_feature=4 90 31 69 101 134 77 110 63 112 69 34 131 4 76 24 50 135 85 113 35 125 86 82 128 0 33 28 99 33 67 24 114 47 77
split_gain=3990.26 412.36 414.946 758.144 974.013 916.346 597.492 679.805 577.412 557.103 515.521 444.243 441.641 428.116 280.057 194.131 144.027 43.7207 22.7248 13.6559 38.2445 12.0352 11.2664 6.89198 5.23442 1.21951 0.891477 0.128233 0.0530113 0.0487417 0.0709568 0.035052 0.00468085 0.00033363 0.000320357
threshold=0.86222824454307567 -0.22279337048530576 0.99543973803520214 -0.11235321313142775 -0.82047548890113819 1.0000000180025095e-35 -1.2933719754219053 -0.85168051719665516 0.522728592157364 -0.90250784158706654 -0.09580053016543387 0.90798616409301769 1.0000000180025095e-35 0.56534752249717724 -1.2295264005661009 1.2931694984436037 1.1515619754791262 1.0000000180025095e-35 -0.80567440390586842 -1.3673761487007139 0.86326980590820324 -0.39156544208526606 -1.1048545837402342 -1.3606625795364378 1.0000000180025095e-35 -0.28346435725688929 0.77517658472061168 1.1531031131744387 -0.5893346071243285 0.76972517371177684 0.044713858515024192 0.95292809605598461 -0.9470044970512389 0.84088918566703807 -1.1726180911064146
decision_type=2 2 2 2 2 2 2 2 2 2 2 2 2 2 2 2 2 2 2 2 2 2 2 2 2 2 2 2 2 2 2 2 2 2 2
left_child=1 2 6 4 5 -4 7 16 15 11 -10 -8 -9 -6 -11 -5 -1 18 -3 20 -20 22 23 24 27 -21 29 -2 32 31 -31 -23 33 -24 -33
right_child=21 17 3 8 13 -7 9 12 10 14 -12 -13 -14 -15 -16 -17 -18 -19 19 25 -22 26 28 -25 -26 -27 -28 -29 -30 30 -32 34 -34 -35 -36
leaf_value=0.12843142264986898 -0.10291156373302156 0.17430829995961303 0.020907393212696038 -0.085137774582288162 0.073190888934644635 -0.033791132345236223 0.022206026985230127 -0.004190409405307031 0.048522809519351923 0.086398048116386017 -0.017855620584749276 0.046113163136577345 0.1582930969257261 -0.038617620245775149 -0.078093344018490024 0.053343545020066732 -0.14920835393662304 0.12215475272377002 0.071676160387579929 -0.10820817685317481 -0.11594390489525695 0.11017711141380976 -0.10248126169641331 0.10215221537486502 0.11532101016117687 -0.13496843938910996 0.096407851406316442 -0.14676588759482981 -0.13754426692525179 0.10571120205880667 0.11342232187355246 0.11337496065687525 -0.11135306497144137 -0.10564361258880257 0.11372508532630479
leaf_weight=1305.7650841921568 1.7297821640968352 3.0284190177917472 23265.209314193577 1231.3445031680167 4137.1692093238235 3527.0404541492462 43010.107301663607 1051.5536412447691 1552.4688189737499 120.50507688522339 4749.412046007812 9487.0492217056453 198.92836326360703 373.36804427951574 733.67447235435247 110.29859185963869 18.955761842429638 9.2665038108825666 16.447883449494839 240.08896913379431 32.00549128651619 34.477059118449688 2.1117655690759451 16.546016912907366 1.426544666290283 18.329741351306438 31.351810678839684 1.0849882215261457 0.59535990655421844 20.569876208901405 28.421529054641724 4876.7430055141449 0.91013640165329013 0.39620700106024731 26.273737788200378
leaf_count=1668 71 1 64625 7731 7753 15391 104311 3280 4513 257 24932 20512 224 1643 2843 281 95 5 95 3772 411 33 107 28 1 144 39 5 3 20 22 3785 10 13 20
internal_value=0 0.0215932 0.021975 0.0140499 0.0209444 0.0137067 0.0274938 0.0745399 -0.014185 0.0252229 -0.00150329 0.0265264 0.0216577 0.0639357 -0.0548874 -0.073753 0.124459 -0.0918817 -0.0982818 -0.100972 -0.0522548 0.112874 0.0433841 0.0729997 -0.0407287 -0.110106 0.113218 -0.119816 -0.110007 0.113323 0.110185 0.113354 -0.10521 -0.102981 0.113377
internal_weight=0 95192 94872.8 38946.3 31302.8 26792.2 55926.5 2575.2 7643.52 53351.3 6301.88 52497.2 1250.48 4510.54 854.18 1341.64 1324.72 319.167 309.901 306.872 48.4534 5042.64 24.8008 20.7873 4.24132 258.419 5017.84 2.81477 4.01347 4986.49 48.9914 4937.49 3.41811 2.50797 4903.02
internal_count=268644 264487 260059 126869 89412 80016 133190 5267 37457 127923 29445 124823 3504 9396 3100 8012 1763 4428 4423 4422 506 4157 238 105 77 3916 3919 76 133 3880 42 3838 130 120 3805
is_linear=0
shrinkage=0.1


Tree=20
num_leaves=45
num_cat=0
split_feature=4 71 38 132 10 134 32 73 114 51 106 69 73 98 102 136 103 44 5 69 129 18 6 81 126 125 86 72 79 82 128 33 28 27 33 67 99 31 32 35 20 114 72 47
split_gain=3727.69 398.647 1202.33 703.518 631.894 846.492 843.677 684.837 584.631 593.822 651.087 552.259 505.834 451.877 438.737 389.942 395.618 403.737 336.338 335.747 293.389 270.181 240.003 146.064 139.007 11.2087 9.91877 8.87375 43.9643 5.94555 4.649 1.09108 0.0883272 0.0620211 0.0624942 0.088248 0.0371155 0.0256727 0.0188845 0.032072 0.00668052 0.00339353 0.00289724 0.000247201
threshold=0.86222824454307567 -0.42995773255825037 0.97422999143600475 1.0000000180025095e-35 0.67014753818511974 1.0000000180025095e-35 0.94506561756134044 -0.78693887591361988 -1.0594592094421384 1.1771480441093447 -0.91090103983879078 -0.039015123620629304 -0.73683595657348622 -0.85423386096954335 -0.80003261566162098 1.0000000180025095e-35 -0.82561543583869923 1.1417623758316042 0.52347058057785045 -0.08466209843754767 1.0000000180025095e-35 1.1728490591049197 0.59608191251754772 -1.3494447469711301 -1.8636433482170103 -0.39156544208526606 -1.1048545837402342 -0.55541378259658802 -0.8690543770790099 -1.3606625795364378 1.0000000180025095e-35 0.77517658472061168 1.1531031131744387 1.0000000180025095e-35 0.76972517371177684 0.044713858515024192 -0.5893346071243285 0.93816250562667858 0.86067304015159618 0.80991587042808544 1.4004863500595095 -0.9470044970512389 -0.55994734168052662 0.84088918566703807
decision_type=2 2 2 2 2 2 2 2 2 2 2 2 2 2 2 2 2 2 2 2 2 2 2 2 2 2 2 2 2 2 2 2 2 2 2 2 2 2 2 2 2 2 2 2
left_child=1 3 15 4 13 7 -7 -6 9 10 -4 -11 14 20 -10 16 21 -18 -15 22 -1 -3 -17 -21 -14 26 29 38 -29 30 32 33 -2 -27 42 -36 41 -30 40 -40 -5 43 -35 -28
right_child=25 2 8 27 5 6 -8 -9 12 11 -12 -13 24 18 -16 19 17 -19 -20 23 -22 -23 -24 -25 -26 31 36 28 37 -31 -32 -33 -34 34 35 -37 -38 -39 39 -41 -42 -43 -44 -45
leaf_value=0.014693253205707985 -0.10263013949135846 0.035696627290391129 0.00537020122903396 -0.11333565173930954 0.027055961171366688 -0.096264669450148901 0.0024064715600749416 -0.010895583320502758 -0.042369944154023842 0.061020225492524983 0.066639057429439194 -0.042740696794576337 -0.066155280140378206 0.039823383512202187 0.029852575012044077 0.073411024650929566 -0.074764421101098266 -0.0023997690117836079 0.076396347106751708 0.058210246009875316 -0.10227255335199095 -0.068377668123783653 -0.051156656109032576 -0.10538782901422324 -0.016513234381157857 0.10545016523569853 -0.10224280334465004 0.33717253085486276 -0.12294184099824904 0.09805073362864257 0.11365224887209349 0.092579880337497589 -0.140384964487731 0.11194360420394607 0.10302922463898095 0.11198311199824627 -0.13271967074974408 -0.10751040653882148 -0.10603506730911619 -0.10850673711702891 -0.10920876738287771 -0.11015829388097231 0.11083539625227015 -0.10509804769270553
leaf_weight=2242.6639006026089 1.5692450255155592 940.82073333114386 2433.9123573452234 4.0487039610743514 44507.097458850592 1136.5866070538759 3647.3962507322431 5323.4678089432418 1023.9207120202482 769.15944766998291 6035.2311858199537 1539.911334361881 1020.1824079267681 8776.5157744884491 4711.4120480716228 800.32671907544136 2940.834040813148 1044.9277188777924 3524.244984574616 70.158764071762562 237.12474881857634 339.43616013228893 191.72175746411085 245.67776750028133 1261.6785008795559 14.954468589276074 1.9150341711938419 2.6788647882640353 1.1907440200448025 15.565798074007036 1.3087687492370608 29.481538847088814 1.024008587002754 4483.4217133522034 19.072335064411163 26.030398845672607 0.55726180970668426 11.396319996565579 70.514908414334059 205.47137746959925 125.86103170365095 0.83199938386678685 23.71558728441596 0.36026903055608261
leaf_count=6060 71 2412 8934 40 104740 6085 13954 14493 5111 1171 9286 7561 5077 17367 16368 1953 14006 5175 5872 215 1258 1452 1177 1276 7370 16 107 7 11 28 1 39 5 3799 20 22 3 182 1323 2906 1645 10 23 13
internal_value=0 0.0194252 0.0086894 0.0233262 0.0241083 0.0191441 -0.021036 0.0230015 0.0215643 0.0367751 0.0490313 -0.00817758 0.00111504 0.0424511 0.0169588 -0.0281211 -0.0402587 -0.0557929 0.0503018 0.0207491 0.00350864 0.00810328 0.0493373 -0.0690468 -0.0387074 0.111406 0.0419715 -0.105528 -0.0306811 0.0703815 -0.0399953 0.111756 -0.117539 0.11188 0.111901 0.108197 -0.108955 -0.10897 -0.108343 -0.107875 -0.109337 -0.104693 0.111938 -0.102695
internal_weight=0 95185.6 25369.3 69816.3 69395.1 54614.5 4783.98 49830.6 18795.4 10778.2 8469.14 2309.07 8017.19 14780.5 5735.33 6573.9 5266.02 3985.76 12300.8 1307.89 2479.79 1280.26 992.048 315.837 2281.86 4619.81 23.1324 421.162 15.2659 19.4678 3.90202 4596.68 2.59325 4567.19 4552.24 45.1027 3.66456 12.5871 405.896 275.986 129.91 3.1073 4507.14 2.2753
internal_count=268644 264487 88544 175943 169829 139272 20039 119233 60878 26952 18220 8732 33926 30557 21479 27666 23045 19181 23239 4621 7318 3864 3130 1491 12447 4157 238 6114 200 105 77 3919 76 3880 3864 42 133 193 5914 4229 1685 130 3822 120
is_linear=0
shrinkage=0.1


Tree=21
num_leaves=44
num_cat=0
split_feature=4 31 30 131 105 75 31 5 52 74 104 59 75 123 102 131 129 0 2 7 5 125 78 36 65 72 92 22 22 74 125 33 32 76 113 27 33 65 23 99 72 114 84
split_gain=3470.3 385.026 461.613 414.019 363.789 368.24 779.486 390.614 355.872 434.074 166.98 205.727 160.87 148.275 138.352 128.347 84.7547 61.6712 53.6566 97.2041 46.6829 10.4994 8.78657 7.64861 110.34 12.7519 7.33209 5.06101 4.13033 3.60857 41.4632 1.32149 0.453182 0.173654 0.0881114 0.0784894 0.0786006 0.109917 0.0610496 0.025758 0.00376452 0.00226464 0.000272354
threshold=0.86222824454307567 1.0116301178932192 1.1062218546867373 1.0000000180025095e-35 -0.81487473845481861 -1.1553453207015989 1.0015522837638857 0.57841539382934581 1.0728951692581179 -0.93465211987495411 -0.91295161843299855 0.70248079299926769 -1.3217099308967588 -1.0040981769561765 -0.86121755838394154 1.0000000180025095e-35 1.0000000180025095e-35 0.49151365458965307 0.45532864332199102 0.61332818865776073 0.77826640009880077 -0.39156544208526606 -1.0841071009635923 0.88576757907867443 0.21186061948537829 -0.73071998357772816 -1.1042501926422117 1.470168471336365 1.3858612179756167 -1.0565137863159177 -1.2293479442596433 0.77517658472061168 0.95697873830795299 -1.0937474370002744 -0.9057474136352538 1.0000000180025095e-35 0.76972517371177684 0.18017701804637912 1.3096073865890505 -0.5893346071243285 -0.55994734168052662 -0.9470044970512389 -1.121406018733978
decision_type=2 2 2 2 2 2 2 2 2 2 2 2 2 2 2 2 2 2 2 2 2 2 2 2 2 2 2 2 2 2 2 2 2 2 2 2 2 2 2 2 2 2 2
left_child=1 2 4 10 5 6 -1 -7 12 -10 18 16 -6 15 -13 17 -12 -4 19 -3 -20 22 27 29 -25 -26 34 28 38 30 -5 35 -31 -17 -15 -23 40 -38 -2 41 -37 42 -24
right_child=21 3 13 23 8 7 -8 -9 9 -11 11 14 -14 26 -16 33 -18 -19 20 -21 -22 31 39 24 25 -27 -28 -29 -30 32 -32 -33 -34 -35 -36 36 37 -39 -40 -41 -42 -43 -44
leaf_value=0.10923925720345383 -0.10238027694543661 -0.16206773648464978 -0.05471798230792433 0.24478926670550596 0.1766036209770265 0.026351343190117078 -0.011880130681836146 0.012198667534637483 0.030504879704528934 -0.011452218970288326 0.059232581557230116 -0.04888279501624071 -0.071857755993415748 -0.15314728684565376 0.022624327377461218 -0.12956135512915595 0.19404464679235159 0.088128088215417164 -0.11793807696996779 0.2556835833437972 0.12244139270738133 0.10308128801053618 -0.10497547060124864 0.37066637673704123 0.00096172576895244943 -0.11394702487749322 -0.26995063688240134 0.093857980476199698 0.1121855581045349 -0.12679004502483404 -0.12484843338684536 0.088719347502853721 -0.11490679625328007 -0.14919189062137769 -0.13754996190597574 0.11067872339967172 0.10032070158760123 0.11072878819191845 -0.13509768250857854 -0.12865296994936748 0.10935914170549953 -0.10909998392798487 -0.10213752179723334
leaf_weight=1312.6502443999052 1.4031020887196128 10.556670770049097 30.950908496975899 3.3388325273990622 26.963449001312256 36442.473470680416 892.71379575878382 41951.010655742139 4151.2289827689528 6073.109008140862 211.96428661048412 476.10980661585927 776.80591383948922 6.5791373103857049 626.76942620426416 21.789918258786205 59.788448065519333 1286.0827933773398 165.90887024998665 11.791212558746336 8.4926564842462522 13.826594538986681 0.42529832758009778 4.9724738374352446 10.267205998301504 162.6444883570075 6.8439433723688117 14.679671451449392 1.1989097595214846 199.81114335358143 33.310560129582882 27.777658104896545 38.233189418911934 5.6812290400266638 8.0576685070991516 4100.751632809639 17.667852759361267 23.83537745475769 0.9609217345714568 0.51933890581130615 21.733660116791725 0.75975268334150303 1.6504991780966523
leaf_count=2213 70 47 81 9 9 91271 3074 111750 13680 26936 393 1740 5356 30 1892 126 74 1437 648 4 14 16 16 9 74 1737 30 34 1 1213 213 39 358 26 43 3799 20 22 5 3 23 10 99
internal_value=0 0.0175018 0.018441 -0.0256469 0.0175807 0.0199115 0.0602111 0.0187778 0.000546284 0.00558297 -0.00137441 0.0109582 -0.0635228 0.0761445 -0.00824509 0.0803089 0.0888926 0.0847711 -0.0875387 0.0583466 -0.106233 0.110102 0.0405561 -0.109923 -0.0937681 -0.107124 -0.184511 0.067909 -0.0390038 -0.120384 -0.0911737 0.110459 -0.124881 -0.133621 -0.144561 0.110603 0.110628 0.106298 -0.115679 -0.108179 0.110672 -0.104429 -0.102719
internal_weight=0 95016.9 92992.9 2023.96 91627 80598.8 2205.36 78393.5 11028.1 10224.3 1571.38 1374.63 803.769 1365.99 1102.88 1344.5 271.753 1317.03 196.749 22.3479 174.402 4227.19 21.5975 452.578 177.884 172.912 21.4807 18.2426 3.56293 274.694 36.6494 4205.59 238.044 27.4711 14.6368 4177.82 4163.99 41.5032 2.36402 3.35489 4122.49 2.83555 2.0758
internal_count=268644 264487 256062 8425 254289 208308 5287 203021 45981 40616 4812 4099 5365 1773 3632 1670 467 1518 713 51 662 4157 238 3613 1820 1811 103 110 76 1793 222 3919 1571 152 73 3880 3864 42 75 128 3822 125 115
is_linear=0
shrinkage=0.1


Tree=22
num_leaves=39
num_cat=0
split_feature=4 84 72 112 50 108 99 72 2 2 36 129 132 33 105 45 109 75 129 90 48 125 86 82 67 128 77 33 31 111 27 33 65 28 99 20 114 47
split_gain=3225.07 355.719 347.262 832.557 900.546 768.845 635.14 639.069 594.098 511.211 493.59 748.548 425.478 407.159 389.64 267.486 175.132 136.683 74.8325 55.2829 81.0706 9.89701 7.74615 4.40745 3.95386 3.6899 2.66033 1.58344 0.698116 0.286002 0.0985806 0.098066 0.134231 0.0430459 0.0185833 0.00492196 0.00179025 0.000133002
threshold=0.86222824454307567 -1.4249046444892881 -0.54897242784500111 -1.2800990939140318 1.1971195936203005 -1.0566512942314146 -0.80851832032203663 -0.61781662702560414 0.44268898665905004 0.49797318875789648 0.91651272773742687 1.0000000180025095e-35 1.0000000180025095e-35 0.92181056737899791 -0.7989925444126128 0.79727208614349376 -1.1078376770019529 -1.1116620302200315 1.0000000180025095e-35 -1.2149052023887632 1.1454485058784487 -0.39156544208526606 -1.1048545837402342 -1.3606625795364378 0.19027508050203326 1.0000000180025095e-35 -1.2452836036682127 0.77517658472061168 0.99314773082733165 -0.96008288860321034 1.0000000180025095e-35 0.76972517371177684 0.18017701804637912 1.1531031131744387 -0.5893346071243285 0.98328337073326122 -0.9470044970512389 0.84088918566703807
decision_type=2 2 2 2 2 2 2 2 2 2 2 2 2 2 2 2 2 2 2 2 2 2 2 2 2 2 2 2 2 2 2 2 2 2 2 2 2 2
left_child=1 15 6 4 5 -4 7 12 13 -9 11 -5 -3 -8 -12 -1 -6 -10 19 20 -17 22 23 25 -21 33 28 30 -20 -28 -23 35 -33 -2 36 -32 37 -24
right_child=21 2 3 10 16 -7 8 9 17 -11 14 -13 -14 -15 -16 18 -18 -19 26 24 -22 27 34 -25 -26 -27 29 -29 -30 -31 31 32 -34 -35 -36 -37 -38 -39
