tree
version=v4
num_class=1
num_tree_per_iteration=1
label_index=0
max_feature_idx=136
objective=binary sigmoid:1
feature_names=Column_0 Column_1 Column_2 Column_3 Column_4 Column_5 Column_6 Column_7 Column_8 Column_9 Column_10 Column_11 Column_12 Column_13 Column_14 Column_15 Column_16 Column_17 Column_18 Column_19 Column_20 Column_21 Column_22 Column_23 Column_24 Column_25 Column_26 Column_27 Column_28 Column_29 Column_30 Column_31 Column_32 Column_33 Column_34 Column_35 Column_36 Column_37 Column_38 Column_39 Column_40 Column_41 Column_42 Column_43 Column_44 Column_45 Column_46 Column_47 Column_48 Column_49 Column_50 Column_51 Column_52 Column_53 Column_54 Column_55 Column_56 Column_57 Column_58 Column_59 Column_60 Column_61 Column_62 Column_63 Column_64 Column_65 Column_66 Column_67 Column_68 Column_69 Column_70 Column_71 Column_72 Column_73 Column_74 Column_75 Column_76 Column_77 Column_78 Column_79 Column_80 Column_81 Column_82 Column_83 Column_84 Column_85 Column_86 Column_87 Column_88 Column_89 Column_90 Column_91 Column_92 Column_93 Column_94 Column_95 Column_96 Column_97 Column_98 Column_99 Column_100 Column_101 Column_102 Column_103 Column_104 Column_105 Column_106 Column_107 Column_108 Column_109 Column_110 Column_111 Column_112 Column_113 Column_114 Column_115 Column_116 Column_117 Column_118 Column_119 Column_120 Column_121 Column_122 Column_123 Column_124 Column_125 Column_126 Column_127 Column_128 Column_129 Column_130 Column_131 Column_132 Column_133 Column_134 Column_135 Column_136
feature_infos=[-1.8014661073684692:2.1475074291229248] [-1.7160434722900391:2.0597634315490723] [-1.6382262706756592:1.9801409244537354] [-1.5680137872695923:1.9086390733718872] [-1.5054070949554443:1.8452587127685547] [-1.4504051208496094:1.7899996042251587] [-1.4123568534851074:1.7937201261520386] [-1.3844102621078491:1.9274762868881226] [-1.3517893552780151:1.9831451177597046] [-1.3099035024642944:2.0064544677734375] [-1.2559221982955933:2.0118343830108643] [-1.1870334148406982:2.0267508029937744] [-1.1039742231369019:2.0394654273986816] [-1.0067610740661621:2.1682119369506836] [-0.90047705173492432:2.2671928405761719] [-0.78966546058654785:2.4052433967590332] [-0.67814630270004272:2.5269482135772705] [-0.65591526031494141:2.5277442932128906] [-0.65910369157791138:2.5302853584289551] [-0.66488730907440186:2.4445860385894775] [-0.66619455814361572:2.3619022369384766] [-0.67410272359848022:2.2960772514343262] [-0.67701548337936401:2.1994528770446777] [-0.7797551155090332:2.1797337532043457] [-1.0841877460479736:2.1696581840515137] [-1.4308524131774902:2.0883691310882568] [-1.6366665363311768:1.9448176622390747] [-1.8254417181015015:1.7314887046813965] [-1.8814246654510498:1.5598906278610229] [-2.2033448219299316:1.3473584651947021] [-2.6534385681152344:1.1459542512893677] [-2.9375624656677246:1.0433628559112549] [-2.8964071273803711:1.0182701349258423] [-2.6209216117858887:1.0153312683105469] [-1.9672813415527344:1.0222163200378418] [-1.2877312898635864:1.0987448692321777] [-0.66342759132385254:1.3781088590621948] [-0.66882967948913574:1.4357191324234009] [-0.6713901162147522:1.5244829654693604] [-0.6765514612197876:1.427788257598877] [-0.67391806840896606:1.3506048917770386] [-0.67623704671859741:1.3033223152160645] [-0.67480045557022095:1.4334096908569336] [-0.67815649509429932:1.6771683692932129] [-0.67593681812286377:1.8418123722076416] [-0.67998087406158447:1.9795904159545898] [-0.67735743522644043:1.8671952486038208] [-0.68031680583953857:1.7601110935211182] [-0.67738151550292969:1.8138210773468018] [-0.6802976131439209:2.0951991081237793] [-0.67868822813034058:2.3221406936645508] [-0.68411111831665039:2.3866791725158691] [-0.6882440447807312:2.3278176784515381] [-0.69760811328887939:2.41339111328125] [-0.68820065259933472:2.0181429386138916] [-0.66498374938964844:1.7058380842208862] [-0.63047897815704346:1.5109990835189819] [-0.79989981651306152:1.3641012907028198] [-0.9627259373664856:1.3483799695968628] [-0.83332031965255737:1.3266682624816895] [-0.62303602695465088:1.3006186485290527] [-0.62908732891082764:1.6912268400192261] [-0.65896600484848022:1.8743280172348022] [-0.67422842979431152:1.7138135433197021] [-0.93073725700378418:1.3433690071105957] [-1.1747497320175171:1.0728911161422729] [-1.3727543354034424:0.99044626951217651] [-1.6713657379150391:0.88485002517700195] [-1.7223098278045654:0.75389385223388672] [-1.8947262763977051:0.60495084524154663] [-1.7363165616989136:0.45876148343086243] [-1.7446892261505127:0.33052113652229309] [-1.674402117729187:0.23037496209144592] [-1.5101885795593262:0.15855956077575684] [-1.4517455101013184:0.2961885929107666] [-1.6804615259170532:0.9557119607925415] [-1.8599822521209717:1.4404212236404419] [-1.985605001449585:1.2026444673538208] [-2.0616223812103271:1.1271375417709351] [-2.1140036582946777:0.66064220666885376] [-2.1613881587982178:0.36351838707923889] [-2.1866812705993652:0.28676301240921021] [-2.1955721378326416:0.33890664577484131] [-2.1908931732177734:0.39074629545211792] [-2.1716046333312988:0.43792322278022766] [-2.1392703056335449:0.47703936696052551] [-2.091315746307373:0.50853937864303589] [-2.0271344184875488:0.53271615505218506] [-1.9481716156005859:0.67684948444366455] [-1.857685923576355:0.56802195310592651] [-1.7596726417541504:0.64831268787384033] [-1.7565661668777466:1.0676363706588745] [-1.6520191431045532:1.4166257381439209] [-1.5958865880966187:1.6290324926376343] [-1.5394163131713867:1.6649528741836548] [-1.4922878742218018:1.6182941198348999] [-1.4531639814376831:1.5608183145523071] [-1.4315723180770874:1.5595740079879761] [-1.414076566696167:1.5636097192764282] [-1.5819015502929688:1.563044548034668] [-1.8758529424667358:1.5685317516326904] [-2.4619696140289307:1.5680602788925171] [-2.648137092590332:1.5700795650482178] [-2.4631106853485107:1.5662518739700317] [-2.0341367721557617:1.5674868822097778] [-1.4475361108779907:1.5623446702957153] [-1.1194825172424316:1.563502311706543] [-1.1123948097229004:1.561995267868042] [-1.1531716585159302:1.5723429918289185] [-1.2142764329910278:1.5757462978363037] [-1.369315505027771:1.5835809707641602] [-1.5627152919769287:1.5861003398895264] [-1.9974493980407715:1.5904537439346313] [-2.3280599117279053:1.5886306762695312] [-2.4821960926055908:1.5877697467803955] [-1.9469403028488159:1.5865405797958374] [-1.6131480932235718:1.5868538618087769] [-1.6319060325622559:1.7016431093215942] [-1.6864286661148071:2.5795986652374268] [-1.7459897994995117:2.8008601665496826] [-1.8207311630249023:2.5472877025604248] [-1.9280952215194702:1.7488086223602295] [-2.15055251121521:1.6308574676513672] [-2.3795907497406006:1.6220458745956421] [-2.6580204963684082:1.8138364553451538] [-2.9761693477630615:2.1341862678527832] [-3.3559722900390625:2.7791450023651123] [-3.8531808853149414:3.7871904373168945] [0:1] [0:1] [0:1] [0:1] [0:1] [0:1] [0:1] [0:1] [0:1]
tree_sizes=5134 5250 5480 4385 4296 4202 6855 6189 6791 6866 6229 6782 6888 5885 6604 6744 6658 5813 6637 6343 6802 6942 6928 6584 6629 6680 6714 6776 6912 6365 6921 6978 6922 6600 6689 6720 6960 6583 6793 6950 6881 6925 5806 6476 6481 6959 6615 5515 6765 5892 6691 5981 6592 6508 6917 6997 6865 6961 6920 6938 6849 4490 6295 6968 5798 6485 4867 6503 6936 5766 5761 6964 6709 4942 6751 6685 6941 5832 4701 5800 4207 6442 6080 6955 6469 6688 5606 6469 6493 6577 6796 6895 6961 4301 6943 6921 6346 6118 6569 6998 5743 6835 4874 6826 5731 5265 6777 6922 6279 4639 5415 6567 6290 4622 4848 6464 6947 5309 6922 6722 6627 6461 6035 6914 6368 6770 5935 5191 5310 6787 6944 4411 6698 5540 6245 6370 5279 6269 6931 6252 6777 6368 6130 6363 5088 5796 4805 6853 6240 4222 5393 5173 6797 4632 6309 6927 5793 6750 5402 5250 5995 6704 5779 6552 6245 4949 6683 6910 5687 5232 5317 5635 4327 5919 6611 4786 6058 4307 6555 6929 6788 4829 6710 4808 6452 6228 5732 6641 6810 6412 5929 6921 6596 5716 5777 4520 5273 6156 6676 6001

Tree=0
num_leaves=47
num_cat=0
split_feature=45 53 90 31 135 53 131 53 134 109 3 118 106 46 136 53 136 103 126 59 108 96 134 104 81 73 120 114 111 37 97 83 104 31 121 73 34 114 117 9 0 0 5 27 31 1
split_gain=19519.9 13372.1 13441.2 10976.6 12413.4 6747.12 8207.62 6016.04 6639.65 5957.47 5777.17 3400.74 3381.82 3050.05 2781.5 2624.83 3688.61 3633.12 2974.07 2816.16 2132.15 2091.91 1806.52 1583.83 1141.27 2099.99 449.383 380.602 301.937 262.78 189.563 186.126 179.616 176.449 163.808 480.826 118.921 8.11333 72.3264 5.68434e-14 2.84217e-14 7.10543e-15 3.55271e-15 3.55271e-15 8.88178e-16 4.44089e-16
threshold=0.73950347304344188 1.0886340141296389 -0.25147110223770136 0.99951294064521801 1.0000000180025095e-35 1.0650071501731875 1.0000000180025095e-35 1.1213983893394472 1.0000000180025095e-35 -1.0926721692085264 0.65938657522201549 -0.91851189732551564 -0.91975095868110646 1.213525712490082 1.0000000180025095e-35 1.0584710240364077 1.0000000180025095e-35 -0.84475702047348011 -1.7857581973075864 0.78373602032661449 -1.0660625100135801 -0.86969146132469166 1.0000000180025095e-35 -0.84658175706863392 -0.29123763740062708 -0.38041727244853968 -1.7491652369499204 -0.92684864997863758 -0.91136440634727467 0.54785621166229259 -0.93655729293823231 -1.1780812144279478 -0.90873104333877552 0.93527567386627208 -1.8759855628013609 -0.37105359137058253 0.82415473461151134 -0.91931435465812672 -0.90178579092025746 1.1096710562705996 -0.28085233271121973 0.66013249754905712 0.79381084442138683 1.4771459698677065 0.9200769066810609 0.68885222077369701
decision_type=2 2 2 2 2 2 2 2 2 2 2 2 2 2 2 2 2 2 2 2 2 2 2 2 2 2 2 2 2 2 2 2 2 2 2 2 2 2 2 2 2 2 2 2 2 2
left_child=27 3 7 4 5 6 -2 9 20 13 12 -12 -6 -3 -7 16 17 -5 23 -18 -9 -11 -20 -17 25 36 -27 28 30 45 41 -10 33 -32 40 -36 -4 38 42 -39 -26 -1 -29 -43 -44 -30
right_child=1 2 24 15 10 14 -8 8 31 21 11 -13 -14 -15 -16 18 19 -19 22 -21 -22 -23 -24 -25 34 26 -28 37 29 -31 32 -33 -34 -35 35 -37 -38 39 -40 -41 -42 43 44 -45 -46 -47
leaf_value=-2.5152723209216354 -2.0857360726693344 -2.0910617932608639 -1.8820530138736531 -1.7570436671811476 -1.9404832736315578 -1.8660322193986323 -1.7406405651708416 -1.3898012491198681 -1.5774716014731873 -1.6510762582349101 -2.0250836453473342 -1.7025783982434453 -1.6390755390525018 -1.5575664997787082 -2.2424749332105272 -1.6709369544663262 -2.1359361326817483 -1.8901351291104129 -1.7173068656578983 -1.8416826088239064 -1.6126387810974943 -1.7926688352791618 -1.4391655926975819 -2.0053268162831728 -2.5152723209216354 -2.3598661755534276 -1.510073924629415 -2.5152723209216354 -2.5152723209216354 -1.4222506190784898 -2.3576323424885635 -2.4765978244174138 -1.6066096638991643 -1.354050347716286 -2.5152723209216354 -2.0815927754946451 -2.4804644237306928 -2.5152723209216354 -1.7875067599106531 -2.5152723209216354 -2.5152723209216354 -2.5152723209216354 -2.5152723209216354 -2.5152723209216354 -2.5152723209216354 -2.5152723209216354
leaf_weight=4.9307727068662635 6538.6499146521091 747.84017875790596 3.5034832954406729 4644.8077241182327 455.4363839328289 3669.8908163309097 770.39096802473068 522.35497637093067 2.3656126707792273 1933.0224243849516 1183.4846205115318 451.77811110019684 2038.2076434791088 125.08805276453495 207.37393683195114 191.80595146119595 687.17569446563721 3672.985480517149 2488.2450220286846 617.53279428184032 2412.3095510303974 2267.277335986495 257.69670498371124 541.62634816765785 127.06221975386143 7.1376626044511786 48.554008841514587 6.5996496230363828 1.5930188745260223 7.1038447022438049 21.10955564677716 86.04403929412365 4.8829414248466518 1.9104644209146489 68.120521396398544 40.923733443021774 63.734768360853195 278.3231547921896 1.5241675227880467 136.16518475115299 15.778472661972044 1.7447349578142191 2.9584636241197586 24.881437659263611 3.5653279572725296 1.5930188745260236
leaf_count=65 60642 6972 26 29187 3622 26700 4726 1537 11 10283 10323 2615 10620 559 2219 1055 6687 27528 14736 4356 11989 14982 874 4627 1675 84 196 87 21 23 248 1104 24 5 898 378 820 3669 10 1795 208 23 39 328 47 21
internal_value=-2.40626 -1.84774 -1.73747 -1.88062 -1.9381 -1.9928 -2.04936 -1.71037 -1.5987 -1.77691 -1.78991 -1.93598 -1.69412 -2.01461 -1.88617 -1.81342 -1.84034 -1.81581 -1.73899 -1.99666 -1.57297 -1.72751 -1.6912 -1.91788 -2.32291 -2.07313 -1.61899 -2.47747 -2.26082 -1.76068 -2.34738 -2.45254 -2.15749 -2.27434 -2.44481 -2.35251 -2.44928 -2.51269 -2.43954 -2.51527 -2.51527 -2.51527 -2.51527 -2.51527 -2.51527 -2.51527
internal_weight=0 36888.2 8471.12 28417.1 15315.2 11186.3 7309.04 8096.3 3023.07 5073.23 4128.91 1635.26 2493.64 872.928 3877.26 13101.9 9622.5 8317.79 3479.37 1304.71 2934.66 4200.3 2745.94 733.432 374.815 122.93 55.6917 498.886 69.7498 10.2899 59.4599 88.4097 27.903 23.02 251.885 109.044 67.2383 429.136 14.6476 414.488 142.841 31.5569 13.1234 26.6262 6.52379 3.18604
internal_count=268644 262239 51722 210517 121467 94287 65368 47437 14641 32796 27180 12938 14242 7531 28919 89050 67758 56715 21292 11043 13526 25265 15610 5682 4285 1126 280 6405 758 65 693 1115 277 253 3159 1276 846 5647 183 5464 1883 416 173 351 86 42
is_linear=0
shrinkage=1


Tree=1
num_leaves=48
num_cat=0
split_feature=45 121 53 30 53 30 71 29 134 31 108 39 132 99 134 82 89 121 73 51 114 80 111 97 112 31 72 39 30 90 31 114 109 90 1 84 53 77 46 118 73 51 45 15 4 5 28
split_gain=6831.32 3463.15 3048.48 5488.1 2836.52 3645.67 2147.15 1934.14 1744.08 3765.11 1780.23 3187.92 2084.03 1616.32 1350.79 1081.11 756.264 478.679 632.213 469.017 296.725 164.834 104.574 122.906 92.4515 70.5998 70.1091 126.986 64.1451 37.1752 31.0588 7.89473 63.335 0.131653 0.053462 0.0156757 0.0103199 0.00411515 0.00281579 0.00271247 0.00157337 0.000194182 0.000119973 1.13687e-13 7.10543e-15 3.55271e-15 1.77636e-15
threshold=0.73950347304344188 -1.8576307892799375 1.0748664736747744 1.0523503422737124 1.0431193709373476 1.0648845434188845 -0.42892114818096155 1.0775904059410097 1.0000000180025095e-35 0.99430710077285778 -1.0287308096885679 1.0380562543869021 1.0000000180025095e-35 -0.87028920650482167 1.0000000180025095e-35 -1.1776437163352964 -1.1001693606376646 -1.8759855628013609 -0.37105359137058253 1.1652592420578005 -0.92684864997863758 -0.28538139164447779 -0.91136440634727467 -0.93655729293823231 -0.9791390299797057 0.93527567386627208 -0.30743415653705591 1.0077638626098635 1.0014778375625613 -1.0769531130790708 0.88778376579284679 -0.91931435465812672 -0.87496328353881825 -0.25147110223770136 -0.16422429680824277 -0.22282065451145169 1.0886340141296389 -0.39431601762771601 1.213525712490082 -0.9024999439716338 -0.91936853528022755 1.148199260234833 1.1716315150260928 1.0557423233985903 0.72907134890556347 0.77844825387001049 1.3929235935211184
decision_type=2 2 2 2 2 2 2 2 2 2 2 2 2 2 2 2 2 2 2 2 2 2 2 2 2 2 2 2 2 2 2 2 2 2 2 2 2 2 2 2 2 2 2 2 2 2 2
left_child=20 17 3 6 5 -5 13 -8 10 16 11 -4 -12 -3 -6 -11 -10 34 26 38 22 -21 23 44 25 -25 33 -28 -26 -24 40 32 39 -19 35 -2 42 -38 -20 46 -31 -37 -36 -33 -1 -46 -22
right_child=1 2 8 4 14 -7 7 -9 9 15 12 -13 -14 -15 -16 -17 -18 18 19 21 31 -23 29 24 28 -27 27 -29 -30 30 -32 43 -34 -35 36 41 37 -39 -40 -41 -42 -43 -44 -45 45 -47 -48
leaf_value=-0.10808408964008849 -0.11484906484790565 0.24517601536383404 0.23578427226949017 0.22620243037329257 0.351171399249256 0.32337875762914581 0.15540429594969724 0.31251958560551607 0.58263790996923381 0.48071269774619857 0.35973844606711852 0.42651510111491125 0.50368151949820661 0.12387356737470856 0.45863722288669084 0.18847774737165246 0.024538657271504272 -0.11661046499773205 -0.11290108248329858 0.38599340510627461 -0.10808408964008867 0.063969832588380002 0.41509893684936527 -0.046793071702836447 -0.11011320754320948 0.41427250535105592 0.38409423711397461 -0.043982795215421568 0.47214079355020644 -0.11265865847717141 0.38384923865788639 -0.10808408964008864 0.5449733131508544 -0.1083382494713428 -0.11466084152889229 -0.10924470973235277 -0.11257915900122961 -0.10897218521895594 -0.11646995890324563 -0.11231288000530677 -0.10808408964008871 -0.10809170426839748 -0.11547363843632252 -0.10808408964008864 -0.10808408964008856 -0.10808408964008864 -0.10808408964008863
leaf_weight=2.4220081418752697 3.5418047979474059 2030.647670455277 2787.0462858974934 5043.7397198230028 5745.5847411155701 16458.064233757555 1008.0305178612471 3517.9941570535302 25.373715043067932 457.97995154559612 13012.121620073915 1278.2422022670507 1090.0903202816844 2392.8917032256722 1468.581149443984 174.94947184622288 563.34280658513308 30.769411854445934 26.517132148146633 101.12170697003603 3.1832107007503492 18.85997448861599 12.348943650722505 17.344319522380832 2.2717596888542166 4.1075856834650031 8.8525860980153066 31.902535788714886 11.320846080780028 1.6460629999637615 2.1880497932434082 122.4152115136385 1.6772206872701634 51.341498218476772 2.2143275439739254 1.4776943773031224 9.4468996077775937 4.7550978809595099 2.4118146896362296 1.759351611137389 1.3840046525001506 126.6539805829525 10.095923267304896 255.69485954940319 4.5672153532505062 21.798073276877403 7.8196262866258621
leaf_count=35 36 11757 14733 30231 23966 74203 6893 17354 46 1191 46200 2207 2047 17034 4668 1011 4404 260 264 346 46 161 20 198 28 5 35 324 46 20 5 1769 4 730 20 20 97 64 21 20 20 1829 87 3695 66 315 113
internal_value=0 0.311933 0.314063 0.297479 0.318789 0.300584 0.229104 0.277527 0.346281 0.230622 0.354058 0.295755 0.370865 0.179558 0.373048 0.399935 0.0485928 0.0291909 0.109689 0.24823 -0.069282 0.335374 0.104478 0.0450167 0.170781 0.0414912 -0.0582197 0.0490016 0.374828 0.320536 0.0967493 -0.105313 -0.032743 -0.111438 -0.109111 -0.108286 -0.113208 -0.111371 -0.113199 -0.108667 -0.110569 -0.108105 -0.115327 -0.108084 -0.108084 -0.108084 -0.108084
internal_weight=0 57484.6 57054.7 37665.5 28716 21501.8 8949.56 4526.02 19389.1 1221.65 18167.5 4065.29 14102.2 4423.54 7214.17 632.929 588.717 429.962 271.777 148.911 473.948 119.982 81.3989 63.8318 35.0445 21.4519 122.866 40.7551 13.5926 17.5671 5.21812 392.549 14.4394 82.1109 158.186 131.673 26.5122 14.202 28.9289 12.7622 3.03007 128.132 12.3103 378.11 28.7873 26.3653 11.0028
internal_count=268644 262239 257945 186106 133068 104434 53038 24247 71839 6652 65187 16940 48247 28791 28634 2202 4450 4294 2141 792 6405 507 758 693 277 203 1349 359 74 65 45 5647 183 990 2153 1885 268 161 285 179 40 1849 107 5464 416 381 159
is_linear=0
shrinkage=0.1


Tree=2
num_leaves=50
num_cat=0
split_feature=45 121 54 30 136 108 101 71 29 134 29 41 132 71 100 73 113 121 73 51 72 111 96 29 95 110 33 119 109 90 114 4 114 81 39 1 51 98 84 117 53 77 4 57 59 114 0 18 1
split_gain=3765.02 1843.44 1810.65 4113.19 1697.71 1552.07 1418.46 2335.29 2663.33 1843.06 1655.04 1178.53 903.27 787.928 772.256 281.347 253.152 164.283 337.146 240.685 141.333 75.8836 94.0771 62.7487 58.0748 41.7527 73.9252 41.6111 23.4249 49.3735 7.27671 40.5451 0.0470169 0.0425872 0.0423094 0.0383842 0.0306404 0.0145165 0.0114432 0.00839353 0.00731416 0.00295395 0.000207006 0.00014411 8.58746e-05 5.6844e-05 5.68434e-14 5.68434e-14 1.42109e-14
threshold=0.73950347304344188 -1.8659883141517637 0.99744218587875377 1.0708176493644717 1.0000000180025095e-35 -0.89873066544532765 -0.84188085794448841 -0.43774202466011042 1.1109006404876711 1.0000000180025095e-35 1.0972273349761965 0.98239219188690197 1.0000000180025095e-35 -0.45051105320453638 -1.0167557597160337 -0.84149703383445729 -0.92341628670692433 -1.8759855628013609 -0.3584474772214889 1.1795927882194521 -0.69521644711494435 -0.91136440634727467 -0.94822528958320607 1.2031450867652895 -0.96328061819076527 -1.2182469964027403 0.84534388780593883 -1.6473947167396543 -0.88851460814476002 -1.1016647219657896 -0.91931435465812672 0.73303446173667919 -0.92684864997863758 -0.29123763740062708 0.55746892094612133 -0.16422429680824277 1.1652592420578005 -0.93363264203071583 -0.22282065451145169 -0.9038814604282378 1.0886340141296389 -0.39431601762771601 0.7756660282611848 0.93998137116432201 0.83429968357086193 -0.92684864997863758 0.77083522081375133 1.1817595362663271 0.78454285860061657
decision_type=2 2 2 2 2 2 2 2 2 2 2 2 2 2 2 2 2 2 2 2 2 2 2 2 2 2 2 2 2 2 2 2 2 2 2 2 2 2 2 2 2 2 2 2 2 2 2 2 2
left_child=16 17 3 4 5 -3 9 8 -8 13 -9 -11 14 -4 -5 -6 21 35 25 36 -14 22 37 42 -25 26 -19 -21 -23 -30 31 -18 -33 -27 -31 38 -20 45 -2 -34 44 -42 -24 -40 -37 -1 48 -48 -32
right_child=1 2 6 12 15 -7 7 10 -10 11 -12 -13 20 -15 -16 -17 30 18 19 27 -22 28 23 24 -26 33 -28 -29 29 34 46 32 39 -35 -36 40 -38 -39 43 -41 41 -43 -44 -45 -46 -47 47 -49 -50
leaf_value=-0.10726133603527047 -0.1132935909161667 0.11167599374639181 0.24292336700465866 0.48348245871132661 -0.068245370431306795 0.2057361441638543 0.11738458506608523 0.22893367680241014 0.2291321591249553 0.55560311673120244 0.29172022181704799 0.32165604981856077 -0.068562630142589912 0.31646948971128752 0.23295399441348175 0.056967109186971246 0.34331573379543867 0.43981994387574375 -0.11133889849606977 0.27411584011021628 0.19447958207685501 0.35114009769469678 -0.11011750858640589 0.61438638385953792 0.15412944824950536 -0.11507069499100041 -0.11427301601841167 0.48428451624106916 0.36315209702330431 -0.10891964988120373 -0.10725589597066343 -0.12803352695716708 -0.10733537014983659 -0.11002097012724832 -0.12941642882512089 -0.11306924032711263 -0.12106943476844045 -0.11828841967083606 -0.1083023190143355 -0.11611397920919127 -0.1112468807185964 -0.10804887692243799 -0.10885285892066923 -0.10726264273025771 -0.11378743587941885 -0.10795292461488543 -0.10725589597066343 -0.10725589597066343 -0.10725589597066343
leaf_weight=24.800874084234241 3.2464983314275733 3568.6830030977726 9276.5617387220263 124.07502231001854 346.82817973196507 3450.4614056423306 3721.2108035609126 22015.744421698153 4996.5431852042675 318.24736653268337 5187.5686651393771 665.86295279860497 113.79537092149258 1728.0431364178658 14752.904903717339 371.84881217777729 2.3693764731287947 3.9986777007579786 5.4472884163260442 19.432357624173164 24.895191788673401 11.386432126164438 1.5992393493652324 3.0385522469878188 28.042160071432594 29.987333938479424 6.0522560104727745 18.284550204873085 4.444529265165329 2.3421324938535673 95.745913803577423 1.3866404443979252 8.9367858618497813 37.694550171494484 1.7667708247900007 2.0295998007059124 7.9721389189362526 1.2590841501951207 1.3487812876701344 1.2403282895684249 8.6450228095054609 4.3374755531549445 6.7884561270475388 115.44106144458055 9.2643330395221692 1.2482921108603502 121.66921457648277 125.39056432247162 1.829138010740279
leaf_count=393 36 20612 32392 101 2745 14596 18405 73548 18239 332 15701 1782 856 4609 52418 2542 8 17 60 61 127 9 20 7 166 294 59 31 3 34 1518 11 141 501 12 20 58 14 20 13 97 64 91 1829 87 19 1929 1988 29
internal_value=0 0.22438 0.225382 0.202154 0.142926 0.157914 0.236413 0.226473 0.181432 0.266197 0.240907 0.397311 0.232675 0.254472 0.235043 -0.0034595 -0.0673118 -0.0348897 0.0471734 0.246595 -0.0213461 0.086011 0.0348932 0.133624 0.199126 -0.0840156 0.106168 0.376002 0.257199 0.132144 -0.104392 -0.033542 -0.110759 -0.112258 -0.117733 -0.108171 -0.11712 -0.107801 -0.107437 -0.108405 -0.111797 -0.110178 -0.109094 -0.107275 -0.113658 -0.107294 -0.107256 -0.107256 -0.107256
internal_weight=0 70936.5 70663.3 22753.5 7737.82 7019.14 47909.8 35921.1 8717.75 11988.7 27203.3 984.11 15015.7 11004.6 14877 718.677 445.284 273.182 128.869 51.1363 138.691 86.7165 66.7767 39.4684 31.0807 77.7328 10.0509 37.7169 19.9399 8.55343 358.568 13.9331 11.5638 67.6819 4.1089 144.313 13.4194 27.3083 120.036 10.1771 24.2764 12.9825 8.3877 116.79 11.2939 26.0492 344.635 247.06 97.5751
internal_count=268644 262239 259005 93997 40495 35208 165008 125893 36644 39115 89249 2114 53502 37001 52519 5287 6405 3234 1081 210 983 768 710 284 173 871 76 92 58 49 5637 173 165 795 46 2153 118 426 1885 154 268 161 111 1849 107 412 5464 3917 1547
is_linear=0
shrinkage=0.1


Tree=3
num_leaves=40
num_cat=0
split_feature=114 136 32 108 73 77 40 108 106 73 109 30 74 29 34 72 19 108 78 126 54 104 121 46 62 1 38 94 31 106 30 30 39 126 45 54 69 0 7
split_gain=2498.2 1482.61 2639.98 1873.87 1377.96 1278.33 1079.86 1061.52 2070.34 1622.8 938.316 899.045 683.027 675.697 616.717 591.728 585.472 520.685 508.322 417.124 294.961 307.316 293.425 278.608 249.018 193.895 164.485 122.46 107.912 97.9608 103.644 52.2636 35.7569 25.3299 0.530654 0.030239 0.00113976 5.68434e-14 1.42109e-14
threshold=-0.82173040509223927 1.0000000180025095e-35 0.96268951892852794 -0.90034645795822132 -0.84701621532440174 -1.2191057801246641 1.0769426822662356 -1.0328935980796812 -0.90773844718933094 -0.72323787212371815 -0.89553621411323536 1.0501351952552798 -1.0571551918983457 1.2353702783584597 0.92212566733360302 -0.47178763151168818 1.2018249630928042 -1.0534177422523496 -1.264182925224304 -1.6359536051750181 1.0386994481086733 -0.79417937994003285 -1.1790600419044492 1.2204626202583315 0.73302680253982555 0.47927527129650122 0.95143380761146557 -0.93224298954009999 1.0045796036720278 -0.8287803828716277 1.0685578584671023 1.0656716823577883 0.703169345855713 -1.3947537541389463 0.73950347304344188 1.0492719411849978 -0.15308795869350431 1.0683682560920718 1.1220020055770876
decision_type=2 2 2 2 2 2 2 2 2 2 2 2 2 2 2 2 2 2 2 2 2 2 2 2 2 2 2 2 2 2 2 2 2 2 2 2 2 2 2
left_child=1 3 4 6 29 10 7 8 -1 -9 18 15 -12 14 -7 -6 -13 23 -5 20 22 -22 -4 -8 -19 28 -27 -15 -21 30 -3 33 -31 -2 37 36 -36 -35 -39
right_child=31 2 19 5 11 13 17 9 -10 -11 12 16 -14 27 -16 -17 -18 24 -20 25 21 -23 -24 -25 -26 26 -28 -29 -30 32 -32 -33 -34 34 35 -37 -38 38 -40
leaf_value=0.14604780906704037 0.13992660989832006 -0.071154159701832906 0.022679817190927858 0.084909499241805131 0.019705603486229094 0.23515744238007788 0.12427471272045763 0.15410150896048669 -0.017333707340300229 0.20809597201453653 0.095615029853488923 0.2097790951112237 0.1928772441189637 -0.050830096131240787 0.18816826173811052 0.23737186283843192 0.11804705463538095 0.20438778754565196 0.16724664840456357 0.19039684911206745 0.23938266542369524 -0.12824368137400602 0.19167693821427095 0.28862529250710395 0.069381717030909174 0.2824689328314634 -0.043498777252796439 0.4078747571779327 0.34348570445638082 0.039286674249686321 0.0022693337599772045 0.39350912391798892 0.34551050581466525 -0.10651793340853953 -0.12193602699725697 -0.13094657439095256 -0.12031466917991562 -0.10651793340853953 -0.10651793340853953
leaf_weight=5520.1861953884363 4.1871128827333441 340.46702365577221 153.00248925387859 1397.028616771102 1100.7776136919856 9761.105006929487 113.21444618329406 21611.060519881546 902.38122991099954 7497.3752663992345 751.29633524268866 964.11735893040895 18528.757448896766 105.32136121764779 3912.7524595707655 140.87730660662055 2499.7242084592581 458.99062999337912 1618.4428397864103 51.671233475208282 1051.6609002798796 23.241573788225651 312.74531805515289 1159.8024543337524 194.52601743862033 35.416590124368668 27.500331059098244 6.1605033203959456 422.88174593448639 6.4050787687301627 441.62835448980331 2.1214518547058097 9.4227862954139692 240.47165057063103 6.8358858004212424 3.5743454843759528 11.854164838790894 23.955250427126884 35.329685881733894
leaf_count=23432 17 2694 667 5610 5513 24630 315 75104 5413 21877 2839 2433 54861 814 10601 222 11686 1037 5098 133 2240 140 820 925 690 99 160 6 525 26 2623 2 22 4186 47 20 85 417 615
internal_value=0 0.175169 0.133065 0.17951 0.0968039 0.195775 0.163843 0.15989 0.123092 0.168009 0.180974 0.117409 0.189087 0.219713 0.221712 0.0444019 0.14358 0.23676 0.129101 0.229094 0.202632 0.231434 0.13616 0.274009 0.164202 0.304947 0.139992 -0.025482 0.326817 -0.0247093 -0.0296939 -0.101229 0.221591 -0.104447 -0.107624 -0.122519 -0.120908 -0.106518 -0.106518
internal_weight=0 81119.9 7581.54 73538.4 5503.42 36080.9 37457.5 35531 6422.57 29108.4 22295.5 4705.5 19280.1 13785.3 13673.9 1241.65 3463.84 1926.53 3015.47 2078.12 1540.65 1074.9 465.748 1273.02 653.517 537.47 62.9169 111.482 474.553 797.923 782.095 328.33 15.8279 326.208 322.021 22.2644 18.6901 299.757 59.2849
internal_count=268644 263255 30003 233252 25219 104459 128793 125826 28845 96981 68408 19854 57700 36051 35231 5735 14119 2967 10708 4784 3867 2380 1487 1240 1727 917 259 820 658 5365 5317 5389 48 5387 5370 152 132 5218 1032
is_linear=0
shrinkage=0.1


Tree=4
num_leaves=39
num_cat=0
split_feature=114 53 28 91 134 90 136 72 31 0 33 75 130 108 57 90 71 121 107 56 57 90 110 34 23 93 40 60 30 52 126 34 45 54 31 108 29 15
split_gain=1771.11 1203.19 1661.14 1255.66 989.516 934.903 904.085 1759.74 885.57 1119.11 742.824 709.17 608.698 815.332 314.322 149.534 126.56 305.273 111.462 119.625 145.376 104.224 78.7638 64.2904 54.3375 54.2687 58.0671 41.7493 39.3489 30.142 22.1218 18.9919 0.378582 0.0207732 0.000814018 0.000635519 1.13687e-13 3.55271e-15
threshold=-0.82173040509223927 1.1137362718582156 0.99151700735092174 -0.23284757137298581 1.0000000180025095e-35 -1.0904580950736997 1.0000000180025095e-35 -0.6554376184940337 0.99667286872863781 -0.019486300647258755 0.91098466515541088 -1.0498372912406919 1.0000000180025095e-35 -1.0241724848747251 0.90524503588676464 -1.0027377009391782 -0.19122538715600965 -1.8759855628013609 -0.9779774248600005 0.98565286397933971 0.94545233249664318 -1.2644736170768736 -0.96382153034210194 0.91840630769729625 0.95139274001121532 -0.25597733259201044 1.0716796517372134 0.74665960669517528 1.0656716823577883 1.142138719558716 -1.3947537541389463 0.81967255473136913 0.73950347304344188 1.0492719411849978 0.99781385064125072 -1.0328935980796812 1.0804993510246279 1.3047668337821963
decision_type=2 2 2 2 2 2 2 2 2 2 2 2 2 2 2 2 2 2 2 2 2 2 2 2 2 2 2 2 2 2 2 2 2 2 2 2 2 2
left_child=1 2 18 4 12 6 11 -8 9 -7 -10 -4 13 -3 -14 22 25 35 19 27 -21 -20 -6 -17 -19 26 -5 -1 30 -23 -2 -27 36 34 -34 -18 -32 -38
right_child=28 3 5 16 15 8 7 -9 10 -11 -12 -13 14 -15 -16 23 17 24 21 20 -22 29 -24 -25 -26 31 -28 -29 -30 -31 32 -33 33 -35 -36 -37 37 -39
leaf_value=0.32170012494889622 0.11555373971198157 0.15746383898081856 0.14890716823097608 -0.11318477383993833 0.29024792158089147 0.22878290919523186 0.026779988314013937 0.14535953294519341 0.17776889909344137 0.10549363922838038 0.12725405433819215 0.1881641043414011 0.21696382122689403 0.21697758457734642 0.07915023879151209 -0.10136569051923772 -0.10702439979446017 -0.019205647392830753 0.38707432543322562 0.20288756307892855 -0.0044419023410735125 -0.11954949805733672 -0.1285177396078179 0.083019005333548959 0.22609294195999119 -0.0081070743385091501 0.43989127500505387 -0.093372989315520294 0.29068718150794026 0.15861956837675134 -0.1058593597486166 -0.11294289683311816 -0.11823458316182832 -0.1271681309059588 -0.12010596774230518 -0.10802531079985511 -0.10585935974861629 -0.1058593597486166
leaf_weight=2.4751649647951117 4.5417808443307868 3984.038190998137 36373.957877043635 3.6554846651852122 18.338979013264183 771.15784898400307 1713.7210400253534 4639.9847578853369 4655.7443310916424 16263.624267745763 7768.0903593078256 5268.1725510247052 211.11964464187622 5452.300350241363 765.83972787857056 147.22574231773615 7.0808633491396895 10.63555648177862 4.2506937980651847 43.984327778220177 146.34560027718544 184.04393399879336 5.9482168406248084 21.697053790092468 59.836443215608597 19.805434316396713 3.9489634558558464 115.56046144664288 2.554668352007865 3.979659989476203 254.32265090942383 135.53150130063295 14.462958313524728 3.3252942115068427 2.7694729268550864 60.928246766328812 1.2025947719812418 17.306907370686531
leaf_count=5 17 8526 101125 40 37 2403 10043 14132 11653 62436 22985 11888 286 7830 2132 1295 117 61 2 163 818 1551 40 122 95 187 9 805 2 22 4864 1561 112 20 20 886 23 331
internal_value=0 0.143084 0.138732 0.174191 0.179911 0.139905 0.148513 0.113376 0.125882 0.111075 0.146184 0.153874 0.184071 0.191851 0.108932 -0.0443247 -0.027071 0.0432168 -0.042837 -0.00557826 0.0434709 -0.102592 0.187687 -0.0776827 0.189073 -0.0868074 0.174026 -0.0846691 -0.100104 -0.113662 -0.103455 -0.0995763 -0.106845 -0.119932 -0.118535 -0.107921 -0.105859 -0.105859
internal_weight=0 88863 77955.1 10907.9 10606.5 77454.5 47995.8 6353.71 29458.6 17034.8 12423.8 41642.1 10413.3 9436.34 976.959 193.21 301.422 138.481 500.64 308.366 190.33 192.274 24.2872 168.923 70.472 162.941 7.60445 118.036 300.486 188.024 297.932 155.337 293.39 20.5577 17.2324 68.0091 272.832 18.5095
internal_count=268644 263255 240031 23224 20268 236665 137188 24175 99477 64839 34638 113013 18774 16356 2418 1494 2956 1159 3366 1791 981 1575 77 1417 156 1797 49 810 5389 1573 5387 1748 5370 152 132 1003 5218 354
is_linear=0
shrinkage=0.1


Tree=5
num_leaves=38
num_cat=0
split_feature=114 53 30 132 81 71 30 34 136 92 72 108 41 109 107 75 75 93 100 58 30 31 91 121 73 35 53 46 30 126 45 54 53 108 69 0 2
split_gain=1316.76 1050.6 1769.39 977.477 920.741 861.41 1757.57 802.578 675.426 597.729 1022.79 520.75 505.722 1055.85 543.276 480.666 351.361 799.992 284.42 212.366 246.02 118.723 101.436 76.3279 126.923 94.5501 65.4731 34.3857 31.951 19.6654 0.271228 0.0143999 0.00870684 0.00161459 0.000586 5.68434e-14 7.10543e-15
threshold=-0.82173040509223927 1.0782181024551394 1.047316372394562 1.0000000180025095e-35 -0.29123763740062708 -0.45293548703193659 1.0593292117118838 0.89777052402496349 1.0000000180025095e-35 -1.0648372769355772 -0.56766864657402027 -0.84948241710662831 1.1095893383026125 -1.0994362235069273 -0.9790869653224944 -1.0772082209587095 -1.0724689960479734 -1.0230119824409483 -0.80348840355873097 0.87769058346748363 1.0439945459365847 0.95410165190696727 -1.1083005070686338 -1.8759855628013609 -0.37105359137058253 0.88374784588813793 0.90906670689582836 1.1807006001472475 1.0656716823577883 -1.3947537541389463 0.73950347304344188 1.0492719411849978 1.0886340141296389 -1.0328935980796812 -0.15308795869350431 1.0683682560920718 1.0555552244186404
decision_type=2 2 2 2 2 2 2 2 2 2 2 2 2 2 2 2 2 2 2 2 2 2 2 2 2 2 2 2 2 2 2 2 2 2 2 2 2
left_child=1 2 8 5 11 6 -4 -7 9 15 -11 12 13 -3 -14 -1 17 -13 21 26 -21 -5 -18 32 27 -26 -10 -25 29 -2 35 34 -6 -34 -32 -31 -37
right_child=28 4 3 18 23 7 -8 -9 19 10 -12 16 14 -15 -16 -17 22 -19 -20 20 -22 -23 -24 24 25 -27 -28 -29 -30 30 31 -33 33 -35 -36 36 -38
leaf_value=0.092047595276338101 0.09737552385379554 0.075724370033209143 0.069681145390155783 0.052196694360656729 -0.11207643124438932 0.21700353417663509 0.12441925540039167 0.13642793068958778 0.25759054999455794 0.016964043334565516 0.098869030275396938 0.15456884066514998 0.20466918496015693 0.13560061469826354 0.11201715466169899 0.17146263519760271 0.20308759278542377 -0.040354330932587418 0.42862066208869209 -0.086938871745627908 0.18072293938725911 -0.055670445741335034 0.16712275671813759 0.25724169565210703 0.13764996845041452 -0.12368029716156502 -0.07767278997645985 -0.11066807662320446 0.23629379391048394 -0.10527079045369406 -0.11726961096189281 -0.12393954034357016 -0.10641111123194623 -0.10726309527324601 -0.11600796021271775 -0.10527079045369406 -0.10527079045369406
leaf_weight=3205.6879088580608 4.8333486914634696 3531.196611687541 7015.972682338208 139.77570693939924 3.5367582738399497 1428.2111438959837 35784.060550827533 9193.6879777908325 5.9155746735632411 2771.258510902524 3389.3045661970973 2309.1535424888134 1755.5325275883079 17742.487561203539 989.62062629684806 999.86080043762922 1724.5723639577627 231.67624714970589 14.102298751473425 58.357219375669956 83.438250735402107 377.91688448190689 1438.2204717770219 2.6357800960540763 66.351031355559826 17.495182901620865 380.15354450792074 70.173968058079481 2.8118611425161353 199.09451393783092 5.8120338469743738 3.0831619203090659 30.189308512955904 84.509732484817505 10.042694941163063 2.3305377885699263 46.753441758453846
leaf_count=10280 17 12791 25223 752 37 3164 98567 22783 29 12638 12496 4504 1488 39969 2271 2359 2111 860 25 356 192 2257 2510 1 259 126 2414 909 2 4186 47 20 544 1340 85 49 983
internal_value=0 0.120165 0.113007 0.120429 0.13564 0.121772 0.115446 0.147262 0.0762463 0.0818652 0.062025 0.137324 0.130874 0.125662 0.171268 0.110928 0.164487 0.136795 -0.0144763 -0.034096 0.0705643 -0.0265466 0.186733 -0.0465355 -0.00075693 0.0831213 -0.0725357 -0.0973494 -0.0990663 -0.102534 -0.106151 -0.117686 -0.10719 -0.107039 -0.11647 -0.105271 -0.105271
internal_weight=0 94845.1 64847.7 53953.7 29997.4 53421.9 42800 10621.9 10894 10366.1 6160.56 29722.5 24018.8 21273.7 2745.15 4205.55 5703.62 2540.83 531.795 527.865 141.795 517.693 3162.79 274.892 156.656 83.8462 386.069 72.8097 274.762 271.95 267.116 18.9379 118.236 114.699 15.8547 248.178 49.084
internal_count=268644 263255 193535 152771 69720 149737 123790 25947 40764 37773 25134 66504 56519 52760 3759 12639 9985 5364 3034 2991 548 3009 4621 3216 1295 385 2443 910 5389 5387 5370 152 1921 1884 132 5218 1032
is_linear=0
shrinkage=0.1


Tree=6
num_leaves=63
num_cat=0
split_feature=54 135 29 53 131 30 71 70 100 72 101 107 28 74 5 134 72 41 29 5 30 103 3 101 72 31 3 21 71 30 104 30 107 82 54 29 82 6 110 33 107 102 71 113 38 53 33 26 50 61 72 74 47 52 28 56 41 30 101 29 32 51
split_gain=1110.69 1678.86 1575.32 1160.36 1605.36 1315.36 1181.25 1023.72 847.371 1983.52 1545.69 784.816 771.024 651.156 601.258 476.437 568.624 553.873 463.497 744.876 356.118 352.534 365.495 426.207 369.005 345.363 496.184 349.166 297.794 318.399 288.687 253.114 250.206 250.087 237.762 520.295 237.325 226.051 202.862 188.838 189.985 166.123 154.289 147.269 134.553 125.376 115.143 111.615 111.519 107.755 103.91 103.776 102.643 101.999 97.8003 78.7915 78.4548 66.989 61.3722 33.7999 32.9131 1.03769
threshold=0.91944566369056713 1.0000000180025095e-35 1.189111113548279 1.0514931082725527 1.0000000180025095e-35 1.0619067549705508 -0.46442914009094233 -0.37214364111423487 -0.82964998483657826 -0.57895714044570912 -0.79069167375564564 -0.97089010477066029 0.91051417589187633 -0.99389493465423573 0.72038903832435619 1.0000000180025095e-35 -0.62087753415107716 1.0054389834403994 1.2353702783584597 0.80596920847892772 1.1061275601387026 -0.9163168966770171 0.67030027508735668 -0.90328916907310475 -0.77584680914878834 0.96802222728729259 0.71471965312957775 1.5545715689659121 -0.54925128817558277 1.0838764905929568 -0.95926570892333973 1.0888198614120486 -0.92935475707054127 -1.2442609667778013 0.97069168090820324 1.1695647835731509 -1.2345336079597471 0.69078290462493908 -1.1628047823905943 0.83084499835968029 -0.90003219246864308 -0.9435766041278838 -0.57306900620460499 -1.1355124115943906 0.89276555180549633 0.95974078774452221 0.90694949030876171 1.482957184314728 0.85791981220245372 0.20687248557806018 -0.77838951349258412 -0.98058673739433277 0.9772397279739381 1.1281432509422304 1.25885945558548 0.99111732840538036 0.77680379152297985 1.0809757709503176 -0.90106531977653492 1.1860703825950625 0.94626733660697948 1.1690133213996889
decision_type=2 2 2 2 2 2 2 2 2 2 2 2 2 2 2 2 2 2 2 2 2 2 2 2 2 2 2 2 2 2 2 2 2 2 2 2 2 2 2 2 2 2 2 2 2 2 2 2 2 2 2 2 2 2 2 2 2 2 2 2 2 2
left_child=2 3 14 4 5 6 -2 -7 15 10 -10 38 -11 20 28 16 -5 -17 21 41 -6 25 23 -23 -24 26 -4 -27 33 44 48 47 49 54 35 37 -37 -13 60 43 -41 50 -15 -36 -30 -35 53 -32 59 -21 -20 -34 -33 -40 -1 -48 -50 -43 -31 -16 61 -3
right_child=1 11 18 8 13 7 -8 -9 9 12 -12 34 -14 42 30 17 -18 -19 19 32 -22 22 24 -25 -26 27 -28 -29 29 58 31 52 51 45 39 36 -38 -39 46 40 -42 57 -44 -45 -46 -47 55 -49 56 -51 -52 -53 -54 -55 -56 -57 -58 -59 -60 -61 -62 -63
leaf_value=-0.10477767458125153 0.0063790328815216029 -0.1308690464843261 0.18470226676173507 0.10759336362309722 0.15143079790372974 0.056240431533654815 0.075052998531216983 0.11353156468639643 0.085353476337672901 -0.011338091396846205 -0.010201271984848187 0.11561466351519015 0.11938015856396207 0.17593649316583582 -0.11887873410385173 0.2687674791043928 0.14710450512781215 0.13888413646603082 0.010659681686406101 -0.049996811814354718 -0.12298139631742729 0.12765408537544737 0.0014791731996624249 -0.0067356817922237938 0.1128515756750044 0.12022578206908688 0.059759373200057232 0.016186580595032141 0.075461747279171543 0.10143275798593453 -0.097575103593282891 0.11779428346943698 -0.12630992246751288 -0.039653166183263873 -0.12327383196323685 0.19942603347773424 0.13948040460535813 0.014552118884707985 0.11441056747541048 0.17300789507899211 0.23191446749521583 0.025384047441097082 0.07184403744765204 0.12909369430857731 -0.12600685333660697 0.32248202642144913 -0.012145149766267006 0.038172963766049867 0.22774917733063119 0.24036551959875033 0.31379245323653199 0.16950161894126992 -0.067931524286909337 -0.012675996819395664 0.074864216556122215 0.16702844813287077 -0.044566770554520699 -0.10846450446582222 0.25728306052084149 0.24112924710373337 0.17179583522775566 -0.16731822735258037
leaf_weight=32.315021060407162 4161.6830766499043 47.375677328556776 1371.5969528257847 8539.5669283121824 4855.4090500324965 4665.5459191799164 6290.8185331523418 9408.7377297207713 7359.0338198170066 459.71862838789821 2198.599780112505 864.30081675946712 24430.138140726835 154.81129744648933 20.536922182887796 507.43321323394775 6351.4900405406952 930.17763136327267 133.41077255830169 13.815955966711043 47.757062092423439 1588.8700138181448 880.93816287815571 277.15107280015945 449.1828251183033 1195.8035946935415 413.72266779094934 441.74625223875046 338.31615430489182 31.702054917812347 801.14685595035553 93.709290683269501 35.47069625928998 536.67030631005764 32.477828085422516 1346.7552222460508 1295.9527015984058 297.50525158643723 465.49197055399418 2101.172822073102 740.45317244529724 42.842697232961655 1775.538272857666 80.27701860666275 36.750485822558403 9.7337263748049718 189.78041622042656 65.523257154971361 58.008211497217417 170.57453892379999 12.355480387806891 17.816398460417986 43.602527126669884 73.066001012921333 487.40465046465397 28.188696891069412 12.939666964113711 293.88733299821615 124.48116318881512 2.9872392565011969 3.6783465296030036 9.3526597470045072
leaf_count=176 19030 266 2618 20166 9655 15914 21574 25175 19786 3701 8576 1926 55275 262 221 353 11939 1747 528 94 211 3481 3283 1012 1295 3054 1387 1667 1320 82 7405 233 301 3181 132 1682 2542 906 1308 3743 781 276 4896 174 230 16 718 290 120 204 15 64 177 245 1338 51 65 1576 141 9 11 40
internal_value=0 0.105804 0.0707236 0.101649 0.0865252 0.0745827 0.0477103 0.0945399 0.11099 0.102096 0.0633724 0.150848 0.116966 0.129389 0.0053499 0.129754 0.124446 0.184729 0.0947367 0.0185503 0.148758 0.103026 0.0791432 0.107694 0.0390897 0.125327 0.155749 0.0921601 0.0445126 0.105678 -0.0516005 -0.0673262 0.163453 0.0140336 0.162037 0.14551 0.170029 0.0897354 0.0582684 0.183321 0.188357 -0.0528287 0.0801921 0.0564019 0.0557211 -0.033202 0.0723496 -0.0873121 0.115521 0.218609 0.0363539 -0.0274061 0.0588182 0.0971688 0.0636945 0.0110263 0.178083 -0.0914347 0.225649 -0.0731628 -0.118082 -0.136878
internal_weight=0 89712.3 10035 82136.5 31360.3 24526.8 10452.5 14074.3 50776.2 34447.5 9557.63 7575.83 24889.9 6833.52 2695.83 16328.7 14891.1 1437.61 7339.19 720.174 4903.17 6619.01 3196.14 1866.02 1330.12 3422.87 1785.32 1637.55 1597.37 531.25 1098.45 1003.98 237.678 1066.12 6758.89 3804.51 2642.71 1161.81 816.934 2954.38 2841.63 482.496 1930.35 112.755 375.067 546.404 756.527 866.67 94.472 184.39 145.766 53.2871 137.312 538.558 519.72 217.969 70.9479 336.73 156.183 23.5242 60.4067 56.7283
internal_count=268644 232785 35859 218260 96717 81693 40604 41089 121543 87338 28362 14525 58976 15024 15004 34205 32105 2100 20855 3058 9866 17797 9071 4493 4578 8726 4005 4721 6484 1773 8520 8105 663 4711 11886 7056 4224 2832 2639 4830 4524 2395 5158 306 1550 3197 2322 7695 415 298 543 365 410 1553 1514 769 185 1852 223 230 317 306
is_linear=0
shrinkage=0.1


Tree=7
num_leaves=57
num_cat=0
split_feature=53 26 100 134 75 109 94 1 98 73 135 30 134 69 101 31 130 72 26 26 108 114 51 67 108 3 107 109 123 34 38 44 53 58 124 86 131 72 97 135 37 54 57 61 109 108 52 52 101 47 60 41 0 105 121 121
split_gain=934.028 1385.95 713.285 679.884 632.517 629.107 583.357 799.232 944.612 682.891 887.877 752.926 539.064 460.015 865.848 339.85 322.642 288.085 255.821 246.622 200.663 152.38 137.722 328.527 140.734 106.288 86.2976 85.8257 85.7907 83.7674 82.9088 102.361 80.3354 77.9357 75.1881 71.0872 61.5934 143.319 58.8531 44.715 37.9076 35.6075 38.4306 32.472 32.1917 91.057 30.7635 27.8966 24.8394 23.703 88.5099 19.3814 3.61138 1.5819 0.293621 0.150964
threshold=1.1137362718582156 1.0664388537406924 -0.49947784841060633 1.0000000180025095e-35 -1.1894260644912718 -1.0971471071243284 -0.95810168981552113 0.43873792886734014 -0.88080671429634083 -0.73180803656578053 1.0000000180025095e-35 1.0393747091293337 1.0000000180025095e-35 0.017260915599763397 -0.59120744466781605 1.0046995282173159 1.0000000180025095e-35 -0.30743415653705591 0.94349598884582531 0.977626532316208 -1.0241724848747251 -1.3796688318252561 1.1732316017150881 0.29902528226375585 -1.0241724848747251 0.3929202556610108 -0.97567823529243458 -1.0926721692085264 -2.2093502283096309 0.91840630769729625 0.97228524088859569 1.1635788679122927 1.0976209640502932 0.96505758166313182 -2.3660056591033931 -0.99734181165695179 1.0000000180025095e-35 -0.69931659102439869 -0.8386670947074889 1.0000000180025095e-35 0.93831837177276622 1.1268537640571596 1.024513363838196 0.83340191841125499 -0.85385823249816883 -0.84234675765037526 1.1281432509422304 1.142138719558716 -0.60075536370277394 1.2490240931510928 0.85992762446403515 1.0820922851562502 0.23330518603324893 -0.78569418191909779 -1.8576307892799375 -1.8759855628013609
decision_type=2 2 2 2 2 2 2 2 2 2 2 2 2 2 2 2 2 2 2 2 2 2 2 2 2 2 2 2 2 2 2 2 2 2 2 2 2 2 2 2 2 2 2 2 2 2 2 2 2 2 2 2 2 2 2 2
left_child=1 26 3 13 15 17 7 12 -9 10 -8 -11 -6 14 16 36 -2 49 41 28 -16 33 23 -15 -24 29 30 -23 -19 52 31 48 54 -20 -34 -31 39 -38 -27 -3 -21 55 -43 47 -17 -46 -33 53 -1 51 -51 -4 -5 -28 -32 -7
right_child=2 4 5 25 6 18 9 8 -10 11 -12 -13 -14 22 20 44 -18 19 21 40 -22 27 24 -25 -26 38 43 -29 -30 35 32 46 34 -35 -36 -37 37 -39 -40 -41 -42 42 -44 -45 45 -47 -48 -49 -50 50 -52 -53 -54 -55 -56 -57
leaf_value=0.16413989993197098 0.12623277756101745 -0.11152991449700789 0.0488647027594699 -0.11696035748635375 0.10785717564607662 -0.10655810687048806 0.052049529008213129 0.090185940863101388 0.0318984467163538 0.074249384642737795 0.1204927198685613 0.12011346822360094 0.17778362496919198 0.14895997378218837 -0.11561083175574594 0.23479955424871557 0.066122277210467151 -0.090644243297862651 0.19471529779243182 0.23448849386816104 0.081175524103110755 -0.15418027125153783 0.14652131664070808 -0.023454776177415086 0.19064138720462556 -0.0419802236982861 -0.12078580801640004 0.083098232184311616 0.1773037978177561 0.1782023033418986 -0.11552006030286269 0.37897206467022793 -0.077090235104337212 0.030376556105846525 0.03802225110160623 -0.12623369676836052 -0.062776446141259351 0.21384442232819123 0.28412471953633012 0.3264190778225714 0.095557607493947372 0.12059007391118015 -0.12443709990364521 0.23882591231838673 -0.14985664006871896 0.17946408896431848 0.12763457967087197 0.15619970042905898 -0.12208093372915603 0.39161543316985248 -0.1322288761366478 -0.13406291382678096 -0.072481888117651397 -0.10512085942778904 -0.1290623094129103 -0.12007872687800816
leaf_weight=3.8388087637722519 5636.6996323242784 212.98562280833721 5.936212182044982 134.86470322310925 12078.924568191171 42.528747234493494 13893.657688010484 42085.018571682274 2977.049954123795 9927.3858055919409 2194.7723267152905 5597.6242550164461 1213.1729981154203 467.5214769244194 202.48891893029213 31.409063458442688 1061.0142988264561 95.636822137981653 263.13829646259546 45.104374401271343 69.638141289353371 16.667684644460678 2427.7131614461541 144.72661460936069 1029.5935129523277 9.4839003831148165 142.88947013765574 178.4759536460042 13.6553468555212 20.596515215933323 20.562883250415325 10.900784716010095 106.45191427320242 32.411817517131567 121.51059409230947 12.221220664680002 134.54828966781497 21.758845787495375 13.288536727428435 2.3571441173553458 34.785992987453938 17.505520883947611 10.090766027569773 2.6998014450073233 10.873191073536871 36.85377087444067 8.8023736588656885 3.8861705400049678 14.427727352827786 4.1947458982467678 13.958121784031389 238.36665487661958 21.112338565289974 117.4538696706295 72.319506764411926 10.248070072382687
leaf_count=18 8668 2633 34 1173 24491 745 42956 108716 9916 29064 4599 14445 1443 767 885 28 2336 1059 213 39 125 102 2843 521 743 37 1167 375 30 50 196 15 650 75 472 80 1127 35 22 1 81 85 88 1 49 56 39 16 104 2 99 1734 130 2752 421 93
internal_value=0 0.085146 0.114533 0.121801 0.0861724 0.0345745 0.0867644 0.0926913 0.0863351 0.0758242 0.0613865 0.0907859 0.114239 0.125204 0.109606 -0.0319863 0.11671 -0.0536187 0.104324 0.0404516 -0.0652526 0.131412 0.151919 0.108204 0.15966 -0.0557695 -0.0631667 0.0628317 -0.0571659 -0.0803861 -0.0311362 0.108595 -0.0476724 0.176693 -0.015732 0.0648313 -0.0720525 -0.0242692 0.148314 -0.106736 0.173995 -0.0610532 0.0309943 -0.106223 0.156178 0.104438 0.266687 -0.109749 -0.0619301 -0.121426 -0.0111795 -0.129618 -0.11094 -0.113719 -0.126064 -0.109184
internal_weight=0 91044.1 12273.7 11251 90418.4 1022.71 89967.6 58354.2 45062.1 31613.4 16088.4 15525 13292.1 11039.4 6969.84 450.786 6697.71 451.638 571.067 189.183 272.127 490.694 4069.55 612.248 3457.31 211.567 625.744 195.144 109.292 188.795 358.815 37.9697 320.845 295.55 227.963 32.8177 371.65 156.307 22.7724 215.343 79.8904 80.3731 27.5963 266.929 79.136 47.727 19.7032 264.23 18.2665 262.456 18.1529 244.303 155.977 260.343 92.8824 52.7768
internal_count=268644 245410 23234 18380 239559 4854 235630 144566 118632 91064 47555 43509 25934 16888 12014 3929 11004 3078 1776 1209 1010 765 4874 1288 3586 1492 5851 477 1089 1433 1915 176 1739 288 1122 130 3796 1162 59 2634 120 1011 173 3936 133 105 54 3935 122 1869 101 1768 1303 3919 617 838
is_linear=0
shrinkage=0.1


Tree=8
num_leaves=62
num_cat=0
split_feature=52 30 71 136 102 53 29 132 0 134 121 73 35 26 69 71 99 51 73 121 91 75 75 15 102 49 108 34 108 57 14 100 82 51 29 73 104 30 61 103 104 126 111 106 27 38 133 102 71 109 91 109 0 119 104 70 41 90 88 53 53
split_gain=862.871 1338.13 818.98 956 779.863 695.851 666.313 631.953 569.971 517.822 493.713 491.648 691.824 490.066 835.702 391.335 954.342 463.989 365.656 366.287 364.879 370.648 367.818 360.749 517.984 332.645 328.325 319.635 679.871 645.714 314.039 252.766 252.269 240.177 226.181 181.42 165.908 161.004 154.632 149.007 140.411 171.744 121.338 115.612 103.437 86.6814 90.1875 84.8206 72.8553 67.2434 67.1515 64.4075 43.0543 31.0831 21.9846 4.58564 21.4585 2.33199 0.0844918 0.0397771 0.00817387
threshold=1.1051943898200991 1.0506419539451601 -0.45293548703193659 1.0000000180025095e-35 -0.81550452113151539 1.0408989787101748 1.0997838377952578 1.0000000180025095e-35 0.37740923464298254 1.0000000180025095e-35 -1.850209593772888 -0.84701621532440174 0.85718375444412243 1.2433130145072939 -0.099192284047603593 -0.23781932145357129 -0.50506815314292897 1.1634699702262881 -0.38041727244853968 -1.8759855628013609 -1.0624516606330869 -1.0472958683967588 -1.0530362725257871 0.98059466481208812 -0.95668527483940113 1.1142022013664248 -1.0256756544113157 0.89563342928886425 -0.90520489215850819 0.88080433011055004 0.89986637234687816 -0.48440374433994288 -0.77465668320655812 1.1652592420578005 1.1259893178939822 -0.38849639892578119 -0.88884130120277394 0.88780122995376598 0.65856617689132702 -0.88352629542350758 -0.97091093659400929 -2.2735224962234493 -1.1740847229957578 -0.84891188144683827 0.95778086781501781 0.97472324967384349 1.0000000180025095e-35 -0.62952956557273854 -0.56863194704055775 -1.1223771572113035 -1.1222319006919859 -1.1561698913574217 -0.082604117691516862 -1.2486800551414488 -0.77682489156723011 -0.078878469765186296 1.0852517485618594 -0.25147110223770136 -0.207182802259922 1.1137362718582156 1.0886340141296389
decision_type=2 2 2 2 2 2 2 2 2 2 2 2 2 2 2 2 2 2 2 2 2 2 2 2 2 2 2 2 2 2 2 2 2 2 2 2 2 2 2 2 2 2 2 2 2 2 2 2 2 2 2 2 2 2 2 2 2 2 2 2 2
left_child=1 5 3 4 7 6 40 -3 -6 13 18 48 -13 14 -7 16 20 45 51 58 22 -22 -12 36 -25 30 47 38 34 -30 -11 42 -15 52 -29 -33 -8 -28 39 -4 50 -42 -19 -27 -35 49 -47 -18 -5 -17 -1 54 -21 -40 -2 57 -57 -53 59 -20 -60
right_child=10 2 27 11 8 9 23 -9 -10 25 15 12 -14 32 -16 17 26 31 19 33 21 -23 -24 24 -26 43 37 28 29 -31 -32 35 -34 44 -36 -37 -38 -39 53 -41 41 -43 -44 -45 -46 46 -48 -49 -50 -51 -52 55 -54 -55 -56 56 -58 -59 60 -61 -62
leaf_value=0.16282000566764487 0.00030437856670540754 0.081482037101277438 -0.049677532105906724 -0.09231143195714793 0.053758966288545956 0.0021972865457779776 -0.064189467414029852 -0.033281442953826755 -0.083199569715711019 0.27216149013077562 0.090581428200540187 0.12630603534910176 0.012352456036897034 0.11092501641506219 0.068725792727961504 0.33503854932055716 0.086593318844587222 0.1451096702784703 -0.1108637574892935 -0.11836417680709732 -0.039334284479357114 0.085555526676027449 0.13176727941087052 0.12573886491321237 -0.0034221938837499842 -0.035628466612081348 -0.097005650727584797 0.033474433613342347 0.22025251858324801 0.10503236507037338 0.00065639324853953706 -0.038132035587537187 0.0081945157119702045 0.074781769621612482 0.13495205870748256 0.13645959293377405 0.17489709774082104 0.13907048657002855 0.0064329364233255181 0.14194964643608307 -0.0071162366142147595 -0.087766190854899867 -0.083306078984696552 0.049661763788812922 0.17242865112807246 -0.10004254176464407 0.35854330503990456 -0.13425604541108935 -0.02572371178648826 -0.026563556580292236 -0.12947528558722837 -0.13619905269234109 0.31308296889692194 0.22177897454339368 0.2604384539102228 0.16815763030306974 -0.1241548198137626 -0.11230443601023798 -0.11106267307929825 -0.12199320806829246 -0.10579261717517206
leaf_weight=42.300377178937197 7.9401219636201859 42595.984677858651 42.394995406270027 226.14743622392416 790.3330192565918 2442.2597275897861 32.908340573310852 485.28571761399508 493.65856717526913 80.154381230473518 4894.8065009862185 741.70298513770103 1891.309348076582 2475.0112710297108 8322.0232464149594 9.4518668353557604 18.596876986324787 2813.6000675708055 16.805991739034656 56.684605769813061 240.97394666820765 17141.378983289003 3892.9627252668142 396.38516018912196 1432.9189245700836 963.59210392832756 41.309343166649342 1670.2444305717945 531.19787737727165 5765.9041938185692 90.93172325193882 138.44841798394918 264.59173947572708 272.99094677343965 252.89965239167213 104.39405703544617 245.89562331140041 96.082406729459763 6.8648032546043387 946.91545979678631 406.3078166693449 754.10464139282703 23.450416572391987 190.31951020658016 180.01905333250761 115.97148029506207 4.4531710147857657 268.05556380748749 600.94774844497442 11.279980257153509 9.6535282209515554 88.91635824739933 2.4113154411315909 283.86718598008156 5.4986544698476774 3.0797267109155682 13.607322402298449 75.545909188687801 3.0389472618699065 3.9699203148484221 93.263192236423492
leaf_count=120 34 101876 152 1336 2285 8860 163 2722 2184 85 8987 2314 7280 6326 21628 12 46 2981 202 496 835 37957 5239 1220 6877 3981 145 4679 787 11138 388 577 1078 888 389 141 600 108 20 1803 1864 7861 76 570 195 690 2 1349 3272 64 73 513 1 217 11 3 105 944 35 32 1828
internal_value=0 0.0717871 0.0792792 0.073952 0.0779004 0.0481229 0.00674378 0.0801893 0.00110227 0.0573885 0.0916856 0.0233257 0.0444525 0.063242 0.0536314 0.0937956 0.0898085 0.126715 0.0153169 0.0523681 0.0922199 0.0838242 0.108827 0.0407149 0.0245652 -0.00226799 -0.0590097 0.106097 0.0988588 0.114752 0.127857 0.13484 0.101003 0.0888502 0.0468191 0.0369221 0.146677 0.0680899 0.152579 0.133738 -0.0523264 -0.0595273 0.143222 -0.0215612 0.113585 -0.0505703 -0.0830845 -0.119928 -0.0439304 0.138295 0.108509 -0.104485 -0.10076 0.216694 0.106742 -0.120155 -0.0702062 -0.125223 -0.107207 -0.11299 -0.105959
internal_weight=0 75475 57325.7 47825.4 44365.3 18149.4 3320.47 43081.3 1283.99 14828.9 30639 3460.11 2633.01 13503.9 10764.3 29815.2 26594.2 3221.05 823.772 629.184 26170.1 17382.4 8787.77 2108.11 1829.3 1325 424.044 9500.29 8220.25 6297.1 171.086 3079.89 2739.6 512.106 1923.14 242.842 278.804 137.392 1280.04 989.31 1212.37 1160.41 2837.05 1153.91 453.01 141.156 120.425 286.652 827.095 20.7318 51.9539 194.588 59.0959 290.732 13.4388 181.149 16.687 164.462 117.078 20.7759 96.3021
internal_count=268644 204148 142454 123269 109067 61694 18778 104598 4469 42916 64496 14202 9594 37892 30488 59209 54666 4543 5287 3677 53018 38792 14226 8860 8097 5024 1648 19185 16993 11925 473 3775 7404 1580 5068 718 763 253 2192 1955 9918 9725 3057 4551 1083 768 692 1395 4608 76 193 1610 497 237 45 1565 108 1457 2097 234 1863
is_linear=0
shrinkage=0.1


Tree=9
num_leaves=63
num_cat=0
split_feature=53 29 136 73 132 30 19 61 91 75 100 29 31 134 136 52 41 74 91 3 107 100 71 26 123 74 134 26 28 124 75 30 71 102 58 29 37 31 42 104 123 122 74 95 75 72 30 52 120 3 71 29 76 56 37 91 71 13 83 105 44 30
split_gain=767.629 1446.48 612.276 676.296 626.056 608.165 603.089 524.926 518.208 854.804 471.503 701.72 419.404 1001.13 591.664 381.801 374.231 366.31 309.537 274.52 562.586 263.088 415.31 274.873 225.268 328.617 247.7 212.94 197.387 178.734 193.262 163.66 131.128 162.738 128.699 119.376 115.462 112.014 104.552 101.163 115.7 117.268 88.7491 81.0141 77.3284 65.7341 65.3879 65.2775 77.0919 64.6332 64.17 126.938 52.6043 48.4944 43.6966 43.3937 43.206 107.547 40.2761 30.8537 17.9198 17.6732
threshold=1.0675027966499331 1.0921053886413576 1.0000000180025095e-35 -0.84701621532440174 1.0000000180025095e-35 1.0528104901313784 1.2018249630928042 0.68501639366149913 -1.1587690711021421 -1.0950423479080198 -0.99884715676307667 1.2353702783584597 0.99639829993247997 1.0000000180025095e-35 1.0000000180025095e-35 1.0669969320297243 1.0193651318550112 -0.98545357584953297 -1.1923589110374448 0.63603699207305919 -0.93101987242698658 -0.83178773522377003 -0.38764451444149012 1.1811227798461916 -1.4538038372993467 -0.88523358106613148 1.0000000180025095e-35 1.4477144479751589 1.135094225406647 -1.3799181580543516 -1.1202368736267088 1.0577548146247866 -0.42245571315288538 -0.81309065222740162 0.87769058346748363 1.1205053925514223 0.94402566552162182 0.99706038832664501 1.0719826221466067 -0.97091093659400929 -1.8081607222557066 -1.6902596950531004 -0.99389493465423573 -0.96977204084396351 -1.0994735360145567 -0.58590650558471669 1.0439945459365847 1.0965185761451723 -0.99818471074104298 0.5263861119747163 -0.56863194704055775 1.1529844999313357 -1.2276841998100279 0.62886494398117077 0.98586103320121776 -1.1222319006919859 -0.41961674392223353 0.80857381224632274 -1.2759529948234556 -0.85872119665145863 1.1081840991973879 1.0938820838928225
decision_type=2 2 2 2 2 2 2 2 2 2 2 2 2 2 2 2 2 2 2 2 2 2 2 2 2 2 2 2 2 2 2 2 2 2 2 2 2 2 2 2 2 2 2 2 2 2 2 2 2 2 2 2 2 2 2 2 2 2 2 2 2 2
left_child=1 15 4 50 10 7 -7 -5 17 29 53 -12 13 14 -11 39 -15 18 35 20 -6 32 28 -24 25 -14 -26 -21 -23 43 45 -32 33 -17 42 49 -34 47 -36 55 41 -41 -20 44 -10 -31 -42 48 -19 -2 59 -52 -49 -3 -45 58 57 -39 -1 -4 -58 -37
right_child=8 2 3 5 19 6 -8 -9 9 12 11 -13 24 16 -16 21 -18 37 34 27 -22 22 23 -25 26 -27 -28 -29 -30 30 31 -33 36 -35 38 61 -38 56 -40 40 46 -43 -44 54 -46 -47 -48 52 -50 -51 51 -53 -54 -55 -56 -57 60 -59 -60 -61 -62 -63
leaf_value=0.023104595740379506 0.1484836427839703 -0.038933783467966415 -0.088926651628735642 -0.054108881652934177 0.0012866395062191864 0.11862231631784051 0.041080008309058974 0.12511151208214352 -0.16298613554966457 0.078712790939128585 0.070449119868699575 -0.034687823295181101 -0.031157668023634677 0.16892303457119057 -0.0063374402639267795 0.09049530154434865 -0.022711751914910032 -0.014298401565078859 0.0059401610079637757 -0.10901388060297978 0.28057909200072151 -0.074500092413479158 -0.028044858602524647 0.083241914425795316 0.094489715748941897 0.080531637277790794 0.14511694617518131 0.018899665304510548 0.014917217786232569 -0.13718192532132456 0.037262618219758618 -0.1347775502441107 0.23077124965619755 -0.045574220166891666 -0.11721892423563972 -0.17374208646240652 0.086213791542282925 -0.10645361326326347 0.07707394624639631 -0.0362160130968689 -0.10697204471097176 0.1955541683536644 0.11952698274366472 -0.1441749059625361 0.1616720422701135 0.19618167711697454 0.028454176395498732 0.10093246577850389 0.12775213935998725 0.092088792507126649 -0.064791315318302886 0.026626910028081121 0.14726523693920979 0.16850447971303895 0.091074324555933006 -0.1267417016188597 0.2118849886062949 0.16914901472041877 0.2294647797715697 0.22737761727965183 0.16708390730883932 0.038967481806504577
leaf_weight=18.296825170516968 361.27783404290676 11.520232774317263 265.21688044443727 851.75555074959993 488.74230621755123 1428.3656111657619 3368.1309136450291 202.2286840826273 11.5141758620739 24011.189608532935 53077.576189234853 642.50843860208988 309.40511052310467 110.02675661444664 846.79046474397182 195.52380634844303 1380.3564129173756 65.764672189950943 198.02255927026272 319.43783062696457 84.607796400785446 698.06554652750492 331.42440189421177 671.88462570309639 8568.1112340986729 1772.8919854015112 1089.2609473615885 219.62077888846397 381.95291188359261 103.38246287405491 707.46131700277328 59.982943534851074 70.074239209294319 159.67590363323689 110.44807499647141 16.23707385361195 261.24150477349758 16.706361576914787 36.965521067380905 262.95695791393518 464.21836736053228 23.806926220655441 105.40016297996044 146.59161897003651 20.219922512769699 6.2739526480436316 38.618628680706024 320.66264553368092 91.168477535247803 464.53116445243359 365.38239881768823 259.95093938708305 1039.1179612502456 518.27713086828589 8.3452039510011655 7.9849962480366221 283.04935683310032 92.856894344091415 19.578201074153185 3.1201569959521285 130.41688057780266 5.1433999687433234
leaf_count=90 479 93 1881 3451 2488 2185 11275 371 49 51440 128065 2855 1102 125 2702 493 5832 219 534 2086 218 2928 1351 1923 15994 3687 1517 1093 1407 435 1764 228 78 642 445 67 577 59 76 1303 6607 64 179 617 24 7 123 573 177 819 2332 1208 1085 597 14 66 228 111 16 22 157 11
internal_value=0 0.0615546 0.0651292 0.0366814 0.0685947 0.0490579 0.0641716 -0.0197217 0.0788022 0.0755777 0.0701175 0.0691917 0.0780471 0.0710426 0.0758155 -2.42584e-05 -0.00856441 0.116625 0.0750973 -0.00566733 0.0425011 0.0178481 0.000156451 0.0464804 0.0937677 0.0639359 0.1002 -0.0568999 -0.0428773 -0.0128376 0.00607243 0.0238161 0.0715361 0.0293268 0.00815578 0.110721 0.116788 0.143053 -0.0684979 -0.0592775 -0.0676636 -0.0169746 0.0453969 -0.101689 0.0438754 -0.118109 -0.0965711 0.129291 0.0682242 0.116761 -0.0443422 -0.0267888 0.136339 0.163994 -0.131504 0.0851115 0.182958 0.127125 0.129775 -0.0852487 0.197754 -0.122572
internal_weight=0 65711.7 62106.4 6744.15 55362.3 5850.48 4796.5 1053.98 42489.6 39151.8 54249.9 53720.1 38088 26348.4 24858 3605.3 1490.38 3337.77 1298.03 1112.41 573.35 2769.84 2083.33 1003.31 11739.7 2082.3 9657.37 539.059 1080.02 1063.77 877.101 767.444 686.515 355.2 450.836 847.189 331.316 2039.74 147.414 835.461 789.601 286.764 303.423 186.671 31.7341 109.656 502.837 1516.71 156.933 825.809 893.67 625.333 1359.78 529.797 154.937 45.86 523.029 109.563 37.875 268.337 413.466 21.3805
internal_count=268644 177888 160220 22725 137495 17282 13460 3822 90756 85537 131610 130920 82399 60099 54142 17668 5957 5219 2610 5885 2706 9399 7609 3274 22300 4789 17511 3179 4335 3138 2434 1992 1790 1135 1234 1376 655 2609 521 8269 8097 1367 713 704 73 442 6730 2054 396 1298 5443 3540 1658 690 631 172 555 170 106 1903 385 78
is_linear=0
shrinkage=0.1


Tree=10
num_leaves=57
num_cat=0
split_feature=53 28 3 135 103 93 73 107 53 100 134 109 81 3 130 29 107 38 136 108 73 54 72 55 65 26 30 107 112 114 81 107 5 56 108 117 57 47 34 123 44 69 105 97 105 32 68 47 60 52 35 41 39 78 38 105
split_gain=726.593 884.671 514.79 1163.67 678.181 635.446 849.114 499.408 445.669 442.233 457.362 457.256 407.81 375.042 365.998 341.097 313.379 1060.91 380.896 288.434 277.267 225.432 211.694 202.598 194.314 170.368 125.523 118.368 95.6158 88.6836 84.6257 83.9175 82.1347 71.2963 83.4841 120.692 77.9701 70.1028 69.4351 62.4721 59.8924 56.3504 48.6808 42.132 41.6856 27.2246 25.6258 19.3828 57.0451 16.8526 16.6381 16.4709 14.4001 10.6167 3.54906 1.58
threshold=1.1137362718582156 0.99151700735092174 0.642693191766739 1.0000000180025095e-35 -0.9163168966770171 -0.95532000064849842 -0.73180803656578053 -0.96967622637748707 1.0075194835662844 -0.49947784841060633 1.0000000180025095e-35 -1.0971471071243284 -1.1950775384902952 0.72052359580993663 1.0000000180025095e-35 1.146506726741791 -0.95989310741424549 0.99646836519241344 1.0000000180025095e-35 -0.90034645795822132 -0.98345416784286488 0.94177448749542247 -0.30743415653705591 1.0504323244094851 0.55182430148124706 0.977626532316208 1.0667591094970705 -1.0191757082939146 -0.95166301727294911 -1.3796688318252561 -0.37163971364498133 -0.9779774248600005 0.46314257383346563 0.98565286397933971 -1.0582627058029173 -1.5187365412712095 0.94545233249664318 1.2322767376899721 0.91840630769729625 -2.2093502283096309 1.2109331488609316 -0.071879845112562166 -0.82003659009933461 -0.8386670947074889 -0.97477859258651722 0.81799212098121654 0.20504611730575564 1.2490240931510928 0.85992762446403515 1.142138719558716 0.88190859556198131 1.0820922851562502 1.0249878764152529 -0.36997914314270014 0.9742211401462556 -0.78846758604049672
decision_type=2 2 2 2 2 2 2 2 2 2 2 2 2 2 2 2 2 2 2 2 2 2 2 2 2 2 2 2 2 2 2 2 2 2 2 2 2 2 2 2 2 2 2 2 2 2 2 2 2 2 2 2 2 2 2 2
left_child=1 31 3 5 12 8 -7 27 -3 10 14 22 13 -4 16 26 17 -2 -18 -17 -14 -9 47 42 29 39 -6 -5 -25 52 -31 33 38 45 36 -36 -35 53 54 -24 -39 -40 -16 -34 -33 -1 -27 51 -49 55 -47 -11 -13 -26 -12 -46
right_child=9 2 4 7 15 6 -8 21 -10 11 32 24 20 -15 23 19 18 -19 -20 -21 -22 -23 25 28 37 46 -28 -29 -30 30 -32 44 43 34 35 -37 -38 40 41 -41 -42 -43 -44 -45 49 50 -48 48 -50 -51 -52 -53 -54 -55 -56 -57
leaf_value=0.20572802904181048 0.014829351530088805 0.036207333124916884 0.098780838215901751 -0.11699885132048567 -0.1014267126863327 0.014469763796309902 0.056962789187661039 0.080800096376957051 0.065545016922571878 0.035521447040799341 -0.079444333680686915 0.16497770134307951 0.18160055097604852 0.00021138990033391227 0.11606707884831875 -0.009529827974524032 0.11730481071244221 0.11683166953164358 -0.012682245178584337 0.040417398955124778 0.021728610972967008 0.1163001521462322 -0.092045869742802211 0.016630818994610951 -0.18621558159788068 0.1535226872691951 -0.0086641160154609063 0.034337591124857368 -0.17099844021106347 0.1036169384916918 -0.066840258152379373 0.14963268233595484 -0.05150832799799393 0.080365199519561614 0.18733322818207129 -0.12988905735687178 -0.074962596942553666 0.051563059409648559 -0.13116322257893151 0.12798115688102016 -0.15496665802599247 0.13870782181596139 -0.002374138548007481 0.21580595414098741 -0.12125129364243548 -0.047810119733939428 0.012316253702971588 0.26195389951085252 -0.12978605630510437 0.060935780197587955 -0.12553293558526854 -0.13096774376640205 0.093917157011256913 -0.081726996802935922 -0.11771368619293748 -0.10439456189882479
leaf_weight=3.012120943516492 1681.5213091187179 5769.7508977502584 2828.5537514165044 55.045017540454865 317.07581484504044 7254.2135465964675 13368.794088244438 2771.657107770443 50485.289179414511 6.1059570871293536 30.366939574480057 211.11816910654306 114.3342780135572 447.00912691093981 299.30484917759895 1839.932840436697 5717.7662841752172 2590.6069004237652 234.67981044203043 3111.1804916486144 2119.0619802214205 5044.2905091196299 93.639391776174307 769.42204853892326 14.541110813617705 69.212935708463192 270.16762359440327 846.12777104973793 28.153736010193825 106.40578758716583 40.102113906294107 6.255319880321621 9.5891554057598132 43.915665306150913 44.907862119376659 16.363955482840538 122.35957792401314 125.10465827211738 11.703099034726618 14.966842785477636 15.816446132957934 22.832045897841454 39.25278215110302 15.309726424515246 163.84697137214243 42.140046630054712 15.782540306448935 5.1678359508514431 13.243147123605011 5.5325427502393714 79.511011768132448 221.51243988052011 32.971016984432936 29.35502303391695 119.97481410205364 84.168668132275343
leaf_count=7 4497 16960 5495 279 3425 23445 36559 5142 113995 34 269 180 59 2098 393 6010 6559 2790 628 8041 7402 7670 1059 1801 64 85 800 2340 117 135 254 9 38 134 119 95 633 509 72 30 88 58 103 23 1390 268 35 2 99 22 541 1734 55 491 1032 2472
internal_value=0 0.0575766 0.0583355 0.0609576 0.0380201 0.0570313 0.0420157 0.0955838 0.062536 0.0831115 0.0886636 0.0198233 0.0628628 0.0853293 0.0913653 0.0133092 0.0973484 0.0766833 0.11218 0.021856 0.0299129 0.103711 -0.0569629 0.0375203 0.0784899 0.0212627 -0.0587503 0.0250937 0.0100077 0.118463 0.0569594 -0.0622738 -0.0576481 -0.0304709 0.00283078 0.102612 -0.0339383 -0.00599036 -0.0806114 -0.0617243 0.028383 0.0472553 0.102335 0.112857 -0.105388 -0.0912562 0.127303 -0.118519 -0.0198274 -0.11168 -0.0986097 -0.126502 0.155379 -0.11634 -0.109984 -0.115531
internal_weight=0 97254.5 96642.5 85595.2 11047.3 76878 20623 8717.12 56255 12585.5 11570.5 1015.05 5508.96 3275.56 11360.7 5538.36 10224.6 4272.13 5952.45 4951.11 2233.4 7815.95 439.631 1136.13 575.414 193.602 587.243 901.173 797.576 390.597 146.508 612.014 209.776 352.21 227.547 61.2718 166.275 184.817 184.877 108.606 140.921 34.5351 338.558 24.8989 259.804 124.663 84.9955 246.029 18.411 253.548 121.651 227.618 244.089 43.8961 150.342 248.016
internal_count=268644 245410 239720 206390 33330 190959 60004 15431 130955 23234 18380 4854 15054 7593 16888 18276 14474 7287 7187 14051 7461 12812 3078 2414 1776 1209 4225 2619 1918 624 389 5690 1492 1797 981 214 767 1152 1431 1089 597 130 496 61 3893 816 120 1869 101 3884 809 1768 235 555 1301 3862
is_linear=0
shrinkage=0.1


Tree=11
num_leaves=62
num_cat=0
split_feature=53 30 70 103 136 136 36 134 53 28 4 105 25 69 39 109 38 111 40 106 132 106 108 50 33 30 30 81 133 65 59 109 114 53 109 135 69 58 70 133 49 50 69 124 104 105 61 103 127 79 86 36 121 34 83 2 66 106 4 31 28
split_gain=644.263 824.816 677.958 767.394 552.494 535.969 615.439 520.845 506.372 426.597 425.544 383.526 372.788 534.622 345.307 324.758 1098.75 552.766 563.193 501.305 468.846 415.142 383.422 344.013 319.937 314.855 304.689 299.431 365.382 285.979 274.524 260.888 267.252 233.259 180.148 160.897 157.851 155.398 152.476 137.7 125.595 114.567 114.489 111.819 108.929 108.082 106.514 105.6 96.0444 95.8489 94.6977 66.7402 54.5893 54.3215 50.1027 39.8513 36.6499 30.0999 23.8953 19.4494 0.20315
threshold=1.0893248915672304 1.047316372394562 -0.26553882658481592 -0.80975541472434986 1.0000000180025095e-35 1.0000000180025095e-35 0.9217379391193391 1.0000000180025095e-35 1.0525156259536745 1.1524567008018496 0.66986802220344555 -0.82320615649223317 1.2651993632316592 -0.12879487127065656 1.0089123845100405 -1.0949053168296812 0.99878841638565075 -1.2783479690551756 1.0486736893653872 -0.93309471011161793 1.0000000180025095e-35 -0.91164910793304432 -1.0474017262458799 1.1883152127265932 0.91629275679588329 1.0682473182678225 1.0436945557594302 -0.7264939248561858 1.0000000180025095e-35 0.55182430148124706 0.82064536213874828 -0.93056660890579213 -1.0197932720184324 1.0675027966499331 -1.1039385199546812 1.0000000180025095e-35 -0.1153275892138481 0.85577896237373363 -0.23081336170434949 1.0000000180025095e-35 1.190431594848633 1.2246814370155337 -0.088333234190940843 -2.4075393676757808 -0.88423714041709889 -0.81396180391311634 0.69792947173118602 -0.78461900353431691 -1.7157877683639524 -1.2961240410804746 -1.0805481076240537 0.91898730397224437 -1.8759855628013609 0.89296290278434765 -0.24152722209691999 0.30084900557994848 0.25131672620773321 -0.91784700751304615 0.1845989674329758 0.99883747100830089 0.99151700735092174
decision_type=2 2 2 2 2 2 2 2 2 2 2 2 2 2 2 2 2 2 2 2 2 2 2 2 2 2 2 2 2 2 2 2 2 2 2 2 2 2 2 2 2 2 2 2 2 2 2 2 2 2 2 2 2 2 2 2 2 2 2 2 2
left_child=1 4 3 5 7 10 -7 8 9 -1 -3 24 36 -14 -10 16 17 40 19 -19 25 46 23 39 56 27 45 28 -17 41 50 38 -33 -26 -20 -29 -5 48 -9 -18 60 -23 -32 -25 -27 55 57 -39 -13 -47 -28 -24 -31 -48 -42 -6 -4 -22 -53 -46 -2
right_child=15 2 11 12 26 6 -8 31 14 -11 -12 37 13 -15 -16 20 22 18 34 -21 21 29 51 43 33 44 30 35 -30 52 42 32 -34 -35 -36 -37 -38 47 -40 -41 54 -43 -44 -45 59 49 53 -49 -50 -51 -52 58 -54 -55 -56 -57 -58 -59 -60 -61 -62
leaf_value=-0.036436669039337698 -0.11988653641853211 0.061140379519545276 0.14803915069625345 -0.12338445584503391 0.26464217185033023 0.010899924436097197 0.12467998325322477 -0.075365417936940571 0.060945747701402757 0.033614709980552444 0.038690917693981371 -0.024571904368751493 -0.048739593975589163 0.085623859054883469 0.028129671424955101 0.066245016678958477 -0.040997849015923488 -0.043398924563742156 -0.043434214358191177 0.10363436106800079 0.020710515708372366 0.14782377320205128 0.11890316146768705 -0.11393592345615544 0.044914460905062278 0.092798775066117889 -0.080855148835960386 -0.071976084270311644 0.11148201224674514 -0.10586354833993164 -0.14406199194843564 0.10944366474887796 -0.093632958789845913 0.090961421240072116 0.029236852297277828 0.079838028256408344 -0.020412922790405089 0.13328008185954393 0.051157907323212785 0.18356481618218801 0.17889774312701512 -0.056695370517679644 0.088743896214114798 0.12281461650192925 0.0029793323830461841 -0.12500876063349703 -0.1697780726197404 -0.10190397717152551 0.097052777586784739 0.14702636594138005 0.39715115549327629 -0.17988980476291538 0.036578645694956113 -0.021660160318499662 0.03336131316926353 -0.11887308769530583 0.23172979940965527 0.21716145186253982 -0.041641633487666696 -0.1827341334832161 -0.14624072931173798
leaf_weight=1402.5077454019338 11.893547303974627 41730.786458447576 104.47138060629368 331.09463761746883 2.7272705733776084 4587.48693228513 530.35199922323227 726.41450875997543 8605.4407385587692 2286.7383678033948 10585.540592759848 105.85879191756248 582.44890846312046 602.41328281164169 5110.896448303014 15012.538765519857 194.35181317105889 333.40271469950676 1737.2017026245594 761.53911516815424 17.495327666401867 1667.8055533133447 10.774326026439665 20.146751139312983 2722.4527634084225 20.421585410833359 226.06033612042665 225.68295361846685 2026.5186870619655 33.474073104560375 22.78396075963974 216.76614573597908 92.439473181962967 1846.100390791893 424.46903428807855 101.0770698338747 270.4967859685421 1811.6473555266857 109.62331587076187 31.769691914319992 234.60557589679956 27.847205191850662 289.93844953179359 2037.6473666131496 6.1397858560085288 22.060389244928956 54.464090302586555 19.295158788561821 167.91897210478783 31.36963508464396 4.221904605627059 54.614617295563221 137.09543615579605 45.399976342916489 26.307201057672501 414.00376971065998 104.83408346772194 14.073012337088583 16.21419532597065 69.170439958572388 3.8788604140281668
leaf_count=9467 104 92928 139 1496 3 17066 703 3366 20516 8434 27691 324 2212 1363 12904 27788 697 1232 7700 2194 43 1376 17 110 6036 33 1160 745 2809 672 114 543 385 3014 1407 159 871 2399 300 37 204 81 549 1767 15 366 231 74 327 91 7 233 366 131 193 3037 60 7 49 281 18
internal_value=0 0.0496833 0.0550214 0.051569 0.0316468 0.0535766 0.0226907 0.0355741 0.0398722 0.0069839 0.056598 0.0847279 -0.012976 0.0195741 0.048718 0.0678292 0.0472749 0.0119615 0.000432489 0.0588637 0.07406 0.119952 0.100021 0.107631 0.0690603 0.0688098 -0.0402611 0.0698068 0.0716252 0.132049 0.010767 -0.0297493 0.0487323 0.0635215 -0.0291644 -0.0250152 -0.0770848 0.120294 -0.0587754 -0.00944717 0.147659 0.144465 0.0717824 0.120497 -0.112046 -0.0991952 -0.0518268 0.130802 0.0500254 0.0347075 -0.0720916 -0.11297 0.00862453 -0.102441 0.164224 -0.116363 0.189957 0.108287 -0.148242 -0.167594 -0.126368
internal_weight=0 85667.2 66103.2 59220.6 19564 57434.2 5117.84 18550.8 17405.6 3689.25 52316.3 6882.58 1786.45 1184.86 13716.3 25358 5898.82 3533.3 3256.61 1094.94 19459.2 1997.65 2365.52 2283.92 4777.86 17461.5 1013.17 17365.8 17039.1 1866.22 543.005 1145.24 309.206 4568.55 2161.67 326.76 601.591 2104.72 836.038 226.122 276.685 1695.65 312.722 2057.79 95.7318 470.161 131.432 1830.94 273.778 53.43 230.282 81.6031 170.57 99.8641 260.913 416.731 209.305 31.5683 70.8288 75.3102 15.7724
internal_count=268644 217945 156703 144330 61242 138388 17769 55915 51321 17901 120619 12373 5942 3575 33420 50699 15962 13052 12533 3426 34737 2907 2910 2611 9249 31830 5327 31501 30597 2495 1830 4594 928 9050 9107 904 2367 3124 3666 734 519 1457 663 1877 329 3497 412 2473 651 457 1167 299 1038 362 397 3040 199 50 282 296 122
is_linear=0
shrinkage=0.1


Tree=12
num_leaves=63
num_cat=0
split_feature=70 102 25 132 71 51 30 70 71 135 72 28 19 106 3 100 70 53 38 68 26 30 26 31 70 130 37 109 127 81 28 104 28 105 71 109 62 136 129 129 80 33 68 69 29 13 26 47 130 25 9 64 25 43 112 63 52 57 27 36 31 53
split_gain=587.126 1275.36 637.917 615.24 574.735 512.109 540.928 607.331 582.999 498.758 463.206 394.263 434.498 381.382 474.555 328.332 368.42 357.567 540.717 327.012 262.971 251.508 240.309 233.075 224.354 285.681 228.208 194.002 180.074 178.408 149.427 146.94 126.374 113.92 110.945 106.801 105.661 187.291 121.964 103.193 91.6297 170.305 83.6843 79.6113 77.4839 160.071 69.9363 65.8978 92.0269 60.3249 60.1624 56.3631 56.2159 44.8129 40.1866 33.704 49.6607 31.3654 24.0587 19.0781 7.4212 0.510096
threshold=-0.20038735121488568 -0.77466988563537587 1.2178973555564883 1.0000000180025095e-35 -0.3781465590000152 1.1219877600669863 1.0532599091529848 -0.300639659166336 -0.42428348958492274 1.0000000180025095e-35 -0.58590650558471669 1.1100060343742373 1.1171884536743166 -0.91692242026329029 0.6095482110977174 -0.49947784841060633 -0.097186792641878114 1.1137362718582156 0.97278347611427318 0.12810125946998599 1.2128285169601443 1.0682473182678225 0.977626532316208 0.96630099415779125 -0.2115780636668205 1.0000000180025095e-35 0.92917838692665111 -0.99795606732368458 -2.8933848142623897 -1.183891177177429 1.1111760139465334 -0.77447223663330067 1.2891041040420534 -0.87350058555603016 -0.34176051616668696 -1.129710257053375 0.66510853171348583 1.0000000180025095e-35 1.0000000180025095e-35 1.0000000180025095e-35 -1.0922865867614744 0.86303806304931652 0.12004540488123895 -0.08606740832328795 1.0752900838851931 0.77877715229988109 1.1734715104103091 1.189879894256592 1.0000000180025095e-35 1.2241253852844241 0.61402553319931041 0.51422294974327099 1.5416900515556338 1.1417901515960696 -1.2456961274147031 0.56430494785308849 1.0824716091156008 0.96838897466659557 0.98222157359123241 0.94881972670555126 0.99827885627746593 1.0754105448722842
decision_type=2 2 2 2 2 2 2 2 2 2 2 2 2 2 2 2 2 2 2 2 2 2 2 2 2 2 2 2 2 2 2 2 2 2 2 2 2 2 2 2 2 2 2 2 2 2 2 2 2 2 2 2 2 2 2 2 2 2 2 2 2 2
left_child=1 3 24 5 9 6 8 -8 -1 10 -4 12 15 40 23 17 58 18 -2 -19 35 29 -18 -15 28 26 -26 -11 43 -7 -27 36 -16 -23 -30 -6 37 38 -13 42 52 -42 46 -3 45 51 -14 57 -49 -39 -47 -33 -5 60 -22 56 -46 -38 -17 -57 -41 -44
right_child=11 2 4 13 20 21 7 -9 -10 27 -12 31 39 14 32 16 22 19 -20 -21 54 33 -24 -25 25 30 -28 -29 34 -31 -32 44 -34 -35 -36 -37 47 49 -40 53 41 -43 61 -45 55 50 -48 48 -50 -51 -52 -53 -54 -55 -56 59 -58 -59 -60 -61 -62 -63
leaf_value=0.016521934535747313 0.12240508977551921 0.08267235132129841 -0.10187913786045288 -0.11723284108225181 0.18255714381515528 0.077394163628720147 0.045689268835535514 0.071758708150753511 0.052558789668890028 0.031620263930621492 0.0054050603058043 0.099842644039810524 -0.059630449512951891 0.25171213181541774 -0.07579565832397317 -0.13410187301382337 -0.016945633990192166 0.023424612273342974 0.036269440020941485 0.089574639567907399 0.242693938833794 0.030907343272704391 0.093209243710923761 0.0022448783216852141 0.10088410983310075 -0.047106531941984039 -0.063002018436237969 0.15733991691187599 -0.10512393723598522 0.051202596806864002 0.13826841135268211 0.10185611904181302 0.08987385766443895 -0.16871356340253363 0.076041843523489125 0.035809536321898636 0.11315442697494876 -0.12875422631655553 0.027543390884924565 -0.15816872747630689 0.026512050065748985 -0.057496399574480134 -0.15348168036750387 -0.071936857673224539 0.15384449918244383 -0.13099351899833969 0.041100062672305482 0.098937092356208553 -0.085725412959859817 0.073976845508859301 0.049461969913688598 0.16935862035610028 -0.010975229956539051 0.10130863072426205 0.14553656142779653 0.18560386954463193 -0.15683598654932546 0.16664962503972261 -0.036494339625352402 0.13674354383292961 -0.075521025422172636 -0.17956518452087969
leaf_weight=11038.338549308479 845.28677136264741 87.989944145083427 516.9546600356698 200.38215877115726 54.79761078953743 8460.1208074614406 45189.395458556712 11139.21128295362 7566.5278877653182 253.55842223763466 1816.7665473893285 687.87137706577778 110.35917854309082 142.53829343616962 158.80225841328502 161.2409197203815 413.41485233232379 853.29845737665892 5288.187622141093 6016.759213026613 49.437329217791557 51.966853320598602 380.1567201577127 50.798563659191132 97.521336626261473 59.787463141605258 659.98038779199123 237.91618494689465 817.33381521888077 3755.0436107590795 159.4587711840868 334.88599564135075 64.845760986208916 63.547736972570419 35.261456161737442 522.30637130886316 267.59402514994144 63.005652442574501 353.09923894703388 82.292029738426208 393.76693681627512 623.28032843023539 12.557869583368303 53.587850511074066 14.748393610119821 32.734042167663574 183.58442117273808 133.69955801218748 33.812104240059853 19.135364890098572 42.412557914853096 196.14565402269363 66.251335561275482 7.8538696765899649 306.58937904238701 267.67949140071869 7.9013981223106375 185.63663597404957 29.941861353814602 113.92589467763901 12.517141863703726 18.606254458427429
leaf_count=36805 2127 192 2434 1345 108 13776 107290 21925 17607 590 5271 1123 387 158 1001 1291 3348 1960 13062 8219 83 111 624 191 212 175 2228 221 4320 8402 183 514 248 266 99 1338 346 259 783 336 1866 2977 56 185 28 129 428 170 106 48 105 123 340 13 400 194 35 127 105 132 43 76
internal_value=0 0.0449632 -0.000768188 0.0479083 0.0233959 0.0490692 0.0459617 0.0508446 0.031178 0.000921754 -0.01836 0.0650616 0.0584382 -0.0116609 0.0714272 0.0614741 0.00580157 0.0656902 0.0481403 0.0813584 0.0914399 0.0679538 0.0358235 0.186166 -0.0468464 -0.0128078 -0.0419032 0.0924794 -0.0802884 0.0693427 0.0877175 0.0997291 -0.0277605 -0.0789096 -0.0976313 0.0497436 0.0821472 0.0638474 0.0753186 -0.0408386 -0.0386508 -0.0249711 -0.0132383 0.0241521 0.130073 0.107459 0.00328146 0.115257 0.0616631 -0.0815265 -0.0291449 0.126789 -0.0908306 -0.128242 0.159028 0.163982 0.0454634 0.135065 -0.118815 0.171017 -0.147257 -0.169055
internal_weight=0 94694.1 5729.25 88964.8 3758.33 87264.2 74933.5 56328.6 18604.9 2825.2 2333.72 17170.3 14416.1 1700.67 416.985 13988.3 984.754 13003.5 6133.47 6870.06 933.131 12330.7 793.572 193.337 1970.92 976.748 757.502 491.475 994.173 12215.2 219.246 2754.29 223.648 115.515 852.595 577.104 1743.85 1123.11 1040.97 427.771 1283.68 1017.05 325.108 141.578 1010.43 606.178 293.944 620.742 167.512 82.141 75.1466 531.032 266.633 102.663 356.027 404.255 22.6498 453.231 191.183 381.605 94.8092 31.1641
internal_count=268644 232347 18039 214308 10445 206182 183627 129215 54412 8516 7705 36297 32075 8126 1598 30736 5368 25368 15189 10179 1929 22555 3972 349 7594 2798 2440 811 4796 22178 358 4222 1249 377 4419 1446 2962 2213 1906 1339 6528 4843 947 377 1260 871 815 749 276 307 234 637 1685 392 483 389 63 473 1396 326 379 132
is_linear=0
shrinkage=0.1


Tree=13
num_leaves=54
num_cat=0
split_feature=53 28 107 117 2 135 102 109 109 40 134 130 74 136 118 69 72 58 2 44 108 105 40 51 37 104 123 33 107 3 56 66 72 33 77 32 50 105 84 113 98 68 71 102 80 49 40 35 105 52 36 46 53
split_gain=520.808 637.282 390.315 516.795 398.494 705.19 517.784 379.867 864.873 778.582 353.66 318.471 256.363 242.582 241.51 211.254 200.549 241.864 291.234 170.254 165.424 155.786 144.266 131.959 129.437 111.789 86.4025 100.925 74.5612 61.6936 61.4773 67.6181 62.6545 57.23 57.0376 50.6079 41.189 37.2694 35.5143 32.4204 30.1538 24.9185 22.2081 21.8106 17.0231 15.7236 21.5794 13.415 1.43495 1.35103 0.873728 0.68865 0.424496
threshold=1.1137362718582156 0.99151700735092174 -1.0103343725204466 -1.5138151645660398 0.65847387909889232 1.0000000180025095e-35 -0.93667352199554432 -1.1387726068496702 -1.0971471071243284 1.07925021648407 1.0000000180025095e-35 1.0000000180025095e-35 -0.52745789289474476 1.0000000180025095e-35 -1.601803660392761 -0.0097222812473773939 -0.65179887413978566 0.86542174220085155 0.20552908629179004 1.1716437935829165 -1.0474017262458799 -0.80603379011154164 1.0549287199974062 1.1817348599433901 0.94950476288795482 -0.91582337021827687 -2.194504857063293 0.84534388780593883 -0.9779774248600005 0.3929202556610108 0.98565286397933971 0.39770926535129553 -0.34750527143478388 0.92670747637748729 -0.42896473407745356 0.90592905879020702 0.9245055913925172 -0.97477859258651722 -0.30400921404361719 -1.3795666694641111 -0.82123991847038258 0.066124223172664656 -0.53175210952758778 -0.70372051000595082 -0.38053351640701288 1.1991704702377322 1.0479463338851931 0.88190859556198131 -0.78846758604049672 1.1660153269767763 0.92796891927719127 1.215877950191498 1.1213983893394472
decision_type=2 2 2 2 2 2 2 2 2 2 2 2 2 2 2 2 2 2 2 2 2 2 2 2 2 2 2 2 2 2 2 2 2 2 2 2 2 2 2 2 2 2 2 2 2 2 2 2 2 2 2 2 2
left_child=1 28 16 12 5 -5 -6 15 9 14 11 13 43 -10 34 44 36 18 -18 -19 23 -13 -16 -11 -14 35 27 -27 30 33 41 32 -32 -12 -9 -17 -3 -30 -22 -28 -31 -1 -38 -4 50 48 -47 -43 -39 -37 52 -33 -2
right_child=7 2 3 4 6 -7 -8 8 10 20 29 21 24 -15 22 25 17 19 -20 -21 38 -23 -24 -25 -26 26 39 -29 37 40 31 51 -34 -35 -36 49 42 45 -40 -41 -42 47 -44 -45 -46 46 -48 -49 -50 -51 -52 -53 -54
leaf_value=0.19662358154915099 -0.14245998150794686 0.099331809346822508 0.086759236345460081 0.03959574127661767 0.049202897601028445 0.065044300501904059 -0.017877387914968568 -0.14767012131151702 0.086056180363003984 -0.097078015212429328 -0.10905595595740346 0.044006670871756762 0.19281802466412357 -0.010489193579810657 0.029128927965615364 0.069658336224356812 0.11390183022757649 -0.11056051660704287 0.0032101662618210774 0.067266993659506127 -0.18041533909968888 -0.047477814982193445 -0.034995009295683173 0.130331404750473 -0.049909571998267899 0.093148947098289442 0.13669861934347602 -0.16263014707280743 0.13587953011048021 -0.058091235613407635 -0.073456619632291484 -0.12435739268526771 0.053779895117200251 0.032552736961940075 -0.027903994483755898 -0.19106312634754596 -0.13147643684490126 -0.12102124205933527 0.0076454341621587695 0.1074077164152705 0.16354022981014277 -0.0540013801003578 0.094341874876782861 -0.15207511520381251 0.031802803074500972 0.26206555380044566 -0.11848354823396104 -0.12355189758424862 -0.10402964393725989 -0.25237085420334399 -0.2089212571009359 -0.15621434532510814 -0.17128765471309712
leaf_weight=2.946370765566825 7.3700906187295976 8.7230905145406705 4.447966173291209 79855.59225769341 2132.610661463812 12607.968996606767 2499.1616760846227 188.33677481487393 6620.3950909897685 26.856675900518894 141.53003600984812 901.25666506588459 351.66898573935032 270.90231377631426 513.92787439189851 10.314327090978624 288.76202607154846 250.73853528499603 1343.9355978518724 68.560932844877243 21.15313284099102 234.58690497279167 1105.6874184384942 511.38188977912068 23.433421820402145 44.618715845048428 651.97901967912912 23.578833233565092 6.2501720618456593 9.6434197053313273 52.91241092979908 24.60994266718626 144.10094195976853 35.747874982655048 50.406906431540847 7.4775362461805326 139.75732292234898 158.34520409442484 19.116659376770258 898.82783403992653 16.891203016042709 44.064917288720608 4.4951226711273184 27.239879593253136 4.8724624887108794 2.6428683474659911 3.4162802882492542 74.822119876742363 72.438180124387145 6.9218160957098007 4.8630402982234946 9.36888165399432 16.642726913094521
leaf_count=4 36 19 9 191664 6609 23540 9981 895 9140 75 1274 1701 379 684 1709 13 625 1060 4800 165 89 679 3995 362 91 210 474 141 9 37 252 189 486 135 474 31 646 1388 90 836 22 271 10 122 13 2 42 541 2452 29 20 54 70
internal_value=0 0.0405666 0.0411834 0.0421032 0.041632 0.0430658 0.0130084 0.0623345 0.0553786 0.00304903 0.0708714 0.0741744 0.154581 0.0822609 -0.0284884 0.106571 -0.00142014 0.00722075 0.0227873 -0.0723769 0.104358 0.0251123 -0.0146475 0.118984 0.177654 0.111656 0.114878 0.00471509 -0.0625378 -0.0592152 -0.0331769 -0.00286164 0.0196076 -0.0805007 -0.122383 -0.0994213 -0.11168 -0.105152 -0.0911401 0.119722 0.0829932 -0.0906537 -0.12444 -0.11855 -0.141094 -0.111513 0.0475037 -0.0977733 -0.115688 -0.220534 -0.170268 -0.133141 -0.16244
internal_weight=0 100203 99607.1 97502.1 97095.3 92463.6 4631.77 12345.3 10667.8 2436.87 8230.95 8027.14 406.79 6891.3 1858.36 1677.47 2104.97 1952 1632.7 319.299 578.508 1135.84 1619.62 538.239 375.102 1643.72 1619 68.1975 595.918 203.813 352.826 230.992 197.013 177.278 238.744 24.7137 152.976 243.093 40.2698 1550.81 26.5346 121.833 144.252 31.6878 33.7483 236.843 6.05915 118.887 230.783 14.3994 28.8759 33.9788 24.0128
internal_count=268644 245410 239720 232395 231794 215204 16590 23234 21361 7689 13672 12204 601 9824 7073 1873 7325 6650 5425 1225 616 2380 5704 437 470 1734 1661 351 5690 1468 1797 981 738 1409 1369 73 675 3893 179 1310 59 816 656 131 139 3884 44 812 3840 60 126 243 106
is_linear=0
shrinkage=0.1


Tree=14
num_leaves=60
num_cat=0
split_feature=53 30 53 30 134 73 131 71 29 72 55 29 1 98 103 91 75 30 70 103 88 53 39 135 133 0 30 2 100 93 107 71 134 130 74 123 29 105 41 50 100 37 42 47 75 123 57 6 90 31 54 55 57 129 30 44 30 54 20
split_gain=484.72 1090.75 543.671 907.588 783.66 960.245 510.412 853.827 665.397 483.409 469.434 446.309 401.403 565.481 442.615 380.328 800.033 377.055 531.45 759.558 349.985 337.655 334.336 305.438 296.178 285.484 284.317 283.204 278.835 264.753 249.516 248.364 227.831 199.616 197.133 262.745 146.848 157.423 141.796 135.828 155.695 117.554 113.725 162.109 173.518 154.186 107.973 96.6565 95.1813 71.415 76.3334 69.4047 66.817 38.0315 16.8623 2.30197 0.372467 0.462532 0.353084
threshold=1.0619075894355776 1.0593292117118838 1.0254426598548891 1.0708176493644717 1.0000000180025095e-35 -0.80626642704009999 1.0000000180025095e-35 -0.45293548703193659 1.0940829515457156 -0.62712466716766346 0.97608679533004772 1.1112754940986636 0.58401790261268627 -0.92892420291900624 -0.9163168966770171 -1.1626508831977842 -1.1031978726387022 1.0503910779953005 -0.2209125533699989 -0.78983917832374562 -1.2634013295173643 1.0469449162483218 1.0077638626098635 1.0000000180025095e-35 1.0000000180025095e-35 0.43212683498859411 1.0626588463783266 0.37536738812923437 -0.86183872818946827 -0.9985450506210326 -0.87442949414253224 -0.41667932271957392 1.0000000180025095e-35 1.0000000180025095e-35 -0.99219366908073414 -1.1611838340759275 1.0551942586898806 -0.81396180391311634 0.97958904504776012 1.1080945730209353 -0.82964998483657826 0.95944762229919445 1.0850630998611452 1.1346604824066164 -1.1117784976959226 -1.2694217562675474 0.9091126322746278 0.60279288887977611 -1.2214043140411375 1.0004854798316958 1.0428489446640017 1.0316647291183474 0.91586127877235424 1.0000000180025095e-35 1.1061275601387026 0.7496604621410371 1.0682473182678225 1.0655703544616701 1.1511645317077639
decision_type=2 2 2 2 2 2 2 2 2 2 2 2 2 2 2 2 2 2 2 2 2 2 2 2 2 2 2 2 2 2 2 2 2 2 2 2 2 2 2 2 2 2 2 2 2 2 2 2 2 2 2 2 2 2 2 2 2 2 2
left_child=1 6 3 9 20 38 7 11 31 24 -7 28 13 -5 -14 26 42 18 19 -18 33 -13 -20 -22 -3 39 34 -10 -1 -11 46 -9 -32 -4 35 41 55 -38 -6 48 -41 -2 43 44 -17 58 -19 -37 -8 50 -36 -47 -45 -51 56 -27 -28 -58 -44
right_child=15 2 4 12 5 10 25 8 27 29 -12 21 14 -15 -16 16 17 30 22 -21 23 -23 -24 -25 -26 36 54 -29 -30 -31 32 -33 -34 -35 49 47 37 -39 -40 40 -42 -43 45 52 -46 51 -48 -49 -50 53 -52 -53 -54 -55 -56 -57 57 -59 -60
leaf_value=-0.02321081327352216 -0.048375737803813046 -0.0022824287884796336 0.10858273939397277 0.071425660976205535 0.18537559444179241 -0.10909561152936068 0.18515277713969067 -0.071193856365218217 0.09691791349253287 0.15998172889891693 0.075688294606354789 -0.017777290596937965 0.048923844538455934 0.031939380276658623 0.0050453148986795903 -0.093212890133308607 0.039224492712949088 0.072389960336123355 0.083195010783909729 -0.013891312343188064 0.033915519896548091 0.037859569943623904 0.046205682497434022 0.099315358436929319 -0.10208240529925279 -0.10285039256606923 -0.2002564852823594 0.03469332147341285 -0.098278934337305154 0.039001679638636322 0.077919285658297407 0.0008363472374893797 0.16499127990876561 0.016981437209827463 0.050619610227832471 0.13496041749093668 0.066057812029181928 0.14160292543645575 0.12467282049382358 0.062743872578711335 -0.15685117843237714 0.11973909474193944 -0.17560897776577622 0.069987746200956685 0.026754468453246319 0.13160035224650055 0.040855858241343683 0.058438987815331481 -0.080609266856991296 0.099997590234701061 0.099040772074300232 -0.059284556334748079 -0.13792257474116928 0.16584310392637014 0.016474057927531805 -0.15728520733098267 -0.18253634128938795 -0.16036674415107044 -0.15408555904034862
leaf_weight=1056.2382095400244 304.11552122235298 5888.3972497284412 1235.31773917377 8154.1342856734991 520.42702226340771 251.90783396363258 14.367970408871768 660.5852466467768 821.09447795152664 236.10593320429325 302.66705513000488 4191.6691766120493 4647.9390305429697 6532.2511395588517 4548.7702171877027 228.61142089962959 11115.839040927589 1614.2094810456038 2815.2426691837609 3552.6966931149364 8586.3571477979422 1474.5266240090132 18510.478611538187 778.89754675328732 313.18216087669134 26.671503448858857 6.2040724754333487 6698.3405571654439 930.89999286830425 773.48106196522713 2693.6207400113344 1738.5176582802087 338.24340441823006 294.64089462161064 405.6253899782896 213.99433447420597 1398.8902785144746 343.58789316564798 1476.6992953270674 275.33673766255379 36.576220661401749 48.18325699865818 16.0605061352253 16.424744129180908 255.09491471946239 84.708407610654831 3317.0615438967943 721.98996981978416 217.1097883246839 152.6608784198761 1649.6024513617158 24.573544323444366 262.4380849301815 206.20055574178696 4.9692795425653449 10.961381077766417 24.168359503149986 15.411998167634009 14.505655914545057
leaf_count=5592 969 17436 2065 15064 299 930 13 3178 1824 285 495 16428 10914 15040 12318 859 24549 2868 5830 10337 19604 3729 38874 1052 1371 995 25 16238 4426 2083 4188 6480 188 719 896 261 2722 495 1834 563 161 57 66 26 607 104 6624 1308 1858 201 2077 69 1027 135 10 49 98 66 65
internal_value=0 0.0327861 0.0414815 0.0342161 0.0582818 0.108165 0.013319 0.00749466 0.0268579 0.00312425 -0.00824719 -0.0175996 0.0436039 0.0538628 0.0272212 0.0460124 0.0434539 0.0453674 0.0410111 0.0263599 0.0465989 -0.00329879 0.0510887 0.0393547 -0.00732237 0.0573666 0.0765922 0.041488 -0.0583774 0.0672945 0.0650581 -0.0189969 0.0876333 0.0909421 0.0798147 0.0482275 0.0767331 0.0809541 0.140491 -0.00607688 0.0369932 -0.025383 -0.0497507 -0.0649531 -0.029945 0.0331456 0.0511783 0.0759341 -0.0641132 0.0966713 0.0894842 0.0886773 -0.125677 0.137832 -0.158485 -0.118706 -0.177475 -0.173904 -0.165395
internal_weight=0 64436.5 44541.2 31094.3 13446.9 2551.7 19895.4 17571.9 9918.54 7211.17 554.575 7653.33 23883.1 14686.4 9196.71 48612.9 44859.8 43957.4 35994.3 14668.5 10895.2 5666.2 21325.7 9365.25 6201.58 2323.5 3753.13 7519.44 1987.14 1009.59 7963.14 2399.1 3031.86 1529.96 3702.37 1288.28 1780.11 1742.48 1997.13 543.391 311.913 352.299 902.417 762.569 483.706 139.848 4931.27 935.984 231.478 2414.09 2055.23 109.282 278.863 358.861 50.7537 37.6329 45.7844 39.5804 30.5662
internal_count=268644 166260 101509 74511 26998 3558 64751 57895 27720 21175 1425 30175 53336 30104 23232 102384 96281 93458 79590 34886 23440 20157 44704 20656 18807 6856 6103 18062 10018 2368 13868 9658 4376 2784 5904 2595 4261 3217 2133 2595 724 1026 2823 2519 1466 304 9492 1569 1871 3309 2973 173 1053 336 199 1044 189 164 131
is_linear=0
shrinkage=0.1


Tree=15
num_leaves=61
num_cat=0
split_feature=53 98 73 30 0 135 99 73 98 0 99 38 74 70 136 71 56 70 0 0 52 109 39 108 132 46 57 72 90 133 81 32 106 103 110 52 25 109 27 125 31 25 135 32 72 0 105 108 50 106 73 29 61 85 121 70 61 34 73 69
split_gain=446.918 430.708 826.924 508.473 502.634 500.945 489.267 871.172 470.668 452.7 557.62 438.896 690.536 399.534 372.039 350.718 329.864 327.299 306.482 283.455 275.209 257.793 868.913 588.53 374.927 316.79 296.421 285.546 259.548 316.373 380.518 283.541 234.12 254.022 220.037 215.058 189.793 175.813 172.647 171.229 165.24 121.537 108.691 107.382 106.037 101.638 96.6609 96.3853 95.8164 87.4891 82.7087 112.153 76.2153 76.1778 65.2245 65.1249 61.3697 41.2105 40.9929 19.8226
threshold=1.09676069021225 -0.84315264225006092 -0.73180803656578053 1.0206554532051089 0.36271975934505468 1.0000000180025095e-35 -0.84672135114669789 -0.76859596371650685 -0.8285107910633086 0.40334203839302069 -0.86401844024658192 0.97951355576515209 -0.60466599464416493 -0.40070261061191553 1.0000000180025095e-35 -0.50130921602249134 0.93632838129997265 -0.36740152537822718 0.34352459013462072 0.38005988299846655 1.106369733810425 -1.0949053168296812 1.0324910879135134 -1.0534177422523496 1.0000000180025095e-35 1.2432919144630434 0.97616982460021984 -0.39319244027137751 -0.67663505673408497 1.0000000180025095e-35 -1.1884863376617429 0.95642849802970897 -0.91164910793304432 -0.61960086226463307 -1.1779869198799131 1.1471191644668581 1.4046031236648562 -1.0295376777648924 1.0973096489906313 -1.7691211700439451 0.99706038832664501 1.1376567482948305 1.0000000180025095e-35 0.92722097039222728 -0.30743415653705591 0.24813479930162433 -0.81057015061378468 -1.0443698763847349 1.2246814370155337 -0.91336703300476063 -0.81570118665695179 1.1606439948081972 0.74910739064216625 -0.56182134151458729 -1.8759855628013609 -0.097186792641878114 0.69792947173118602 0.89296290278434765 -0.74142688512802113 -0.21659168601036069
decision_type=2 2 2 2 2 2 2 2 2 2 2 2 2 2 2 2 2 2 2 2 2 2 2 2 2 2 2 2 2 2 2 2 2 2 2 2 2 2 2 2 2 2 2 2 2 2 2 2 2 2 2 2 2 2 2 2 2 2 2 2
left_child=1 4 5 11 17 8 9 19 18 13 -11 12 -4 -6 15 -5 -9 50 -3 -8 -10 22 26 35 28 53 27 41 29 30 -23 -31 56 48 -29 55 40 58 -13 -39 -19 -2 49 44 -28 -16 -37 -27 -34 -30 59 -52 -44 -25 -35 -24 -26 -58 -7 -1
right_child=21 2 3 14 6 37 7 16 20 10 -12 38 -14 -15 45 -17 -18 36 -20 -21 -22 24 23 25 32 47 43 34 42 31 -32 -33 33 54 -36 46 -38 39 -40 -41 -42 -43 52 -45 -46 -47 -48 -49 -50 -51 51 -53 -54 -55 -56 -57 57 -59 -60 -61
leaf_value=-0.16658993588052179 -0.14006104077687034 0.036405327402704357 -0.020831032393889171 -0.069762360617287342 -0.086617688082765598 -0.016854870684830849 0.0023586919573539531 0.11443026529093039 -0.069113281161413173 0.034227279463336327 -0.0070748042719490038 -0.1274715340237895 0.079910166626077112 0.058282416065227285 0.12010609274095796 0.052706659987049521 0.025909330222372275 0.036775349024520808 -0.021306632518708454 -0.065275094584464413 -0.0076562975627937875 0.057878515523415955 0.015218777578260779 0.012310068075209834 0.13391126102123738 0.14484670224118076 -0.10276623170179483 0.0034119831438733476 0.018122161317631651 0.10957531760703676 0.016278581471009503 -0.034812290952172635 0.12391573778471061 -0.10627487454083376 0.08336428805495659 0.10148153098996521 0.220147907180678 0.11793002088262172 -0.029844372257058979 -0.0030495695418960474 0.072900200879884608 -0.027592493787449657 0.10100402117800152 0.12925160838281971 -0.011658570312585553 -0.071815840100014613 -0.079662750703509644 -0.099363938133054733 -0.060012716184138587 -0.080348295915911569 -0.10026464370270216 0.070476835276698138 -0.033151554038512845 -0.15518206054163275 0.032206452716572027 -0.16754790201776043 -0.16811800132608362 -0.018968989423657923 -0.16682748799378141 0.041871209837618391
leaf_weight=62.07795981131494 121.47868628799915 1859.9841819033027 1658.2198722995818 239.97607626765966 194.31191704422235 80.347649753093719 1036.2773036509752 531.01855487376451 1872.2194755189121 47642.134089987725 3509.6534927710891 275.34283388033509 1153.8799787592143 9193.5111874341965 30.190877169370651 9133.9817055240273 2031.1389194428921 1723.4835217744112 1821.1523710824549 1541.3476539552212 1192.9325531870127 7705.7499734610319 220.08966667205095 32.120857194066048 13.551716595888136 73.935383357107639 449.87969731166959 984.79341686703265 138.78461017459631 1349.0849905610085 3076.7730372995138 151.25377984344959 1474.907850317657 41.730536222457886 529.18633557856083 2010.4985030479729 78.090234383940697 493.56439828872681 529.45835711061954 153.33683826029301 4772.2391156256199 459.60503490269184 107.69536325335503 26.327088877558708 178.40559474006295 320.72459878027439 29.895911905914545 20.682463929057121 28.877718165516853 257.89135248214006 80.030609045177698 74.082245126366615 69.789293840527534 175.62090763449669 183.87794999405742 21.391260355710983 39.1183180809021 35.190846517682076 23.572929158806801 4.9232983440160742
leaf_count=312 517 4059 7066 1027 711 229 2617 887 7736 116255 10472 1460 2620 16646 46 21179 4644 3640 5952 5703 3256 12237 563 74 15 61 2320 3672 312 1492 7608 356 1085 785 1420 1930 37 640 1648 364 7538 1534 135 27 967 1170 161 127 71 845 294 152 166 793 494 142 168 96 101 10
internal_value=0 0.0316187 0.0189488 0.0338814 0.0352618 -0.00762512 0.0325832 0.00296174 -0.0162486 0.035098 0.0313934 0.00187027 0.0205058 0.0552832 0.0457871 0.0495714 0.0442557 0.0611532 0.00785375 -0.0380844 -0.0451947 0.0480888 0.0292615 0.0708948 0.0549322 -0.0602051 -0.00986673 0.00848626 0.0489228 0.0519947 0.0460081 0.0950192 0.0974487 0.105539 0.031358 0.0882661 0.0651784 0.0698589 -0.0632451 0.0892539 0.0633153 -0.0511047 -0.0167932 -0.0686048 -0.0768956 -0.0553039 0.0988274 0.0914648 0.120384 -0.0458965 -0.0585154 -0.018189 0.0482523 -0.129285 0.00659172 -0.000971361 -0.0617943 -0.097485 -0.0508741 -0.151272
internal_weight=0 93313.2 20838.9 13341.8 72474.3 7497.11 65679.4 5139.78 6746.29 60539.6 51151.8 3616.9 2812.1 9387.82 9724.87 9373.96 2562.16 6794.93 3681.14 2577.62 3065.15 20008.2 5333.91 2584.23 14674.3 302.36 2749.68 2095.06 12857 12282.9 10782.5 1500.34 1817.25 1729.39 1513.98 2281.88 6573.81 750.822 804.801 646.901 6495.72 581.084 574.161 654.612 628.285 350.915 2040.39 94.6178 1503.79 396.676 221.114 154.113 177.485 207.742 225.608 241.481 87.8609 74.3092 103.921 67.0013
internal_count=268644 228471 58553 36216 169918 22337 157935 13851 21003 144084 126727 12794 9686 17357 23422 22206 5531 11983 10011 8320 10992 40173 14308 3851 25865 1055 10457 7143 23151 21693 19845 1848 2714 2435 5092 2796 11215 1334 3108 1004 11178 2051 1458 3314 3287 1216 2091 188 1156 1157 768 446 301 867 1279 705 279 264 330 322
is_linear=0
shrinkage=0.1


Tree=16
num_leaves=61
num_cat=0
split_feature=136 32 101 3 106 31 73 102 4 30 0 36 70 29 71 72 71 30 31 30 22 123 51 124 69 54 0 126 105 99 67 70 114 29 104 103 0 73 29 115 105 82 35 60 105 31 131 135 88 4 75 93 36 37 91 45 27 132 97 25
split_gain=430.097 845.843 437.257 529.363 580.457 486.11 503.253 416.096 431.327 370.591 378.016 445.13 499.562 360.893 343.495 336.611 335.728 247.899 243.915 220.42 200.769 186.133 173.034 267.646 183.39 164.941 160.15 151.735 149.101 144.071 134.798 131.324 114.149 130.164 88.8755 124.729 79.0073 92.8628 125.666 76.8517 55.4784 95.7047 52.8187 51.6246 50.5662 36.6664 34.4832 27.5285 32.6285 27.0633 16.1149 15.2576 9.22669 8.5132 6.86784 0.703373 0.144818 0.0630536 0.0293959 0.00339531
threshold=1.0000000180025095e-35 0.96325066685676586 -0.98650866746902455 0.70069456100463878 -0.94714978337287892 1.0035093426704409 -0.78533256053924549 -0.9316115379333495 0.66986802220344555 1.0451348423957827 0.52440908551216137 0.84382671117782604 -0.38363134860992426 1.2141721844673159 -0.35400874912738794 -0.76555320620536793 -0.48683592677116388 1.0819168686866762 0.99827885627746593 1.1031827330589297 1.3921069502830508 -1.2939565777778623 1.1237764954566958 -1.4871862530708311 -0.050401424989104264 0.74954870343208324 0.39860397577285772 -1.7930153012275694 -0.82003659009933461 -0.95865008234977711 -0.083521034568548189 -0.26162853837013239 -0.93126007914543141 1.2227870225906374 -0.92038914561271656 -0.80741775035858143 0.4068885743618012 -0.76433274149894703 1.1054100990295412 -0.94251450896263111 -0.8131107985973357 -1.3112785220146177 0.89039713144302379 0.78429117798805248 -0.83644276857376088 0.99781385064125072 1.0000000180025095e-35 1.0000000180025095e-35 -1.2207496762275694 0.74258103966712963 -1.0606819391250608 -1.0373858809471128 0.92665505409240734 0.93953385949134838 -1.1538098454475401 0.73950347304344188 1.430855453014374 1.0000000180025095e-35 -0.94088342785835255 1.4679057002067568
decision_type=2 2 2 2 2 2 2 2 2 2 2 2 2 2 2 2 2 2 2 2 2 2 2 2 2 2 2 2 2 2 2 2 2 2 2 2 2 2 2 2 2 2 2 2 2 2 2 2 2 2 2 2 2 2 2 2 2 2 2 2
left_child=2 9 25 4 5 6 -4 19 -9 14 11 12 -11 18 40 17 -13 -15 29 -6 -7 22 23 31 28 55 -25 -12 -24 -5 -20 -3 33 39 42 -36 50 38 -38 -27 44 -42 -16 -26 -2 -29 -35 48 -34 -17 52 -52 -23 -39 -49 56 59 -57 -58 -1
right_child=1 21 3 13 7 20 -8 8 -10 10 27 16 -14 15 34 49 -18 -19 30 -21 -22 36 24 26 43 32 -28 45 -30 -31 -32 -33 47 46 35 -37 37 53 -40 -41 41 -43 -44 -45 -46 -47 -48 54 -50 -51 51 -53 -54 -55 -56 57 58 -59 -60 -61
leaf_value=-0.10323791771169706 -0.067365628986483239 0.067346662629606285 -0.071434942225217637 -0.12979042102342203 0.08233106049001282 0.0029608279920168654 0.0079871159310723628 0.036375925496624086 0.0087062678179707139 -0.019269558621158353 0.21409171041936431 -0.045426619370206707 0.18226314198625349 0.061936226074095928 0.10862221760282616 0.071150073008326584 0.015892442461466965 -0.021664055316468485 0.090049381177370463 -0.04271172223907263 0.09415498500925179 0.099345444557717488 0.10846554094450829 0.063785859770991313 -0.17762606168178233 0.08564861720081865 -0.062746294920369136 -0.096610566141903331 -0.13582348638944564 -0.043536094533690263 -0.1354090903202699 -0.10918890530800181 -0.076859232192908494 -0.15854007168877182 0.12522304252882718 -0.037979109637063302 -0.15071561521773968 0.20579758927665637 0.068267582835317434 -0.030351354735780191 -0.14121344068443611 0.10472175460461459 -0.19521102040947991 -0.0053065383501906174 -0.11728163384873679 -0.047722003033485789 0.069418579239098985 0.18386991226999069 0.12384336159118392 0.20278710634104313 0.012149590805486894 0.14370804482159369 0.15425156289914854 0.13548562548226362 0.14708727351888121 -0.14871830345974221 -0.11198302372545386 -0.13206992039563178 -0.12114179496728752 -0.10769734161899419
leaf_weight=15.00042809545994 387.15369274094701 53.911302000284195 924.38907735794783 372.95636096782982 2443.1661950610578 342.70571771264076 5826.7609871886671 81715.169259876013 6050.9492615703493 205.35272713750601 18.522529698908329 1104.2926299348474 306.69790851324797 510.5473664700985 7.7874660976231125 18.668719381093979 4664.0331811755896 1161.9544691294432 138.43579249083996 149.6042778044939 816.79260531067848 34.342528000473976 696.24703752994537 763.4444789737463 21.795525759458542 1400.4961079806089 115.11094477772713 369.07701802998781 25.914630696177483 402.78869315050542 32.802182495594025 192.96721297502518 10.284223306924103 29.282913006842136 141.17069877684116 70.074381276965141 31.558532744646072 30.631500050425529 154.50048236548901 59.541521146893501 27.099175564944744 38.026862841099501 21.56808365881443 85.924195438623428 426.53735608421266 262.53483927994967 8.5801915377378446 99.604184836149216 38.140713270753622 95.571718484163284 17.882053807377815 17.386984884738922 281.28704386949539 39.330307185649872 103.51702331006527 5.1859750151634199 5.9572537764906874 4.0527118593454361 8.5110566765069979 1.9266399070620526
leaf_count=518 2345 106 3415 3510 4145 768 18312 179449 15515 988 29 4711 538 1268 19 40 12179 3748 219 438 1231 39 826 1165 94 1859 339 1987 98 2158 128 719 44 132 119 199 121 14 263 158 381 88 90 197 2055 1169 15 39 45 107 33 11 157 41 55 25 65 23 64 31
internal_value=0 0.011876 0.0330214 0.0321531 0.0333606 0.00738563 -0.00288761 0.0356346 0.0344683 -0.00405184 0.00457129 0.0120855 0.10144 -0.011252 -0.0574391 0.0151996 0.00415348 0.00385574 -0.0611602 0.075116 0.0672013 0.0619174 0.0469012 0.0213562 0.0815437 0.0820125 0.0472072 -0.0680166 0.0996993 -0.0850047 0.0468608 -0.0706385 0.0866387 0.0761709 0.0484289 0.0710855 0.110295 0.0680554 0.0311246 0.080918 -0.0864234 0.00238725 -0.11461 -0.0401729 -0.0935316 -0.0762896 -0.106882 0.148972 0.0812192 0.181276 0.141114 0.0770055 0.148277 0.16627 0.165124 -0.117162 -0.110025 -0.141415 -0.117371 -0.103745
internal_weight=0 10612.2 102793 101003 98269.5 7910.65 6751.15 90358.9 87766.1 8049.93 6930.51 6280.38 512.051 2733.73 1119.42 1786.74 5768.33 1672.5 946.983 2592.77 1159.5 2562.23 1955.32 1125.43 829.881 1790.08 878.555 650.134 722.162 775.745 171.238 246.879 1749.45 1497.9 240.601 211.245 606.919 256.021 186.059 1460.04 878.817 65.126 29.3555 107.72 813.691 631.612 37.8631 251.546 48.4249 114.24 350.899 35.269 315.63 69.9618 203.121 40.6341 31.3954 9.23869 14.4683 16.9271
internal_count=268644 31120 237524 234451 223273 23726 21727 199547 194964 26897 21601 18416 1526 11178 5296 5163 16890 5016 6015 4583 1999 4223 3544 2329 1215 3073 1504 3185 924 5668 347 825 2347 2164 427 318 679 439 384 2017 4869 469 109 291 4400 3156 147 183 89 147 240 44 196 55 94 726 678 48 129 549
is_linear=0
shrinkage=0.1


Tree=17
num_leaves=53
num_cat=0
split_feature=52 75 93 75 108 134 72 131 75 111 99 4 108 109 43 56 69 31 133 69 52 37 35 109 82 106 108 30 61 108 73 122 105 20 119 76 124 45 104 107 131 35 60 48 77 109 100 36 30 52 38 31
split_gain=393.044 333.965 381.89 838.755 472.418 468.303 461.817 388.657 670.645 427.861 370.772 356.94 261.761 617.276 571.276 234.915 226.671 213.132 181.751 178.065 172.604 167.482 142.647 135.172 133.116 111.295 102.014 93.0096 238.271 126.644 87.7032 73.8208 63.7317 57.8306 51.0987 87.1623 67.0462 46.4095 62.3147 41.4662 29.1313 29.0125 27.5536 20.9791 19.9168 47.9746 18.2952 12.3923 9.95048 5.94323 3.78801 2.64073
threshold=1.1570350527763369 -1.1894260644912718 -1.0615876913070676 -1.0957433581352232 -0.8902238905429839 1.0000000180025095e-35 -0.60961040854454029 1.0000000180025095e-35 -1.109050393104553 -0.85800862312316883 -0.88874715566635121 0.66361215710639965 -1.0639163851737974 -1.0971471071243284 1.1844857335090639 1.0392400622367861 -0.0066000740043818942 1.0046995282173159 1.0000000180025095e-35 -0.015355414245277641 1.0430371761322024 0.97612458467483532 0.90418222546577465 -1.0902785062789915 -1.4377873539924619 -0.88310664892196644 -0.90161195397377003 1.0408226847648623 0.7050360143184663 -0.83279862999916066 -0.42834141850471491 -2.0655983686447139 -0.97477859258651722 1.2206593751907351 -0.8791099190711974 -1.3101441860198972 -1.1160429716110227 1.2147262692451479 -0.75911167263984669 -0.98826020956039418 1.0000000180025095e-35 0.9420718550682069 0.85992762446403515 1.2391485571861269 -1.3440197706222532 -0.85385823249816883 -0.94697833061218251 0.94064655900001537 0.99779629707336437 1.0507894754409792 1.000480651855469 0.9827496111392976
decision_type=2 2 2 2 2 2 2 2 2 2 2 2 2 2 2 2 2 2 2 2 2 2 2 2 2 2 2 2 2 2 2 2 2 2 2 2 2 2 2 2 2 2 2 2 2 2 2 2 2 2 2 2
left_child=1 17 6 10 11 -6 7 8 -3 -9 20 -5 19 14 22 16 26 34 23 33 -4 -20 30 -17 -12 43 -15 28 -8 -29 -14 -18 41 48 46 51 -37 38 -34 -24 -19 -21 -27 -16 -42 -46 -1 -39 50 -48 -2 -36
right_child=12 2 3 4 5 -7 27 9 -10 -11 24 -13 13 15 25 18 31 40 21 32 -22 -23 39 -25 -26 42 -28 29 -30 -31 -32 -33 37 -35 35 36 -38 47 -40 -41 44 -43 -44 -45 45 -47 49 -49 -50 -51 -52 -53
leaf_value=0.06067796991824749 -0.17218699780573299 0.0067177385793379023 -0.034448469725405259 0.022298437403839771 0.032907334177817986 0.08474723251398697 -0.034368418586977471 0.044007537144354028 0.043474225740275048 0.11970739727861485 0.050261234835294689 -0.0087067346574268602 -0.11800909859667635 0.024351716802116688 0.040799377404133017 -0.15269072352584079 -0.072033511382724999 -0.0507365382177032 0.11900863949449625 0.044749846383849531 0.055626178831191364 -0.069519058783208271 0.10510926124649396 0.012229414389514739 -0.070410724187915094 0.21669435891026559 0.072149149437358132 0.073225221364014742 0.081820580493209435 0.14138051947615857 -0.049528705955697756 0.11489150588787785 0.083353339260392539 0.17840550817231821 -0.10261254625486882 0.12771697658607625 -0.045366231971717769 0.11877069049199665 -0.091405444460452484 -0.060853165684851551 0.18640966458047409 -0.23839559755850184 -0.099597117667609536 0.13366128802303814 0.16287865296378076 -0.033275877563121198 -0.15566592555226427 0.053263685113797657 -0.046494773798902628 -0.11669146287542616 -0.27163222046434327 -0.13379889293163144
leaf_weight=4.8228662312030783 23.500706151127819 9555.8494914881885 365.16259457916021 49270.651140777394 19652.846608867869 1912.1545512378216 218.46524273604155 6010.5884464606643 10329.953739797696 852.54672174714506 97.376011103391647 4015.6316241547465 301.16267196461558 715.22347651422024 27.306532829999924 52.399662580341101 21.549791768193245 13.373919621109961 286.09486921131611 6.7629948407411558 509.65395871549845 56.412710130214691 60.767584085464478 963.93041462823749 1493.2528084442019 3.0292425118386737 1188.5893833488226 697.20661698281765 918.80547258257866 447.71219834685326 493.43186821788549 1077.5904318988323 289.75455543398857 5.7904100865125647 92.826300228014588 33.4127386957407 67.780097872018814 790.18512233346701 21.949486535042524 20.012845724821091 23.183509200811386 7.7839135974645615 30.339832033962011 223.0545095577836 27.642416566610333 22.714022278785709 81.964485168457031 29.974123567342758 5.9972100257873526 74.860287204384804 4.5762769281864157 38.376685060560703
leaf_count=10 100 25576 1033 121215 40906 3207 712 11234 23446 1087 183 13112 1207 1565 47 242 318 37 229 10 952 144 55 2459 5179 7 1416 1125 1346 453 2468 833 311 3 3840 54 277 581 89 54 13 33 231 138 20 63 367 37 15 358 20 227
internal_value=0 0.0264215 0.0267975 0.0231256 0.0250158 0.0375039 0.0365769 0.0328928 0.0258114 0.0534111 -0.034264 0.0199619 0.0513774 0.0422201 -0.0226443 0.0594572 0.0750682 -0.0567199 0.0249576 0.0939957 0.0180276 0.0879572 -0.0626127 0.00372651 -0.0630234 0.100668 0.0541926 0.0797566 0.0595011 0.0998769 -0.0754838 0.111227 0.10122 -0.11377 -0.0879838 -0.0579505 0.0117839 0.103893 0.0710472 0.0639931 0.0850223 -0.106759 -0.0708842 0.123533 0.109711 0.0744002 -0.131162 0.116377 -0.16342 -0.137061 -0.188396 -0.111735
internal_weight=0 106829 106348 77316.7 74851.3 21565 29031.1 26748.9 19885.8 6863.14 2465.45 53286.3 6707.17 5520.9 1159.11 4361.79 3002.95 480.957 1358.84 1186.27 874.817 342.508 875.375 1016.33 1590.63 283.73 1903.81 2282.19 1137.27 1144.92 794.595 1099.14 1146.41 39.8646 394.043 232.396 101.193 1131.86 311.704 80.7804 86.9139 14.5469 33.3691 250.361 73.5399 50.3564 161.648 820.159 34.0742 156.825 28.077 131.203
internal_count=268644 256032 250766 185787 178440 44113 64979 61343 49022 12321 7347 134327 12612 11413 4207 7206 4132 5266 3074 1199 1985 373 3784 2701 5362 423 2981 3636 2058 1578 3675 1151 1061 138 5133 4398 331 1018 400 109 133 43 238 185 96 83 735 618 135 725 120 4067
is_linear=0
shrinkage=0.1


Tree=18
num_leaves=61
num_cat=0
split_feature=136 32 101 3 106 30 102 32 92 30 0 29 29 71 30 70 78 73 23 120 3 125 51 124 71 105 0 54 57 126 115 99 114 88 29 0 79 104 103 73 29 35 105 53 101 7 91 131 135 75 75 84 72 37 119 45 27 132 97 113
split_gain=351.572 698.645 347.595 409.565 437.504 401.22 491.588 370.081 316.205 305.554 309.652 363.226 287.328 278.737 224.804 222.579 200.341 179.816 171.194 160.988 272.364 152.482 151.965 218.869 155.081 148.58 144.691 130.132 123.43 123.325 121.134 114.07 106.77 104.297 103.719 78.4421 70.1929 69.1445 101.8 68.4095 123.038 47.7398 47.4708 67.1083 52.5461 34.4446 33.013 29.4304 26.391 26.9436 15.067 18.4301 8.31044 8.09723 5.94198 0.483225 0.111084 0.0432875 0.0236638 0.00305006
threshold=1.0000000180025095e-35 0.96325066685676586 -0.98650866746902455 0.70951616764068615 -0.9484262466430663 1.1010594367980959 -0.9258553385734557 0.92031332850456249 -1.0219003558158872 1.0451348423957827 0.52440908551216137 1.1606439948081972 1.1875414848327639 -0.35400874912738794 1.084911108016968 -0.39867252111434931 -1.2448725104331968 -0.79078838229179371 1.5476459860801699 -0.93311113119125355 0.73623162508010875 -1.508012533187866 1.1269939541816714 -1.4871862530708311 -0.38304546475410456 -0.82196930050849903 0.39372596144676214 0.74954870343208324 0.94460663199424755 -1.7930153012275694 -0.92116051912307728 -0.95511367917060841 -0.93126007914543141 -1.1405542492866514 1.2227870225906374 0.4045416414737702 -1.2397041916847227 -0.92038914561271656 -0.80741775035858143 -0.76433274149894703 1.1054100990295412 0.88609740138053905 -0.8186855912208556 1.1086770296096804 -0.73132967948913563 0.7124280333518983 -1.0423502326011655 1.0000000180025095e-35 1.0000000180025095e-35 -1.1504382491111753 -1.0606819391250608 -1.2981977462768552 -0.61933785676956166 0.93953385949134838 -0.89958441257476796 0.73950347304344188 1.430855453014374 1.0000000180025095e-35 -0.94088342785835255 -0.81602969765663136
decision_type=2 2 2 2 2 2 2 2 2 2 2 2 2 2 2 2 2 2 2 2 2 2 2 2 2 2 2 2 2 2 2 2 2 2 2 2 2 2 2 2 2 2 2 2 2 2 2 2 2 2 2 2 2 2 2 2 2 2 2 2
left_child=2 9 27 4 7 6 -6 17 19 13 11 16 46 42 -9 -13 -11 -4 -7 30 -21 22 23 33 25 -24 -25 55 -26 -12 -5 -14 34 -3 36 50 -29 41 -39 40 -37 -15 43 -2 -44 -31 -10 -36 49 -34 52 -52 -23 -41 -50 56 59 -57 -58 -1
right_child=1 21 3 8 5 18 -8 14 12 10 29 15 31 37 -16 -17 -18 -19 -20 20 -22 35 24 26 28 -27 -28 32 -30 45 -32 -33 48 -35 47 39 -38 38 -40 53 -42 -43 44 -45 -46 -47 -48 -49 54 -51 51 -53 -54 -55 -56 57 58 -59 -60 -61
leaf_value=-0.10726314081506226 -0.10886284194664463 -0.13560986596331823 -0.062967152229260914 -0.048278495954102947 0.064486820421542843 -0.019664706290497703 0.02795807773792849 0.013581739368555596 0.19409933339564281 0.012187876122038158 0.17972539459754899 -0.040484091810446585 -0.038404472745878292 0.11576903902820079 0.075104239701497502 0.1636920558778856 -0.03154940578161837 -0.007978664738097184 -0.13769875614812518 0.057873746804614615 -0.092172867426323288 0.09393775041014045 0.11708915726785676 0.060321088790269019 -0.1599756627204465 -0.12894764759712768 -0.047938487040745124 0.044623994572935755 0.039589501165571153 -0.13680741126430826 -0.14603406453706663 0.12871535722677946 -0.043492773888365775 -0.012472094829715973 -0.15108321845879422 -0.14685349403074444 0.089184446375797269 0.11216851153598027 -0.036523756305565099 0.18075713158674719 0.061977295845217543 -0.17831695941800219 -0.044348606118476158 -0.035449464362338215 0.20985675721250141 -0.064581078531775749 -0.12235706735361165 0.060425452686743208 0.12269686225303625 0.11918222966909686 -0.018002558482133734 0.11984745752026581 0.14372170805665327 0.1134617607159719 0.16269991539758566 -0.14259917092344326 -0.11081324598577989 -0.12835821733234773 -0.11934888381772919 -0.10270416950429882
leaf_weight=1.6598819307982893 560.30605145730078 106.64755044877529 759.22777386009693 888.41415105760098 3846.7946004159749 523.92571614682674 87107.778737757355 3415.5134129226208 3.4448614474385968 4683.1963632851839 19.868361622095108 69.799293786287308 48.154264755547047 7.4061234444379833 718.95181240141392 227.1355684697628 1348.9477043673396 2743.9041652157903 160.52721281349659 346.190863173455 185.95839761011302 38.601028501987457 490.37124566733837 747.84292204678059 38.595076501369476 25.838093891739845 147.86464144289494 642.22079208493233 157.3263998478651 75.214199438691139 147.85629249364138 268.99789603054523 14.587677374482153 193.74252209067345 27.985617205500603 33.346627116203308 786.33150419592857 134.77441661059856 69.93678092956543 30.570125609636307 183.26354312896729 21.673690557479858 127.038485057652 160.09375513345003 8.6875824183225614 540.63328290730715 76.557991666719317 8.6004181951284391 49.733713045716286 33.708646824583411 14.4764117449522 29.387179359793663 255.28366263210773 43.071967765688896 146.54030133783817 4.8975531123578531 5.4677767157554635 3.7832517176866531 8.0003385096788389 12.660911604762079
