tree
version=v4
num_class=1
num_tree_per_iteration=1
label_index=0
max_feature_idx=136
objective=binary sigmoid:1
feature_names=Column_0 Column_1 Column_2 Column_3 Column_4 Column_5 Column_6 Column_7 Column_8 Column_9 Column_10 Column_11 Column_12 Column_13 Column_14 Column_15 Column_16 Column_17 Column_18 Column_19 Column_20 Column_21 Column_22 Column_23 Column_24 Column_25 Column_26 Column_27 Column_28 Column_29 Column_30 Column_31 Column_32 Column_33 Column_34 Column_35 Column_36 Column_37 Column_38 Column_39 Column_40 Column_41 Column_42 Column_43 Column_44 Column_45 Column_46 Column_47 Column_48 Column_49 Column_50 Column_51 Column_52 Column_53 Column_54 Column_55 Column_56 Column_57 Column_58 Column_59 Column_60 Column_61 Column_62 Column_63 Column_64 Column_65 Column_66 Column_67 Column_68 Column_69 Column_70 Column_71 Column_72 Column_73 Column_74 Column_75 Column_76 Column_77 Column_78 Column_79 Column_80 Column_81 Column_82 Column_83 Column_84 Column_85 Column_86 Column_87 Column_88 Column_89 Column_90 Column_91 Column_92 Column_93 Column_94 Column_95 Column_96 Column_97 Column_98 Column_99 Column_100 Column_101 Column_102 Column_103 Column_104 Column_105 Column_106 Column_107 Column_108 Column_109 Column_110 Column_111 Column_112 Column_113 Column_114 Column_115 Column_116 Column_117 Column_118 Column_119 Column_120 Column_121 Column_122 Column_123 Column_124 Column_125 Column_126 Column_127 Column_128 Column_129 Column_130 Column_131 Column_132 Column_133 Column_134 Column_135 Column_136
feature_infos=[-1.7844352722167969:2.1873281002044678] [-1.6962581872940063:2.0962586402893066] [-1.6161398887634277:2.0136351585388184] [-1.5440802574157715:1.9394575357437134] [-1.4800789356231689:1.8737261295318604] [-1.4241359233856201:1.8164401054382324] [-1.3852788209915161:1.7937201261520386] [-1.3575865030288696:1.9274762868881226] [-1.3260828256607056:2.0758624076843262] [-1.2853907346725464:2.0974209308624268] [-1.2320997714996338:2.0118343830108643] [-1.1626077890396118:2.0267508029937744] [-1.0779223442077637:2.0742456912994385] [-0.97803342342376709:2.1771299839019775] [-0.86829191446304321:2.2759943008422852] [-0.75375783443450928:2.4052433967590332] [-0.63876837491989136:2.5269482135772705] [-0.65620064735412598:2.5277442932128906] [-0.66012513637542725:2.5653238296508789] [-0.66667592525482178:2.5221147537231445] [-0.8555336594581604:2.4413206577301025] [-0.86833834648132324:2.3840618133544922] [-0.86565589904785156:2.2409591674804688] [-0.70636492967605591:2.1787192821502686] [-0.68053698539733887:2.1696581840515137] [-0.94777458906173706:2.0883691310882568] [-1.2671374082565308:1.9448176622390747] [-1.6690099239349365:1.7314887046813965] [-1.8561191558837891:1.5598906278610229] [-2.1668190956115723:1.3473584651947021] [-2.5042393207550049:1.1459542512893677] [-2.6881959438323975:1.0433628559112549] [-2.6397361755371094:1.0182701349258423] [-2.3245775699615479:1.0153312683105469] [-1.6179424524307251:1.0222163200378418] [-0.85442560911178589:1.0489702224731445] [-0.66342759132385254:1.2523990869522095] [-0.67050886154174805:1.345354437828064] [-0.67336314916610718:1.4165236949920654] [-0.67729061841964722:1.3777114152908325] [-0.67367839813232422:1.3165556192398071] [-0.77278417348861694:1.2266663312911987] [-0.78214722871780396:1.2681889533996582] [-0.67822211980819702:1.3808037042617798] [-0.67593681812286377:1.5838102102279663] [-0.67998087406158447:1.7493973970413208] [-0.67735743522644043:1.7343066930770874] [-0.68056988716125488:1.6915385723114014] [-0.67851173877716064:1.8138210773468018] [-0.68057990074157715:2.0951991081237793] [-0.67868822813034058:2.3221406936645508] [-0.68411111831665039:2.3866791725158691] [-0.68785721063613892:2.3278176784515381] [-0.69603323936462402:2.41339111328125] [-0.68564701080322266:2.0181429386138916] [-0.66425126791000366:1.663224458694458] [-0.62698209285736084:1.3939603567123413] [-0.6819922924041748:1.3641012907028198] [-0.88048118352890015:1.3483799695968628] [-0.73171019554138184:1.3266682624816895] [-0.58480948209762573:1.3006186485290527] [-0.60407185554504395:1.5017008781433105] [-0.63139909505844116:1.6471337080001831] [-0.66095739603042603:1.5962808132171631] [-0.93073725700378418:1.2496439218521118] [-1.1747497320175171:1.0751444101333618] [-1.3727543354034424:0.99085426330566406] [-1.6713657379150391:0.88367986679077148] [-1.8910553455352783:0.75060045719146729] [-2.0949718952178955:0.59843027591705322] [-1.9126988649368286:0.44751104712486267] [-1.723555326461792:0.31280896067619324] [-1.5802557468414307:0.20973041653633118] [-1.5674382448196411:0.13722024857997894] [-1.4517455101013184:0.30397361516952515] [-1.6804615259170532:0.9557119607925415] [-1.8599822521209717:1.3625956773757935] [-2.0371255874633789:0.97979003190994263] [-2.1728529930114746:1.1285310983657837] [-2.2573421001434326:0.92254304885864258] [-2.3058340549468994:0.73609095811843872] [-2.3315773010253906:0.27998179197311401] [-2.3403120040893555:0.32789856195449829] [-2.3343968391418457:0.37759476900100708] [-2.3124566078186035:0.5232703685760498] [-2.2730567455291748:0.46151745319366455] [-2.2140905857086182:0.49370381236076355] [-2.1362462043762207:0.51996833086013794] [-2.0426793098449707:0.67684948444366455] [-1.9374580383300781:0.55988889932632446] [-1.8240519762039185:0.65060514211654663] [-1.7103197574615479:1.0689502954483032] [-1.6472604274749756:1.4168777465820312] [-1.5846540927886963:1.6290324926376343] [-1.5209465026855469:1.6652539968490601] [-1.4698792695999146:1.6182962656021118] [-1.4279601573944092:1.5608183145523071] [-1.3987493515014648:1.5595740079879761] [-1.3791044950485229:1.5645072460174561] [-1.5388252735137939:1.5648646354675293] [-2.0638625621795654:1.5687597990036011] [-2.4619696140289307:1.5680602788925171] [-2.648137092590332:1.5700795650482178] [-2.4631106853485107:1.5662518739700317] [-2.0338072776794434:1.5674868822097778] [-1.4475361108779907:1.5623446702957153] [-1.2213733196258545:1.563502311706543] [-1.1215335130691528:1.561995267868042] [-1.1654683351516724:1.5723429918289185] [-1.225764274597168:1.5757462978363037] [-1.3164699077606201:1.5824931859970093] [-1.5506553649902344:1.5858457088470459] [-2.1400496959686279:1.5904401540756226] [-2.4733853340148926:1.5896482467651367] [-2.4289262294769287:1.5896980762481689] [-1.8389110565185547:1.5826603174209595] [-1.5772113800048828:1.5835590362548828] [-1.6319060325622559:1.7016431093215942] [-1.6864286661148071:2.5795986652374268] [-1.7459897994995117:2.8008601665496826] [-1.8207311630249023:2.5472877025604248] [-1.9267433881759644:1.7488086223602295] [-2.1567583084106445:1.5763181447982788] [-2.3918964862823486:1.5743108987808228] [-2.6616356372833252:1.8138364553451538] [-2.9659750461578369:2.1645474433898926] [-3.3559722900390625:3.0688047409057617] [-3.8750591278076172:4.2020993232727051] [0:1] [0:1] [0:1] [0:1] [0:1] [0:1] [0:1] [0:1] [0:1]
tree_sizes=4798 5033 4268 4627 4527 4446 6649 6680 6637 5926 6034 6894 6953 6908 6788 5924 6573 6878 6955 6910 6436 6246 6976 6469 6285 6908 6705 6730 6903 6790 5700 6604 5467 6676 6041 6821 6835 5931 6960 6972 6698 6281 6709 6947 6928 4930 6413 6723 6515 6720 6817 6614 5830 6968 6406 6373 5265 6787 6050 6816 6988 5170 5818 6834 6530 6937 5510 5797 6368 6078 5888 6947 5302 6295 6260 6752 6458 6819 5914 5476 5613 6937 6192 6242 6404 6790 5511 5574 6801 5694 6846 6815 4750 4409 5999 6835 6800 6244 6830 6919 6235 5919 4650 5008 6943 6311 6972 6840 5867 5681 5072 4773 6811 5906 6937 4739 6923 6264 4853 6374 6730 6377 6825 6382 5872 6530 6572 5370 6827 6635 6384 6946 6019 6466 6921 6484 6006 6912 4648 6479 6707 5289 6172 4217 6775 6079 6894 6792 6436 6231 5046 6510 5934 6713 6940 6134 6771 6673 6535 4358 6007 6369 5292 6800 6385 6419 4597 6131 6375 6571 4699 6152 5879 6698 6659 6264 6912 6943 6356 6551 6062 5972 6502 5617 5931 4384 6861 6676 5868 6382 4492 6823 5815 6815 3869 5445 6275 5550 5153 4093

Tree=0
num_leaves=44
num_cat=0
split_feature=45 53 121 30 53 136 30 53 134 94 53 93 131 73 134 134 74 71 82 99 29 136 108 121 109 114 114 0 73 1 107 107 115 31 1 77 98 75 122 36 0 26 5
split_gain=19247.9 13093.5 13689.7 11229 6253.36 8802.55 6985.11 6226.56 6692.58 5878.94 4866 3585.46 3149.96 3118.26 2786.81 2235.64 4946.87 3289.97 1915.77 1569.78 1056.39 1002.05 748.568 611.16 1153.63 724.231 576.449 396.814 250.554 229.824 206.151 188.613 191.629 126.548 189.619 98.4077 56.8023 221.484 3.7894 47.6187 5.68434e-14 2.84217e-14 7.10543e-15
threshold=0.74020308256149303 1.0782791376113894 -1.8581874370574949 1.0521544814109804 1.0485020875930788 1.0000000180025095e-35 1.0624271035194399 1.1195847392082217 1.0000000180025095e-35 -0.9247208535671233 1.0474758148193362 -0.28017669916152949 1.0000000180025095e-35 -0.84128132462501515 1.0000000180025095e-35 1.0000000180025095e-35 -0.92452624440193165 -0.45300766825675959 -0.72725769877433766 -0.85075369477272023 1.144264876842499 1.0000000180025095e-35 -0.9053058624267577 -1.876070976257324 -1.0947873592376707 -1.3833504319190977 -0.92701420187950123 0.46897374093532568 -0.37064135074615473 0.30374409258365637 -0.89340931177139271 -0.89101591706275929 -1.0450658202171323 0.93536716699600231 0.78556242585182201 -1.1184301376342771 -0.93155899643897999 -1.001768112182617 -2.0659794807434078 0.89403054118156444 0.67021948099136364 0.98918747901916515 0.76757118105888378
decision_type=2 2 2 2 2 2 2 2 2 2 2 2 2 2 2 2 2 2 2 2 2 2 2 2 2 2 2 2 2 2 2 2 2 2 2 2 2 2 2 2 2 2 2
left_child=26 3 23 10 5 6 -5 9 11 20 12 -9 21 -7 19 17 -17 -6 -11 -12 -4 -2 -16 38 28 -26 30 -14 -25 -10 33 -32 -33 36 -35 -34 42 -38 41 -40 -28 -3 -1
right_child=1 2 7 4 15 13 -8 8 29 18 14 -13 27 -15 22 16 -18 -19 -20 -21 -22 -23 -24 24 25 -27 40 -29 -30 -31 31 32 35 34 -36 -37 37 -39 39 -41 -42 -43 -44
leaf_value=-2.5152236972958719 -2.1506150032418958 -2.5152236972958724 -1.6945417926335533 -1.9977563434217442 -1.8675274885135402 -2.3182688968274587 -1.8157711886259165 -1.5772418884232717 -2.4788004308161211 -1.829757427177146 -1.8451787249939129 -2.2005330925213187 -2.0058257424652006 -2.0089133835592654 -2.2669884652038248 -1.4579315709871947 -2.0848977061475171 -1.6586507441267824 -1.9873517068240538 -1.9676073257884703 -2.4548283676039913 -2.4442785464211054 -2.0107548860403393 -2.4781853160471448 -1.4295024002530377 -2.3015418234196323 -2.5152236972958724 -1.6443915434470213 -2.2188103537601145 -1.7216773107402314 -1.5569888574706741 -1.5774747002505576 -1.7493871294021539 -2.5152236972958724 -1.3384806256402058 -2.3811970109644158 -1.5873926246933241 -2.5152236972958724 -2.0449644946418246 -2.5152236972958724 -2.5152236972958724 -2.5152236972958724 -2.5152236972958724
leaf_weight=1.8965287134051347 1636.6587791517377 132.37770419567823 3732.9459817707539 2608.6181463003159 1650.8536254987121 467.42766278237104 11014.871517702937 3055.6315280050039 91.357719995081425 2673.1716255992651 1749.7416247352958 95.166232384741306 39.193874441087246 1075.6416415199637 303.84240189939737 630.496039532125 157.22990289330482 1388.1401543021202 1084.236371986568 2608.8092677667737 18.365363664925098 125.07489854097366 182.49318888038397 89.840497024357319 24.518605940043926 15.572432607412336 97.936742760241032 135.01259914040565 63.614198550581932 4.1932603269815436 6.9451588317751911 4.731254085898402 2.8966550827026429 2.6551401987671843 2.8277596533298492 16.551661819219586 3.5863711386919013 9.1033378243446332 2.3586613237857845 24.730734422802925 331.28563565760851 4.0965020209550849 21.772149629890919
leaf_count=25 16145 1745 21334 22105 12033 5324 75100 14202 1174 18566 12398 982 335 9224 3319 2246 1457 7480 9085 21391 232 1568 1568 1154 81 175 1291 710 667 25 31 22 18 35 7 198 17 120 21 326 4367 54 287
internal_value=-2.40621 -1.84775 -1.75702 -1.88687 -1.84743 -1.87626 -1.85062 -1.73679 -1.62107 -1.78682 -1.99734 -1.59607 -2.13135 -2.10262 -1.94379 -1.7332 -1.58307 -1.77212 -1.87523 -1.91846 -1.69826 -2.17146 -2.17084 -2.36614 -2.24587 -1.76823 -2.47105 -1.72571 -2.37066 -2.44557 -2.2112 -2.01631 -2.14824 -2.35617 -1.90833 -2.28709 -2.4237 -2.253 -2.50844 -2.47428 -2.51522 -2.51522 -2.51522
internal_weight=0 36886.3 11112.2 25774.1 18993.3 15166.6 13623.5 10755.1 3246.35 7508.72 6780.83 3150.8 1935.94 1543.07 4844.89 3826.72 787.726 3038.99 3757.41 4358.55 3751.31 1761.73 486.336 357.109 193.546 40.091 502.188 174.206 153.455 95.551 72.966 31.1247 24.1796 41.8413 5.4829 19.4483 36.3584 12.6897 163.564 27.0894 429.222 136.474 23.6687
internal_count=268644 262226 69823 192403 134969 111753 97205 65600 16383 49217 57434 15184 18758 14548 38676 23216 3703 19513 27651 33789 21566 17713 4887 4223 2077 256 6418 1045 1821 1199 760 269 238 491 42 216 449 137 2146 347 5658 1799 312
is_linear=0
shrinkage=1


Tree=1
num_leaves=46
num_cat=0
split_feature=45 106 82 136 31 3 135 119 31 20 33 115 30 132 71 70 47 114 103 32 31 73 74 107 123 6 83 74 51 120 92 97 97 42 98 98 109 121 107 51 15 108 112 107 0
split_gain=6708.01 3441.28 3495.43 3141.91 4820.29 3028.66 3841.45 2516.99 2259.35 2124.38 1794.71 1177.13 926.025 486.901 483.32 460.332 443.446 429.744 247.592 200.913 126.888 236.6 102.505 92.3835 104.497 103.874 88.7332 184.179 317.227 99.4773 72.9145 80.7557 70.9831 65.9918 55.224 0.0113687 0.00944063 0.00855574 0.00697299 0.00259857 0.00241273 0.00220038 0.00150301 0.000727855 1.13687e-13
threshold=0.74020308256149303 -0.94830328226089466 -0.26302894949913019 1.0000000180025095e-35 0.99890160560607921 0.661647528409958 1.0000000180025095e-35 -0.93138405680656422 1.0035210251808169 1.2371446490287783 0.89967787265777599 -0.92464363574981678 1.0664966702461245 1.0000000180025095e-35 -0.50465056300163258 -0.3008426427841186 1.0803366303443911 -0.92701420187950123 -0.89061391353607167 0.96460533142089855 1.0045951008796694 -0.78846573829650868 -0.92892611026763905 -0.89340931177139271 -1.0385425090789793 0.95061874389648449 -0.20734910666942594 -0.41332867741584772 1.1864464282989504 -1.72028511762619 -1.0193437337875364 -0.92625987529754628 -0.93643996119499195 1.0089676976203921 -0.93064752221107472 -0.93444091081619252 -1.0947873592376707 -1.876070976257324 -0.8900795280933379 1.0982663035392763 1.4639803171157839 -0.87998735904693592 -0.99263355135917652 -0.90860146284103382 0.47612267732620245
decision_type=2 2 2 2 2 2 2 2 2 2 2 2 2 2 2 2 2 2 2 2 2 2 2 2 2 2 2 2 2 2 2 2 2 2 2 2 2 2 2 2 2 2 2 2 2
left_child=17 8 3 5 12 6 -3 -7 10 -6 11 14 -5 15 -2 -12 20 23 33 -20 21 -10 -22 30 38 34 27 36 -29 37 35 32 -32 -18 -26 40 -4 -28 -25 -15 -1 -40 -27 -33 -19
right_child=1 2 26 4 9 7 -8 -9 16 -11 13 -13 -14 39 -16 -17 18 44 19 -21 22 -23 -24 24 25 42 29 28 -30 -31 31 43 -34 -35 -36 -37 -38 -39 41 -41 -42 -43 -44 -45 -46
leaf_value=-0.11245205361491879 0.11311555497404072 0.32549522036751088 -0.1092287717750432 0.060712901905057896 0.37944856859430443 0.17630958040874689 0.41821233781972494 0.35023220056900461 -0.037312178953658168 0.22367291949086671 0.20345204496350708 0.70944732283922218 0.23953225824846547 -0.11182588836439078 0.19427248344354364 0.40025894335214618 0.19382177441583903 -0.10808448752955607 0.38473722059261539 -0.033686359867230273 0.36522634423514816 0.45226492244984801 0.50339524404217895 -0.1195905509122315 0.24015164445391296 -0.11282608030836715 -0.10814891486333639 -0.035016313849622664 0.49673422989007165 0.35505674258959491 0.037029414420564594 -0.10808448752955602 0.4487639138730799 -0.11632314424719546 0.50456780686514768 -0.11754304965230047 -0.11283333048591626 -0.10990304820020676 -0.11135132053566035 -0.11432482913407641 -0.10808448752955607 -0.11596634429205832 -0.10924398531884816 -0.11059276407593242 -0.10808448752955607
leaf_weight=1.3672380000352919 1384.8019255623221 39161.737501613796 39.926258906722069 1226.0356993153691 2011.9949377626181 2258.2709809690714 5044.2221404612064 1317.5570574477315 14.054202154278753 1549.7925335466862 153.33655317127705 38.955503344535828 379.15536548197269 5.4761050119996098 1560.9739884734154 528.39276377111673 10.731721587479116 85.050602093338966 81.831192508339882 13.347404852509497 64.503229171037674 33.16604608297348 320.4121952354908 2.4664644747972488 15.565800487995146 1.8067618012428281 119.040751054883 29.609286226332188 18.063177436590195 4.7703047394752494 7.3501497656106975 6.9203093647956866 9.7301539778709429 19.019136197865009 16.035723276436332 1.4735005050897587 8.8825194835662824 36.279906809329987 2.9259154796600342 17.330410718917847 16.885554850101471 1.5970042794942845 3.330678053200244 1.3891207575797997 306.50050176680088
leaf_count=17 8839 168755 524 9480 7153 13139 17889 5472 107 9857 934 31 2963 58 10255 2065 59 1229 295 99 254 104 858 19 93 20 1713 350 63 38 76 100 23 158 45 13 97 458 34 159 244 15 43 18 4429
internal_value=0 0.312206 0.31912 0.320904 0.246827 0.328914 0.336075 0.240393 0.225573 0.311668 0.197229 0.163343 0.102951 0.340787 0.156121 0.355993 0.41329 -0.0630312 0.247352 0.326059 0.461262 0.306552 0.480241 0.135526 0.239103 0.306529 -0.0490904 0.0266627 0.166465 -0.0947441 0.0351337 0.14719 0.271583 -0.00444775 0.374326 -0.109094 -0.109885 -0.108559 -0.115313 -0.113725 -0.108412 -0.112981 -0.110504 -0.108504 -0.108084
internal_weight=0 57451.7 53205.3 52948.8 5166.98 47781.8 44206 3575.83 4246.33 3561.79 3689.27 2984.73 1605.19 704.536 2945.78 681.729 557.065 480.395 124.929 95.1786 432.136 47.2202 384.915 88.8444 43.7283 36.739 256.572 96.4812 47.6725 160.091 45.116 25.3897 17.0803 29.7509 31.6015 19.7263 48.8088 155.321 6.98938 22.8065 18.2528 4.52292 5.13744 8.30943 391.551
internal_count=268644 262226 237951 234708 29453 205255 186644 18611 24275 17010 22341 19125 12443 3216 19094 2999 1934 6418 611 394 1323 211 1112 760 269 201 3243 1034 413 2209 491 217 99 217 138 274 621 2171 68 217 261 49 63 118 5658
is_linear=0
shrinkage=0.1


Tree=2
num_leaves=39
num_cat=0
split_feature=113 39 108 53 31 135 105 134 32 80 108 73 38 109 32 89 95 52 1 56 46 128 50 114 101 55 74 35 42 75 0 49 124 45 53 3 67 45
split_gain=3793.63 2411.4 3360.41 2577.9 2368.52 3026.71 1856.12 1415.25 2590.38 1284.45 1118.29 1095.24 980.667 918.806 876.375 744.491 579.976 568.165 342.555 337.93 295.667 275.315 329.532 262.033 243.177 182.329 182.029 160.417 83.9412 72.6977 69.3266 30.3111 22.6496 0.298789 0.00979222 0.00175556 0.00174675 1.54657e-05
threshold=-0.8146376609802245 1.0379430651664736 -1.0268791913986204 1.0921369194984438 0.99901214241981517 1.0000000180025095e-35 -0.83129504323005665 1.0000000180025095e-35 0.95297271013259899 -0.31618729233741755 -1.0563527345657346 -0.49216333031654352 0.97856807708740245 -1.1037819385528562 0.91910013556480419 -1.2385868430137632 -0.83928415179252613 1.1436540484428408 0.28500360250473028 1.0260354876518252 1.2431244850158694 1.0000000180025095e-35 1.1657112836837771 -1.3594180345535276 -0.53974497318267811 1.0093548297882082 -0.79144787788391102 0.91299188137054454 1.148154139518738 -0.42392072081565851 1.0000000180025095e-35 1.2014068365097048 -1.1815004348754881 0.74020308256149303 1.0474758148193362 0.53246796131134044 0.10365851968526842 1.0866035223007204
decision_type=2 2 2 2 2 2 2 2 2 2 2 2 2 2 2 2 2 2 2 2 2 2 2 2 2 2 2 2 2 2 2 2 2 2 2 2 2 2
left_child=1 2 6 4 5 -4 11 9 -9 -5 17 14 -13 20 -1 -6 21 23 24 -15 -8 22 -12 31 -18 -23 -20 29 -29 -19 -25 -3 -2 -34 36 -36 -35 -37
right_child=32 10 3 7 15 -7 13 8 -10 -11 16 12 -14 19 -16 -17 18 27 26 -21 -22 25 -24 30 -26 -27 -28 28 -30 -31 -32 -33 33 34 35 37 -38 -39
leaf_value=0.10958212248837547 0.1130829181745894 -0.087256491269781661 0.17194597779935375 0.29171844560633081 0.27994405773685954 0.2467246133190264 -0.024696597404116557 -0.039620974887647861 0.3540269396138227 -0.037461430081676891 0.18344128076682847 0.3565006477087046 0.18659119138912417 0.27476421864190015 0.20510987448367535 0.23206933017990616 0.23794847579135295 0.41104006191673848 0.02201798898966794 -0.063819703648605355 0.28034414410482295 -0.032049696011381294 0.30669606216717038 0.50844399472150947 -0.078171237257452467 0.35019555312212458 0.3145101609861583 0.32297800720194125 0.080332189070848825 0.2280239691874873 0.1451762894510196 0.11325140361868076 -0.10725624308628728 -0.11989543493114754 -0.12461824126137251 -0.12161326324670468 -0.11668755558475014 -0.12191214797355654
leaf_weight=2383.6526780128479 4.6995022669434539 35.43098271638155 16869.313901074231 8310.5839868485928 3789.3079011067748 7969.9953225553036 842.32300854474306 373.32194481045008 302.7152898684144 120.25116221606731 332.73145964741707 538.52593909204006 920.03595644980669 177.40494691580534 1608.3383121266961 22748.222996100783 918.25009269267321 1014.3767436295748 130.67740312963724 35.351797468960285 33.020711839199066 12.686024636030195 623.18062423169613 14.131277993321421 24.996791765093803 763.917012155056 25.41525886207819 139.60371331870556 15.878654316067694 22.178650431334972 8.362224414944647 9.5774423405528051 330.01548707485199 2.6821915730834034 3.1624663323163968 3.0638266801834106 4.6233918815851212 3.9804980307817459
leaf_count=13608 22 264 76379 19849 12875 26734 5687 2596 726 1560 1252 1671 3677 499 7229 80308 2538 993 710 201 123 83 1404 23 173 1554 72 216 61 104 41 54 5232 20 20 21 38 27
internal_value=0 0.224012 0.219462 0.226824 0.218133 0.19594 0.15136 0.27586 0.136646 0.287023 0.298542 0.175165 0.249325 0.0321138 0.148069 0.238905 0.263675 0.376934 0.206863 0.218505 -0.0131895 0.299725 0.263794 0.0946941 0.229571 0.343951 0.069642 0.392916 0.298198 0.407124 0.373395 -0.04459 -0.104983 -0.107932 -0.12066 -0.122661 -0.117865 -0.121782
internal_weight=0 71113.8 67022.4 60483.7 51376.8 24839.3 6538.65 9106.87 676.037 8430.84 4091.39 5450.55 1458.56 1088.1 3991.99 26537.5 2831.85 1259.54 1099.34 212.757 875.344 1732.52 955.912 67.5019 943.247 776.603 156.093 1192.04 155.482 1036.56 22.4935 45.0084 352.227 347.528 17.5124 10.2068 7.30558 7.04432
internal_count=268644 263264 253722 221027 196296 103113 32695 24731 3322 21409 9542 26185 5348 6510 20837 93183 7786 1756 3493 700 5810 4293 2656 382 2711 1637 782 1374 277 1097 64 318 5380 5358 126 68 58 48
is_linear=0
shrinkage=0.1


Tree=3
num_leaves=42
num_cat=0
split_feature=113 53 30 102 71 29 121 54 29 134 54 31 29 135 102 71 71 134 100 29 7 29 118 102 6 74 103 64 72 42 121 111 57 45 53 9 67 45 0 72 74
split_gain=2494.4 1770.65 3955.61 1585.69 2594.88 2274.16 1504.57 1489.06 1316.54 1069.62 1005.03 992.732 1229.22 991.505 972.869 897.284 689.07 644.659 612.274 824.742 578.168 544.294 542.316 537.375 468.54 455.931 454.116 447.44 293.442 123.307 105.376 29.7051 20.6237 0.221683 0.00795921 0.00255051 0.0011686 1.1332e-05 5.68434e-14 1.42109e-14 4.44089e-16
threshold=-0.8146376609802245 1.0254642367362978 1.0704647898674013 -0.84138289093971241 -0.44221855700016016 1.1106536984443667 -1.8663979172706602 1.0100653171539309 1.0963948965072634 1.0000000180025095e-35 0.91975361108779918 1.0030741691589358 1.1369802355766299 1.0000000180025095e-35 -0.81957429647445668 -0.46204452216625208 -0.46371234953403467 1.0000000180025095e-35 -1.0153275132179258 1.2354294061660769 0.67928743362426769 1.131321966648102 -1.0129801630973814 -0.84333249926567067 0.6644219458103181 -1.0485906004905698 -0.84874239563941944 0.3228409886360169 -0.64837580919265736 0.99689495563507091 -1.876070976257324 -0.91433233022689808 0.94790971279144298 0.74020308256149303 1.0474758148193362 0.66207486391067516 0.10365851968526842 1.0811365842819216 0.58889910578727733 -0.80420312285423268 -1.0197946429252622
decision_type=2 2 2 2 2 2 2 2 2 2 2 2 2 2 2 2 2 2 2 2 2 2 2 2 2 2 2 2 2 2 2 2 2 2 2 2 2 2 2 2 2
left_child=1 2 11 9 5 14 30 -7 -8 20 18 12 16 23 -5 24 -1 -17 31 -20 25 28 -15 -12 -13 -3 -22 -14 -11 -23 -6 -4 33 38 36 -36 -35 -37 39 40 -2
right_child=32 3 10 4 6 7 8 -9 -10 21 13 15 27 22 -16 17 -18 -19 19 -21 26 29 -24 -25 -26 -27 -28 -29 -30 -31 -32 -33 -34 34 35 37 -38 -39 -40 -41 -42
leaf_value=-0.0075331684662592524 -0.1065182496178677 -0.061254536527091154 0.31744528065867034 0.13204524463847098 -0.10092618343842599 0.078830452147024763 0.1810643249147974 0.1932231258748407 0.22814504729693638 0.25183852948293395 0.18150801521591692 0.029830202208444942 0.10083904151333403 0.20429594329756473 0.035884954994163089 0.1268138709793131 0.098380840140015913 0.38473844253665446 0.15602013039610385 0.024653389795971117 0.26718005652115062 0.44339346388617468 0.28305961767501558 -0.016444381316140622 0.15892253105312415 0.19936132789546865 0.067342640737341905 0.20176052777032083 -0.059506482569484646 0.34631826010202393 0.023912002610003633 0.41379073898633972 0.098225283352959006 -0.11767029490199206 -0.12282063311397225 -0.11912831344009392 -0.11494989353518821 -0.11939841914788114 -0.10651824961786778 -0.10651824961786778 -0.10651824961786778
leaf_weight=1896.0421336367726 1.6660226732492449 67.643128231167793 62.867725104093552 1853.0121847838163 147.52748864144087 1429.3176363632083 24874.119978379458 5581.8367072716355 7802.6125822514296 320.59146481752396 6749.5829784572124 397.02766582369804 2850.6711974143982 1785.5464625656605 2434.2419359982014 153.95915361493826 908.64072316139936 261.49352453649044 6089.1948736831546 518.61483307182789 1981.0632216110826 199.93265786767006 1712.6905947327614 139.98146694898605 963.35393165051937 8797.0724658444524 120.63839771598577 519.34064288437366 33.428334340453148 378.69086541235447 124.82717328891158 65.17940916121006 4.9670741707086554 2.4704725444316891 3.0009763240814191 2.6909382045269012 4.3762379735708237 3.673795610666275 229.33663833141327 68.364378660917282 1.206430211663245
leaf_count=11028 29 374 44 6722 2176 6540 73994 15844 21204 662 22106 1845 13074 4432 11420 613 4825 457 21013 2785 4220 132 2961 692 3191 26814 534 1796 188 477 1059 42 22 20 20 20 39 27 3992 1190 21
internal_value=0 0.175022 0.152928 0.184889 0.176175 0.13482 0.190355 0.169903 0.192306 0.217296 0.179992 0.0946382 0.0756881 0.199501 0.0774468 0.160529 0.0267801 0.289156 0.149907 0.14571 0.208553 0.320106 0.242858 0.177486 0.121247 0.197373 0.255709 0.116392 0.22244 0.379861 -0.0437096 0.366488 -0.103962 -0.107133 -0.118523 -0.120417 -0.115931 -0.119284 -0.106518 -0.106518 -0.106518
internal_weight=0 81220.7 25074.2 56146.6 44247.5 11298.4 32949.1 7011.15 32676.7 11899.1 17123.7 7950.53 6174.69 10387.8 4287.25 1775.83 2804.68 415.453 6735.86 6607.81 10966.4 932.643 3498.24 6889.56 1360.38 8864.72 2101.7 3370.01 354.02 578.624 272.355 128.047 321.753 316.786 16.2124 9.36571 6.84671 6.36473 300.573 71.2368 2.87245
internal_count=268644 263264 90904 172360 138959 40526 98433 22384 95198 33401 54075 36829 30723 30191 18142 6106 15853 1070 23884 23798 31942 1459 7393 22798 5036 27188 4754 14870 850 609 3235 86 5380 5358 126 67 59 47 5232 1240 50
is_linear=0
shrinkage=0.1


Tree=4
num_leaves=41
num_cat=0
split_feature=113 53 30 31 132 131 54 30 121 3 69 91 52 101 134 101 75 108 71 103 118 48 83 72 72 14 120 32 124 45 83 53 13 7 53 67 45 23 103 23
split_gain=1770.36 1432.86 2250.13 1578.56 1292.13 1149.27 1124.97 1400.3 1058.89 868.753 785.604 1268.65 1142.29 902.48 736.409 672.317 566.779 506.294 385.846 251.775 248.051 223.001 341.621 349.919 151.789 128.51 111.575 87.5719 19.3716 0.172104 0.157944 0.0455963 0.0116246 0.0103612 0.00273673 0.000882296 7.51515e-06 5.68434e-14 3.55271e-15 4.44089e-16
threshold=-0.8146376609802245 1.0654639601707461 1.0589476823806765 1.0009326338768008 1.0000000180025095e-35 1.0000000180025095e-35 0.9975324571132661 1.0715177655220034 -1.8581874370574949 0.52456438541412365 0.021693456918001178 -1.0624599456787107 1.1436540484428408 -0.58064234256744374 1.0000000180025095e-35 -0.52540770173072804 -1.0522656440734861 -0.90833380818366993 -0.44977827370166773 -0.71046230196952809 -0.92916637659072865 1.208057761192322 -0.20734910666942594 -0.30699574947357172 -0.62708482146263111 0.92465814948081981 -1.72028511762619 0.89471015334129345 -1.1815004348754881 0.74020308256149303 -0.23955146968364713 1.0782791376113894 0.37217205762863165 0.6203637719154359 1.0474758148193362 0.10365851968526842 1.0811365842819216 1.4252854585647585 -0.95909741520881642 1.4634097814559939
decision_type=2 2 2 2 2 2 2 2 2 2 2 2 2 2 2 2 2 2 2 2 2 2 2 2 2 2 2 2 2 2 2 2 2 2 2 2 2 2 2 2
left_child=1 2 3 5 6 9 7 -4 21 -1 11 16 19 -13 -8 -14 -10 25 -19 -12 -7 30 23 -23 27 -5 -24 -6 -2 37 31 -3 -32 -31 35 -35 -36 -30 -39 -40
right_child=28 8 4 17 24 20 14 -9 10 -11 12 13 15 -15 -16 -17 -18 18 -20 -21 -22 22 26 -25 -26 -27 -28 -29 29 33 32 -33 -34 34 36 -37 -38 38 39 -41
leaf_value=0.09350563622849381 0.089777065804461736 -0.12355489195248544 0.095882623358171437 0.065579334982964296 -0.019928854642620217 0.11032226763217148 0.16211235054974549 0.1505510456434265 0.16339960647647478 0.031627405819858151 0.10463727871507567 0.14074120155656675 0.23105382309028477 -0.02378885579119086 0.22722839204951173 0.076528392604507611 0.20654911513358193 0.11320337904479412 0.16762467855277874 -0.067371348998493424 0.21554751350744286 -0.09482511109406877 -0.1073145565747174 0.20414651427110631 0.28414701887283794 -0.090875529015165601 0.42180811377601651 -0.12649905139534584 -0.10585963899361409 -0.12267581251845837 -0.10724242832575351 -0.1155034388080744 -0.1120077436501378 -0.11572701352718617 -0.11698118107674707 -0.11324692216413866 -0.11720410279233257 -0.10585963899361409 -0.10585963899361406 -0.10585963899361402
leaf_weight=5185.430178925395 5.1210941001772872 7.7423304915428153 6293.9981672093272 487.29109016060829 220.1350271999836 340.5634463429451 8450.8395877927542 18332.796811684966 9093.4891003742814 4034.0639089494944 189.66001476347446 18328.66901743412 3349.1210010051727 339.56231448054314 2186.037678822875 307.4059949144721 4575.9647381156683 1958.6576274633408 3890.6621476858854 154.35003617405891 654.69315180927515 53.087380953133106 113.43807565420866 149.09118289127946 13.543306253850458 58.838921338319778 4.130357787013053 118.67536950111389 261.28784336894751 2.5318742021918288 27.298595141619444 76.842854127287865 6.3006241433322421 2.2709786444902402 2.4772463962435722 3.8940346613526344 3.8823168873786926 9.7257432192563993 1.3072235509753221 1.2549346089363096
leaf_count=22006 22 52 23559 1832 1173 1168 23258 51723 22317 20525 587 51692 4304 1503 3629 1247 8301 6705 10005 898 1459 554 1860 598 35 324 16 725 4997 17 445 694 70 20 20 38 31 186 25 24
internal_value=0 0.142886 0.132239 0.101844 0.146414 0.077451 0.148318 0.136579 0.158006 0.0664303 0.159869 0.154697 0.201673 0.137749 0.175495 0.218063 0.177844 0.140804 0.149402 0.0274606 0.179541 0.00343795 0.0468217 0.125644 -0.0441348 0.0487232 -0.0887257 -0.0572573 -0.103012 -0.106432 -0.113936 -0.11624 -0.108136 -0.116841 -0.115662 -0.114161 -0.117117 -0.10586 -0.10586 -0.10586
internal_weight=0 89002.4 52226.2 16610.2 35616 10214.8 35263.7 24626.8 36776.2 9219.49 36338.2 32337.7 4000.54 18668.2 10636.9 3656.53 13669.5 6395.45 5849.32 344.01 995.257 437.931 319.747 202.179 352.354 546.13 117.568 338.81 293.753 288.632 118.184 84.5852 33.5992 15.0565 12.5246 6.16501 6.35956 273.576 12.2879 2.56216
internal_count=268644 263264 168126 64024 104102 45158 102169 75282 95138 42531 90849 83813 7036 53195 26887 5551 30618 18866 16710 1485 2627 4289 3028 1152 1933 2156 1876 1898 5380 5358 1261 746 515 126 109 58 51 5232 235 49
is_linear=0
shrinkage=0.1


Tree=5
num_leaves=40
num_cat=0
split_feature=113 53 98 73 135 132 99 136 72 30 82 53 134 31 69 108 40 132 29 136 106 106 75 91 28 83 74 52 119 115 57 45 44 121 122 53 67 45 21
split_gain=1319.24 1164.21 1216.81 1435.95 1261.6 1211.29 859.802 847.397 1234.53 833.021 825.786 650.693 615.518 1435.15 768.059 705.426 1996.71 1078.29 571.401 479.004 325.872 217.834 315.08 183.816 121.979 53.2891 119.58 123.992 54.5567 42.6786 17.8974 0.129931 0.0281166 0.0216442 0.00982187 0.00235169 0.000631205 7.71489e-05 5.68434e-14
threshold=-0.8146376609802245 1.0886538028717043 -0.84332790970802296 -0.73182544112205494 1.0000000180025095e-35 1.0000000180025095e-35 -0.80030062794685353 1.0000000180025095e-35 -0.65360280871391285 1.0382686257362368 -0.26302894949913019 1.0634052157402041 1.0000000180025095e-35 0.99334576725959789 -0.1203709803521633 -1.0268791913986204 1.0714029073715212 1.0000000180025095e-35 1.2354294061660769 1.0000000180025095e-35 -0.91235926747322071 -0.9149365723133086 -1.0327866673469541 -0.96731263399124134 1.2668808698654177 -0.20734910666942594 -0.41332867741584772 1.1508303880691531 -1.6215316057205198 -1.4057031869888303 0.94790971279144298 0.74020308256149303 1.2111420035362246 -1.8581874370574949 -1.0166487097740171 1.0474758148193362 0.10365851968526842 1.0905224084854128 1.7842481136322024
decision_type=2 2 2 2 2 2 2 2 2 2 2 2 2 2 2 2 2 2 2 2 2 2 2 2 2 2 2 2 2 2 2 2 2 2 2 2 2 2 2
left_child=1 2 5 4 6 7 -4 18 -9 11 12 -5 15 23 -15 16 -3 -17 -1 -11 -6 24 -23 -14 -7 26 33 -28 32 -30 31 38 -27 -12 -33 36 -36 -37 -2
right_child=30 10 3 9 20 21 -8 8 -10 19 25 -13 13 14 -16 17 -18 -19 -20 -21 -22 22 -24 -25 -26 28 27 -29 29 -31 -32 34 -34 -35 35 37 -38 -39 -40
leaf_value=0.12742879785770392 -0.10527104405598148 0.06667963997281369 0.04654719779121462 0.029279920389869485 0.093122084197112445 -0.1027346187093809 -0.071896780076596098 0.019893615906545134 0.11437665424318566 0.15130105438934391 -0.10890679415366938 0.10955885397841864 0.04924615669192485 -0.10558419491089442 0.24066417927304024 0.14696304918248457 0.18710396948800057 0.23073866359399375 0.035745089427263663 -0.031339711036177061 0.24852885090251636 -0.10647465595820718 0.14891426163648996 -0.077649722391971779 0.0016788901412569627 -0.10633412619161529 -0.11113204429453545 0.20031835407091958 0.36295227557656162 -0.11650063049000531 0.079352348164410877 -0.12169967869139198 -0.11237334803647213 -0.11335217999723615 -0.11402308933921079 -0.11518199786974692 -0.11183242494017434 -0.11590673116966835 -0.10527104405598148
leaf_weight=49810.779861114919 247.85610049590468 3425.0361488237977 3822.4105212986469 1529.8346228078008 224.93261031061411 237.49330538511276 729.90747655183077 1884.1376991420984 5198.3725494295359 3935.9519794732332 32.313042744994164 2969.3693802841008 158.71871635317802 75.173311315476894 433.53539718687534 14248.266855657101 2302.4119642674923 1722.0843452215195 689.16693799197674 149.03377055376768 337.21055388450623 70.925014324486256 151.48682241886854 406.55060124397278 211.5466151162982 111.96952951326966 18.752842281013727 40.149922348558903 4.56423319876194 3.1296479701995841 5.3267737329006186 1.9958232715725888 8.2790609300136548 16.568876072764397 2.0839941315352899 3.8863907307386398 3.5657456293702126 2.3612567186355591 0.99884438887238403
leaf_count=130506 5211 11939 14473 7605 668 1632 3650 10469 14760 11927 458 9302 617 378 560 27704 3044 1856 2931 658 568 478 711 2477 1160 2054 230 151 10 32 22 14 94 162 20 34 38 20 21
internal_value=0 0.120032 0.113771 0.0869541 0.0450091 0.120077 0.0275562 0.121635 0.0892416 0.111945 0.139613 0.0822621 0.141541 0.067643 0.189498 0.145199 0.11509 0.155997 0.126178 0.144638 0.186345 -0.0134586 0.0674732 -0.0420194 -0.0535445 -0.0465922 0.00520943 0.101162 -0.0902322 0.167925 -0.102117 -0.105796 -0.10675 -0.110414 -0.115208 -0.114119 -0.11264 -0.115456 -0.105271
internal_weight=0 94960.1 71952.6 13698.7 5114.46 58253.9 4552.32 57582.5 7082.51 8584.19 23007.5 4499.2 22771.8 1073.98 508.709 21697.8 5727.45 15970.4 50499.9 4084.99 562.143 671.452 222.412 565.269 449.04 235.727 107.785 58.9028 127.942 7.69388 268.075 262.748 120.249 48.8819 13.8932 11.8974 5.64974 6.24765 248.855
internal_count=268644 263264 211498 48851 19359 162647 18123 158666 25229 29492 51766 16907 48575 4032 938 44543 14983 29560 133437 12585 1236 3981 1189 3094 2792 3191 1001 381 2190 42 5380 5358 2148 620 126 112 58 54 5232
is_linear=0
shrinkage=0.1


Tree=6
num_leaves=61
num_cat=0
split_feature=53 29 131 135 53 71 29 74 27 92 40 109 73 40 30 108 108 75 91 76 75 92 74 73 120 106 107 91 121 52 26 74 111 134 75 72 70 108 111 83 30 105 104 28 31 111 98 72 62 32 74 120 23 31 17 126 37 47 47 124
split_gain=1043.92 1869.38 1371.43 1395.03 1203.36 1085.01 1629.54 734.823 660.727 634.823 799.125 904.066 1328.96 991.485 780.59 684.605 639.498 567.793 810.295 636.751 600.785 635.58 561.703 486.306 468.826 394.752 365.929 361.36 354.729 317.64 317.363 278.569 358.287 264.133 330.342 253.582 250.408 243.347 218.843 218.125 195.492 186.914 174.188 165.975 163.12 140.175 132.276 126.046 102.675 102.1 96.73 95.814 95.7939 88.7832 86.4107 73.5096 17.2384 9.43016 75.7502 2.86491
threshold=1.0584660768508913 1.0921237468719485 1.0000000180025095e-35 1.0000000180025095e-35 0.95536735653877269 -0.45874136686325068 1.1222953796386721 -0.99366840720176686 1.2436573505401614 -1.0346701741218565 1.0699058771133425 -1.0970228910446165 -0.68839609622955311 1.0473472476005556 1.0473837256431582 -1.0837020277976988 -1.0638347864150999 -1.0739305615425108 -1.1405190825462339 -1.2035731077194212 -1.1056580543518064 -1.1182089447975156 -0.60366216301918019 -0.93267685174942005 -1.7144492864608762 -0.9026927351951598 -0.91955024003982533 -1.0776426196098325 -1.1414622068405149 1.1436540484428408 1.1781269907951357 -1.0568995475769041 -0.87813588976860035 1.0000000180025095e-35 -1.0577287077903745 -0.32018403708934778 -0.20614163577556607 -0.89429587125778187 -1.2258163690567014 -1.4208262562751768 1.0865125060081484 -0.88673660159111012 -0.84535494446754444 1.1243417263031008 0.99617543816566478 -0.94847449660301197 -0.79062703251838673 -0.72916847467422474 0.61912900209426891 0.96460533142089855 -0.90694910287857045 -1.0801817178726194 1.2274550199508669 1.0059614181518557 0.88556009531021129 -2.6020351648330684 0.98927620053291332 1.150407135486603 1.1511459946632387 -0.83564263582229603
decision_type=2 2 2 2 2 2 2 2 2 2 2 2 2 2 2 2 2 2 2 2 2 2 2 2 2 2 2 2 2 2 2 2 2 2 2 2 2 2 2 2 2 2 2 2 2 2 2 2 2 2 2 2 2 2 2 2 2 2 2 2
left_child=1 30 3 5 23 6 -3 31 -7 17 11 13 14 22 -13 -15 29 18 20 39 21 -2 -11 -5 35 -14 -6 -21 33 54 56 37 -33 34 -19 -18 38 -4 42 -20 41 -9 -32 -40 -22 -35 -26 -42 53 51 -51 -30 -50 -38 -12 -31 57 59 -59 -1
right_child=9 2 7 4 26 8 -8 40 -10 10 16 12 25 15 -16 -17 24 28 19 27 44 -23 -24 -25 46 -27 -28 -29 49 55 36 32 -34 45 -36 -37 48 -39 43 -41 47 -43 -44 -45 -46 -47 -48 -49 52 50 -52 -53 -54 -55 -56 -57 -58 58 -60 -61
leaf_value=-0.12803210432422357 0.12741300737912378 0.008693343569286454 0.23233496234129758 0.15124739460753062 0.12084213083217861 0.099499068475824903 0.078875315284123282 0.15981193401231383 0.19464562912007902 0.022627859218555278 -0.059192754345845158 0.071806641609341082 0.11514058317166181 0.16186769638450219 0.11837626924886142 -0.012487070734953663 -0.13311785876837276 0.081279446542426304 0.16811835003950498 0.079490700614881615 0.14965463246329422 0.0052138531920998543 0.13978194123456586 0.077819679476563736 0.17281452288589672 0.16966698099651523 0.17116688806063429 0.23485411323148897 0.094449382295439033 0.1993872451988703 0.050987838697379953 0.14519586557681258 0.20457502682814843 0.03776370899778933 0.13985439287267706 0.078408642773933029 -0.12973581204600329 0.076662791570447877 -0.069903900786190895 -0.063891975185002822 0.093442787623032569 0.082710631251004738 0.37473084582547411 0.011315143348988768 0.20585379491451203 0.25870343899930009 0.11486138287590802 -0.11523065602079448 -0.0082773729969971583 0.21096426554028472 -0.025333103864957296 0.16679062202546324 0.25013176484343819 0.36757464027070508 0.17539353405215924 0.053369389810656434 0.07390354231380851 0.28932731800412043 -0.12944119970807141 -0.10482969966630709
leaf_weight=76.414094679057598 2367.5098168328404 4035.8121799528599 118.19839952886105 1060.9290718212724 2501.7121860682964 7138.0175436139107 18354.851399417967 376.20405278354883 812.97978780418634 577.74667160212994 64.007012408226728 9141.392001695931 2234.2974885106087 255.01012423634529 5936.8396007865667 1926.6247482001781 111.01775635778904 1314.4140141755342 45.084541901946068 2627.1146460175514 1101.7158265262842 518.9238858371973 1403.282243501395 6019.7467022463679 468.29421597719193 3272.3060008957982 3420.3301470130682 158.75387832522392 196.10968521237373 1729.4762911424041 44.245235130190849 3129.2310611009598 1504.8289256542921 33.090540573000908 3599.2959036529064 115.78082445636392 18.750243231654171 667.46679074317217 327.42620563134551 400.42219702899456 47.204244375228882 1914.7298592478037 26.617643788456917 1086.6238836497068 972.26007853448391 217.21342512965202 2477.4017275869846 74.838548064231873 17.736759856343269 667.48077785968781 17.785412102937698 2757.0800815969706 75.034919425845146 4.4398840963840476 20.806542605161667 35.178485706448555 5.4472923129796973 5.3137910813093212 23.085410721600056 175.29596962034702
leaf_count=457 5381 16888 160 2189 5516 20876 58820 744 1860 2333 361 25670 5642 629 13501 9040 571 3368 71 6952 1967 1766 3936 17318 681 5766 5300 169 469 1476 220 6532 2384 82 6750 411 108 1826 2041 1623 131 5206 46 5351 1412 112 4798 330 75 856 61 3957 136 4 41 77 21 11 134 4031
internal_value=0 0.0925935 0.0961971 0.0892382 0.116643 0.0774941 0.0662253 0.134706 0.109228 0.113087 0.104283 0.0969028 0.105498 0.0543995 0.0901428 0.00789316 0.140654 0.128507 0.10956 0.0705925 0.134944 0.105444 0.105615 0.0888217 0.113408 0.147543 0.149908 0.0883441 0.14614 0.187391 -0.00516813 0.155143 0.164478 0.12929 0.124186 -0.0251334 0.012155 0.100083 0.00110266 -0.0404129 0.0888022 0.0953718 0.172593 -0.00749129 0.176 0.229495 0.124075 -0.034519 0.153682 0.170056 0.204831 0.161987 0.200727 -0.0345228 -0.00164382 0.196476 -0.102284 -0.10571 -0.0510852 -0.111873
internal_weight=0 53063.5 51177.1 43344.4 13002.7 30341.7 22390.7 7832.7 7951 46763.7 29769.5 24747.5 20584.8 4162.66 15078.2 2181.63 5021.96 16994.3 8191.78 3231.38 4960.41 2886.43 1981.03 7080.68 3172.49 5506.6 5922.04 2785.87 8802.47 1849.47 1886.43 5419.73 4634.06 5164.01 4913.71 226.799 1600.87 785.665 1484.91 445.507 2412.98 2290.93 70.8629 1414.05 2073.98 250.304 2945.7 122.043 115.962 3638.46 685.266 2953.19 92.7717 23.1901 84.8136 1764.65 285.557 280.109 28.3992 251.71
internal_count=268644 158715 146080 128767 30323 98444 75708 17313 22736 109929 74933 66517 50579 15938 39171 9669 8416 34996 19341 8815 10526 7147 6269 19507 6461 11408 10816 7121 15655 1955 12635 10902 8916 10312 10118 982 7981 1986 7658 1694 6411 5950 266 7392 3379 194 5479 461 323 5343 917 4426 211 112 402 1553 4654 4633 145 4488
is_linear=0
shrinkage=0.1


Tree=7
num_leaves=61
num_cat=0
split_feature=53 31 135 4 75 131 53 106 82 92 5 111 109 38 39 132 106 134 118 107 106 134 127 131 54 35 109 101 52 31 30 72 53 105 34 73 31 31 55 105 131 68 70 123 81 74 51 69 119 107 51 74 34 32 121 56 43 121 110 32
split_gain=918.739 976.633 1170.8 1026.93 808.931 783.918 882.841 691.611 588.971 567.676 447.813 419.666 798.277 1392.04 814.796 624.281 542.538 423.684 402.205 367.988 508.003 686.156 594.869 463.545 1350.65 469.036 353.996 338.174 311.129 299.97 252.792 247.052 240.062 217.156 194.109 174.196 152.568 146.657 146.202 126.109 117.348 110.991 110.602 61.5166 45.2341 91.3011 83.1753 43.6854 35.909 30.7147 25.7971 23.7286 21.0301 16.3231 0.0255563 0.0225781 0.0148973 0.00833686 0.0022313 0.00114898
threshold=1.0886538028717043 0.99988356232643139 1.0000000180025095e-35 0.67192798852920543 -1.1746490001678465 1.0000000180025095e-35 1.0212503075599673 -0.91856083273887623 -0.26302894949913019 -1.0757734179496763 0.62170115113258373 -1.2693174481391905 -1.0970228910446165 0.99883329868316661 1.0172482132911684 1.0000000180025095e-35 -0.91151887178421009 1.0000000180025095e-35 -0.92774650454521168 -0.86053010821342457 -0.90472933650016774 1.0000000180025095e-35 -2.0094784498214717 1.0000000180025095e-35 1.0128359198570254 0.90997648239135753 -1.1138369441032407 -0.91941046714782704 1.1377256512641909 1.0062712430953982 1.1011717915534975 -0.64750578999519337 1.0738146305084231 -0.92571851611137379 0.89991223812103283 -0.82116216421127308 1.005108177661896 0.97618421912193309 1.0120331048965456 -0.82312569022178639 1.0000000180025095e-35 -0.01989609561860561 -0.085091926157474504 -2.1245393753051753 -0.2578288465738296 -0.41332867741584772 1.1864464282989504 -0.0097163706086575968 -1.6215316057205198 -0.90009397268295277 1.1570069193840029 -0.39829991757869715 0.82442718744277965 0.8490281105041505 -1.876070976257324 1.0390056371688845 1.1754203438758852 -1.8581874370574949 -1.1656123399734495 0.83189964294433605
decision_type=2 2 2 2 2 2 2 2 2 2 2 2 2 2 2 2 2 2 2 2 2 2 2 2 2 2 2 2 2 2 2 2 2 2 2 2 2 2 2 2 2 2 2 2 2 2 2 2 2 2 2 2 2 2 2 2 2 2 2 2
left_child=1 2 4 7 32 6 -6 33 11 18 -7 28 13 14 -13 17 -17 -14 -5 20 34 30 -23 24 29 36 -15 -9 43 -21 -22 -26 40 -4 35 -3 -25 -11 -27 47 -1 -36 -41 53 45 55 51 -30 54 -50 -45 -47 -48 -2 59 57 -56 -10 -57 -46
right_child=8 19 3 9 5 10 -8 27 44 37 -12 12 15 26 -16 16 -18 -19 -20 23 21 22 -24 25 31 38 -28 -29 39 -31 -32 -33 -34 -35 41 -37 -38 -39 -40 42 -42 -43 -44 50 48 46 52 -49 49 -51 -52 -53 -54 -55 56 58 -58 -59 -60 -61
leaf_value=-0.10874591080564296 0.040760398340486365 0.097077152457827359 -0.03806624982196477 0.059289077387888883 0.030277662338000277 0.056813063243060305 0.070660454296708197 0.21288399757939766 -0.10763679898136157 0.024701946274434977 0.14107635571745192 0.077507092063839114 0.11098144763708345 0.15051069640970161 -0.031250933461681951 -0.041818780192090031 0.17859504063734266 0.047438830502697593 0.1178418037811767 0.0032894819352640168 0.070597916622399004 -0.048956589760602597 0.11589969099511049 0.13657004420051408 0.063889214854540535 0.077965715105267994 -0.031090966552198077 0.13475157266599344 0.10397213260180582 0.083334742717880703 -0.097794550828129531 0.13072021962547065 0.2362705534972992 0.079498647202056294 -0.0062093695737789022 0.13683943611444604 0.19109569017496777 -0.065760944684688113 -0.12376753651122495 -0.13207489348232807 -0.007247021183187586 0.089939710914259008 0.22490622080893596 -0.011979243401237717 -0.10573424091450515 0.06473792325130788 0.30911007645807426 0.19293315990867199 0.23595511945579056 -0.11999106357766431 0.22745719566914646 -0.11386518492477481 0.13313415285834182 -0.13239931982642841 -0.10739049756548219 -0.1119290672026626 -0.11184380469107975 -0.1115014178653263 -0.11447775954490912 -0.10716981157846635
leaf_weight=337.44318836182356 6.316336177289485 1707.9175358116627 182.51711842417717 2662.3523381203413 7518.7794269509614 927.68237996101379 19335.570040397346 636.56900531053543 26.213795661926266 986.65169197320938 1970.0684885978699 1355.0154172107577 15833.475836232305 1552.7890219464898 1401.1661828383803 118.65594136714935 1897.8869295269251 1123.8074058741331 2097.3245642334223 1394.094163313508 14034.007258653641 227.39815559983253 5844.6279671937227 878.15798220783472 618.43833707273006 491.07061052322388 115.31034835427999 4268.6912539228797 58.678044609725475 704.89411553740501 89.719330325722694 5238.3698146790266 26.134745940566063 1128.8524167090654 171.51111626625061 3104.528517588973 1234.6962418109179 218.9849244505167 38.760772615671158 23.431419998407364 171.951993457973 400.21937534213066 13.785009853541849 8.8515685349702853 80.623484116047621 12.254714503884317 9.5554426833987218 931.19326619803905 5.9275848120450974 4.1017943248152715 9.1525621265172941 18.927925415337086 23.473481107503176 39.411961197853088 18.8380700647831 6.51641596108675 12.493710052222012 7.0922155305743244 7.2640063017606717 5.9893896356225005
leaf_count=4145 26 3813 743 7537 31384 3602 58731 612 415 3702 3759 4249 28719 1758 5865 456 1786 3984 4444 5240 36049 1003 13171 1741 1834 1254 393 7331 117 1886 376 10272 33 2856 571 5820 1591 858 163 141 1431 900 9 35 1585 96 6 814 11 36 17 211 62 227 307 71 149 78 70 99
internal_value=0 0.0833085 0.0730234 0.0992038 0.0624935 0.064686 0.0593539 0.127645 0.105407 0.0695642 0.1141 0.106933 0.104106 0.0658552 0.0222175 0.113025 0.165626 0.10677 0.08509 0.0953821 0.0888903 0.081614 0.109726 0.11105 0.0989971 0.147337 0.137957 0.144891 0.167562 0.0301707 0.0695282 0.123663 -0.0593185 0.0631359 0.116183 0.122728 0.168433 0.00827079 0.0632076 0.180865 -0.0744838 0.0610963 0.000151336 -0.0468345 -0.050724 -0.00410058 0.073459 0.18766 -0.0912721 0.090381 0.10974 -0.0436745 0.184045 -0.108481 -0.106719 -0.109868 -0.109166 -0.10846 -0.113273 -0.105834
internal_weight=0 78648 42469.6 12181.9 30287.6 29752.1 26854.3 6216.63 24728.2 5965.31 2897.75 24488.9 23398.1 4424.28 2756.18 18973.8 2016.54 16957.3 4759.68 36178.4 25579.9 20195.8 6072.03 10598.5 7955.8 2642.69 1668.1 4905.26 1090.82 2098.99 14123.7 5856.81 535.53 1311.37 5384.18 4812.45 2112.85 1205.64 529.831 1027.09 509.395 571.73 37.2164 63.7324 239.272 111.298 64.2116 989.871 127.974 10.0294 18.0041 31.1826 33.0289 45.7283 117.945 47.0864 31.3318 33.306 13.7804 86.6129
internal_count=268644 216852 131168 28083 103085 97476 90115 11542 51792 16541 7361 48596 47210 12265 10114 34945 2242 32703 11981 85684 61703 50599 14174 23981 19232 4749 2151 7943 1386 7126 36425 12106 5609 3599 11104 9633 3332 4560 1417 1081 5576 1471 150 305 3196 1009 375 931 2187 47 52 307 68 253 2140 634 456 493 141 1684
is_linear=0
shrinkage=0.1


Tree=8
num_leaves=61
num_cat=0
split_feature=53 29 131 75 132 30 92 91 75 121 71 99 74 51 74 73 71 75 52 91 62 30 104 5 105 26 82 57 75 63 45 30 101 120 75 1 39 75 120 75 29 29 31 58 28 19 75 96 32 27 34 93 94 68 105 76 74 53 7 51
split_gain=800.888 1395.93 742.517 932.829 631.725 550.862 525.364 511.916 783.522 476.976 510.073 876.478 459.927 454.957 400.164 393.124 390.328 386.509 360.879 327.371 269.048 230.057 211.383 199.76 195.754 195.674 182.429 228.719 176.952 144.576 126.687 119.819 124.365 112.975 110.394 107.958 150.443 107.757 225.393 142.183 107.65 100.355 98.2801 94.6711 95.1976 91.6479 87.5895 79.2943 69.1768 61.2901 55.086 52.5402 48.8498 47.0705 39.5116 19.4724 10.6467 0.435614 0.106052 0.0527949
threshold=1.0669900774955752 1.0850322842597964 1.0000000180025095e-35 -1.1368440985679624 1.0000000180025095e-35 1.0589476823806765 -1.1560012102127073 -1.1525962948799131 -1.0957120656967161 -1.8511706590652464 -0.23703029751777646 -0.50302729010581959 -0.97865587472915638 1.1634891629219057 -0.9927663505077361 -0.3798683881759643 -0.39853864908218378 -1.1697174310684202 1.1489875316619875 -1.1969077587127683 0.5531887710094453 1.1062034368515017 -0.96908655762672413 0.72271504998207103 -0.91606491804122914 1.1825557947158816 -1.4380640983581541 0.92045527696609508 -0.64345133304595936 0.55274325609207164 1.0925121903419497 1.0865125060081484 -0.83237421512603749 -0.99268653988838185 -1.1529690027236936 0.095454081892967238 0.99954733252525341 -1.1109058260917661 -1.0029529333114622 -1.1283417344093321 1.1254546642303469 1.122744679450989 0.99405393004417431 0.88281998038291942 1.1343333721160891 1.1298428773880007 -1.1032540798187254 -0.97069567441940297 0.87632456421852123 1.1451444029808047 0.93378698825836193 -1.0144063830375669 -1.0065904259681699 -0.17885802686214444 -0.82192888855934132 -1.2370167970657346 -0.43363980948925013 1.1063845753669741 0.59635508060455333 1.0071941614151003
decision_type=2 2 2 2 2 2 2 2 2 2 2 2 2 2 2 2 2 2 2 2 2 2 2 2 2 2 2 2 2 2 2 2 2 2 2 2 2 2 2 2 2 2 2 2 2 2 2 2 2 2 2 2 2 2 2 2 2 2 2 2
left_child=1 16 3 6 5 -5 17 14 26 15 11 -11 21 -12 19 56 22 -3 -17 40 -6 24 51 -23 -4 35 55 30 29 -27 -28 32 -14 58 -8 36 -18 38 39 -16 45 -35 50 44 -24 -2 -29 -40 -30 -37 -39 52 -1 -33 -44 -9 -10 -42 -21 -53
right_child=7 2 12 4 20 -7 34 8 9 10 13 -13 31 -15 37 18 25 -19 -20 33 -22 23 43 -25 -26 28 27 46 48 -31 -32 53 -34 41 -36 49 -38 42 47 -41 57 -43 54 -45 -46 -47 -48 -49 -50 -51 -52 59 -54 -55 -56 -57 -58 -59 -60 -61
leaf_value=0.048948598756816848 -0.10115638491672962 -0.028749158386451312 0.17521830793255397 0.057184107787956143 -0.013684204283494228 0.080371817386499345 -0.1216342857374666 0.24221549213523519 -0.13031038815446638 0.086639839562788493 -0.036841809069134722 -0.059892832062570713 0.074322077264287953 0.13519346603040031 -0.15253449466785662 -0.081917025931167078 0.16527935782181655 0.074224490887330394 0.099047925708075538 -0.15986852723490105 0.16692012613118851 -0.14884398510292424 -0.10263088731277253 0.1571971235520043 0.10913123290680632 0.014067530478341299 -0.14901878953429509 -0.10160415164235455 -0.13101898526997285 0.11213470120005364 0.083379926055793696 0.083011336828858556 0.010391622472820796 0.034777932030516732 -0.034770148622619269 -0.089114629739813711 -0.13589522256191008 0.1446945621768021 0.19250999331206314 0.066565122304032762 -0.13906388934042341 -0.15243955478597337 0.081643343109776167 0.14678252332986735 -0.027104532809367345 0.12484306071668305 -0.01946413366013014 0.12079845935244525 0.24603417803646166 0.006750967407144726 0.027360843237367573 -0.11934304043619433 0.24732581949783761 -0.12163397544519527 0.19627487998198917 0.1095242773716224 -0.082822172696341068 -0.17465932569821918 -0.14753450821123745 -0.13684991570039381
leaf_weight=22.16951259970665 18.444565191864967 529.11723478883505 481.09227458387613 14648.21434308961 1105.3483425453305 34086.145117431879 186.17567577958107 24.759279176592827 122.56136187911034 33014.635930508375 161.87208773940802 413.30919340252876 1782.1544236168265 3053.0454639568925 33.569479465484619 149.7580974958837 54.105373203754425 1171.6729631498456 417.16172358393669 8.6185497194528562 89.136368155479431 61.933288082480431 551.50354877486825 32.53040786087513 6556.7116994559765 552.2816586047411 26.4403106123209 268.21760234236717 5.3096583634614936 206.55466228723526 207.86575803160667 14.530597016215323 366.93870170414448 322.73786750435829 683.1968330219388 210.41842402890325 23.917669251561165 1242.1275658011436 243.25773701071739 251.66635602712631 9.7461583316326124 31.419053688645363 31.770516201853752 18.884504482150078 239.30505178868771 660.54257451742887 251.59522651135921 421.13741083443165 58.208433076739311 97.635594874620438 41.344306632876396 4.6229673214256755 28.206217885017395 49.622754231095314 561.39030556380749 19.987519472837448 76.791168268769979 5.3118784576654425 36.473103240132332 2.7456003874540329
leaf_count=96 71 2469 616 45033 6002 84033 911 15 841 71635 780 1668 4276 3777 150 1504 113 3199 2214 37 253 284 6131 57 12666 2365 123 1101 30 485 501 40 1142 798 2599 1378 127 1447 277 613 51 149 66 37 1480 1013 798 755 107 350 107 40 42 224 583 33 747 22 168 15
internal_value=0 0.0705325 0.0732399 0.0686169 0.0716412 0.0734022 0.00986512 0.0882921 0.0847615 0.0868541 0.088487 0.0848281 0.0992102 0.126531 0.122709 0.00877004 -0.0101283 0.0421893 0.051244 0.0713358 -0.000206917 0.111568 -0.0613091 -0.0434528 0.113649 0.0266103 -0.0132327 -0.0248732 0.054182 0.0407613 0.0571549 0.0593865 0.0634065 -0.000812093 -0.0533721 -0.032118 0.0729554 0.142582 0.115133 0.0407792 0.112839 0.0181689 0.156472 -0.074492 -0.079776 0.118704 -0.0618475 0.147054 0.214515 -0.0587307 0.140915 0.123542 0.160023 -0.0752822 0.190135 0.182945 -0.112018 -0.151621 -0.149892 -0.125866
internal_weight=0 63920.4 61844.5 52499 49928.8 48734.4 2570.16 42127.6 38208 37409.1 36642.9 33427.9 9345.51 3214.92 3919.56 766.272 2075.87 1700.79 566.92 1093.29 1194.48 7132.27 867.437 94.4637 7037.8 1208.43 798.866 754.119 822.354 758.836 234.306 2213.25 2149.09 399.249 869.373 386.077 78.023 2826.26 949.631 285.236 694.045 354.157 1876.63 809.693 790.809 678.987 519.813 664.395 63.5181 308.054 1283.47 57.7443 50.3757 64.1534 593.161 44.7468 199.353 15.058 45.0917 7.36857
internal_count=268644 176600 163804 144499 135321 129066 9178 92044 85737 83166 77860 73303 19305 4557 6307 5306 12796 5668 3718 2309 6255 13623 7841 341 13282 4955 2571 2523 2987 2850 624 5682 5418 1152 3510 1968 240 3998 1795 763 1157 947 2203 7648 7611 1084 1899 1032 137 1728 1554 193 138 264 649 48 1588 73 205 55
is_linear=0
shrinkage=0.1


Tree=9
num_leaves=54
num_cat=0
split_feature=53 29 134 31 136 106 3 72 70 102 134 99 130 107 108 30 72 130 136 123 53 109 56 30 75 115 111 74 5 88 38 108 107 31 118 52 28 95 105 34 56 121 120 34 35 33 101 52 15 109 52 38 62
split_gain=733.322 1017.82 678.704 601.927 1226.84 712.045 971.343 541.745 526.771 671.561 774.54 505.79 464.638 427.798 1171.79 420.075 640.28 409.932 302.492 297.303 546.119 231.854 231.821 183.9 179.713 163.873 176.914 139.177 137.737 133.066 128.465 87.1537 85.0078 105.182 152.42 93.721 68.8093 68.2853 64.8623 54.6569 40.4328 37.191 22.1225 20.4337 71.3907 19.166 17.9482 15.7287 25.9939 11.875 3.23275 2.69477 0.0173528
threshold=1.1123987436294558 0.94956153631210338 1.0000000180025095e-35 0.9982181489467622 1.0000000180025095e-35 -0.93700036406517018 0.70950987935066234 -0.60554385185241688 -0.25883249938488001 -0.81138977408409108 1.0000000180025095e-35 -0.44362661242485041 1.0000000180025095e-35 -0.95653045177459706 -1.0638347864150999 1.0664966702461245 -0.69122898578643788 1.0000000180025095e-35 1.0000000180025095e-35 -1.2875252366065977 1.0743643641471865 -1.0901032686233518 1.0085337758064272 1.0473837256431582 -1.0859744548797605 -1.4434933662414549 -1.2394418120384214 -0.9118034541606902 0.46026113629341131 -0.1726962476968765 0.98244997859001171 -1.0516631007194517 -0.9946591556072234 0.86896151304245006 -1.5789794921874998 1.1391398310661318 1.1598957777023318 -0.88359346985816944 -0.97421765327453602 0.93172168731689464 0.99369567632675182 -1.2678751349449155 -1.72028511762619 0.91845291852951061 0.92496421933174144 0.8561396896839143 -0.52540770173072804 1.1377256512641909 0.66112738847732555 -1.1243878602981565 0.88370200991630565 0.9742657244205476 0.63322758674621593
decision_type=2 2 2 2 2 2 2 2 2 2 2 2 2 2 2 2 2 2 2 2 2 2 2 2 2 2 2 2 2 2 2 2 2 2 2 2 2 2 2 2 2 2 2 2 2 2 2 2 2 2 2 2 2
left_child=1 31 11 4 5 7 -7 -3 9 17 -11 12 13 14 -2 24 -17 -5 -15 20 -10 25 36 -21 -6 26 -13 -24 39 30 -23 32 35 49 -35 45 -14 52 -33 43 -37 -39 -31 51 -45 -1 -27 50 -49 -34 -40 -4 -30
right_child=2 3 28 8 15 6 -8 -9 19 10 -12 21 22 18 -16 16 -18 -19 -20 23 -22 29 27 -25 -26 46 -28 -29 37 42 -32 38 33 34 -36 40 -38 41 47 -41 -42 -43 -44 44 -46 -47 -48 48 -50 -51 -52 -53 -54
leaf_value=-0.059591150947102149 0.1316775418828123 0.0043847970730575446 -0.093778267011019753 0.076436153834831669 -0.084261588098226009 0.070904083345923602 -0.009669112865233729 0.057575674761154931 0.053887888012877166 -0.034550324305575655 0.078080634799877618 -0.06579643638885338 0.10549093964839856 0.12661466384405182 0.029795911066121297 -0.037538625865643285 0.15546062601484323 0.042492889334344364 0.012361207393780601 0.095267760414062763 0.10744385689244931 0.14738085818167734 -0.13990648000507608 0.1459943755350846 -0.015046842335599046 0.098567821334839364 0.13850986747920835 0.019225392058421296 -0.13432723522261167 -0.10775353266838568 -0.029822410850903359 0.13205158623934196 -0.12182326242554427 0.2230938294889532 -0.036692460667299164 0.19646969879776258 -0.044998580686306328 0.05874645262865346 -0.10457556067244787 0.18818989310118406 -0.044583766772153838 0.29839287119717367 0.049267172254544717 0.19542118039167031 -0.1349059369298303 -0.13260354083613762 -0.12518543761297451 -0.072255807787530241 0.25738794032523749 0.013500453863601384 -0.12816534845139682 -0.12274638589978581 -0.14370493427081885
leaf_weight=59.450552649796009 2306.9408919513226 3382.3455034904182 40.738572783768177 28853.869810916483 536.87208810821176 36926.235134474933 1559.3903938122094 4413.0949122384191 3418.8877611607313 1308.2652925252914 1144.8587901294231 102.94134864211082 449.71356254816055 6010.7106704860926 2210.7418138384819 354.34027341008186 333.84280785918236 4058.4352795630693 241.01805637776852 1384.5142764598131 4297.1555957496166 175.57406451553106 59.559606730937958 1477.1939501166344 1245.1796931736171 3.6656258106231681 72.047626536339521 711.77195933461189 3.7593503743410102 39.629413805902004 53.340232219547033 11.265584647655485 34.510821849107742 45.580808818340302 44.764389261603355 16.383642818778757 32.584754973649979 11.339318051934242 88.854333363473415 6.5607737600803366 12.09546237811446 15.098601028323174 11.598749369382857 9.6871413141489047 20.155678361654282 90.965234991163015 162.86655463650823 22.096919577568773 2.6825068518519393 7.9850232601165763 167.802161924541 151.6711562499404 4.1531354933977127
leaf_count=362 2669 12689 294 64890 4228 87901 7476 14661 8629 4391 2964 1112 639 7059 5862 1936 912 10684 647 2844 7368 241 223 2038 5212 6 204 1599 20 697 167 27 287 81 199 31 93 39 2391 12 60 15 45 19 114 528 1532 182 2 43 1227 1073 20
internal_value=0 0.0653061 0.0907043 0.0661317 0.058392 0.0620569 0.0676394 0.0344968 0.0743445 0.0684885 0.0180139 0.0940123 0.0985601 0.105267 0.0818215 -0.0102726 0.0560868 0.0722506 0.12221 0.0939237 0.0837138 0.00605742 0.0409417 0.121452 -0.0358989 -0.0492534 0.0183219 0.00693777 -0.0682435 0.0734867 0.10609 -0.0640472 -0.0272524 0.0333471 0.0943745 -0.0722514 0.0953237 0.118475 -0.103235 -0.0962744 0.094091 0.195608 -0.0722019 -0.104672 -0.02768 -0.103746 -0.12026 -0.112653 -0.0365701 -0.0963958 -0.119999 -0.116613 -0.139249
internal_weight=0 95298.9 12907.9 94694.5 48751.3 46281.1 38485.6 7795.44 45943.2 35365.4 2453.12 12644.7 12023 10769.4 4517.68 2470.23 688.183 32912.3 6251.73 10577.8 7716.04 621.664 1253.63 2861.71 1782.05 341.521 174.989 771.332 263.164 280.142 228.914 604.437 311.736 132.841 90.3452 178.895 482.298 34.3504 292.702 228.813 28.4791 26.4379 51.2282 222.253 29.8428 150.416 166.532 281.436 24.7794 42.4958 256.656 192.41 7.91249
internal_count=268644 244243 24401 238823 135015 122727 95377 27350 103808 82929 7355 22795 18791 16237 8531 12288 2848 75574 7706 20879 15997 4004 2554 4882 9440 2854 1316 1822 1606 1150 408 5420 1591 610 280 981 732 94 3829 1512 91 54 742 1500 133 890 1538 3802 184 330 3618 1367 40
is_linear=0
shrinkage=0.1


Tree=10
num_leaves=55
num_cat=0
split_feature=53 29 134 90 1 72 103 2 31 73 135 30 101 109 69 82 3 0 104 130 124 74 29 101 29 31 27 108 108 37 71 6 108 56 38 71 72 28 105 34 122 60 15 69 101 52 23 84 52 53 121 39 13 64
split_gain=645.21 816.045 548.889 526.404 542.727 1030.1 568.725 657.747 434.026 805.738 830.353 583.685 406.573 472.518 393.512 678.14 363.632 354.748 547.813 309.032 258.649 256.279 249.977 245.448 233.837 211.971 206.412 189.992 854.562 210.168 130.391 117.451 81.1614 79.305 90.2555 91.9929 62.9104 58.037 56.4426 46.9965 41.6782 41.0618 38.924 17.5804 124.034 15.1757 21.9957 9.032 2.33366 0.9651 0.419524 0.103159 0.0876629 0.0178543
threshold=1.1123987436294558 0.94956153631210338 1.0000000180025095e-35 -1.0853039622306822 0.62779885530471813 -0.81093040108680714 -0.90385779738426197 0.59343671798706066 0.99603289365768444 -0.70933660864830006 1.0000000180025095e-35 1.0386722683906557 -0.53974497318267811 -1.0970228910446165 -0.0066059590317308894 -0.72725769877433766 0.72038647532463085 0.32233352959156042 -0.843644618988037 1.0000000180025095e-35 -1.5763523578643797 -0.42351642251014704 0.87715637683868419 -0.6177120804786681 1.2261745333671572 0.99545219540596019 0.9298110604286195 -1.0312797427177427 -1.0581209063529966 0.97509989142417919 -0.21401128172874448 0.47754843533039099 -1.0516631007194517 0.97635799646377575 0.97188326716423046 -0.24988629668951032 -0.29864384233951563 1.1480711102485659 -0.97421765327453602 0.93172168731689464 -2.0132796764373775 0.78097471594810497 0.8951900601387025 -0.052188448607921593 -0.75823572278022755 1.1377256512641909 1.1250526905059817 -0.26766298711299891 0.88370200991630565 1.1195847392082217 -1.8581874370574949 1.0135949254035952 0.44400598108768469 0.45173531770706182
decision_type=2 2 2 2 2 2 2 2 2 2 2 2 2 2 2 2 2 2 2 2 2 2 2 2 2 2 2 2 2 2 2 2 2 2 2 2 2 2 2 2 2 2 2 2 2 2 2 2 2 2 2 2 2 2
left_child=1 32 12 4 6 16 24 -8 9 10 -5 -11 14 21 15 19 -6 20 -19 -2 -10 47 -23 -17 -3 -7 36 28 -16 -29 -28 39 33 50 35 -35 -15 41 -34 43 -36 -33 -43 49 -45 48 -47 -14 -40 -4 52 -52 -1 -39
right_child=2 3 31 8 5 25 7 -9 17 11 -12 -13 13 26 27 23 -18 18 -20 -21 -22 22 -24 -25 -26 -27 30 29 -30 -31 -32 37 38 34 40 -37 -38 53 45 -41 -42 42 -44 44 -46 46 -48 -49 -50 -51 51 -53 -54 -55
leaf_value=-0.11484540654040708 0.098169117931022787 0.099337727887484531 -0.13280211447639642 0.0029774209053307268 0.11628813161846407 -0.032905003635652144 0.066955088454800055 0.028688345850189589 0.066738125442961108 0.046076239380322362 0.066223516478459962 0.10377897496096944 -0.14696556161784466 -0.1340873319833594 0.12251336913701616 0.015507711368401358 0.025273043008609049 0.06963788859760088 0.023122109098691442 0.038987879476414522 0.11812115552149627 -0.061865839660756275 0.21663285836240564 -0.11749116068525865 -0.10875160391315089 0.052799701329882223 0.031233307158960999 0.15567298964913218 0.0057988752605458741 0.098182646577218993 0.14577105875084176 0.26137055741373588 0.11510973393820267 -0.14002812725021255 -0.1169537745336649 0.20750335542648979 0.013682234891005103 -0.12645128669038139 -0.10413760009164058 0.1589304489728901 -0.0056446926734605293 0.16795975128381324 -0.13686725969084609 0.33453531567518918 -0.12001803998658628 -0.068658200713580808 0.23362058301052097 -0.10832939975083894 -0.12509735526675655 -0.11602627481780459 -0.14366864470926535 -0.13306930765141214 -0.13197932261957154 -0.13507183715254098
leaf_weight=14.092379264533522 3929.4173399731517 5394.0779463648796 51.871379494667053 7704.0156644806266 1180.8708223626018 1789.1011223457754 46940.044602945447 4967.0543416664004 2554.9049665182829 7172.094431437552 2841.4864478856325 2320.097498446703 108.89497593790293 39.034139730036259 2407.6416734196246 618.44540072977543 698.70104762911797 6678.345075443387 4077.7090558260679 1137.8341673016548 1588.893648520112 83.447502728551626 52.510339643806219 178.8990146741271 54.548542618751526 344.08125181496143 144.09915010258555 1347.6215697079897 848.37698431313038 1203.9949334263802 320.35506201907992 16.25260691344738 11.610817484557627 9.8224039748311025 42.496881932020187 33.918248370289803 110.00079772248864 4.5324434861540777 80.719619056209922 6.9670141935348502 161.3962040245533 9.952362075448038 7.2337212637066832 7.0623768642544738 40.021575100719929 21.205295089632276 2.7155263423919669 136.16141376271844 155.36481510475278 101.1926277577877 14.431524083018301 25.244468741118908 3.7889402210712424 5.1126730293035507
leaf_count=145 5450 10929 287 27477 2124 8412 106010 13211 5598 21228 6446 5647 527 304 2644 1626 2467 14052 11703 2283 2435 1259 121 716 229 855 312 924 2580 1688 265 15 27 52 425 58 972 29 2391 12 681 14 38 12 301 183 1 1124 1227 871 71 138 21 27
internal_value=0 0.0577435 0.0815364 0.0584537 0.0640321 0.0284783 0.0665195 0.0632933 0.0486552 0.039044 0.0200191 0.06018 0.0844336 0.0230558 0.0896631 0.0713912 0.0824547 0.0615806 0.0520034 0.0848802 0.0864404 -0.0644101 0.0456974 -0.0143331 0.0972545 -0.0190809 0.0773775 0.108114 0.0921026 0.128546 0.110235 -0.0651373 -0.0608458 -0.0254581 -0.000882211 0.129462 -0.0250205 0.0850848 -0.100608 -0.0963864 -0.0288445 0.147419 0.0396563 -0.105274 -0.0518371 -0.110241 -0.0343431 -0.125498 -0.117931 -0.121711 -0.131193 -0.136925 -0.118476 -0.131021
internal_weight=0 96882.8 12916.9 96306 61368.5 4012.75 57355.7 51907.1 34937.5 20037.7 10545.5 9492.19 12666.7 994.503 11672.2 5864.6 1879.57 14899.9 10756.1 5067.25 4143.8 381.014 135.958 797.344 5448.63 2133.18 613.489 5807.64 3256.02 2551.62 464.454 250.199 576.807 305.191 247.634 43.7407 149.035 43.0838 271.616 207.115 203.893 33.4387 17.1861 200.148 47.084 260.005 23.9208 245.056 236.084 153.064 57.5573 39.676 17.8813 9.64512
internal_count=268644 244243 24401 238823 144237 13858 130379 119221 94586 60798 33923 26875 22795 4884 17911 10075 4591 33788 25755 7733 8033 3031 1380 2342 11158 9267 1853 7836 5224 2612 577 1606 5420 1591 1216 110 1276 123 3829 1483 1106 67 52 1471 313 3802 184 1651 3618 1158 375 209 166 56
is_linear=0
shrinkage=0.1


Tree=11
num_leaves=63
num_cat=0
split_feature=70 103 135 132 71 101 29 136 28 34 71 39 29 19 70 103 29 106 4 29 28 53 40 104 136 136 52 110 28 28 26 32 30 136 31 29 68 105 79 33 106 72 120 27 74 59 52 79 110 36 22 29 33 36 25 63 129 104 14 29 53 55
split_gain=617.352 1538.05 782.997 610.969 530.72 940.218 743.168 690.619 557.103 462.062 461.789 809.506 460.675 406.161 384.312 632.121 390.069 318.646 419.987 296.925 281.984 478.271 278.421 266.119 257.917 252.742 238.886 230.433 215.509 195.977 193.646 188.412 179.976 201.497 155.443 141.053 230.169 136.929 131.816 202.961 126.816 125.413 147.663 119.502 113.921 81.6474 80.1608 65.4786 70.0293 51.7807 46.1553 44.7887 50.6758 38.7853 38.0353 36.6295 33.0961 31.2151 28.927 18.2848 0.438825 0.0210367
threshold=-0.2252109348773956 -0.78988558053970326 1.0000000180025095e-35 1.0000000180025095e-35 -0.43354171514511103 -0.82568010687828053 1.0976867079734804 1.0000000180025095e-35 1.1551500558853152 0.89826244115829479 -0.43195426464080805 0.99895074963569652 1.0837679505348208 1.1649808883666994 -0.20429322868585584 -0.77308914065361012 0.87715637683868419 -0.91764321923255909 0.61773148179054271 1.0861944556236269 1.1133818626403811 1.1136735081672671 1.0268824696540835 -0.79417985677719105 1.0000000180025095e-35 1.0000000180025095e-35 1.1157458424568178 -1.0326830744743345 1.1196586489677431 1.1155893206596377 1.1663370132446291 0.91768929362297069 1.0431639552116396 1.0000000180025095e-35 0.96165794134140026 1.0940894484519961 0.036952972412109382 -0.83431518077850331 -1.0798038840293882 0.87391442060470592 -0.87836721539497364 -0.30699574947357172 -1.7368048429489134 1.1566431522369387 -0.81878846883773793 0.80591535568237316 1.1939845085144045 -1.0377255678176878 -0.9960101544857024 0.94191738963127147 1.2356892228126528 1.1027420163154604 0.94804558157920849 0.92415702342987072 1.5416868925094607 0.51451447606086742 1.0000000180025095e-35 -0.82142868638038624 0.78047215938568126 1.0940894484519961 1.1195847392082217 0.98009374737739574
decision_type=2 2 2 2 2 2 2 2 2 2 2 2 2 2 2 2 2 2 2 2 2 2 2 2 2 2 2 2 2 2 2 2 2 2 2 2 2 2 2 2 2 2 2 2 2 2 2 2 2 2 2 2 2 2 2 2 2 2 2 2 2 2
left_child=1 3 10 4 5 7 13 -1 -7 -8 35 28 14 -6 15 25 41 38 31 -13 21 -18 43 26 -22 30 32 44 -12 -24 -2 -19 33 -14 -20 57 -37 -34 54 -40 -27 58 -43 -17 60 59 -46 48 -29 56 -51 53 -53 -28 -5 -49 -47 -3 -16 61 -4 -25
right_child=12 2 27 17 6 8 9 -9 -10 -11 11 19 23 -15 16 22 20 18 34 -21 24 -23 29 45 -26 40 51 47 -30 -31 -32 -33 37 -35 -36 36 -38 -39 39 -41 -42 42 -44 -45 46 49 -48 55 -50 50 -52 52 -54 -55 -56 -57 -58 -59 -60 -61 -62 -63
leaf_value=0.05876382821146138 -0.090588320312168957 -0.0032653193216305486 -0.16699949391684696 -0.10847766080767346 0.068263216427183998 -0.033180796700495639 0.14500225813514112 0.021106650053710329 0.032053468314370788 0.08155387232083755 -0.019634903943929763 -0.08394352342771183 0.049616336747603795 0.016247006148864363 -0.12774841161533124 0.0087685015904744729 0.048834459332251119 0.25946890565106434 0.054771509078522879 0.0024098771341631458 0.11485750538240691 0.084382280062345494 -0.092829845130883173 -0.13642626204332869 -0.030870367387030279 0.087029766830521771 0.19035005890875911 -0.17529324711186109 0.072980801137503673 -0.00062479540092674095 0.074030766781957663 -0.010646826455736233 -0.00053374685642363338 -0.10415238164644103 -0.10442040007036624 -0.077189863097978803 0.11399861577525504 0.10588094498879873 0.028619092722169139 -0.05517378256121163 -0.10862876415773988 -0.085223974527076363 0.065713896557275428 0.14117739142867555 0.079320334793116343 0.18668418521548896 -0.20475994245282464 0.23046501361133065 0.16200776489211269 0.13583433646071139 0.021619034812919574 0.10620400470969696 -0.19816969086461639 0.12393940351231265 -0.019777474860774552 0.14129755213325493 0.13628404608991782 -0.12522357114180435 0.16923938847288642 0.097393662327007802 -0.19648029832427449 -0.145108656861904
leaf_weight=52554.690090276301 73.571955563500524 21.950393587350845 11.95006322860718 212.97303462773561 3637.0103300791234 1601.1106315180659 1421.3349176943302 5367.557653253898 7178.8604494929314 5963.6938350945711 324.87374806962907 1024.2415518537164 273.84225171804428 2556.1750178877264 109.60321185179055 171.5703314486891 7520.5803886372596 123.37356698513031 165.7494706325233 651.44594634324312 1966.7335956096649 7619.4376176632941 515.71905973553658 4.8489966690540296 129.44269950687885 45.104694604873657 102.611921697855 9.906935781240465 1108.5688923150301 416.82104168832302 2486.2902314215899 32.658911317586899 150.813970297575 123.71861936151981 97.371585369110107 328.53869438171387 77.898695960640907 609.98661634325981 605.43134947866201 553.19222094118595 124.74046689271927 106.66789570264518 165.18956971727312 113.089969009161 210.53329274058342 417.46013757586479 10.424830645322798 144.13482531905174 16.253786861896515 248.19607388973236 41.263446405529976 14.689351797103884 8.7154204100370389 615.08277449756861 62.539424918591976 67.713240876793861 189.40422509610653 477.96291052177548 3.3808003906160584 4.4568367004394522 8.7432319521903974 6.5739222764968872
leaf_count=118083 333 73 50 1369 7113 5495 2214 19818 20253 11428 1177 3905 634 7728 1137 645 18745 153 833 1824 2906 12169 1955 25 417 98 64 41 2538 1160 4873 123 403 529 571 1400 127 1003 2798 2692 512 1815 613 156 417 405 42 75 16 336 105 19 35 761 341 73 252 3668 25 10 35 31
internal_value=0 0.0498926 -0.00706379 0.0530098 0.0543202 0.0506518 0.0723411 0.0552742 0.0201574 0.0937653 -0.0214885 -0.00317875 0.0679062 0.046794 0.062943 0.034738 0.0692605 -0.0037554 0.0729438 -0.0503725 0.0714837 0.0667244 -0.0251926 0.105978 0.105859 0.0614616 0.0846582 0.113693 0.0519905 -0.0516166 0.0692995 0.202931 0.0562924 0.00176441 -0.00413966 -0.0842978 -0.0405463 0.0847863 -0.0261722 -0.0113884 -0.056669 -0.0303109 0.00649086 0.061372 0.0449054 0.150372 0.0659174 0.183533 0.0342735 0.154354 0.119553 0.128995 -0.00713804 0.133434 -0.0883433 0.201964 0.170954 -0.119869 -0.118862 -0.0743964 -0.179456 -0.141423
internal_weight=0 86628.9 4495.14 82133.7 80280.4 66702.2 13578.2 57922.2 8779.97 7385.03 4015.48 3109.13 24379.6 6193.19 21567.9 3946.91 17621 1853.29 419.154 1675.69 17236.2 15140 1217.2 2811.66 2096.18 2729.71 1899.46 479.66 1433.44 932.54 2559.86 156.032 1158.36 397.561 263.121 906.351 406.437 760.801 1434.14 1158.62 169.845 384.841 271.857 284.66 241.651 912.204 220.958 238.009 26.1607 896.324 289.46 741.099 23.4048 717.695 275.512 211.848 606.864 499.913 112.984 15.8798 20.6933 11.4229
internal_count=268644 216473 15461 201012 192132 163649 28483 137901 25748 13642 14712 9444 52171 14841 47559 9732 37827 8880 1680 5729 34237 30914 3916 4612 3323 5816 3448 749 3715 3115 5206 276 2569 1163 1404 5268 1527 1406 7200 5490 610 3590 2428 801 544 1164 459 205 57 1098 441 879 54 825 1710 148 657 3741 1162 66 85 56
is_linear=0
shrinkage=0.1


Tree=12
num_leaves=63
num_cat=0
split_feature=53 30 53 30 71 100 29 134 74 72 30 53 92 74 3 97 103 53 103 87 35 130 28 98 126 69 60 25 71 39 135 87 31 70 29 101 131 103 32 136 102 117 76 31 41 71 129 75 106 107 75 99 31 25 42 131 37 30 103 111 32 61
split_gain=589.965 1103.82 571.82 828.389 493.21 772.968 558.151 468.65 1004.24 425.37 397.904 635.514 395.874 405.982 395.245 577.049 485.225 389.162 441.464 385.503 496.919 360.174 356.185 354.129 344.245 328.259 413.561 307.944 325.407 301.948 289.198 383.743 286.175 276.543 416.174 375.289 258.513 245.641 241.552 237.596 217.793 217.409 195.258 192.143 182.367 169.587 166.052 236.245 152.264 149.267 140.269 165.25 139.447 137.188 116.274 102.373 100.865 93.0607 83.8898 62.1419 35.806 23.0381
threshold=1.0584660768508913 1.0589476823806765 1.0254642367362978 1.0715177655220034 -0.45383878052234644 -0.87115117907524098 1.0921237468719485 1.0000000180025095e-35 -0.94864359498023976 -0.62708482146263111 1.0504361391067507 1.0853925943374636 -1.0827376842498777 -0.92540627717971791 0.64245465397834789 -0.95444470643997181 -0.91624131798744191 1.0376620292663576 -0.94183191657066334 -1.2664296627044676 0.88566356897354137 1.0000000180025095e-35 1.181480944156647 -0.88493648171424855 -1.703657269477844 -0.11934543773531912 0.74380612373352062 1.341265141963959 -0.43354171514511103 0.97217318415641796 1.0000000180025095e-35 -1.2608271241188047 0.99334576725959789 -0.24076562374830243 1.0775374770164492 -0.81320008635520924 1.0000000180025095e-35 -0.80513721704483021 0.95096546411514293 1.0000000180025095e-35 -0.8637191355228423 -1.4773170948028562 -1.1400585174560545 1.0016748309135439 0.98338142037391674 -0.42259573936462397 1.0000000180025095e-35 -1.0914663076400755 -0.92349469661712635 -0.96919909119606007 -1.0957120656967161 -0.82498380541801442 1.0009326338768008 1.2113691568374636 1.0237010121345522 1.0000000180025095e-35 0.9269588589668275 1.0279412865638735 -0.82102364301681507 -0.86734285950660694 0.95495638251304638 0.6709437668323518
decision_type=2 2 2 2 2 2 2 2 2 2 2 2 2 2 2 2 2 2 2 2 2 2 2 2 2 2 2 2 2 2 2 2 2 2 2 2 2 2 2 2 2 2 2 2 2 2 2 2 2 2 2 2 2 2 2 2 2 2 2 2 2 2
left_child=1 4 3 9 5 17 45 30 44 23 11 19 46 24 15 -5 -16 18 -1 33 41 -22 43 -3 -14 26 37 28 -8 60 31 -4 -15 35 -35 -2 42 39 -10 -12 -11 -21 -31 -7 -9 55 47 -13 -24 -32 59 -52 -19 -47 -29 -6 -39 -48 -38 -28 61 -27
right_child=10 2 7 14 6 22 27 8 38 40 25 12 13 32 16 -17 -18 52 -20 20 21 -23 48 -25 -26 29 50 54 -30 36 49 -33 -34 34 -36 -37 58 56 -40 -41 -42 -43 -44 -45 -46 53 57 -49 -50 -51 51 -53 -54 -55 -56 -57 -58 -59 -60 -61 -62 -63
leaf_value=0.078625805965096815 0.043293581724728823 0.013418857315003908 0.082810308737113786 0.084456536468048918 -0.101021097463942 -0.071260537487395956 0.022769528252183986 0.18361746034822393 0.071889324170822597 -0.013755925031411334 0.076696681780181825 0.023397038552336213 -0.057137489475810391 0.053507807461108906 0.058503770015595237 0.043403837063002777 0.012892175045593141 0.049854657795552371 -0.022464777728179047 0.13161837377574162 0.0010881197539907026 0.057145878429086833 -0.014642638247756988 -0.054371843273601374 0.042840750856658533 0.15198542827486211 -0.16650703968816655 0.12439082010411125 0.067451731843972004 0.11669455457629829 -0.014477034426820893 0.039930655816031849 0.080722139955875433 0.024261212896184166 0.10182308402507211 -0.098295772212002586 -0.08113610521007017 0.051461924778983884 -0.056730203252938309 -0.021690385316824781 0.095304458022257399 0.050465488876427211 0.069922354536329195 -0.014387640714963857 0.11875388479713123 -0.077878153004353218 0.096147895297577293 0.099152071490821406 0.049813607796540468 0.1311759727268256 0.031082001798697013 -0.093856062479225844 0.11148302617819231 0.013340532156852864 0.29654760237339878 0.071342823395923391 -0.12550266896601908 0.15241064790015366 0.040561945082963541 0.064808890149046672 0.12222570196257886 0.21265821975454746
leaf_weight=600.22739193961024 1503.3477805331349 5792.2470397651196 3005.1438348889351 6357.478787958622 289.6125995926559 1679.8366677872837 3253.4467412978411 644.61119544506073 239.49856747686863 233.1855388879776 4877.6765378862619 590.69381605088711 551.29758883267641 17265.023023210466 4663.265261426568 7420.3786341249943 4666.121755450964 1094.8978927358985 1541.2341287620366 409.71237136423588 6232.9224643670022 1404.3997137546539 993.97729101032019 888.83316043019295 917.65200088173151 88.238659292459488 75.158916741609573 137.37006348371506 3266.1344033777714 1764.7419709265232 78.261124819517136 6831.7050683498383 4978.1180148944259 1043.192723184824 2053.7488466203213 213.82544414699078 107.41204409301281 50.079716563224792 374.0800729393959 258.45629428327084 852.66791333258152 1699.291477099061 1805.9401876330376 919.03338202834129 1323.2424452900887 193.51894790865481 598.82689908146858 1358.2108409553766 580.55018172413111 696.91813936829567 481.23011818528175 135.72241944074631 552.38443021476269 1113.7647918313742 54.914734974503517 39.111608330160379 90.255874544382095 577.49789088964462 119.83711551129818 13.736362069845198 86.932257607579231 215.24728715419769
leaf_count=2400 3460 17127 5902 11596 1732 8363 9244 418 422 772 9111 1256 1757 38484 11142 16734 12469 2937 8790 782 18382 3087 4303 3425 1776 90 327 344 7397 2232 217 16049 8315 2613 3342 888 334 112 1200 784 1791 4270 3216 2933 1680 1407 733 1607 1765 820 1059 494 979 4207 38 112 399 515 268 27 99 110
internal_value=0 0.0413086 0.0495345 0.042088 0.0190835 0.0012777 0.0360665 0.0669601 0.105173 0.0138347 0.0558729 0.0515189 0.0606452 0.0562359 0.0515846 0.0623467 0.035691 0.0339788 0.00586977 0.0346977 0.023262 0.0113964 -0.0284095 0.00440016 0.00531886 0.0735948 0.0585627 0.0488327 0.0451541 0.0950655 0.0576645 0.0530303 0.0595985 0.0578497 0.0756967 0.0256626 0.0864569 0.0681792 -0.00652606 0.0717457 0.0718839 0.0662309 0.0930386 -0.0511487 0.140001 -0.0163076 0.0940995 0.0761915 0.00912328 0.116471 -0.0133244 0.00359707 0.0705205 -0.000162691 0.173557 -0.0805132 -0.0623516 0.123769 -0.0169601 -0.130763 0.178809 0.195018
internal_weight=0 60377.7 44067.6 30874.2 16310 7962.14 8347.87 13193.5 2581.43 7766.93 51568.4 41397.8 26837.3 23712.1 23107.2 13777.9 9329.39 3788.74 2141.46 14560.4 9746.33 7637.32 4173.4 6681.08 1468.95 10170.7 5982.32 6711.87 6519.58 4188.35 10612 9836.85 22243.1 4814.11 3096.94 1717.17 3797.93 5276.47 613.579 5136.13 1085.85 2109 3570.68 2598.87 1967.85 1636.01 3125.23 1948.9 1574.53 775.179 705.848 616.953 1647.28 1307.28 192.285 328.724 140.336 1176.32 227.249 88.8953 390.418 303.486
internal_count=268644 158715 101764 75056 56951 32470 24481 26708 3720 23115 109929 91267 54443 50332 51941 28330 23611 15106 11190 36824 26521 21469 17364 20552 3533 18662 12313 17023 16641 6349 22988 21951 46799 10303 5955 4348 6050 10406 1622 9895 2563 5052 5448 11296 2098 7458 4111 2863 6068 1037 1907 1553 3916 5614 382 1844 511 1248 602 354 299 200
is_linear=0
shrinkage=0.1


Tree=13
num_leaves=63
num_cat=0
split_feature=136 32 108 78 72 29 70 83 29 103 30 73 71 108 11 28 17 27 29 35 70 88 0 130 108 125 91 76 4 71 53 134 51 124 103 56 28 30 67 61 69 38 104 92 129 78 105 0 36 71 5 20 105 33 31 56 30 105 70 114 114 74
split_gain=555.846 977.557 531.031 837.631 538.601 855.001 672.293 777.869 544.968 474.506 472.107 464.522 460.52 453.397 443.288 441.257 434.316 417.305 406.375 390.81 544.807 388.697 353.302 316.75 309.291 276.412 259.813 384.743 316.699 403.35 249.099 209.97 191.161 292.626 205.043 197.767 157.43 156.347 368.618 154.296 152.961 151.566 147.479 125.323 123.093 120.289 117.52 107.324 96.2868 106.582 90.0404 76.1001 73.7508 68.4804 59.8478 108.807 54.6263 51.6881 40.0211 30.4237 29.1286 23.1825
threshold=1.0000000180025095e-35 0.96267554163932811 -0.89750826358795155 -1.2430845499038694 -0.56680786609649647 1.1249693036079409 -0.36699829995632166 -0.92260921001434315 1.090092718601227 -0.84278386831283558 1.0506953597068789 -0.84783539175987233 -0.37811431288719172 -1.0238615274429319 0.95026764273643505 1.1243417263031008 1.1390022039413454 1.2897272109985354 1.0936042070388796 0.85731366276741039 -0.32013848423957819 -1.163199722766876 0.52424830198287975 1.0000000180025095e-35 -0.99745792150497425 -1.5074186921119688 -1.0346075296401975 -1.1068353652954099 0.71474182605743419 -0.68294987082481373 1.040485739707947 1.0000000180025095e-35 1.1270101070404055 -1.505608797073364 -0.79157084226608265 0.95640870928764354 1.1789687275886538 1.044366776943207 0.16952654719352725 0.67013776302337658 -0.052188448607921593 0.99370118975639354 -0.92020076513290394 -0.97845628857612599 1.0000000180025095e-35 -1.2324017882347105 -0.81476163864135731 0.43319500982761389 0.91976922750473034 -0.43437372148036951 0.73123204708099376 1.25073778629303 -0.8179345130920409 0.88594278693199169 1.0045951008796694 0.9632246494293214 1.0722197890281679 -0.91606491804122914 -0.50835484266281117 -0.96788471937179554 -1.1832327246665952 -0.92279103398323048
decision_type=2 2 2 2 2 2 2 2 2 2 2 2 2 2 2 2 2 2 2 2 2 2 2 2 2 2 2 2 2 2 2 2 2 2 2 2 2 2 2 2 2 2 2 2 2 2 2 2 2 2 2 2 2 2 2 2 2 2 2 2 2 2
left_child=2 10 4 14 5 16 7 -7 12 36 24 51 15 -14 21 -6 18 -8 -1 22 -21 23 -13 -4 42 32 28 43 45 -30 -18 -23 33 39 40 -35 -10 46 -39 -3 -34 -11 53 -28 -29 -5 -26 54 49 -49 58 -12 -36 -2 55 -27 -53 -52 -16 -56 -44 -50
right_child=1 25 3 26 8 6 17 -9 9 41 11 19 13 -15 50 -17 30 -19 -20 20 -22 31 -24 -25 37 47 27 44 29 -31 -32 -33 34 35 52 -37 -38 38 -40 -41 -42 -43 60 -45 -46 -47 -48 48 61 -51 57 56 -54 -55 59 -57 -58 -59 -60 -61 -62 -63
leaf_value=-0.032228844662023998 0.052301455093832466 0.10332202864765308 0.052288397990016049 0.075972379256782241 -0.054175170130845898 0.035698741340496991 0.057430177092483173 -0.053908815119167633 -0.0043626844474075775 0.12404323651031493 0.35463712422603932 0.12183574261420822 0.038554991168208444 0.079149936590606026 0.15963322921790635 0.036047818035352404 -0.067612830140489175 0.13251947693087243 0.024972701728683839 -0.079771000909749104 0.029580006722946601 -0.080366287551100202 -0.043034917511680711 0.028418411820471435 -0.096838369866983243 -0.13179615923330465 -0.011590571562599175 0.088128190673582546 0.07032901656011048 -0.064627889537090186 0.019759406542156924 0.093477777742558221 0.13469418441372286 -0.020545819284280328 0.013010265013130238 0.076869948262000359 0.085267871038313167 -0.081885586205606153 0.05000432740997434 -0.11632499719439338 -0.0079252330867508863 0.0071748402463578448 0.10467018534465805 -0.14216389225233692 0.033469938960738098 0.10138706402906948 0.023429258106408779 -0.037019063277150543 -0.16017457698509469 0.18637560066216508 0.10031671829241114 -0.083224248774764129 -0.17924623885251989 -0.19762942946532816 0.17334317021663814 0.13630155439828801 -0.031004873008354916 -0.11467833560262955 -0.045424637643284783 0.12672714393144516 0.21032106876540851 0.085922317400231651
leaf_weight=1456.1087461709976 20.789300657808781 38.994586914777756 29012.080917418003 3039.6860630214214 826.54752629250288 16024.609830960631 7786.1646449863911 1031.0971011817455 531.28642324358225 1988.7348691895604 4.5438525676727286 681.34507195651531 7752.128956887871 4264.9232865478843 19.907186537981033 1575.0003411769867 1058.6364009827375 817.85356901586056 8445.2057214379311 522.72096753120422 3548.9225627034903 356.84829352796078 160.61386092752218 6876.9309263266623 768.71200113929808 21.920909345149994 282.24377351999283 996.01792348362505 857.76046155765653 298.53474728763103 471.70003141462803 86.273400545120239 547.42798241972923 285.05102379620075 93.247629806399345 774.98266862332821 310.48652324080467 481.32185906171799 378.59430100023746 177.83943688869476 87.176712840795517 117.5287322551012 110.65061185508966 99.390602182596922 702.71636689454317 4808.1154829263687 90.85079281963408 38.124567300081253 24.632032886147503 48.559392720460892 11.768125176429747 380.90374045819044 25.384534254670143 23.193864598870277 290.68046182394028 48.923621281981468 422.56194315850735 224.66034314595163 18.237079501152039 270.09231720864773 34.149951368570328 4.5320729464292517
leaf_count=5065 56 60 59679 5463 3000 38292 16200 4350 1558 3262 4 1744 20947 7661 22 4474 5026 1218 21894 2323 9222 1192 676 16544 4146 80 784 2829 2022 1065 1311 158 555 758 224 1254 654 2121 814 688 218 268 120 430 1392 7359 542 129 107 39 27 2398 105 99 201 45 1989 3393 57 302 19 10
internal_value=0 0.0209375 0.0451965 0.0529012 0.0384492 0.0316443 0.0417781 0.0302815 0.0529831 0.0921593 0.00244597 0.0168115 0.0449731 0.0529624 0.0456086 0.00499552 0.00889758 0.0645678 0.0165605 0.028366 0.0155414 0.0465652 0.0903847 0.0477145 -0.0406267 0.071733 0.0769853 0.0451343 0.0843443 0.0354856 -0.0406818 -0.0465198 0.0525912 0.0290227 0.092544 0.0506741 0.0286974 -0.0539665 -0.0238186 -0.0768245 0.115102 0.117522 0.0808745 -0.0455963 0.0655177 0.0915432 -0.0841268 0.123722 0.0352438 0.0881241 -0.0809756 -0.0534529 -0.0281282 -0.0794959 0.13995 0.053346 -0.0557608 -0.103977 0.0615934 0.150891 0.129587 -0.121931
internal_weight=0 10407.4 102149 47691.2 54458 37091.4 25659.7 17055.7 17366.6 2948.04 7629.87 5721.61 14418.6 12017.1 36606.7 2401.55 11431.7 8604.02 9901.31 4913.6 4071.64 36332.1 841.959 35889 1908.26 2777.57 11084.5 2080.37 9004.1 1156.3 1530.34 443.122 2030.1 1276.87 753.237 1060.03 841.773 1719.48 859.916 216.834 634.605 2106.26 188.784 381.634 1698.73 7847.8 859.563 747.465 115.848 86.684 274.573 808.01 118.632 43.9832 631.617 70.8445 803.466 236.428 38.1443 560.773 144.801 29.1641
internal_count=268644 31048 237596 102416 135180 93356 60060 42642 41824 5742 26273 18356 36082 28608 81072 7474 33296 17418 26959 13965 11545 77573 2420 76223 7917 4775 21344 5435 15909 3087 6337 1350 3862 2760 1102 2012 2212 7623 2935 748 773 3530 294 1214 4221 12822 4688 913 285 168 3499 4391 329 155 628 125 4387 3420 79 503 139 117
is_linear=0
shrinkage=0.1


Tree=14
num_leaves=62
num_cat=0
split_feature=54 30 70 30 35 136 53 30 134 134 26 53 53 123 131 29 108 110 117 46 109 40 132 103 39 30 60 82 113 134 59 26 106 20 126 108 71 51 44 30 123 58 36 34 97 104 73 46 107 39 76 48 34 121 105 93 99 27 100 36 102
split_gain=495.041 458.597 670.44 802.143 536.309 527.818 418.973 808.149 603.895 416.597 364.359 346.777 332.852 433.624 319.321 475.167 315.279 295.612 806.018 361.753 342.874 620.9 365.862 288.963 262.93 254.53 323.004 248.94 211.694 206.848 168.18 168.156 148.958 143.09 128.47 127.311 127.117 112.385 103.985 96.3257 82.6905 77.7557 74.4425 71.1275 66.1567 65.7416 59.0538 52.7906 98.0557 49.9703 36.3596 16.9406 5.14306 4.43106 1.41731 0.72512 0.691341 0.441853 0.118077 0.0852556 0.0254826
threshold=1.0626039505004885 1.0473837256431582 -0.28749892115592951 1.0589476823806765 0.89578476548194896 1.0000000180025095e-35 1.0254642367362978 1.0676389336586001 1.0000000180025095e-35 1.0000000180025095e-35 1.0660005211830141 1.0654639601707461 1.0669900774955752 -1.2875252366065977 1.0000000180025095e-35 1.1106536984443667 -0.90577241778373707 -1.2047003507614134 -1.5561263561248777 1.2135786414146426 -1.0970228910446165 1.0792337059974673 1.0000000180025095e-35 -0.61835050582885731 1.0172482132911684 1.044366776943207 0.75765579938888561 -0.70984840393066395 -1.0005160570144651 1.0000000180025095e-35 0.78867796063423168 1.2773139476776125 -0.89886358380317677 1.2425939440727236 -1.8535349965095518 -1.0455554723739622 -0.3918571919202804 1.1318830251693728 1.1738192439079287 1.0501761436462405 -2.1970967054367061 0.89675059914588939 0.90048921108245861 0.85975459218025219 -0.66443318128585804 -0.7976696491241454 -0.71833336353301991 1.235417425632477 -0.98109281063079823 1.0272664427757265 1.0000000180025095e-35 1.2055810093879702 0.89349037408828746 -1.8581874370574949 -0.83129504323005665 -0.28017669916152949 -0.44362661242485041 1.012962877750397 -0.49707220494747156 0.92133811116218578 -0.57589522004127491
decision_type=2 2 2 2 2 2 2 2 2 2 2 2 2 2 2 2 2 2 2 2 2 2 2 2 2 2 2 2 2 2 2 2 2 2 2 2 2 2 2 2 2 2 2 2 2 2 2 2 2 2 2 2 2 2 2 2 2 2 2 2 2
left_child=1 5 3 14 30 9 7 -5 -8 10 50 -12 13 -6 15 -3 36 19 47 38 21 24 27 -24 -20 37 33 -22 -18 -14 31 -4 40 -27 -28 -23 -11 45 52 -16 43 51 -32 -21 -43 -7 -39 53 -49 -42 -1 -40 57 59 -55 58 -50 -2 -34 -19 -57
right_child=17 2 4 6 12 25 8 -9 -10 16 11 -13 29 -15 39 -17 28 18 20 32 22 35 23 -25 -26 26 34 -29 -30 -31 42 -33 55 -35 -36 -37 -38 46 41 -41 49 44 -44 -45 -46 -47 -48 48 56 -51 -52 -53 -54 54 -56 60 -58 -59 -60 -61 -62
leaf_value=-0.095346744715000861 -0.13168968814325427 -0.068265953080875671 0.028690062788684068 -0.0053653065744590873 0.021318729743689258 -0.11038646551676708 0.043245506667141997 0.039607459894725659 0.094802088655977126 -0.069629276893794306 0.012983295700628976 0.040975661329559022 0.065220428025510466 0.066704403121723252 -0.030166222011667312 0.0069306466030781616 0.093437599477470101 -0.11384910552358901 0.039325059423662191 0.088897591947566745 0.053222360987277652 0.11879308779844516 0.11155387409134679 -0.0051524212410787125 -0.023114110530103833 -0.12622805039129245 -0.16150635715814099 -0.037687799750479305 -0.086559156914429614 0.12628569538609624 0.17254682916573078 0.135311382951223 -0.15866043367079696 0.075116822985673681 0.080393056505368099 -0.11654097596460032 0.037931605549678032 0.097575061831640317 0.08537215596422805 0.055225091402537257 -0.011178311141173449 0.14006587645731414 0.11530108157642205 -0.14540935783491346 -0.070139598956062907 0.0083572569018090688 -0.10480458150009438 0.16971951495187784 -0.15557777636983941 0.12349540739903631 0.16928467545933018 0.23019192685905387 -0.24174351887538542 -0.17680604407363087 -0.1511260145577363 -0.11761105312676921 -0.12460588264034374 -0.1569807823223478 -0.13832156945015792 -0.13668815798915213 -0.10846943125349302
leaf_weight=245.02558724395931 9.0378756560385209 988.7209258377552 350.12092977762222 4708.2252127379179 4991.9213036000729 514.16299187764525 11418.078960731626 26402.586013182998 2836.2673687934875 872.47987744212151 6632.7639040462673 13299.278413660824 3670.2329534292221 3640.2025597691536 146.46349699795246 5599.0967717319727 284.34540575742722 31.655385673046112 1121.7366246692836 32.027680492028594 14739.819401137531 627.04459290206432 1726.3714196048677 241.88005453720689 1691.1931969746947 182.92460443079472 23.472135648131371 307.49447385966778 84.834061302244663 653.47068549692631 420.98584552109241 256.12910820543766 4.4441429823637009 43.735311433672905 339.67601831257343 23.862531494349241 125.7047602981329 47.562733195722103 27.593787383288145 1347.3974970281124 28.153569482266903 17.839372798800468 493.39272495359182 21.757108934223652 93.15614215284586 51.274630846455693 20.690480619668961 15.983611717820166 13.083538100123404 1288.5285157114267 5.3044130802154532 11.420542269945143 7.4649973660707465 25.001729533076286 153.09276586025953 4.8449168540537348 16.045869853347543 29.310364678502083 7.9793804138898867 1.7234153598546971 8.2274371087551099
leaf_count=3645 55 3924 950 14941 12199 3640 24624 59854 3862 3700 23644 28976 6375 6950 405 18022 668 390 3745 126 26416 525 1648 1453 5761 818 105 897 336 994 352 323 21 220 577 114 341 83 72 2749 86 9 677 155 427 210 82 8 62 1039 2 11 31 105 722 47 146 130 41 10 144
internal_value=0 0.0351889 0.0393063 0.0341357 0.058396 0.0229083 0.0393064 0.0328014 0.053504 0.0265359 0.0301549 0.0316607 0.0518019 0.0404581 0.00511048 -0.0043551 -0.0268813 0.0518111 0.0486231 0.0933408 0.0508299 0.0221516 0.0566679 0.0972117 0.0017853 -0.040984 0.00629312 0.0513646 0.052076 0.0744496 0.114578 0.0737355 0.111196 -0.0873774 0.0647579 0.110166 -0.0560838 -0.0849872 -0.0339417 0.046853 0.115651 0.00632899 0.141657 -0.00588463 -0.036355 -0.0996186 0.0362251 -0.127514 -0.0293083 0.120616 -0.0897393 0.127765 -0.165803 -0.148464 -0.154731 -0.128298 -0.138517 -0.15102 -0.145597 -0.115028 -0.111858
internal_weight=0 90696.5 67923.3 53446.8 14476.5 22773.2 45365.2 31110.8 14254.3 21549.7 20182.4 19932 12955.8 8632.12 8081.68 6587.82 1367.36 22327.8 20736 1591.79 20479.4 3463.84 17015.6 1968.25 2812.93 1223.5 589.808 15047.3 369.179 4323.7 1520.63 606.25 1395.96 226.66 363.148 650.907 998.185 633.691 195.823 1493.86 1370.47 150.01 914.379 53.7848 110.996 565.438 68.2532 256.586 45.113 1316.68 250.33 39.0143 45.8132 211.473 178.094 25.4959 29.1294 38.3482 12.4235 33.3788 13.0724
internal_count=268644 224248 157201 128381 28820 67047 103281 74795 28486 61312 56267 52620 26518 19149 25100 21946 5045 44396 42002 2394 40559 10145 30414 3101 9506 5735 1720 27313 1004 7369 2302 1273 1659 1038 682 639 4041 4015 735 3154 1406 519 1029 281 436 3850 165 1443 216 1125 3647 83 216 1227 827 253 208 185 62 400 191
is_linear=0
shrinkage=0.1


Tree=15
num_leaves=54
num_cat=0
split_feature=53 29 134 136 32 30 108 30 79 35 70 0 109 109 38 130 64 28 107 125 40 57 0 104 57 6 0 97 123 69 107 0 77 70 34 105 28 58 33 122 92 52 69 99 55 55 105 30 35 53 83 26 73
split_gain=442.969 532.085 368.357 348.972 752.049 483.115 434.98 587.298 417.252 400.18 661.926 314.008 298.688 698.475 858.291 322.264 301.18 292.064 284.614 214.456 212.181 166.133 154.772 142.382 128.511 93.8497 88.6245 86.4109 74.1331 71.9048 67.8143 73.232 85.1313 82.4365 55.1934 43.475 42.4484 39.0131 33.5107 22.3601 16.7567 12.5792 11.5068 83.7806 11.3511 74.7472 3.34132 21.8785 1.16828 0.85423 0.673134 0.238856 0.0239374
threshold=1.1123987436294558 0.94956153631210338 1.0000000180025095e-35 1.0000000180025095e-35 0.96267554163932811 1.044366776943207 -0.9062613546848296 1.0994335412979128 -1.2659589052200315 0.89215031266212474 -0.37175130844116205 0.52424830198287975 -1.1384400129318235 -1.1037819385528562 0.99721422791481029 1.0000000180025095e-35 0.63452014327049266 1.0987318158149721 -0.97764495015144337 -1.5074186921119688 1.0542655587196352 0.96830296516418468 0.39386284351348883 -0.7976696491241454 0.9650302827358247 0.47754843533039099 0.43319500982761389 -1.0574721097946165 -2.1970967054367061 -0.0097163706086575968 -0.97537121176719654 -0.12457168474793433 -0.44184961915016169 -0.13487634807825086 0.85975459218025219 -0.97421765327453602 1.1480711102485659 0.9077129364013673 0.9387977421283723 -1.9949626326560972 -0.94031777977943409 1.1685725450515749 -0.052188448607921593 -0.76492303609848011 1.0300336480140688 1.0308555364608767 -0.80415129661560047 0.90275871753692638 0.89341500401496898 1.1195847392082217 -1.2714152932167051 1.0569694638252261 -0.7892504334449767
decision_type=2 2 2 2 2 2 2 2 2 2 2 2 2 2 2 2 2 2 2 2 2 2 2 2 2 2 2 2 2 2 2 2 2 2 2 2 2 2 2 2 2 2 2 2 2 2 2 2 2 2 2 2 2
left_child=1 30 12 6 5 23 9 8 -8 10 -3 -7 20 14 24 16 -15 -11 -16 22 41 -17 -6 -5 -14 38 -21 -9 34 -30 31 32 33 -1 -22 -32 37 -27 42 -34 -39 48 49 -44 51 -46 50 -48 -2 -4 -37 -33 -38
right_child=2 3 25 4 19 11 7 27 -10 17 -12 -13 13 15 18 21 -18 -19 -20 26 28 -23 -24 -25 -26 36 -28 -29 29 -31 35 44 39 -35 -36 46 52 40 -40 -41 -42 -43 43 -45 45 -47 47 -49 -50 -51 -52 -53 -54
leaf_value=-0.13783281897507912 -0.15945286169918393 0.016707983942377661 -0.13099595318959106 -0.099907269654892453 0.051861777714982495 0.013480227598126719 0.035340092232101043 0.067100111396115519 0.05445808079973035 -0.038708309879553232 0.047981799161825808 -0.061944808688077391 -0.01236538450170387 0.072878380753378685 0.090076987277588005 0.050140521151986341 -0.040737693611488213 0.015713695255528615 -0.070756246679380339 0.12086508731257611 0.062070789248207414 -0.022882422197131474 -0.045646518819122822 0.047844660352550888 -0.083447887070119631 0.18207266424493879 0.025791478104749473 -0.12287961754300347 -0.072921461724949926 0.10639354000775228 0.082980559738723245 -0.13179693558718064 -0.097658971200573333 0.07183308544002906 -0.1423796882848018 -0.14195706230984759 -0.12410243997322933 -0.14745671531556118 0.10770944884315942 0.060786597677160249 0.10528616832867942 0.0018963346611904387 0.21565008770170546 -0.12290820930178621 0.2776893042387748 -0.14015641766008954 -0.10996546570854016 0.1743299191599802 -0.20320401881883543 -0.11474645908627056 -0.12317880424519081 -0.14466104300784657 -0.13431806887738329
leaf_weight=22.034369736909866 22.145966660231355 12976.610612981021 49.535558834671974 582.44381288066506 1772.4259947687387 6045.1226224303246 35451.268683118746 26.478989258408546 16838.262494049966 1103.5295835509896 14144.938842356205 607.4243173673749 375.58929462730885 7112.1452051065862 807.72764972224832 632.37245145440102 241.23059015348554 9268.2536609098315 127.3802628852427 627.56224022805691 36.303535792976618 614.12048745155334 179.24552728235722 73.445540931075811 787.85314011014998 24.551496475934982 116.20153379440308 249.8481320515275 22.694465860724449 1529.7646545022726 11.631012309342621 38.509411506354809 84.42226760648191 125.91288325190544 20.751955579966307 24.082641391083598 4.7173242643475533 6.4908477738499606 7.6444003432989112 9.9571398943662626 4.4023701101541537 4.8465032875537863 8.8059307783842069 43.00715210288763 5.3087317198514965 22.118177205324173 103.96471546776593 2.7793004401028147 8.4253116846084577 93.258462518453598 92.067907314747572 23.08674368262291 4.4646254330873472
leaf_count=116 106 33718 285 3940 3225 18179 78140 47 34171 3791 33730 3130 1291 10039 969 1047 1450 24137 445 628 190 1469 515 230 4108 24 285 957 82 1407 23 219 699 387 148 210 32 32 13 26 11 10 12 304 6 112 2821 2 34 869 686 113 24
internal_value=0 0.0323436 0.0522397 0.0328904 0.0151714 -0.0014796 0.0348586 0.0407281 0.0414965 0.0266297 0.0330185 0.00659339 0.0546587 0.0485591 -0.00316612 0.0611811 0.0691512 0.00992334 0.0681683 0.0603192 0.0943302 0.0141637 0.0429064 -0.0833622 -0.0605006 -0.0687066 0.106011 -0.104675 0.0996579 0.103772 -0.0643517 -0.0352277 -0.00673339 0.0406067 -0.012291 -0.1055 0.0625508 0.11219 -0.0976685 -0.0809428 -0.0453136 -0.147782 -0.105736 -0.0653683 -0.112791 -0.0592785 -0.115335 -0.102563 -0.17151 -0.120383 -0.127072 -0.136619 -0.12907
internal_weight=0 100629 12590.2 100063 10003.9 7308.44 90059.2 52565.9 52289.5 37493.3 27121.5 6652.55 12343.4 10698.4 2098.55 8599.87 7353.38 10371.8 935.108 2695.44 1644.93 1246.49 1951.67 655.889 1163.44 246.878 743.764 276.327 1609.51 1552.46 565.875 331.35 242.327 147.947 57.0555 234.526 44.6267 35.4447 202.252 94.3794 10.8932 35.4178 194.607 51.8131 89.0231 27.4269 222.895 106.744 30.5713 142.794 116.151 61.5962 9.18195
internal_count=268644 244243 24401 238823 30132 25479 208691 113315 112311 95376 67448 21309 22795 20818 6813 14005 11489 27928 1414 4653 1977 2516 3740 4170 5399 1606 913 1004 1827 1489 5420 1678 1228 503 338 3742 123 67 1483 725 43 150 1470 316 450 118 3719 2823 140 1154 896 332 56
is_linear=0
shrinkage=0.1


Tree=16
num_leaves=60
num_cat=0
split_feature=52 135 54 29 53 29 71 100 70 28 26 101 106 1 119 119 31 28 134 5 29 119 108 109 39 56 34 32 71 69 71 69 41 101 133 38 57 122 40 46 60 33 48 108 46 105 109 26 13 108 105 51 52 37 115 37 58 39 105
split_gain=408.041 343.072 683.913 615.032 604.343 617.54 451.138 433.983 670.457 1083.48 608.622 407.274 395.761 381.529 621.897 448.228 362.931 363.662 310.469 286.269 454.541 320.72 274.848 596.85 622.815 288.63 272.438 268.183 256.557 250.403 224.038 217.643 199.921 194.106 184.759 263.969 182.284 170.16 155.41 146.823 145.091 124.163 123.437 95.3268 86.7833 106.381 86.6772 72.7477 61.3671 59.2575 53.7845 52.2772 31.9597 17.6464 45.9466 16.8727 15.7975 3.07558 0.537608
threshold=1.152817487716675 1.0000000180025095e-35 0.91720613837242138 1.1889756917953493 1.0075362920761111 1.1585697531700136 -0.53731563687324513 -0.89351308345794667 -0.3008426427841186 1.1808335781097414 1.2712674736976626 -0.88391408324241627 -0.92547640204429615 0.62779885530471813 -0.92597201466560353 -0.97121617197990406 1.0024209618568423 1.2075525522232058 1.0000000180025095e-35 0.65205374360084545 1.1682513356208803 -1.0303724408149717 -1.0638347864150999 -1.099332273006439 1.0423285365104678 1.0514082908630373 0.89485868811607372 0.95142388343811046 -0.48304264247417444 -0.015292817261070011 -0.61285963654518116 0.0031201350502669816 0.96060064435005199 -0.4826808869838714 1.0000000180025095e-35 1.0130766630172732 0.96830296516418468 -1.0925292968749998 0.8980994224548341 1.2431244850158694 0.86754348874092113 0.85979124903678905 1.2180421948432925 -1.0073373913764951 1.2255411148071291 -0.83218976855278004 -1.1138369441032407 1.2912889719009402 0.49761746823787695 -0.88372963666915882 -0.97421765327453602 1.1945124268531802 1.1547366976737978 0.95437151193618786 -1.4879563450813291 0.97616484761238109 0.92226937413215648 1.034452021121979 -0.83129504323005665
decision_type=2 2 2 2 2 2 2 2 2 2 2 2 2 2 2 2 2 2 2 2 2 2 2 2 2 2 2 2 2 2 2 2 2 2 2 2 2 2 2 2 2 2 2 2 2 2 2 2 2 2 2 2 2 2 2 2 2 2 2
left_child=1 4 3 30 5 16 11 18 9 -9 -10 -7 26 15 -15 -5 17 -1 27 21 -21 -14 29 24 39 31 41 -6 -18 52 49 36 -20 -33 43 -36 -25 -32 -8 42 -41 -4 -24 -27 45 50 51 -28 -48 -3 -31 -26 -2 54 -46 -55 -47 58 -54
right_child=22 2 12 13 7 6 38 8 10 -11 -12 -13 19 14 -16 -17 28 -19 32 20 -22 -23 23 25 46 34 47 -29 -30 44 37 33 -34 -35 35 -37 -38 -39 -40 40 -42 -43 -44 -45 53 56 48 -49 -50 -51 -52 -53 57 55 -56 -57 -58 -59 -60
leaf_value=-0.068882355978710272 0.02090275544206685 -0.13118422894227741 -0.031970963246825648 0.018726638549146492 0.034976473441586199 0.024696130618547998 0.12613093224592095 -0.027198024284977314 0.031391302711197493 0.027663770459688854 0.090559842436323451 -0.063813537694431627 0.078446636518738122 -0.024795407884682506 0.061979401016371963 0.092773990382992569 -0.0024969210957786659 -0.0077314159834236803 0.20531873128474254 -0.034197296917141747 0.068828899883578792 0.15523772575098671 -0.012063142767472411 0.073710709776862879 0.026200446794884924 -0.15693139838175199 -0.097494211329034269 0.071562967907435285 0.073546984367149779 -0.093765879063482355 -0.055089825225177372 0.10396424700441612 -0.038406865549625378 -0.071600499611518084 0.1283622362109772 -0.23418271208820746 0.021679845086868269 0.05838196441238043 0.053908762248494259 0.1807718309741185 -0.13357813195647047 0.048017008845013642 -0.094428673482139125 -0.017978368090760068 0.16470518244337387 0.051807533822972596 -0.18539200213472351 0.056191716987888475 0.079354713653823516 -0.036185697260080953 0.083421707820874214 0.143188708611381 -0.16761020496418677 0.12349544394274421 -0.052027584902570562 0.048770086285145717 -0.16483238943820036 -0.23236969969071108 -0.13633964536331117
leaf_weight=1677.7612140942365 10.777405574917791 312.69223792850971 226.14268560707569 1605.0057089626789 5582.8687296658754 5539.1424857750535 491.7295121923089 5256.9314257092774 48106.329127576202 11419.911153182387 1803.6464648917317 573.73080679774284 3138.7102160975337 2128.9561747908592 1349.3880604058504 1666.0749519169331 1894.4593186825514 2313.5338194910437 197.6570933163166 525.33026280999184 2316.8301806896925 657.8810571283102 259.56459373235703 1558.0758734494448 45.834248706698418 55.68914033472538 214.81524752080441 3124.9411151185632 579.34121216833591 17.765644624829292 358.13011752068996 1599.7117580957711 40.562123075127602 65.555139198899269 162.24039907753468 22.92017374932766 1185.7571646571159 209.44004416465759 756.04382358491421 46.949297077953815 21.364415019750595 1368.0599652528763 608.50295696221292 435.22757050022483 18.84836558252573 3.981524113565686 16.268172413110733 35.955285429954529 18.958803310990334 83.114203616976738 479.79988009482622 229.23001676797867 23.473942205309868 845.07850245013833 20.333882533013821 31.337378337979317 21.772198252379894 7.3355889469385138 7.1793510317802456
leaf_count=12044 25 1238 673 3644 12931 15060 905 16316 110295 26763 2948 2120 4847 6468 2749 2687 4789 8559 111 1326 3465 458 900 1936 80 221 760 5314 1092 53 1083 1480 119 850 123 94 2602 403 1571 36 164 2690 3287 1287 30 11 73 65 26 254 535 145 99 549 58 42 124 30 37
internal_value=0 0.0294163 0.0428072 0.0212557 0.0269891 0.00776716 0.0275741 0.0305075 0.0277292 0.01037 0.0335295 0.016389 0.0624002 0.0319243 0.00886799 0.0564415 -0.0147835 -0.0334365 0.0511874 0.0737863 0.0497861 0.0917532 0.0530907 0.0440032 -0.0180043 0.0592048 0.0214297 0.0481061 0.0153119 0.0917688 -0.0534886 0.0685339 0.163819 0.0970529 -0.00163594 0.0834845 0.0512254 -0.0132174 0.0823705 -0.0586919 0.0824621 0.0366705 -0.0698002 -0.0337411 0.0993216 0.0668376 0.104781 -0.0754588 -0.042908 -0.111236 0.0770952 0.123695 -0.131086 0.117888 0.0522303 0.120824 -0.13134 -0.174205 -0.160286
internal_weight=0 105555 16196.5 7712.8 89358.6 13825.7 7360.65 75532.8 66586.8 16676.8 49910 6112.87 8483.72 6749.42 3478.34 3271.08 6465.1 3991.3 8946.03 6638.75 2842.16 3796.59 7819.53 6331.85 1246.67 5085.18 1844.97 8707.81 2473.8 1487.68 963.377 4409.1 238.219 1665.27 676.077 185.161 2743.83 567.57 1247.77 936.381 68.3137 1594.2 868.068 490.917 1438.92 523.319 310.291 250.771 35.227 395.806 497.566 275.064 48.7663 915.598 39.1822 876.416 25.7537 37.9889 30.6533
internal_count=268644 253747 32810 18526 220937 46140 19656 174797 156322 43079 113243 17180 14284 15548 9217 6331 26484 20603 18475 10096 4791 5305 14897 13304 4711 8593 4188 18245 5881 1593 2978 6868 230 2330 1725 217 4538 1486 2476 4387 200 3363 4187 1508 1402 723 324 825 99 1492 588 225 191 679 88 591 135 166 136
is_linear=0
shrinkage=0.1


Tree=17
num_leaves=63
num_cat=0
split_feature=70 103 135 103 3 106 29 72 29 27 71 135 40 97 70 26 101 19 129 31 103 28 19 71 103 104 108 37 106 35 68 109 114 3 32 32 71 54 121 135 131 104 115 62 11 70 40 62 109 29 19 38 112 81 104 29 108 125 19 25 110 56
split_gain=376.438 1037.94 582.25 379.667 400.326 417.115 410.944 412.069 363.877 354.982 664.923 338.892 333.882 302.005 276.796 465.331 347.627 283.197 262.441 255.992 248.596 209.712 412.705 189.737 182.715 179.416 170.606 169.745 166.058 162.677 145.977 142.31 141.594 157.686 131.155 123.328 111.822 110.176 107.677 100.34 97.9569 78.5178 70.3223 66.5105 65.9784 62.703 66.0614 52.6979 92.6967 45.6564 33.3669 30.8528 26.3868 25.7687 24.9483 51.4093 22.8987 18.7526 15.8629 14.5577 1.35086 0.0757313
threshold=-0.2252109348773956 -0.78988558053970326 1.0000000180025095e-35 -0.96896538138389576 0.69696533679962169 -0.9786553382873534 1.2168319225311282 -0.76763871312141407 1.0837679505348208 1.1684734821319582 -0.42259573936462397 1.0000000180025095e-35 1.0141544938087466 -0.93036338686943043 -0.20035998523235318 1.1781269907951357 -0.78899616003036488 1.1314473748207095 1.0000000180025095e-35 0.99671003222465526 -0.61835050582885731 1.1100708842277529 1.1153874397277834 -0.37046039104461664 -0.77308914065361012 -0.79417985677719105 -0.95872306823730458 0.93005910515785228 -0.79992482066154469 0.91255810856819164 0.063654538244009032 -0.84956389665603627 -0.92961290478706349 0.72748419642448436 0.96304702758789074 0.94156688451766979 -0.19105500727891919 1.0680610537528994 -1.876070976257324 1.0000000180025095e-35 1.0000000180025095e-35 -0.81812146306037892 -0.96029502153396595 0.61119621992111217 0.67992225289344799 -0.3045931458473205 1.015376150608063 0.58336272835731517 -0.97219416499137867 1.0850322842597964 1.14378297328949 0.97472837567329418 -0.93037715554237355 -0.74271941184997547 -0.82920673489570607 1.0931165814399721 -1.0127189755439756 -1.990600526332855 1.1733677983283999 1.2530232071876528 -0.91616395115852345 0.94584670662879955
decision_type=2 2 2 2 2 2 2 2 2 2 2 2 2 2 2 2 2 2 2 2 2 2 2 2 2 2 2 2 2 2 2 2 2 2 2 2 2 2 2 2 2 2 2 2 2 2 2 2 2 2 2 2 2 2 2 2 2 2 2 2 2 2
left_child=1 3 9 32 5 35 19 -8 14 13 31 -7 -12 30 15 16 44 24 -19 -6 21 22 -16 -15 -17 29 45 -18 -23 54 -3 -11 33 42 37 -5 56 -31 -38 52 -35 -36 -1 58 -2 53 -47 57 -49 50 -45 -51 -34 -4 55 -10 -22 -28 61 -56 -41 -27
right_child=8 2 26 4 6 11 7 -9 25 10 12 -13 -14 23 20 17 27 18 -20 -21 36 28 -24 -25 -26 43 47 -29 -30 34 -32 -33 39 40 41 -37 38 -39 -40 60 -42 -43 -44 49 -46 46 -48 48 -50 51 -52 -53 -54 -55 59 -57 -58 -59 -60 -61 -62 -63
leaf_value=0.078255953187337524 0.090949686517152045 -0.13466482002188074 -0.17582411379805907 -0.051850642667915142 -0.073571218238513966 0.025700721302009663 0.0093231142082155615 0.20145221245781608 -0.10881356624795982 -0.092215204639168907 0.093465612887974517 0.043261165613620089 -0.0036233212324131032 -0.10879745511551245 0.04150408378656089 0.076244304345714761 0.018878401270652791 0.019610527996476262 -0.07150969871318695 0.038461769323090512 -0.11901220550387291 0.052187531201353436 -0.04218129556111707 0.0092473783593647173 0.011035690549028469 -0.14275693805130471 0.19342346226172172 -0.1087485794792059 0.10879448301318405 -0.03818454335784835 0.10890037379782953 -0.004688945643525835 0.20789205515445888 -0.0868960066192455 0.019202444181739869 0.049059899937980739 -0.10558443531293982 0.069370046660149884 0.078104749238151222 0.17004375923293893 0.13099983245743249 0.075869685679187948 -0.013543020505419662 0.10352137233179953 -0.047450734499268316 0.11554724791566758 -0.011580504241514987 -0.010920396192873846 0.15676562741563724 0.15298099691935835 0.022326487277776249 0.1090673652737315 -0.12923287572193937 0.07722048729608641 0.114212317569824 0.12909101496234485 -0.051133551714169348 0.10932931423384243 0.067261750594222361 0.1796172700114643 0.18795442018145025 -0.15895685467380205
leaf_weight=1383.6271354146302 164.87622857093811 31.108152395114303 22.087834239006046 832.7953938767314 1042.6217736434191 65382.569037685171 1788.5346727371216 119.06204859912395 11.421207264065741 864.7243260294199 517.90164621174335 13210.250358037651 1120.6168781295419 1026.4432324580848 13107.31861053966 1338.6050233021379 127.73478113673627 1653.3789462447166 390.7934907823801 253.55457307398319 117.8432021997869 1685.4363479688764 617.04735048115253 156.98741937428713 632.84795950353146 7.4062782078981417 112.2493135035038 565.85071186721325 748.31107874214649 290.5377683788538 117.73810681700706 236.58645867556334 2.7689592838287362 102.28251356631517 332.14790856838226 141.72288528084755 45.600607546046376 141.69043602049351 106.30970087647438 82.649448737502098 25.845122814178467 926.75323230028152 88.80417849496007 126.52159674465656 43.541556862182915 63.562620714306831 114.52410596609116 56.370113343000412 79.402257725596428 242.50342519581318 84.358863562345505 470.21279501914978 14.373183699324727 4.9209613204002371 50.413611903786659 44.37007300555706 85.944573491811752 34.719357758760452 4.7035004049539557 104.71920077502728 85.852252796292305 4.7277571558952332
leaf_count=1972 197 531 94 3279 6893 156389 5038 152 39 3665 903 25254 3024 5133 27101 2012 334 3924 1177 540 1544 2951 1796 492 1471 36 51 2195 905 949 173 791 1 532 669 303 1002 209 211 35 27 1424 219 150 314 81 291 129 50 197 183 567 346 13 58 53 425 40 10 47 32 21
internal_value=0 0.0249288 -0.0215442 0.027435 0.0264506 0.0278461 -0.00820744 0.0213148 0.0389759 -0.0339123 -0.0133236 0.0286524 0.0270645 -0.076253 0.0345169 0.0136912 -0.0512134 0.0282703 0.00219067 -0.0516556 0.0407186 0.042539 0.0377416 -0.0931383 0.055312 0.0725948 0.0816956 -0.085244 0.0695926 0.0549289 0.0579964 -0.0734126 0.0730492 0.0634604 0.0446007 -0.0371754 -0.0419762 -0.00292665 0.0229647 0.15572 -0.0429434 0.0609186 0.0727194 0.108324 0.0620358 0.0122609 0.0337939 0.132062 0.0871456 0.111915 0.0710408 0.124009 -0.0747773 -0.12972 0.137738 0.0803888 -0.0903854 0.173557 -0.0886378 0.158363 0.179169 -0.149069
internal_weight=0 89117.3 4559.94 84557.3 82771.1 79567.3 3203.77 1907.6 24273.9 4072.11 2739.83 78592.8 1638.52 1332.28 21431.4 4917.63 902.003 4015.63 2044.17 1296.18 16513.8 16158.1 13724.4 1183.43 1971.45 2842.49 487.837 693.585 2433.75 1902.05 148.846 1101.31 1786.2 1600.56 1691.13 974.518 355.698 432.228 151.91 185.644 128.128 1258.9 1472.43 940.434 208.418 205.096 178.087 282.741 135.772 923.597 210.88 712.716 17.1421 27.0088 210.924 55.7913 203.788 146.969 16.8375 155.133 168.502 12.134
internal_count=268644 216473 15461 201012 197848 185225 12623 5190 52171 14712 8383 181643 3927 6329 47559 11624 3040 8584 5101 7433 35935 32753 28897 5625 3483 4612 749 2529 3856 3448 704 4456 3164 2750 3251 3582 3182 1158 1213 414 559 2093 2191 1164 511 479 372 270 179 1097 333 764 347 107 197 92 1969 91 67 105 67 57
is_linear=0
shrinkage=0.1


Tree=18
num_leaves=63
num_cat=0
split_feature=53 30 54 30 134 74 103 72 129 31 26 71 30 53 91 75 71 39 100 68 7 73 92 72 107 121 21 27 122 70 101 103 95 28 105 55 42 33 0 101 74 119 42 103 69 60 131 70 4 116 97 34 31 97 70 131 30 88 103 31 75 104
split_gain=356.512 632.773 370.206 599.47 464.519 641.042 396.725 381.892 359.247 321.741 416.241 324.954 311.555 364.231 330.826 356.133 307.23 388.128 330.392 294.686 330.049 389.883 291.948 287.234 281.14 275.795 260.111 405.333 261.519 252.232 316.087 252.691 232.491 221.285 205.178 204.023 203.204 191.251 189.592 177.067 157.064 158.326 155.727 154.52 154.057 298.116 196.985 153.866 136.156 133.749 120.136 117.121 101.959 98.5985 90.5666 68.391 55.2193 41.5668 35.4101 28.3586 16.4875 9.53197
threshold=1.0584660768508913 1.059626638889313 1.0008785724639895 1.0673486590385439 1.0000000180025095e-35 -0.94058293104171742 -0.84027609229087818 -0.62328889966011036 1.0000000180025095e-35 1.0016748309135439 1.281130909919739 -0.43195426464080805 1.0530520081520083 1.0749053955078127 -1.1415687203407285 -1.0826707482337949 -0.42637494206428522 0.99203112721443187 -0.85444331169128407 -0.020955847576260563 0.61347332596778881 -0.77645277976989735 -1.0335835218429563 -0.67771980166435231 -0.88335195183753956 -1.1211736798286436 1.2810610532760622 1.2214786410331728 -1.2154814004898069 -0.32976210117340082 -0.91588509082794178 -0.84467759728431691 -0.94277751445770253 1.1336145997047427 -0.8264002501964568 0.98689526319503795 1.0311703085899355 0.86540132761001598 0.40927332639694219 -0.85311302542686451 -0.96765795350074757 -0.97914803028106678 1.0080873370170595 -0.8543928563594817 -0.11934543773531912 0.73430529236793529 1.0000000180025095e-35 -0.31306955218315119 0.56056469678878795 -0.98493388295173634 -0.95069026947021473 0.91589492559432995 1.0035210251808169 -0.96817630529403675 -0.36415697634220118 1.0000000180025095e-35 1.0358738899230959 -1.1714275479316709 -0.85580205917358387 1.0052505731582644 -1.1091607213020322 -0.85086110234260548
decision_type=2 2 2 2 2 2 2 2 2 2 2 2 2 2 2 2 2 2 2 2 2 2 2 2 2 2 2 2 2 2 2 2 2 2 2 2 2 2 2 2 2 2 2 2 2 2 2 2 2 2 2 2 2 2 2 2 2 2 2 2 2 2
left_child=1 9 3 7 26 42 8 37 -5 10 11 24 13 16 40 25 18 34 51 43 38 -22 -17 48 -1 -16 28 -28 -4 30 -12 -31 -19 -13 -18 -20 47 -3 -21 -9 41 -15 -6 59 45 -38 -46 54 49 55 -8 -2 -7 60 -25 -14 -42 -55 -49 -11 -50 -45
right_child=12 2 4 6 5 52 50 39 -10 19 29 33 23 14 15 22 17 32 35 20 21 -23 -24 36 -26 -27 27 -29 -30 31 -32 -33 -34 -35 -36 -37 44 -39 -40 -41 56 -43 -44 61 46 -47 -48 58 53 -51 -52 -53 -54 57 -56 -57 -58 -59 -60 -61 -62 -63
leaf_value=-0.081663974878581569 0.015540504629309124 0.015091030875578587 -0.021096993023893191 0.0306059896107038 0.15536207325535203 0.010269007012450931 0.073232400358299699 -0.059519690293868471 -0.032034871990986209 -0.00078117639704551253 0.040200113867242926 -0.03527668446359792 -0.071637486500085751 -0.077074513491815766 -0.13388262121668057 0.052014379445929765 0.03436028701957658 0.033020016601853747 0.069141614933925011 -0.010113584930145338 0.024459197370904257 0.097209468141063529 0.026628946763226524 -0.074246873371671004 -0.022983280009337779 -0.0022912206861995222 -0.10287122315301406 0.02789335643437936 0.080454645947523731 0.0092559007457139585 -0.021427880818462464 0.099516824224460315 -0.014402313839626625 0.027037165049319523 0.10353800049609992 -0.041404717286187609 0.054556696518493458 -0.032322809112724615 -0.18831491843883297 0.070458166920701656 0.071975346375843671 0.048040130602128535 0.089493822317060295 -0.064769593606405759 0.074874621083489371 -0.0038823589687872364 -0.051494770499164566 0.066749284974424991 -0.18514784697572931 -0.16767336057959825 -0.1035759201097497 0.094624226985634455 -0.11174075636792512 0.039625889444663914 0.071037394329814832 0.065603849569131706 0.11163864588352251 0.16515708119566208 0.14621867202520461 0.20462555723486495 0.016285434890922375 -0.16017976664107839
leaf_weight=1068.2001697979867 966.72267770767212 1130.6750623732805 300.16471993923187 27161.934057503939 509.76834270358086 127.45088371634483 44.208633586764336 122.13274556398392 947.4761876091361 12.529012411832811 1409.3882700558752 833.24962166603655 94.279335051774979 108.01797911524773 206.43707951903343 5570.415587618947 987.88979722559452 1972.7210575640202 180.26269519329071 1158.1769447177649 3621.9171312376857 924.73668107390404 24265.348707506433 47.18935427069664 3464.3738394705579 697.06074909865856 246.65935017168522 6081.6398546248674 1634.2847013771534 594.28810173273087 2032.3402023613453 648.75145892053843 2172.1094155982137 1802.9866271317005 757.49916712939739 2260.9101719558239 2688.0058413743973 3436.0884795039892 62.948208838701248 738.89956338703632 1330.6503415107727 1589.2148236036301 1213.057161167264 11.424162998795508 2221.582590252161 1292.7512102872133 130.6046706289053 64.508523836731911 18.370951101183895 99.469845995306969 293.98444436490536 232.25757238268852 148.05610102415085 75.091321170330048 472.84424406290054 59.053923979401588 476.76916237175465 40.66170035302639 428.60070621967316 14.500109449028967 5.2174693644046775 125.51776111871004
leaf_count=4705 2268 3420 793 59505 287 276 81 431 2567 32 4859 4016 285 351 762 9079 2404 4129 377 2970 8387 1434 55372 161 15486 1666 878 13014 2594 1861 8451 1393 6452 5070 1044 7259 4781 10865 258 1430 1752 2544 1477 40 3022 3031 355 101 75 435 1049 325 523 156 797 97 475 33 330 10 11 553
