tree
version=v4
num_class=1
num_tree_per_iteration=1
label_index=0
max_feature_idx=136
objective=binary sigmoid:1
feature_names=Column_0 Column_1 Column_2 Column_3 Column_4 Column_5 Column_6 Column_7 Column_8 Column_9 Column_10 Column_11 Column_12 Column_13 Column_14 Column_15 Column_16 Column_17 Column_18 Column_19 Column_20 Column_21 Column_22 Column_23 Column_24 Column_25 Column_26 Column_27 Column_28 Column_29 Column_30 Column_31 Column_32 Column_33 Column_34 Column_35 Column_36 Column_37 Column_38 Column_39 Column_40 Column_41 Column_42 Column_43 Column_44 Column_45 Column_46 Column_47 Column_48 Column_49 Column_50 Column_51 Column_52 Column_53 Column_54 Column_55 Column_56 Column_57 Column_58 Column_59 Column_60 Column_61 Column_62 Column_63 Column_64 Column_65 Column_66 Column_67 Column_68 Column_69 Column_70 Column_71 Column_72 Column_73 Column_74 Column_75 Column_76 Column_77 Column_78 Column_79 Column_80 Column_81 Column_82 Column_83 Column_84 Column_85 Column_86 Column_87 Column_88 Column_89 Column_90 Column_91 Column_92 Column_93 Column_94 Column_95 Column_96 Column_97 Column_98 Column_99 Column_100 Column_101 Column_102 Column_103 Column_104 Column_105 Column_106 Column_107 Column_108 Column_109 Column_110 Column_111 Column_112 Column_113 Column_114 Column_115 Column_116 Column_117 Column_118 Column_119 Column_120 Column_121 Column_122 Column_123 Column_124 Column_125 Column_126 Column_127 Column_128 Column_129 Column_130 Column_131 Column_132 Column_133 Column_134 Column_135 Column_136
feature_infos=[-1.8014661073684692:2.1475074291229248] [-1.7160434722900391:2.0597634315490723] [-1.6382262706756592:1.9801409244537354] [-1.5680137872695923:1.9086390733718872] [-1.5054070949554443:1.8452587127685547] [-1.4504051208496094:1.7899996042251587] [-1.4123568534851074:1.7937201261520386] [-1.3844102621078491:1.9274762868881226] [-1.3517893552780151:1.9831451177597046] [-1.3099035024642944:2.0064544677734375] [-1.2559221982955933:2.0118343830108643] [-1.1870334148406982:2.073509693145752] [-1.1039742231369019:2.1457490921020508] [-1.0067610740661621:2.2142360210418701] [-0.90047705173492432:2.2525746822357178] [-0.78966546058654785:2.3293297290802002] [-0.67814630270004272:2.4095718860626221] [-0.65591526031494141:2.4998569488525391] [-0.65817779302597046:2.5653238296508789] [-0.66439425945281982:2.5221147537231445] [-0.66444909572601318:2.4413206577301025] [-0.67377018928527832:2.3840618133544922] [-0.78228282928466797:2.2409591674804688] [-0.7797551155090332:2.1797337532043457] [-1.0841877460479736:2.1614029407501221] [-1.4308524131774902:2.0620582103729248] [-1.6366665363311768:1.9191513061523438] [-1.8254417181015015:1.7314887046813965] [-1.9454965591430664:1.5598906278610229] [-2.2033448219299316:1.3462176322937012] [-2.6534385681152344:1.1459542512893677] [-2.9375624656677246:1.0691677331924438] [-2.8855924606323242:1.0156075954437256] [-2.1581358909606934:0.99270999431610107] [-1.5155016183853149:0.99480384588241577] [-0.8696785569190979:1.096311092376709] [-0.66342759132385254:1.2523990869522095] [-0.67050886154174805:1.4357191324234009] [-0.67336314916610718:1.5244829654693604] [-0.67729061841964722:1.427788257598877] [-0.67391806840896606:1.3506048917770386] [-0.67598330974578857:1.3033223152160645] [-0.67422336339950562:1.4334096908569336] [-0.67822211980819702:1.6771683692932129] [-0.67593681812286377:1.8418123722076416] [-0.67998087406158447:1.9795904159545898] [-0.67735743522644043:1.8671952486038208] [-0.68056988716125488:1.7601110935211182] [-0.67851173877716064:1.7336448431015015] [-0.68057990074157715:1.7715651988983154] [-0.67672491073608398:1.7863956689834595] [-0.68167710304260254:2.1010029315948486] [-0.68784564733505249:2.2836933135986328] [-0.69532120227813721:2.324758768081665] [-0.68557995557785034:2.0119130611419678] [-0.66425126791000366:1.7058380842208862] [-0.62698209285736084:1.5109990835189819] [-0.6819922924041748:1.3603483438491821] [-0.85317844152450562:1.3460699319839478] [-0.73171019554138184:1.3262704610824585] [-0.58480948209762573:1.3006186485290527] [-0.6056399941444397:1.4134206771850586] [-0.63139909505844116:1.6471337080001831] [-0.66095739603042603:1.5433529615402222] [-0.78019368648529053:1.1385354995727539] [-0.95433753728866577:1.0728911161422729] [-1.2174979448318481:0.99044626951217651] [-1.6538451910018921:0.88485002517700195] [-1.8910553455352783:0.75389385223388672] [-2.0949718952178955:0.60495084524154663] [-1.9126988649368286:0.45876148343086243] [-1.723555326461792:0.33052113652229309] [-1.5349674224853516:0.23037496209144592] [-1.4212013483047485:0.15855956077575684] [-1.4517455101013184:0.30397361516952515] [-1.6804615259170532:0.84510332345962524] [-1.8599822521209717:1.3364263772964478] [-2.0371255874633789:1.0853415727615356] [-2.1728529930114746:1.0076425075531006] [-2.2573421001434326:0.66064220666885376] [-2.3058340549468994:0.36351838707923889] [-2.3315773010253906:0.28676301240921021] [-2.3403120040893555:0.33890664577484131] [-2.3343968391418457:0.39074629545211792] [-2.3124566078186035:0.43792322278022766] [-2.2730567455291748:0.47703936696052551] [-2.2140905857086182:0.50853937864303589] [-2.1362462043762207:0.53271615505218506] [-2.0426793098449707:0.59374678134918213] [-1.9374580383300781:0.56802195310592651] [-1.8240519762039185:0.65018975734710693] [-1.8478662967681885:1.0688302516937256] [-1.6500253677368164:1.4168777465820312] [-1.5946441888809204:1.6290324926376343] [-1.530011773109436:1.6652539968490601] [-1.4777601957321167:1.6182962656021118] [-1.4385807514190674:1.5608183145523071] [-1.4202985763549805:1.5597559213638306] [-1.4104764461517334:1.5645072460174561] [-1.5819015502929688:1.5648646354675293] [-2.0638625621795654:1.5687597990036011] [-2.4619696140289307:1.5653641223907471] [-2.648137092590332:1.569068431854248] [-2.4631106853485107:1.5659784078598022] [-2.0341367721557617:1.5655828714370728] [-1.4475361108779907:1.5610309839248657] [-1.1201972961425781:1.5632989406585693] [-1.1155441999435425:1.561995267868042] [-1.1656886339187622:1.5723429918289185] [-1.2142764329910278:1.5757462978363037] [-1.369315505027771:1.5827798843383789] [-1.5990560054779053:1.5861003398895264] [-2.1418814659118652:1.5904537439346313] [-2.4733853340148926:1.5879726409912109] [-2.5047738552093506:1.5883719921112061] [-2.0072333812713623:1.5807591676712036] [-1.6131480932235718:1.5804105997085571] [-1.6321159601211548:1.7016431093215942] [-1.6864286661148071:2.5795986652374268] [-1.7459897994995117:2.8008601665496826] [-1.820858359336853:2.5472877025604248] [-1.9280952215194702:1.7180403470993042] [-2.15055251121521:1.5763181447982788] [-2.3790585994720459:1.5743108987808228] [-2.6580204963684082:1.8138364553451538] [-2.9761693477630615:2.1645474433898926] [-3.3342947959899902:3.0688047409057617] [-3.8531808853149414:4.2020993232727051] [0:1] [0:1] [0:1] [0:1] [0:1] [0:1] [0:1] [0:1] [0:1]
tree_sizes=5024 4920 4494 4421 4210 4322 4330 5375 6866 6876 5896 6575 6948 6764 6855 6910 6960 6945 6934 6919 6615 6994 6673 6212 6774 6614 6449 6809 5959 5579 6936 5260 5274 6928 6105 5645 6953 6126 5447 6827 6969 6968 6559 5851 6324 6267 6733 5548 6656 6588 5267 5535 6608 6504 4413 6962 6703 6928 5789 6721 6817 5700 5145 5778 6828 6938 4612 5743 6552 5529 6722 6238 6624 4587 6482 5168 6353 5159 5268 4926 6837 6815 6055 6685 6915 6819 6362 6922 5575 6207 6080 6614 4825 6613 6679 6656 6702 6129 5663 5389 5488 5883 6680 6421 6603 6373 6823 5536 6966 6576 6353 5536 6959 6358 6274 4924 5950 6951 6945 5957 6528 5493 6411 5463 6404 6830 5482 4812 6603 6766 6499 3893 6815 6809 6420 6689 6761 6604 6509 3988 5654 5380 5674 6631 4630 6556 6226 6940 6479 5916 6822 6026 4247 5712 6478 6110 5134 4813 6884 5987 6934 6563 5657 6604 6574 6492 6705 6591 4217 6892 6612 6486 6598 6802 6611 5164 6481 6923 6951 6899 6897 6774 5274 6466 6848 6493 6007 6341 6721 6685 6666 4297 5033 6580 5811 6361 6383 6023 6136 6725

Tree=0
num_leaves=46
num_cat=0
split_feature=45 53 121 31 135 131 53 52 91 134 3 106 93 118 53 136 102 100 134 68 122 54 31 73 121 71 33 114 115 110 33 6 104 107 62 114 109 122 116 3 14 17 17 21 57
split_gain=19581.1 14875.5 13875.4 11133.1 13026.4 6292.13 7824.38 5573.39 6330.51 6190.86 5118.79 3588.13 3577.27 2965.26 2470.46 4964.74 3539.04 3371.11 2408.76 1462.87 1379.5 1319.2 1273.49 1164.73 624.634 971.668 633.769 507.453 298.755 282.548 134.084 128.174 189.553 220.582 182.21 8.11681 72.3185 4.11781 45.6368 5.68434e-14 5.68434e-14 7.10543e-15 7.10543e-15 3.55271e-15 3.55271e-15
threshold=0.74028012156486522 1.0847467184066775 -1.858133018016815 0.99972388148307811 1.0000000180025095e-35 1.0000000180025095e-35 1.0499848723411562 1.1490241885185244 -0.98315724730491627 1.0000000180025095e-35 0.65946179628372203 -0.9189639389514922 -0.28207613527774805 -0.91856580972671498 1.0520117282867434 1.0000000180025095e-35 -0.85258218646049488 -0.82222238183021534 1.0000000180025095e-35 -0.061286637559533112 -1.305031359195709 1.0082539916038515 0.99613484740257274 -0.87589412927627552 -1.8760510087013242 -0.19111853837966916 0.83683413267135631 -0.92683839797973622 -1.1362703442573545 -1.2181274890899656 0.93031638860702526 0.8254801630973817 -0.92634430527687062 -0.89338612556457508 0.1253219544887543 -0.91910350322723378 -0.88676625490188588 -2.0655332803726192 -1.5071268677711485 -0.035633485764265053 1.3799705505371096 1.6646141409873965 1.4525140523910525 1.7118028402328493 0.5447269380092622
decision_type=2 2 2 2 2 2 2 2 2 2 2 2 2 2 2 2 2 2 2 2 2 2 2 2 2 2 2 2 2 2 2 2 2 2 2 2 2 2 2 2 2 2 2 2 2
left_child=27 3 24 4 5 6 -2 8 22 12 11 -6 -9 -12 15 16 -5 23 -10 -7 -19 -17 -4 -16 37 29 -27 28 -1 -26 -11 44 34 -34 -33 36 -29 39 -39 -3 -37 42 -42 -43 -30
right_child=1 2 7 14 10 19 -8 9 18 30 13 -13 -14 -15 17 21 -18 20 -20 -21 -22 -23 -24 -25 25 26 -28 35 31 -31 -32 32 33 -35 -36 40 -38 38 -40 -41 41 43 -44 -45 -46
leaf_value=-1.3766613148608788 -2.1116560726964817 -2.5152236972958724 -1.7318923628702481 -1.7577016565798322 -1.9541910144389008 -1.6800224735190961 -1.9320762572556152 -1.5583118143309438 -1.8612336362210842 -2.5152236972958724 -2.0117022294430194 -1.642303176263995 -2.1909694363660495 -1.7107170641017728 -2.5152236972958724 -2.1601462269866794 -1.8986988559929361 -2.0418720559847237 -2.1855827989905041 -1.9420803186548452 -1.811823386332958 -1.9324223912456779 -1.6105036690610237 -1.6995104231992832 -2.0553187751324797 -1.6339934478264668 -2.5152236972958724 -2.5152236972958724 -2.5152236972958724 -2.4308611433434213 -1.882046487212953 -2.4115946194373992 -2.3349192590692427 -1.5371482530062845 -1.8301268282519159 -2.5152236972958724 -1.7875039596980984 -2.5152236972958724 -2.059618047290706 -2.5152236972958724 -2.5152236972958724 -2.5152236972958724 -2.5152236972958724 -2.5152236972958724 -2.5152236972958724
leaf_weight=3.8967814520001403 5095.6113952547312 125.09503393620253 2414.2474030181766 4108.613436371088 452.74140003323555 682.61352019757032 4631.5193304717541 2765.6765065789223 2187.8696859776974 73.661175228655338 1185.1332230642438 1991.1188421696424 92.359369888901711 452.21722785383463 17.599786460399628 546.66065882891417 3141.2069393321872 449.90438937395811 255.72629833221436 309.64180616289377 619.71624867618084 475.79774699360132 1346.1424644142389 3233.5323449969292 24.117641277611256 35.242890760302544 10.620560795068739 13.123978696763514 15.172229707241058 118.33022204041481 3.5035442709922782 32.110162988305092 6.1517187505960464 7.9383194819092733 6.4760605022311202 370.65757174789906 1.5241886898875225 22.682483412325386 2.4345224723219863 7.4343925565481177 3.4896128326654461 6.9792256653308877 27.461735770106316 12.8963952511549 1.8206675648689277
leaf_count=11 48460 1649 14618 25842 3657 3811 36479 12378 15822 971 10193 10433 945 2651 232 5440 23787 3993 2604 2467 4203 3749 6664 18626 217 182 140 173 200 1469 26 393 71 34 45 4886 10 299 22 98 46 92 362 170 24
internal_value=-2.40621 -1.84762 -1.73969 -1.88499 -1.94379 -2.00168 -2.02615 -1.71615 -1.76987 -1.60262 -1.79175 -1.70008 -1.57876 -1.92857 -1.81588 -1.84789 -1.81879 -1.75459 -1.89518 -1.7618 -1.90859 -2.05418 -1.68844 -1.70393 -2.36133 -2.23839 -1.83806 -2.4717 -2.22875 -2.36728 -2.48648 -2.27641 -2.19937 -1.88546 -2.314 -2.51268 -2.4395 -2.50819 -2.47106 -2.51522 -2.51522 -2.51522 -2.51522 -2.51522 -2.51522
internal_weight=0 36878.8 9485.14 27393.6 14800.6 10719.4 9727.13 9139.19 6203.99 2935.2 4081.21 2443.86 2858.04 1637.35 12593 8272.28 7249.82 4320.75 2443.6 992.255 1069.62 1022.46 3760.39 3251.13 345.958 188.311 45.8635 509.699 73.5659 142.448 77.1647 69.6692 52.6763 14.09 38.5862 436.133 14.6482 157.646 25.117 132.529 421.485 50.827 30.9513 19.8756 16.9929
internal_count=268644 262127 58104 204023 118151 91217 84939 54028 39708 14320 26934 14090 13323 12844 85872 58818 49629 27054 18426 6278 8196 9189 21282 18858 4076 2008 322 6517 778 1686 997 767 543 105 438 5739 183 2068 321 1747 5556 670 408 262 224
is_linear=0
shrinkage=1


Tree=1
num_leaves=45
num_cat=0
split_feature=45 82 53 30 132 92 39 109 53 108 71 29 131 75 90 121 114 72 83 75 51 115 99 102 8 30 35 59 26 126 120 38 114 109 121 104 106 121 69 107 6 51 0 0
split_gain=6804.38 3271.86 3447.84 6428.44 2211.62 1831.81 2201.87 3210.18 1797.35 1597.67 1144.33 2083.63 1895.8 1012.33 1570.77 587.431 388.012 188.858 113.379 182.626 327.4 104.792 141.2 120.608 154.482 73.4185 66.9088 64.2215 56.5592 46.2123 32.2317 29.4991 7.89854 60.9813 0.0244763 0.00921442 0.00890003 0.0046863 0.00385529 0.00283094 0.00132563 0.000119476 5.68434e-14 1.77636e-15
threshold=0.74028012156486522 -0.2634309977293014 1.0669755935668948 1.052843511104584 1.0000000180025095e-35 -1.0337414741516111 1.0378968715667727 -1.0993069410324094 1.0256025195121767 -1.0550432205200193 -0.43184864521026606 1.0843586325645449 1.0000000180025095e-35 -1.0725201964378355 -1.1725856661796568 -1.1412708163261411 -0.92683839797973622 -0.62720769643783558 -0.20633078366518018 -0.42391315102577204 1.1860908865928652 -1.0469906926155088 -0.94378507137298573 -0.94692379236221302 0.91485980153083812 1.0481555461883547 0.6127813756465913 0.82597216963768016 0.96222546696662914 -1.5247294306755064 -1.7140497565269468 0.99726462364196788 -0.91910350322723378 -0.87474054098129261 -1.8760510087013242 -0.92634430527687062 -0.94147658348083485 -1.858133018016815 0.072884622961282744 -0.88546428084373463 0.8254801630973817 1.1860908865928652 0.49321633577346807 0.68563902378082286
decision_type=2 2 2 2 2 2 2 2 2 2 2 2 2 2 2 2 2 2 2 2 2 2 2 2 2 2 2 2 2 2 2 2 2 2 2 2 2 2 2 2 2 2 2 2
left_child=16 2 3 10 8 13 7 -7 -5 -8 12 -12 -2 14 -4 -15 21 -6 19 37 27 22 -1 26 40 -26 35 -21 -22 -24 31 34 33 39 -20 -23 -31 38 -3 43 -25 -39 -34 -18
right_child=1 18 5 4 17 6 9 -9 -10 -11 11 -13 -14 15 -16 -17 32 -19 30 20 28 23 29 24 25 -27 -28 -29 -30 36 -32 -33 42 -35 -36 -37 -38 41 -40 -41 -42 -43 -44 -45
leaf_value=0.55666556886325091 0.13863183550538191 -0.10882447133336866 0.39204150203717431 0.29679767682076458 0.004803738527862182 0.2065958367277351 0.49615883188880555 0.33115277369139529 0.34948836855680221 0.34643252368691646 0.12452064401172372 0.30324820473583353 0.32877921453678505 0.38611217641102102 0.24922057597069674 0.46309357312108923 -0.10808448752955609 0.32067082935698332 -0.10813395969350048 0.6178520315858882 0.36337382266555351 -0.10963580649379939 0.44477454566545538 -0.10808448752955609 -0.11760795308503119 0.40010706779848948 0.53303752924335923 -0.047586394852047763 0.71766260356547507 -0.10870342531148194 0.20782218084786558 0.16772810865895074 -0.10808448752955607 0.52411968690862454 -0.11112783626597703 -0.11717825426601181 -0.11692909453548235 -0.11203382632671971 -0.11351976832832111 -0.11302565012059856 -0.11110091526707154 -0.11118083200276241 -0.10808448752955607 -0.10808448752955604
leaf_weight=11.489047296345236 3142.625109732151 29.213555127382282 2280.1729397475719 15898.055638976395 246.56069865822792 2618.8582451269031 1095.5053353011608 9857.7535214722157 10921.130155906081 2039.3732025846839 916.04670164734125 2265.39675976336 629.34136488288641 2446.4532517641783 1162.7562810257077 1666.478340677917 3.5985608696937543 20.503040082752705 114.3771807551384 1.5127039104700077 13.870580323040487 28.119142293930057 1.9458771049976347 9.8960423916578257 3.1397229731082943 21.4727962911129 1.7105067372322071 35.169080145657063 6.6741157099604598 4.6314520463347426 3.4382430538535109 3.9579380303621283 89.410396993160248 1.7307782843708981 35.871427960693836 1.7187354564666772 1.8371358513832081 1.8928899765014637 1.8601135164499272 1.2905535846948613 1.7084373459219939 12.391811788082121 295.081991314888 7.8199495822191238
leaf_count=25 22346 393 8202 77437 2291 13975 1685 40246 47559 7005 6577 11286 2539 8185 5549 3912 52 132 1648 3 66 361 2 143 28 98 5 404 18 63 24 36 1292 4 432 16 17 20 20 14 20 137 4264 113
internal_value=0 0.312028 0.313637 0.293384 0.315403 0.343395 0.323833 0.305008 0.318254 0.398755 0.207614 0.251786 0.170357 0.383814 0.343808 0.417304 -0.0634967 0.0290535 -0.0417518 0.0400733 0.15886 0.126989 0.328724 0.0677373 0.192251 0.334064 -0.0752019 -0.0201447 0.478467 0.0174945 -0.0949982 -0.10175 -0.105358 -0.0327493 -0.108849 -0.11007 -0.11104 -0.109795 -0.109106 -0.108586 -0.108529 -0.111294 -0.108084 -0.108084
internal_weight=0 57467.2 57207 34039.7 27086.2 23167.4 15611.5 12476.6 26819.2 3134.88 6953.41 3181.44 3771.97 7555.86 3442.93 4112.93 486.601 267.064 260.23 102.585 57.2265 87.6689 19.9035 67.7654 36.217 24.6125 31.5484 36.6818 20.5447 8.41447 157.645 154.207 398.932 14.4398 150.249 29.8379 6.46859 45.3584 31.0737 12.7091 11.6045 14.2847 384.492 11.4185
internal_count=268644 262127 258926 170167 127419 88759 62911 54221 124996 8690 42748 17863 24885 25848 13751 12097 6517 2423 3201 1061 491 778 107 671 289 126 382 407 84 82 2140 2116 5739 183 2080 377 80 570 413 179 163 157 5556 165
is_linear=0
shrinkage=0.1


Tree=2
num_leaves=41
num_cat=0
split_feature=113 136 31 121 106 29 19 31 53 108 31 33 106 92 107 30 1 58 74 127 52 56 104 68 121 73 51 100 127 122 36 45 53 53 52 69 41 0 11 15
split_gain=3833.85 2230.46 3388.18 1844.22 1751.12 1605.76 1531.16 1451.46 1180.55 945.582 901.908 732.562 576.52 616.003 562.91 557.395 1117.79 508.565 427.02 384.466 324.62 207.511 162.751 214.891 159.201 388.27 182.334 40.8442 14.3262 3.18943 36.149 0.201721 0.0450008 0.0222702 0.00211269 0.00143893 0.00088009 5.68434e-14 1.42109e-14 8.88178e-16
threshold=-0.81349369883537281 1.0000000180025095e-35 0.9986347258090974 -1.8663898110389707 -0.94846421480178822 1.2354449629783633 1.2021617293357851 0.99478772282600414 1.1136055588722231 -1.0075739026069639 1.0031824111938479 0.90021595358848583 -0.90792250633239735 -1.0594662427902219 -0.93123084306716908 1.0659343600273135 0.55277889966964733 0.87437358498573314 -0.96462729573249806 -1.782858610153198 0.9049171805381776 0.85668838024139415 -0.91919046640396107 -0.12717589735984799 -1.8760510087013242 -0.35844813287258143 1.1793768405914309 -0.78231513500213612 -3.2021996974945064 -2.0655332803726192 0.89390569925308239 0.74028012156486522 1.0847467184066775 1.0674847364425661 1.1033613085746767 -0.15335687249898908 1.0019863247871401 1.0691988468170168 1.1533943414688113 1.1662570834159853
decision_type=2 2 2 2 2 2 2 2 2 2 2 2 2 2 2 2 2 2 2 2 2 2 2 2 2 2 2 2 2 2 2 2 2 2 2 2 2 2 2 2
left_child=1 3 9 24 7 8 10 11 -6 22 17 -5 21 -14 -7 18 -17 -4 -11 -12 -9 -8 23 -3 29 28 -27 -24 -26 32 -31 37 -1 35 -35 -33 -37 -2 39 -39
right_child=31 2 6 4 5 14 12 20 -10 15 19 -13 13 -15 -16 16 -18 -19 -20 -21 -22 -23 27 -25 25 26 -28 -29 -30 30 -32 33 -34 34 -36 36 -38 38 -40 -41
leaf_value=-0.11659228792686219 -0.10725624308628728 0.52523607759910884 0.11695035885337822 0.1117372813762714 0.23121360211454889 0.3523914474859845 0.0080229233339049171 0.49664611480569421 0.27182861719908152 -0.058557337806120872 0.27023285639825279 0.24167395452907536 0.16069536281194613 -0.0095816271863847658 -0.017562725821265321 0.26353557100213498 -0.034676108013547008 0.25456387325940782 0.054919213562042171 0.3674844086117745 0.24273003429308393 0.52918516181502961 0.46116920747849588 -0.0067253939895017328 -0.11115209586418906 -0.11313456493651047 0.3556552548705425 0.33069389468978738 0.035428643216484777 0.25487956853238675 -0.11033255370877643 -0.11776129436187084 -0.10755735075498757 -0.12140385357761692 -0.1250510207582628 -0.11388603384887196 -0.11633170482216462 -0.10725624308628728 -0.10725624308628728 -0.10725624308628723
leaf_weight=5.7952435165643683 267.94835418462753 10.363556720316408 476.62378612905741 2627.652133025229 50618.175242759287 47.052584946155548 8.976204462349413 52.091675847768784 8335.1169147640467 498.03924869000912 959.29601179808378 519.70842483639717 1541.9446930736303 246.40822251886129 326.66904413700104 297.7652040719986 217.50835934281349 615.15140272676945 992.4007223546505 705.43264053016901 1505.3936692401767 51.324982665479183 36.055213421583176 28.41351830214262 65.325706288218498 10.370607137680052 41.490228533744812 71.71198932826519 7.4256216436624518 3.0430821254849461 24.778299793601036 2.4876959696412078 113.10171041637659 2.7591592073440543 3.7426892146468163 3.5330175384879103 2.5215562582015991 1.7030615732073773 62.445591017603874 2.5861305370926857
leaf_count=48 4248 24 2164 16095 183822 168 67 80 19748 3893 2569 2076 8063 1440 2368 1430 1647 1679 5369 1336 5605 90 47 158 794 110 90 83 61 30 319 20 1747 19 25 33 21 27 990 41
internal_value=0 0.224143 0.169491 0.229887 0.230989 0.235646 0.217899 0.172265 0.236956 0.0659131 0.26512 0.133193 0.147488 0.137234 0.0290155 0.0479966 0.137654 0.194488 0.0170004 0.311443 0.251223 0.451607 0.311131 0.135447 -0.0302727 0.0528434 0.261911 0.374346 -0.0961908 -0.100866 -0.0703859 -0.107765 -0.107998 -0.119093 -0.123503 -0.115737 -0.114905 -0.107256 -0.107256 -0.107256
internal_weight=0 71060.6 6757.42 64303.2 64031.9 59327 4605.16 4704.85 58953.3 2152.26 2756.5 3147.36 1848.65 1788.35 373.722 2005.71 515.274 1091.78 1490.44 1664.73 1557.49 60.3012 146.544 38.7771 271.33 124.612 51.8608 107.767 72.7513 146.718 27.8214 349.727 118.897 15.0441 6.50185 8.54227 6.05457 334.683 66.7348 4.28919
internal_count=268644 263220 30059 233161 229962 206106 17408 23856 203570 12651 7748 18171 9660 9503 2536 12339 3077 3843 9262 3905 5685 157 312 182 3199 1055 200 130 855 2144 349 5424 1795 118 44 74 54 5306 1058 68
is_linear=0
shrinkage=0.1


Tree=3
num_leaves=40
num_cat=0
split_feature=113 136 31 108 39 72 100 135 132 33 108 37 134 70 38 106 50 108 31 102 72 55 47 30 72 70 104 75 124 0 5 70 45 53 52 65 41 0 14
split_gain=2527.22 1235.07 2068.43 1293.55 2366.09 1678.74 2660.42 1693.98 1306 1152.67 1040.49 1005.74 1136.66 1002.02 915.083 633.634 559.745 518.637 503.427 476.01 588.187 416.344 389.487 351.096 703.671 328.033 324.01 323.712 252.315 153.553 133.094 86.6258 0.14449 0.0156187 0.0014984 0.00103072 0.000624802 5.68434e-14 5.68434e-14
threshold=-0.81349369883537281 1.0000000180025095e-35 0.9986347258090974 -1.0209471583366392 1.0344383716583254 -0.56644016504287709 -0.80062901973724354 1.0000000180025095e-35 1.0000000180025095e-35 0.85052332282066356 -1.0534619092941282 0.97152316570281994 1.0000000180025095e-35 -0.27965800464153284 0.9785803258419038 -0.91625103354454029 1.1881675124168398 -1.0357841849327085 1.0044522881507876 -0.8401837646961211 -0.65370193123817433 0.98990836739540111 1.24914026260376 1.0659343600273135 -0.69129896163940419 -0.18549253791570661 -0.9217887520790099 -1.0833085179328916 -1.4115173220634458 0.42467352747917181 0.67898848652839672 -0.35862515866756434 0.74028012156486522 1.0674847364425661 1.1033613085746767 0.30118653178215032 1.0019863247871401 0.66164466738700878 0.97705724835395824
decision_type=2 2 2 2 2 2 2 2 2 2 2 2 2 2 2 2 2 2 2 2 2 2 2 2 2 2 2 2 2 2 2 2 2 2 2 2 2 2 2
left_child=1 3 15 4 9 6 8 -8 -5 17 16 12 -7 19 -11 26 -6 -1 21 20 -4 -15 -12 27 -25 -13 30 -17 -20 -21 -3 -28 37 35 -35 -34 -37 -2 -39
right_child=32 2 13 5 10 11 7 -9 -10 14 22 25 -14 18 -16 23 -18 -19 28 29 -22 -23 -24 24 -26 -27 31 -29 -30 -31 -32 -33 33 34 -36 36 -38 38 -40
leaf_value=-0.00117329559038807 -0.10651824961786778 -0.073707500905333248 0.066193322659632445 0.18523002513532807 0.084451509821011517 0.26630031274114391 0.069377876641120689 0.26723079827613677 0.04820066942374561 0.16520214653400722 -0.0073201830599552813 0.16040856732018843 0.074580874241912495 0.06406434702190178 0.08043606063346119 -0.061317516032433829 0.27891771173919205 0.10964695631258901 0.19994289907332871 0.053703010053780753 0.19665540752302615 0.18816714958941255 0.24194409316886928 0.0021897227790581768 0.2312310586080169 0.20987745613471251 -0.11783849945105472 0.042268412310789753 0.28024453449398939 -0.086309580776961048 0.19427733880063969 0.29595489757281607 -0.11580892943113241 -0.11895690277934584 -0.12215286853124073 -0.11238929857165941 -0.11454075566469082 -0.10651824961786778 -0.10651824961786778
leaf_weight=963.06885743513703 75.602959930896759 45.262219913303852 662.87757270038128 48320.714049410075 161.33443782478571 4623.0485901348293 3242.6960882246494 499.37700217962265 705.68875565007329 4313.8011939972639 217.66385279595852 2084.3977971374989 331.4092778339982 324.65687000006437 1807.0354010462761 426.63616981729865 1792.6813231557608 752.09799920395017 721.68208362162113 209.15828899294138 721.95739170908928 1615.3704198300838 88.042032111436129 295.18580417335033 245.85260788351297 3755.7562083750963 5.2180231884121886 1030.1054726466537 854.68681593239307 125.22666582465172 31.381924018263817 166.19513780623674 2.2874013707041723 2.5452911108732224 3.4627116322517395 3.2367307245731354 2.3154366910457611 1.4936755001544941 227.72806471586227
leaf_count=5710 1316 293 3779 147682 657 10068 14049 1032 4791 18491 925 6193 1660 1572 7528 3436 1837 3649 1805 956 2779 4279 169 1993 957 8720 42 5574 1408 830 124 232 20 19 25 33 21 26 3964
internal_value=0 0.175191 0.136479 0.179123 0.145872 0.184405 0.177054 0.0957812 0.183258 0.119874 0.236022 0.220336 0.253476 0.170917 0.140177 0.0561963 0.262861 0.0474212 0.201506 0.108351 0.134207 0.167399 0.0644669 0.0374795 0.106268 0.192222 0.206936 0.0119312 0.243481 0.0012685 0.0360188 0.283359 -0.106972 -0.116963 -0.120799 -0.114023 -0.113287 -0.106518 -0.106518
internal_weight=0 81140.3 7481.45 73658.8 10095.7 63563.1 52768.5 3742.07 49026.4 7836 2259.72 10794.6 4954.46 5235.62 6120.84 2245.84 1954.02 1715.17 3516.4 1719.22 1384.83 1940.03 305.706 1997.78 541.038 5840.15 248.057 1456.74 1576.37 334.385 76.6441 171.413 318.672 13.8476 6.008 7.83957 5.55217 304.825 229.222
internal_count=268644 263220 30059 233161 38966 194195 167554 15081 152473 35378 3588 26641 11728 17408 26019 12651 2494 9359 9064 8344 6558 5851 1094 11960 2950 14913 691 9010 3213 1786 417 274 5424 118 44 74 54 5306 3990
is_linear=0
shrinkage=0.1


Tree=4
num_leaves=38
num_cat=0
split_feature=113 53 30 82 53 30 134 74 72 71 3 70 28 39 101 111 108 132 39 51 72 128 50 105 83 75 54 119 119 38 45 121 53 52 69 41 7
split_gain=1799.31 1211.4 2278.56 1293.33 1137.71 2412.94 1239.72 2610.12 1212.85 1062.11 854.503 799.38 1055.52 818.825 599.374 560.637 1096.86 1449.5 1367.23 644.843 528.206 426.233 304.716 177.351 70.2791 117.007 124.057 67.6532 19.5186 18.0756 0.103875 0.0236581 0.0110214 0.00106807 0.00074377 0.000446686 5.68434e-14
threshold=-0.81349369883537281 1.0743721723556521 1.0532929897308352 -0.2634309977293014 1.0430659651756289 1.0648853778839114 1.0000000180025095e-35 -0.92784327268600453 -0.62253868579864491 -0.45962771773338312 0.63203904032707225 -0.2454416826367378 1.1384885311126711 0.9989067316055299 -0.82507061958312977 -1.2695774435997007 -1.0272091031074522 1.0000000180025095e-35 1.0392127037048342 1.1634337902069094 -0.56771698594093312 1.0000000180025095e-35 1.0877915024757387 -0.82015830278396595 -0.20633078366518018 -0.42391315102577204 1.0938675999641421 -1.6427375078201292 -1.6137873530387876 0.99726462364196788 0.74028012156486522 -1.8663898110389707 1.0674847364425661 1.1033613085746767 -0.15335687249898908 1.0019863247871401 -0.66045504808425892
decision_type=2 2 2 2 2 2 2 2 2 2 2 2 2 2 2 2 2 2 2 2 2 2 2 2 2 2 2 2 2 2 2 2 2 2 2 2 2
left_child=1 2 11 15 5 8 9 -8 -4 -6 -7 12 14 22 -1 19 18 -18 -17 27 -14 -15 -13 -21 25 31 -27 -3 29 -26 36 -5 34 -34 -32 -36 -2
right_child=30 3 4 24 6 10 7 -9 -10 -11 -12 13 20 21 -16 16 17 -19 -20 23 -22 -23 -24 -25 28 26 -28 -29 -30 -31 32 -33 33 -35 35 -37 -38
leaf_value=0.10266691932466732 -0.10585963899361409 -0.10433642050606712 0.064047882113166518 -0.10826201938400104 0.12360195437950082 0.16543689516472684 0.29481797672109672 0.012440975630914572 0.1584552990282424 0.19421644254013315 0.12707747592956048 -0.096502263339872038 0.085620613765546125 0.04839753276112406 -0.063630283884085301 0.08867363755198332 0.16085282074615695 0.25593928894924817 0.20403884269464456 0.263161481004964 0.15659399974807237 0.13523368913315867 0.18182189297799417 -0.0037104761157332059 -0.10961844660301984 -0.075126007501896228 0.18961485151099841 0.094335614409920887 0.10159066566033077 0.073717167751804882 -0.11409924995842874 -0.11336039239675487 -0.11683080823082218 -0.11964172942015239 -0.11106841444513252 -0.11296918919592243 -0.10585963899361409
leaf_weight=313.51488760486245 64.210820823907852 53.907174818217754 5652.3463880345225 11.788140870630739 4468.1750574111938 16079.109347723424 1754.058320581913 402.4462608397007 1792.2944274246693 4070.3956104665995 9090.3851351700723 40.034517005085945 7676.0533511564136 1121.0450049936771 702.09827509522438 4055.6389889344573 22595.489231072366 1725.6062399372458 1375.7718866765499 931.46687664836645 1214.5167650729418 1140.1436991989613 2255.3209289610386 25.585599422454834 149.36232789233327 29.45722834020853 44.348562199622393 25.130627632141113 4.8069671317934981 5.5785885602235785 2.1000631898641586 39.935679227113724 2.3428238034248352 3.195554606616497 2.9608142822980863 2.1227412447333336 213.23430563509464
leaf_count=1131 1228 342 23169 172 13216 44665 2514 1626 5859 8687 29969 252 32074 4576 3953 15206 53674 2008 1597 898 4558 3616 6215 122 2074 334 152 104 23 37 20 397 19 25 33 21 4078
internal_value=0 0.143159 0.134595 0.15908 0.146071 0.13679 0.174374 0.242121 0.0867764 0.157264 0.151583 0.100228 0.0842835 0.134893 -0.0122951 0.161044 0.158526 0.167599 0.117896 0.233356 0.0953161 0.0921823 0.176967 0.256027 -0.0528625 0.00312922 0.083952 -0.0411672 -0.0968607 -0.103018 -0.106265 -0.112198 -0.115101 -0.118453 -0.112516 -0.111862 -0.10586
internal_weight=0 88845.8 57771.9 31073.9 43309.2 32614.1 10695.1 2156.5 7444.64 8538.57 25169.5 14462.7 9906.18 4556.54 1015.61 30788.6 29752.5 24321.1 5431.41 1036.09 8890.57 2261.19 2295.36 957.052 285.277 125.53 73.8058 79.0378 159.748 154.941 290.167 51.7238 12.722 5.53838 7.18362 5.08356 277.445
internal_count=268644 263220 186080 77140 129705 103662 26043 4140 29028 21903 74634 56375 41716 14659 5084 73951 72485 55682 16803 1466 36632 8192 6467 1020 3189 1055 486 446 2134 2111 5424 569 118 44 74 54 5306
is_linear=0
shrinkage=0.1


Tree=5
num_leaves=39
num_cat=0
split_feature=113 53 30 53 30 134 73 121 131 71 29 53 100 100 72 30 134 89 72 31 134 117 74 121 72 51 101 34 71 122 127 45 82 53 52 65 41 20
split_gain=1343.46 972.423 2413.88 934.548 1496.49 1366.98 982.716 923.549 870.678 1316.29 1078.36 850.465 647.869 630.696 1293.55 935.849 866.606 531.276 415.314 371.031 319.828 317.875 190.019 180.299 262.106 203.856 124.631 110.134 11.6909 3.12024 26.8089 0.0749169 0.0557503 0.0078192 0.000764633 0.000536449 0.000319849 5.68434e-14
threshold=-0.81349369883537281 1.0584226846694949 1.0609716176986697 1.0256025195121767 1.0714970231056216 1.0000000180025095e-35 -0.80539649724960316 -1.858133018016815 1.0000000180025095e-35 -0.45395655930042261 1.0950353741645815 1.0430659651756289 -1.0170453786849973 -0.82965347170829762 -0.58686977624893177 1.0437434911727907 1.0000000180025095e-35 -1.2334510684013364 -0.62720769643783558 1.0135401487350466 1.0000000180025095e-35 -0.94289013743400563 -1.0531730651855467 -1.8760510087013242 -0.3071387112140655 1.1651138067245486 -0.82707044482231129 0.92921310663223278 -0.20813491940498349 -2.0655332803726192 -3.3566899299621578 0.74028012156486522 -0.2634309977293014 1.0674847364425661 1.1033613085746767 0.30118653178215032 1.0019863247871401 1.2309204339981081
decision_type=2 2 2 2 2 2 2 2 2 2 2 2 2 2 2 2 2 2 2 2 2 2 2 2 2 2 2 2 2 2 2 2 2 2 2 2 2 2
left_child=1 2 8 4 18 17 -7 23 9 11 -11 -1 -6 19 15 -15 -16 -5 -4 20 -9 26 -23 29 28 -26 -10 -21 -25 32 -31 37 -3 35 -35 -33 -37 -2
right_child=31 7 3 5 12 6 -8 13 21 10 -12 -13 -14 14 16 -17 -18 -19 -20 27 -22 22 -24 24 25 -27 -28 -29 -30 30 -32 33 -34 34 -36 36 -38 -39
leaf_value=0.012426307176882152 -0.10527104405598148 -0.11387635904161029 0.060815593165458703 0.19815260696164122 0.33094806500662033 0.2692002354215583 0.054700663218577153 0.14946158873608684 0.10572443838268684 0.029248619096312364 0.12134470130622517 0.086358768650233397 0.1274268331337203 0.038615172928334905 0.13899417665094194 0.11511765699298034 0.043873864635363274 0.1236878949056654 0.14542947023280606 -0.036837096911880619 0.2147772726382905 0.073313767751954736 0.1884411889594523 -0.11418573618329292 -0.11465039233153106 0.13615073301090852 -0.014587195571188325 0.13707900373008008 0.0070931831247820045 0.17222203026975152 -0.11090601897387056 -0.11259202178909011 -0.10733393359297264 -0.11497498298510943 -0.11745513589358395 -0.10990382725711195 -0.11158549251339794 -0.10527104405598148
leaf_weight=4438.3538064323366 176.98571290448308 14.903199374675749 5021.8417233750224 1129.4600125402212 157.72509559243917 1380.4172194898129 252.68424308300018 11254.801483429968 660.63785399496555 1659.0515226945281 5441.171558521688 2395.7852797135711 18777.274996552616 2566.6192154362798 24687.42226986587 4241.5288491994143 996.46045962721109 6315.7750098630786 655.84555970877409 133.54892964661121 803.18955591320992 166.23711118102074 1041.9420660957694 89.494422566145658 39.260314535349607 185.71414284780622 99.005067318677902 50.060842365026474 8.7231047824025136 3.8971052877604988 23.579309418797493 1.9245909824967364 103.33608327433467 2.1523296013474464 2.9425094351172447 2.7057378739118576 1.9433305561542509 75.388969350606203
leaf_count=22213 3721 146 18291 2268 101 1747 830 23425 1808 7602 16646 8312 51671 8963 55690 11654 4133 16780 1996 520 1200 494 2139 941 376 728 394 94 62 37 310 20 1649 19 25 33 21 1585
internal_value=0 0.120247 0.110578 0.125735 0.11562 0.153158 0.236011 0.130856 0.078465 0.0696718 0.0998254 0.0383442 0.129122 0.132319 0.125031 0.0862768 0.135304 0.134984 0.0705896 0.151664 0.153812 0.140731 0.1726 -0.00875592 0.0328807 0.0923834 0.0900441 0.0105808 -0.103414 -0.101104 -0.0707487 -0.105633 -0.108159 -0.113467 -0.116407 -0.111188 -0.110607 -0.105271
internal_weight=0 94795.7 49593.2 33691 24612.7 9078.34 1633.1 45202.5 15902.2 13934.4 7100.22 6834.14 18935 44733.6 32492 6808.15 25683.9 7445.24 5677.69 12241.6 12058 1967.82 1208.18 468.908 323.192 224.974 759.643 183.61 98.2175 145.716 27.4764 264.043 118.239 11.6685 5.09484 6.57366 4.64907 252.375
internal_count=268644 263220 153292 93684 72059 21625 2577 109928 59608 54773 24248 30525 51772 105679 80440 20617 59823 19048 20287 25239 24625 4835 2633 4249 2107 1104 2202 614 1003 2142 347 5424 1795 118 44 74 54 5306
is_linear=0
shrinkage=0.1


Tree=6
num_leaves=39
num_cat=0
split_feature=113 54 122 134 93 136 73 30 71 30 132 100 109 110 108 39 132 41 118 4 72 26 56 75 52 53 120 29 20 111 35 45 53 52 69 41 0 13
split_gain=1035.53 887.47 1099.28 1088.65 820.606 687.363 1212.62 661.341 617.83 819.683 599.95 537.851 520.777 485.757 1191.59 1174.65 784.863 450.347 344.872 342.478 320.708 447.549 232.683 203.433 182.523 136.205 122.177 101.203 90.8127 49.801 22.8444 0.0541848 0.00557348 0.000549479 0.000389412 0.000230402 2.84217e-14 7.10543e-15
threshold=-0.81349369883537281 1.0625041127204897 -1.3096428513526914 1.0000000180025095e-35 -0.28207613527774805 1.0000000180025095e-35 -0.84810727834701527 1.0443218350410464 -0.55062445998191822 1.0828341841697695 1.0000000180025095e-35 -1.0170453786849973 -0.93134883046150196 -1.2047343254089353 -1.0328735709190366 1.0406176447868349 1.0000000180025095e-35 1.0928503274917605 -1.209213852882385 0.54786923527717601 -0.3071387112140655 0.96222546696662914 0.93151235580444347 -1.0358152389526365 1.1391018033027651 1.1267619729042055 -1.7366611957550047 0.95754337310791027 1.2508088350296023 -1.2782777547836301 0.84917718172073375 0.74028012156486522 1.0674847364425661 1.1033613085746767 -0.15335687249898908 1.0019863247871401 1.0691988468170168 1.151407063007355
decision_type=2 2 2 2 2 2 2 2 2 2 2 2 2 2 2 2 2 2 2 2 2 2 2 2 2 2 2 2 2 2 2 2 2 2 2 2 2 2
left_child=1 2 3 8 13 10 28 -8 18 -10 11 -4 22 17 15 -15 -16 29 -1 -14 27 26 -5 -12 -19 -23 -22 30 -7 -3 -6 36 34 -34 -33 -36 -2 -38
right_child=31 4 5 12 20 6 7 -9 9 -11 23 -13 19 14 16 -17 -18 24 -20 -21 21 25 -24 -25 -26 -27 -28 -29 -30 -31 -32 32 33 -35 35 -37 37 -39
leaf_value=-0.09980336744394791 -0.10474436919251436 0.12719133718506628 0.21536987088621637 -0.088238494053029082 -0.0065306374651776236 0.30756132920761536 -0.065868087058615729 0.096811046601467526 0.085672545296032895 0.1897716356492104 -0.11116135904594449 0.1088839113463507 0.060727267523123199 0.029620785890493512 0.12304941666280803 0.16019021441891812 0.19158241496427408 -0.0094655744304258729 0.041935337810315401 0.25753572969277405 -0.10239461761256402 -0.050342110165458503 0.006860799132633909 0.036655577644884148 0.19285701345702269 0.2482209989480802 0.050214935549391486 0.37783041894940811 -0.042107396431959793 -0.13625110380657093 -0.12270809224325524 -0.11126362965553249 -0.11334853015383602 -0.1155429403900167 -0.10887041718977034 -0.11036360786581612 -0.10474436919251436 -0.10474436919251436
leaf_weight=229.88035452365875 183.69652631878853 8.4010334163904172 478.83006563782692 304.29059533774853 18.70980666577816 7.4964417889714232 260.03996358811855 6406.9576039835811 15218.346421319991 795.96284052729607 128.29163940995932 50434.775061860681 370.5691841840744 2459.3883597478271 13724.190426625311 957.16495741158724 1902.7497244253755 45.941601078957319 677.86773918569088 116.12740652263165 111.97455877438188 17.756376206874847 1665.436306193471 339.4625510647893 1514.7041785642505 109.55939810350537 98.700117819011211 4.3173656463623038 805.66259008646011 49.199197255074978 177.44950285553932 1.7618369385600088 1.9740161672234533 2.704286728054285 2.4696167483925802 1.7768676578998563 0.95134735852479835 44.799811974167824
leaf_count=1304 4248 25 571 1584 143 10 1307 19029 49069 1350 928 125956 1248 8557 26883 984 1917 230 2520 208 1676 214 6637 2029 1346 163 501 2 5097 265 1467 20 19 25 33 21 22 1036
internal_value=0 0.102843 0.0979253 0.077267 0.120991 0.104726 0.0764044 0.0904659 0.0862974 0.0908466 0.10885 0.109885 0.0150571 0.124167 0.119698 0.0662005 0.131394 0.176766 0.00604108 0.107686 -0.000879844 0.0585569 -0.00783049 -0.00388639 0.186901 0.206581 -0.0308977 -0.101086 -0.0388838 -0.0978278 -0.111627 -0.105069 -0.112029 -0.114617 -0.110014 -0.109495 -0.104744 -0.104744
internal_weight=0 99440.2 78240 19378.5 21200.2 58861.5 7480.16 6667 16922.1 16014.3 51381.4 50913.6 2456.42 20661.7 19043.5 3416.55 15626.9 1618.25 907.748 486.697 538.467 337.99 1969.73 467.754 1560.65 127.316 210.675 200.477 813.159 57.6002 196.159 240.134 10.6866 4.6783 6.00832 4.24648 229.448 45.7512
internal_count=268644 263220 218847 63920 44373 154927 25443 20336 54243 50419 129484 126527 9677 40207 38341 9541 28800 1866 3824 1456 4166 2554 8221 2957 1576 377 2177 1612 5107 290 1610 5424 118 44 74 54 5306 1058
is_linear=0
shrinkage=0.1


Tree=7
num_leaves=49
num_cat=0
split_feature=75 53 30 71 30 54 70 28 100 109 39 3 28 35 108 67 52 91 133 71 31 75 92 23 114 72 52 68 58 31 103 131 72 28 108 108 72 74 54 35 22 74 120 32 113 31 45 118
split_gain=894.484 781.387 1231.36 738.252 892.738 1298.94 648.808 835.409 614.132 682.169 606.959 593.402 500.689 473.373 500.554 435.888 844.026 664.498 637.86 422.934 420.734 395.054 385.819 313.644 310.651 248.243 226.707 186.5 171.181 168.131 161.054 52.5475 116.813 46.0732 32.3271 68.5227 77.0179 27.2878 26.8243 71.0621 21.7236 20.8084 14.3018 13.9905 5.45955 0.597531 0.020834 0.00035473
threshold=-1.1897769570350645 1.0782013535499575 1.0516526103019717 -0.45228622853755945 1.0619241595268252 1.0110723972320559 -0.2454416826367378 1.1662286520004275 -0.49852937459945673 -1.0971164107322691 1.000149726867676 0.63822242617607128 1.1327810287475588 0.89448991417884838 -0.90478309988975514 0.28902541100978857 1.1421242952346804 -1.0561869740486143 1.0000000180025095e-35 -0.4447426944971084 1.0047034621238711 -1.0515772104263303 -1.0467838048934934 0.98215857148170482 -1.3795285224914549 -0.3071387112140655 1.0555437207221987 0.15953745692968371 0.96496957540512096 0.82750424742698681 -0.73914700746536244 1.0000000180025095e-35 -0.69927430152893055 1.1578087806701662 -0.83289635181426991 -0.8555065095424651 -0.74181920289993275 -1.042885363101959 0.99111437797546398 0.87798625230789196 0.93095824122428905 -0.44323737919330591 -0.88679018616676319 0.95641484856605541 -0.81349369883537281 0.99972388148307811 0.74028012156486522 -0.86694374680519093
decision_type=2 2 2 2 2 2 2 2 2 2 2 2 2 2 2 2 2 2 2 2 2 2 2 2 2 2 2 2 2 2 2 2 2 2 2 2 2 2 2 2 2 2 2 2 2 2 2 2
left_child=20 2 6 4 5 -4 7 12 15 25 24 -6 -2 26 -15 17 30 21 -19 -9 31 -3 -12 40 -8 41 -5 -18 -25 -27 -17 43 38 37 35 -22 47 -34 42 -40 -11 -10 -33 44 45 -1 -46 -37
right_child=1 8 3 13 11 -7 10 19 9 23 22 -13 -14 14 -16 16 27 18 -20 -21 34 -23 -24 28 -26 29 -28 -29 -30 -31 -32 32 33 -35 -36 36 -38 -39 39 -41 -42 -43 -44 -45 46 -47 -48 -49
leaf_value=-0.13012765901276255 -0.056757056544196993 0.10315541566493139 0.016535879919449679 0.10267360071017886 0.10116558618292733 0.090625954309852874 0.24884192278373268 0.066556393975069808 -0.14222853058493815 -0.11266101860373495 0.086805280072075247 0.072236985695431882 0.032794458918965284 0.058855591211787288 0.12405755326439086 0.19158153822402541 -0.1567307744119634 0.078927995777348464 0.1313272056893513 0.15373128844549583 0.22980202931025345 0.14166222812424514 0.019046058769924327 0.16054940429379289 0.10895542683506308 -0.11224878504870373 0.20010819579977387 0.14826847968962528 0.0056548476293584509 0.086416666768195621 -0.090340753477998054 -0.14665551560149817 -0.13065008406030959 0.3017023100195228 0.25908181662666879 -0.14962928365899342 0.18222865561883708 0.25263127414485231 0.092345013342411186 -0.14344150281400073 -0.017282792213607425 -0.084589384624669431 -0.068735993209933441 0.023777055827070494 -0.10427255172738077 -0.14560229777332054 -0.11008164058100628 -0.15065626184653019
leaf_weight=83.624358341097832 696.17242980003357 6317.3071979656816 4121.4427061602473 319.78690963983536 26089.440930008888 5556.5474613904953 167.79176730662584 2924.126472543925 182.90469717979431 48.380320947617292 1806.7190037071705 9737.2458577677608 6051.0434266217053 1546.1002455502748 4937.5498225241899 22.732492014765739 20.156951740384102 13914.18874457106 2788.7577421814203 687.35154373943806 28.745549485087395 4607.4669757559896 1571.0204089581966 396.7415172085166 2946.9447138905525 62.090390741825104 942.97142621874809 3726.4987036474049 86.992370970547199 135.70500431209803 186.56466727331281 45.202962651848793 5.5487431809306145 12.383399561047552 24.420747876167297 5.3181656599044791 13.434209182858465 2.7922721803188342 27.741288647055626 23.703746005892754 47.155003596097231 95.2501090914011 49.188395716249943 7.008569359779357 114.39051850512624 35.565112546086311 6.5260735228657714 9.1503103673458117
leaf_count=475 4508 12340 16600 898 62342 13580 305 11588 981 722 4588 27953 21415 4219 9544 38 91 34652 5261 1771 25 6734 5654 502 7174 955 1464 4277 238 597 1041 209 61 7 20 24 21 3 67 114 362 985 1010 28 2911 167 82 41
internal_value=0 0.0893764 0.0834258 0.0908813 0.0860233 0.0590742 0.0598658 0.0443313 0.102157 0.0271121 0.0846509 0.0933032 0.0235546 0.119419 0.108509 0.104665 0.13571 0.100219 0.0876767 0.0831479 -0.0454078 0.119395 0.0552898 0.0999932 0.116491 -0.0615901 0.175433 0.146628 0.132694 0.0240532 -0.0597202 -0.0862313 -0.0428194 0.179333 0.162905 0.121444 0.00981243 -0.00234126 -0.0743889 -0.0162957 -0.0655836 -0.122491 -0.106051 -0.115492 -0.119557 -0.134745 -0.104586 -0.150279
internal_weight=0 102741 70102.3 53251.1 45504.7 9677.99 16851.2 10358.7 32638.9 1055.22 6492.48 35826.7 6747.22 7746.41 6483.65 31583.7 3955.95 27627.7 16702.9 3611.48 494.744 10924.8 3377.74 579.269 3114.74 475.95 1262.76 3746.66 483.734 197.795 209.297 413.675 166.561 20.7244 81.069 56.6482 27.9027 8.34102 145.836 51.445 95.5353 278.155 94.3914 247.115 240.106 119.189 120.917 14.4685
internal_count=268644 263379 193603 136600 120475 30180 57003 39282 69776 5342 17721 90295 25923 16125 13763 64434 5447 58987 39913 13359 5265 19074 10242 1824 7479 3518 2362 4368 740 1552 1079 5134 1471 71 131 111 86 64 1400 181 1084 1966 1219 3663 3635 642 2993 65
is_linear=0
shrinkage=0.1


Tree=8
num_leaves=63
num_cat=0
split_feature=53 30 29 71 103 54 30 134 33 70 53 121 29 5 72 102 135 89 57 91 75 30 134 71 98 71 71 73 74 121 28 101 3 74 91 40 51 104 51 75 122 71 17 106 30 53 36 82 72 29 55 32 94 74 75 107 122 69 61 121 90 82
split_gain=768.866 1454.24 723.065 753.72 783.37 651.65 1128.46 899.154 934.504 625.905 611.726 478.241 460.615 643.593 451.141 444.344 430.485 430.359 531.842 429.252 926.41 446.6 940.372 424.711 411.409 636.993 399.884 395.086 346.122 338.093 317.523 304.72 304.32 284.223 365.79 272.402 272.173 271.012 270.881 229.047 337.305 179.437 152.064 150.952 132.438 142.495 123.989 120.024 94.5233 86.6444 57.2889 43.8851 25.8574 11.3661 26.8013 41.6727 11.3047 3.34663 21.687 0.923405 0.85768 0.0899479
threshold=1.0654875636100771 1.0584666728973391 1.0861821174621584 -0.44896562397480005 -0.81262814998626698 0.99621558189392101 1.0714970231056216 1.0000000180025095e-35 0.91408267617225658 -0.30550907552242274 1.0452954769134524 -1.850746154785156 1.2354449629783633 0.80746799707412731 -0.80804243683814991 -0.83633512258529652 1.0000000180025095e-35 -1.2214595675468443 0.88727855682373058 -1.1614158749580381 -1.0965381264686582 1.0478736162185671 1.0000000180025095e-35 -0.38009633123874659 -0.94140231609344471 -0.4775508046150207 -0.42629978060722346 -0.38047225773334498 -0.94938474893569935 -1.8760510087013242 1.1111910939216616 -0.85026726126670826 0.56242540478706371 -0.99196207523345936 -1.197075307369232 0.95822763442993175 1.0800310373306277 -1.0066425800323484 1.1651138067245486 -1.1203668117523191 -1.1767186522483823 -0.41375458240509028 1.0585505962371828 -0.93106639385223378 1.0397506356239321 1.0705560445785525 0.93941509723663341 -0.2634309977293014 -0.61053016781806935 1.1254277229309084 0.9954563081264497 0.81380769610404979 -1.056255519390106 -0.43405629694461817 -0.449374109506607 -0.9443850815296172 -2.0120583772659297 0.056367626413702972 0.79320630431175243 -1.858133018016815 -0.25116963684558863 -0.2634309977293014
decision_type=2 2 2 2 2 2 2 2 2 2 2 2 2 2 2 2 2 2 2 2 2 2 2 2 2 2 2 2 2 2 2 2 2 2 2 2 2 2 2 2 2 2 2 2 2 2 2 2 2 2 2 2 2 2 2 2 2 2 2 2 2 2
left_child=1 2 23 4 10 6 9 24 35 15 -4 27 14 -14 -8 -3 -6 36 -19 33 39 22 -22 37 32 -26 -23 53 -10 57 43 -11 -7 34 49 -9 -5 52 51 50 -41 -39 -32 -25 45 -35 -36 -40 -46 -13 -21 -31 -1 59 55 -55 -56 58 -29 -2 -61 -59
right_child=11 5 3 17 16 7 12 8 28 31 -12 19 13 -15 -16 -17 -18 18 -20 20 21 26 -24 30 25 -27 -28 29 -30 38 42 -33 -34 44 46 -37 -38 41 47 40 -42 -43 -44 -45 48 -47 -48 -49 -50 -51 -52 -53 -54 54 56 -57 -58 61 -60 60 -62 -63
leaf_value=-0.14003814750050034 -0.11629748057377634 0.037721871583900654 0.021287344035695519 0.019073501744442275 -0.058590910913426435 -0.0035866593364073545 0.13664622625203365 0.2525977357813331 0.13568981075578471 0.011981215947989824 0.078729154330661161 0.12870271517384455 -0.054602452526659795 0.14743173085461722 0.082233977966486613 -0.051592758147974475 0.16208003809295052 0.10622016770672651 0.045306772127346129 0.15142312399618396 0.087792906473880883 0.094800152188595721 0.012007622384381706 0.035124143733671967 0.050395308693914467 0.10432571053977341 0.14374259277204146 -0.10874326849644418 0.0027822792863075683 0.31618314642045853 0.15092023496894827 0.17189559161582857 0.13332513304200291 0.014492847786358504 -0.013119135848334887 0.16615911130505512 0.13544815269554239 -0.095184562316996457 0.14768303796148424 -0.074758986928052176 0.052220693231275685 -0.017620162579181153 -0.016438194051883015 -0.093726767930063071 0.13922446599205565 0.13664547407005859 0.18195723907340533 0.020598909974303511 0.21699161036098441 -0.097857323831453902 -0.13688764620921687 -0.11987506225098384 0.19997895621308662 -0.12563593408416543 -0.1183266098179263 0.27616984492150726 0.013845758213582899 -0.11406168307630458 0.13812357071141723 -0.14390232588404209 -0.1236509616982568 -0.10593769421042248
leaf_weight=2.3476999364793292 34.32497825473547 6175.1109372600913 4372.9534683786333 231.93619847297668 1112.2130909338593 175.40327118337154 1655.3549698665738 492.00964170694351 342.7731641381979 157.76054613292217 3218.4647585935891 742.4700958058238 520.35651212930679 226.22293973714113 19168.748689211905 612.25262621045113 96.036440297961235 2071.6848444789648 4652.0235206335783 7.267011269927024 29191.304915130138 5198.7802443653345 1734.5978158190846 251.22707175463438 4598.5835146903992 4181.6749012321234 2459.0465610921383 20.641361095011238 457.42668624222279 2.3985416889190665 285.77203099429607 486.9867033213377 2181.3718750178814 102.01350247859955 356.89579889178276 1407.6736525446177 1505.1643869802356 571.0350600592792 320.97509948909283 298.54176457226276 699.01520664989948 624.36542454361916 67.025186322629452 142.48812063038349 278.6460494697094 1495.128759637475 35.854908674955368 96.707848247140646 355.95347909629345 17.272744417190552 133.57475343346596 61.1132742613554 47.250043224543333 5.3351847603917122 60.325654625892639 5.0004124641418439 7.2486668676137915 16.500598758459091 4.2998558022081843 51.482239782810211 35.220046818256378 78.302234143018723
leaf_count=24 329 20239 18690 785 4953 546 3136 308 545 554 8523 1163 2404 537 45990 2554 165 5661 13055 12 59927 10770 6520 1010 12172 8886 3668 340 1433 1 760 907 3859 318 1101 1822 2996 6719 461 1129 1739 3028 308 903 453 2044 46 613 282 69 584 530 75 38 677 2 30 164 36 251 248 1552
internal_value=0 0.0704737 0.0476447 0.0542276 0.0337371 0.080733 0.0722141 0.098589 0.150363 0.0386095 0.0456404 0.0877637 0.0837924 0.00661644 0.0865593 0.0296653 -0.0410511 0.0755387 0.0640752 0.0891854 0.0862726 0.0888958 0.0835422 -0.00940929 0.0860378 0.0760801 0.110516 0.0111476 0.0597145 0.0515845 0.0502285 0.132767 0.123135 0.123373 0.0830456 0.188546 0.11991 -0.0451687 0.0890015 -0.00263525 0.0142191 -0.0546722 0.119125 -0.0115078 0.144199 0.128843 0.00468973 0.118259 0.182845 0.123552 -0.122012 -0.103407 0.183884 -0.111002 -0.0812104 0.0687597 -0.104149 -0.0987769 -0.0661835 -0.13018 -0.135676 -0.107352
internal_weight=0 62091.7 19252 17260.5 8799.67 42839.7 29002.8 13836.9 2699.88 7432.11 7591.42 43906.2 21570.7 746.579 20824.1 6787.36 1208.25 8460.81 6723.71 43106.4 39722.1 38583.7 30925.9 1991.51 11137 8780.26 7657.83 799.876 800.2 600.939 746.512 644.747 2356.78 3384.24 1152.49 1899.68 1737.1 1245 481.195 1138.4 997.557 1195.4 352.797 393.715 2231.74 1597.14 392.751 417.683 634.6 759.743 140.842 63.5118 49.5977 198.937 77.9099 10.3356 67.5743 119.744 24.9412 121.027 86.7023 94.8028
internal_count=268644 173547 67655 54828 32331 105892 76321 29571 4108 24254 27213 95097 52067 2941 49126 22793 5118 22497 18716 89825 84349 80885 66447 12827 25463 21058 14438 5272 1978 3697 2981 1461 4405 5476 2379 2130 3781 9846 1605 3464 2868 9747 1068 1913 3097 2362 1147 1074 735 1232 596 531 99 1575 747 40 707 2092 376 828 499 1716
is_linear=0
shrinkage=0.1


Tree=9
num_leaves=63
num_cat=0
split_feature=136 32 108 78 40 108 105 73 29 73 30 75 71 108 108 110 30 91 76 76 108 102 31 78 35 69 0 117 53 125 0 105 109 39 70 105 133 1 103 104 116 21 9 37 37 30 0 58 50 3 107 71 84 131 108 31 61 73 55 75 29 108
split_gain=716.229 1029.72 679.367 643.917 626.785 583.452 1054.57 1022.95 973.249 537.656 537.622 536.578 534.47 440.605 438.735 431.762 395.767 399.963 359.521 342.195 336.236 332.011 306.092 277.792 264.67 708.931 402.391 257.126 253.271 178.431 197.144 187.385 165.955 151.938 145.38 117.888 117.39 109.297 89.3282 87.2896 85.2281 76.0135 142.626 73.5953 70.1904 64.7547 125.277 95.0309 91.5691 172.111 55.8778 51.8552 51.6179 47.1622 37.0936 32.5887 104.321 28.206 27.7705 25.8016 25.311 22.2945
threshold=1.0000000180025095e-35 0.96323859691619884 -0.90341901779174794 -1.2441559433937071 1.0715238451957705 -1.0328735709190366 -0.83560842275619496 -0.72299513220787037 1.1249625086784365 -0.84810727834701527 1.0470699071884157 -1.1897769570350645 -0.49931974709033961 -1.0075739026069639 -1.0584354400634763 -0.91903823614120472 1.099504351615906 -1.0361295938491819 -1.1790910363197324 -1.1092641949653623 -0.8934166133403777 -0.55771002173423756 1.0047034621238711 -1.2623963952064512 0.85726317763328563 -0.16693874448537824 0.52654442191123974 -1.5563256740570066 1.1136055588722231 -1.50511759519577 0.39368823170661932 -0.81652435660362233 -1.1099643111228941 1.0355769991874697 -0.21511400490999219 -0.82080671191215504 1.0000000180025095e-35 0.47919917106628424 -0.82578083872795094 -0.92042216658592213 -1.4490517973899839 1.5071304440498354 0.8436165750026704 0.94948136806488048 0.93514305353164684 1.0748770236968996 0.55549579858779918 0.78205421566963207 1.0826576352119448 0.57966062426567089 -0.87956327199935902 -0.43789303302764887 -1.3159012198448179 1.0000000180025095e-35 -0.88891056180000294 1.0045756697654726 0.69316059350967418 -0.90583655238151539 0.97544059157371532 -1.0607675313949583 1.1537609100341799 -0.83289635181426991
decision_type=2 2 2 2 2 2 2 2 2 2 2 2 2 2 2 2 2 2 2 2 2 2 2 2 2 2 2 2 2 2 2 2 2 2 2 2 2 2 2 2 2 2 2 2 2 2 2 2 2 2 2 2 2 2 2 2 2 2 2 2 2 2
left_child=2 9 4 11 5 6 12 8 -7 45 13 22 -1 39 28 23 17 20 -17 -19 -5 -9 53 -13 26 -26 -12 -16 36 30 31 33 -8 -3 -29 -15 -6 55 50 -11 -30 42 -18 -33 51 48 47 -47 60 -50 -32 -39 -40 -4 -48 56 -31 -43 -57 -46 -2 -24
right_child=1 29 3 16 14 7 32 21 -10 10 24 15 -14 35 27 18 41 19 -20 -21 -22 -23 61 -25 25 -27 -28 34 40 37 38 43 -34 -35 -36 -37 -38 44 52 -41 -42 57 -44 -45 59 46 54 -49 49 -51 -52 -53 -54 -55 -56 58 -58 -59 -60 -61 -62 -63
leaf_value=-0.04355168219812252 -0.094356979745353911 0.088338752653138009 -0.11583644760977976 0.088287250527290709 -0.074684267109962996 0.023230545463094221 -0.082664359529072806 0.096159487299081511 0.066238166385486102 -0.032096521473784438 0.13182003968965567 -0.022767842470786337 0.057392734651880328 -0.067711527348774447 -0.13268101411314176 0.068704153504580409 -0.15723844610894389 -0.0080705062956927098 0.091049591006413549 0.080177421828790355 0.12072936055193587 -0.013642935029367066 0.095442509615202176 0.052312376038309787 -0.071893014446261352 0.052720694700946202 -0.054339217918113573 -0.071755458322740995 0.1456965136332069 -0.10717138431089022 -0.090793492187110747 0.2255528731309725 0.0072359072849328288 0.19093072288420154 0.077411631558570934 0.015479051755939867 0.18704439115585225 -0.024908791830168774 0.08694270084842104 0.15219637219904852 0.056473064119843486 -0.15020370554983983 0.21458454272585153 -0.15898011461420575 -0.15487518462006877 0.07787259744961289 -0.12527585717019732 -0.1011074450494194 -0.10304129676569934 0.22512185826878015 0.12845948690560638 0.19826145339720011 -0.12994578473775703 -0.04175763062408145 -0.024963262487435963 0.28104398370430966 0.19878042411204855 0.11273458115915072 0.16311969200655121 0.11774692999015446 -0.045040750300490956 0.20561101730746537
leaf_weight=573.62006616592407 380.07111014053226 1522.7117975950241 184.68575548008084 6298.2963319048285 81.901140663772821 7290.6194913983345 774.91791499406099 9052.8601389266551 18908.22239202261 31.164028808474541 683.95674955099821 590.82394970953465 6127.2173478268087 823.11200799420476 65.214183833450079 20403.309987809509 20.561994299292564 544.60870703309774 11126.859523072839 2274.6708011105657 6483.0390377417207 284.01731364056468 59.264550223946571 2970.1774865761399 514.80414047092199 4033.3012782335281 139.85502491146326 68.597847074270248 1848.5731429606676 18.119528129696846 16.250331863760948 5.708584412932395 279.36279562860727 159.47624909877777 1374.4902046062052 214.79386533796787 21.671144098043442 18.137532591819763 12.991956993937491 146.60353548824787 113.64082057774067 79.061554662883282 20.703945890069008 38.846267074346542 20.509882584214214 150.15262623131275 82.333726391196251 36.969942823052406 35.328205682337284 29.184503432363272 40.827811524271965 24.442762181162834 70.613456457853317 160.74199930205941 66.746968045830727 20.843989700078964 28.951747193932533 4.3017377853393546 476.24860200285912 4.178892269730567 143.31260113790631 26.619566828012466
leaf_count=2631 3485 2740 2559 13874 345 22273 4179 18690 46516 130 1862 1926 19451 3472 372 47682 91 1700 21307 5700 11157 2324 111 7235 2513 11221 663 236 1489 67 62 4 998 165 2497 736 19 66 24 115 177 364 18 172 93 592 516 195 204 43 61 23 284 1471 363 18 16 10 404 10 903 20
internal_value=0 0.0428947 0.071 0.0789575 0.0622983 0.0589754 0.0341244 0.0643987 0.05427 0.0244521 0.0344724 0.0714994 0.0487515 -0.0255801 0.102547 0.072862 0.0958048 0.0972227 0.0765898 0.0631303 0.104743 0.0928194 -0.0393588 0.0398554 0.0480624 0.0386156 0.100217 0.0615437 0.132485 0.0987812 0.0834293 0.0927035 -0.0588426 0.0980648 0.0703209 -0.0504953 -0.019921 0.145669 -0.0304021 0.119888 0.140529 -0.0816885 0.0293126 -0.109712 0.0254181 -0.046979 -0.0119743 0.0425114 -0.0669973 0.0454144 0.0660375 0.1032 -0.0962422 -0.0813645 -0.0803635 0.160534 0.0810079 -0.136635 0.168064 -0.10873 -0.0808532 0.129589
internal_weight=0 9990.55 98112.7 51247.7 46864.9 43290.8 7755.12 35535.7 26198.8 7511.69 6587.59 35522.5 6700.84 1215.67 3574.09 35091.2 15725.2 15600.6 31530.2 2819.28 12781.3 9336.88 431.312 3561 5371.92 4548.11 823.812 1508.3 2065.79 2478.86 1867.43 1726.74 1054.28 1682.19 1443.09 1037.91 103.572 611.433 140.684 177.768 1962.21 124.629 41.2659 44.5549 67.2691 924.1 336.203 187.123 587.896 64.5127 57.0781 42.5803 83.6054 345.428 149.081 544.164 47.0713 83.3633 497.093 24.6888 523.384 85.8841
internal_count=268644 31222 237422 115225 122197 117062 27259 89803 68789 27013 20712 82311 22082 4453 5135 78150 32914 32431 68989 7400 25031 21014 4161 9161 16259 13734 2525 3105 2030 4209 3512 3081 5177 2905 2733 4208 364 697 431 245 1666 483 109 176 192 6301 1666 787 4635 247 123 89 308 4030 879 505 83 374 422 103 4388 131
is_linear=0
shrinkage=0.1


Tree=10
num_leaves=54
num_cat=0
split_feature=53 29 134 91 116 31 129 2 127 72 3 37 47 0 101 130 109 30 109 107 108 75 58 72 65 109 106 113 71 31 81 105 33 38 51 79 70 59 44 3 26 32 68 28 14 73 74 80 52 47 52 121 34
split_gain=689.047 1102.54 836.908 526.031 607.874 613.145 634.88 532.399 634.69 590.894 741.445 496.647 488.832 484.38 466.828 536.601 501.645 352.134 323.791 310.396 983.986 292.676 214.094 210.869 207.759 177.292 151.642 140.2 139.179 129.891 122.169 109.488 80.9729 79.5297 117.54 74.2242 70.9497 65.4027 53.8817 48.7315 48.3492 41.0768 32.0313 25.9137 53.6494 25.4782 23.0326 22.7985 14.3769 7.97556 0.623288 0.141224 0.0155442
threshold=1.1136055588722231 0.95033580064773571 1.0000000180025095e-35 -1.0600602030754087 -1.467988073825836 0.99570897221565258 1.0000000180025095e-35 0.68440279364585888 -1.2232069373130796 -0.80804243683814991 0.67974889278411876 0.94445383548736583 0.80218884348869335 0.32363337278366094 -0.54088923335075367 1.0000000180025095e-35 -1.0971164107322691 1.1011983752250674 -1.1476656794548032 -0.95996621251106251 -1.0639716982841489 -1.101021349430084 0.91713348031044017 -0.3071387112140655 0.55226725339889537 -1.1246534585952757 -0.86978113651275624 -1.3578967452049253 -0.2143340855836868 0.92842584848403942 -1.1881904006004331 -0.80130216479301442 0.92937770485878002 0.97234717011451732 1.1634337902069094 -0.40415161848068232 -0.23088750988245008 0.8675103783607484 1.2110319733619692 0.3930948823690415 1.1644766330718996 0.85695603489875805 0.079260762780904784 0.98344793915748607 0.55300888419151317 -1.0039194226264951 -0.44323737919330591 -1.196685194969177 1.1421242952346804 1.2098166942596438 1.1490241885185244 -1.858133018016815 0.92313405871391307
decision_type=2 2 2 2 2 2 2 2 2 2 2 2 2 2 2 2 2 2 2 2 2 2 2 2 2 2 2 2 2 2 2 2 2 2 2 2 2 2 2 2 2 2 2 2 2 2 2 2 2 2 2 2 2
left_child=1 27 14 7 11 6 -6 9 29 17 -11 18 -10 -7 15 19 23 -3 -5 20 -2 -21 40 46 28 -13 -25 33 -18 -9 47 -24 39 35 42 41 52 -36 -26 50 -17 -1 -35 48 -45 -46 -16 -4 49 -29 -32 -37 -34
right_child=2 3 30 4 5 13 -8 8 12 10 -12 25 -14 -15 16 22 24 -19 -20 21 -22 -23 31 26 38 -27 -28 43 -30 -31 32 -33 36 34 37 51 -38 -39 -40 -41 -42 -43 -44 44 45 -47 -48 -49 -50 -51 -52 -53 -54
leaf_value=0.065481651814107034 0.12315457490471111 0.13751467322377953 0.039778931711944493 -0.10729358687140239 0.039144417895524738 0.088247639815318357 -0.04471279366812856 0.046299893737955726 -0.036133473363547122 0.066281256328181062 -0.0014684950408984229 -0.048827485151720411 0.11926265188064428 0.050450837405464868 -0.14150517457774325 0.13203526964487763 0.034366478606893729 -0.047850911471069922 0.2043327374229775 -0.054652942381007645 0.027175237909595574 0.11730624740316847 0.011319654138636845 0.11475229327336833 0.0088338765821331239 0.16732140957444738 -0.078969826547864691 -0.12698679594972126 0.15633497300495153 -0.06888734343681692 -0.13626069388903767 -0.087080082073067083 -0.13633989068615443 0.26980096301619017 0.12561528692820143 -0.11349291284669494 0.19232861438505422 -0.14388249074676404 -0.16005201929145796 0.10866426011271368 0.058443871405356784 0.26979632087670496 -0.08448488275852066 0.14024811354215591 0.064571376508068171 -0.11778753934027708 -0.075547705940038401 0.24029246126115811 0.023808543043720546 -0.047581070160985714 -0.12551085610948701 -0.13738648843082718 -0.14409308153791331
leaf_weight=20.720696695148945 2327.0930918715894 1533.1248864904046 11.464183598756792 35.563695766031742 18036.74368917197 4747.5602575987577 950.41277097910643 113.32730686664581 303.34465572237968 54901.487835090607 1664.3053619489074 156.04994131624699 608.51360736787319 11862.576555117965 173.17672955989838 112.70461538434029 137.95119826868176 109.82369907200336 533.81396606564522 100.68757086247206 1974.4327349998057 5828.0683331042528 471.23760510981083 87.260799314826727 155.59797065332532 50.140290439128876 75.255442496389151 294.28806867264211 290.7226982973516 719.01202939450741 83.247415155172348 148.77875240147114 4.6084203720092791 2.587355136871337 51.588936321437359 8.6720861084759218 16.373208448290825 10.909289579838513 21.501459643244743 8.93109282851219 429.47122105956078 18.73905611038208 186.32030024379492 11.85777612030506 8.9383001532405597 53.635429136455059 76.257351197302341 11.220272257924078 6.7643160223960868 13.217141523957251 153.18970489874482 3.4609178304672232 5.8919434547424316
leaf_count=62 2492 2438 31 172 55488 9172 3029 423 3844 125013 5312 634 1005 28866 959 112 308 374 766 288 4822 6919 1061 286 1045 99 893 3593 349 2909 428 473 24 1 112 107 27 81 110 25 801 18 1162 28 46 429 887 10 25 86 953 19 28
internal_value=0 0.0577144 0.0824806 0.0586178 0.0491303 0.0472221 0.0349469 0.0643738 0.00993481 0.066005 0.0642879 0.136713 0.0675676 0.061254 0.0864371 0.092234 0.0215463 0.125124 0.184868 0.0995489 0.0790993 0.114386 0.0278435 -0.0635902 0.0794426 0.0037345 0.0250465 -0.0680867 0.117084 -0.053204 -0.0840072 -0.0122923 -0.102586 -0.0170945 -0.0403033 0.0959989 0.0622075 0.0785735 -0.0116704 -0.120634 0.0737417 0.162509 -0.0796324 -0.107836 -0.0547805 -0.0917386 -0.121341 0.138958 -0.120402 -0.123574 -0.129296 -0.120309 -0.14069
internal_weight=0 97017.5 12705.1 96325.8 36372.9 35597.3 18987.2 59952.9 1744.2 58208.7 56565.8 775.568 911.858 16610.1 12410.2 11392.5 1017.72 1642.95 569.378 10230.3 4301.53 5928.76 1162.19 411.95 605.773 206.19 162.516 691.7 428.674 832.339 294.926 620.016 272.242 302.999 251.406 51.5928 26.8736 62.4982 177.099 245.368 542.176 39.4598 188.908 388.701 74.4315 62.5737 249.434 22.6845 314.27 307.505 236.437 12.133 10.5004
internal_count=268644 245313 23331 239544 98226 96555 58517 141318 8181 133137 130325 1671 4849 38038 21805 16968 4837 2812 938 14521 7314 7207 2447 3025 1812 733 1179 5769 657 3332 1526 1534 1485 1562 1356 206 79 193 1155 1406 913 80 1163 4207 503 475 1846 41 3704 3679 1381 126 52
is_linear=0
shrinkage=0.1


Tree=11
num_leaves=60
num_cat=0
split_feature=54 135 55 54 27 97 73 31 134 40 29 109 98 30 99 71 102 125 100 30 110 117 109 39 40 132 106 81 70 41 127 107 4 50 125 125 106 38 33 107 83 49 57 46 106 101 122 111 121 38 8 93 51 93 33 40 121 121 52
split_gain=656.451 662.538 1005.53 804.724 825.484 770.101 1323.66 668.893 634.751 865.807 603.441 574.13 568.049 492.569 476.45 373.279 327.584 323.05 318.396 512.366 318.045 842.463 500.644 681.345 427.168 405.992 323.16 323.138 317.742 297.263 295.545 228.675 287.646 191.289 185.807 176.8 150.139 135.191 107.768 112.194 104.208 104.075 81.7388 76.5227 98.1466 55.6818 49.64 37.1812 2.87429 1.16605 1.03179 0.926217 0.427761 0.382486 0.17389 0.122556 0.0793932 0.0749072 0.0391133
threshold=1.0625041127204897 1.0000000180025095e-35 0.87985679507255565 0.97530028223991405 1.2846983075141909 -0.86355489492416371 -0.73152250051498402 1.0013151764869692 1.0000000180025095e-35 0.93979308009147655 1.1891199946403506 -1.0295366644859312 -0.82846376299858082 1.0386589169502261 -0.93798717856407154 -0.50477716326713551 -0.93032553791999806 -1.9192107319831846 -1.0170453786849973 1.099504351615906 -1.2047343254089353 -1.5563256740570066 -1.0971164107322691 1.0406176447868349 1.0501927733421328 1.0000000180025095e-35 -0.90864291787147511 -0.7274632155895232 -0.45984730124473566 1.0928503274917605 -1.6638008952140806 -0.90116164088249195 0.62518364191055309 1.1972742676734927 -1.7695294022560117 -1.2839093208312986 -0.89845222234725941 0.8688144087791444 0.90599703788757335 -1.0162786245346067 -1.2455198764801023 1.1990434527397158 0.93707785010337841 1.2353243231773379 -0.89362782239913929 -0.83624452352523793 -2.0228204727172847 -1.2782777547836301 -1.858133018016815 0.9996890425682069 0.91485980153083812 -0.28207613527774805 1.1730669736862185 -0.28207613527774805 0.85152152180671703 1.0715238451957705 -1.850746154785156 -1.8760510087013242 1.1712627410888674
decision_type=2 2 2 2 2 2 2 2 2 2 2 2 2 2 2 2 2 2 2 2 2 2 2 2 2 2 2 2 2 2 2 2 2 2 2 2 2 2 2 2 2 2 2 2 2 2 2 2 2 2 2 2 2 2 2 2 2 2 2
left_child=1 3 10 4 7 8 12 17 14 -10 28 38 -7 -8 -5 16 -6 -1 50 -20 29 43 23 24 -23 27 -27 -24 40 47 -9 34 -33 -25 -13 -30 41 -17 39 -4 -3 42 -31 48 -45 -40 -43 -2 57 -50 -12 55 56 -46 -54 -38 -49 -22 -53
right_child=20 2 11 5 15 6 13 30 9 -11 18 31 -14 -15 -16 37 -18 -19 19 -21 21 22 25 33 -26 26 -28 -29 35 36 -32 32 -34 -35 -36 -37 51 -39 45 -41 -42 46 -44 44 53 -47 -48 52 49 -51 -52 58 54 -55 -56 -57 -58 -59 -60
leaf_value=0.018041098995545912 0.070883303616457963 -0.035999228799541892 -0.13633897569141004 0.085713967179276651 0.068294077948092141 0.019800062349009103 0.035535110941703162 0.064344246455197027 0.22640546819435892 0.075731139875815867 0.18821790894885626 0.1393800363004761 -0.045450903172280413 0.081373291929382488 0.048283232451824622 0.18778293137518454 0.023015350287295497 -0.071961458045811486 0.061644808816362577 -0.030494924709091556 -0.10723301360075971 0.064902742039140274 0.071387048247877227 -0.023820753676942159 -0.021580041157329321 -0.048036813464467504 0.12638555800274062 -0.03069177361195587 -0.0078328028957572911 0.22322989730199844 -0.0081703007697595566 0.16462813213024341 0.098319482371377789 0.12421734289332811 0.080354986964336336 0.11221494498355025 -0.14208231755863601 0.084971976187481382 0.065171966933064193 0.054136265159616795 -0.12172664129512566 0.025483355050697522 -0.032944844002542821 0.1611266190958569 -0.14507683114502826 -0.054915279268487438 0.13197244258977134 -0.12007476982251993 -0.14718712557724836 -0.17892002728304496 0.20448343648319642 -0.11083142947198049 -0.1465682033688257 -0.12055646806525849 -0.16899271630689366 -0.16327416702365688 -0.13590665422325832 -0.11841391585428929 -0.1271258727950047
leaf_weight=522.68163704127073 9.9617658033967 301.0815701931715 33.036406457424164 3782.9629429578781 2246.4503220953047 3126.2796528041363 6035.1108681596816 1087.3169803470373 402.45748196542263 7277.2696424871683 89.226628452539444 633.00745812058449 2327.4276392608881 3833.3245466127992 33648.420981835574 193.78436836600304 5534.1598648652434 1682.6888210996985 5670.7404705360532 675.39158094674349 8.6842816807329672 854.65066972561181 14852.805917881429 97.927129089832306 1721.6831713430583 112.41689881682396 1927.463008582592 316.72400858998299 400.8548010289669 15.247095905244349 1163.446506947279 1167.2930119484663 1488.3660119920969 803.23845683038235 3386.5940563082695 176.78455147147179 5.4081440418958682 376.18269258737564 46.25125727057457 483.60015815123916 268.02014354616404 45.121199533343315 68.024393010884523 20.515909060835838 12.735255964100363 233.76459561288357 1466.6662996895611 3.5126466900110236 160.21906408667564 12.481803327798842 69.279969930648804 10.953660631552337 9.9648616723716241 12.710929568856953 5.2957652211189261 5.5086063593626022 32.237743392586708 19.327639568597078 1.7020534984767426
leaf_count=2119 31 926 176 7274 6422 8977 17898 2482 318 15238 36 928 8743 9052 79530 334 17602 11976 13232 2305 174 2524 26567 242 6666 360 2724 891 1084 29 3351 1154 2357 658 6263 284 27 877 89 1264 1095 244 329 15 64 839 1197 33 766 53 25 166 50 142 23 24 168 209 18
internal_value=0 0.0499696 0.0690251 0.0460348 0.0232645 0.0508602 0.0314907 -0.0114903 0.0574391 0.0836273 0.0435438 0.0951184 -0.00804648 0.0533406 0.0520661 0.0418108 0.0360884 -0.0506305 0.0553353 0.0518388 0.0690637 0.0657044 0.0678951 0.0332879 0.00710901 0.0748881 0.116773 0.0692557 -0.0233408 0.110932 0.0268606 0.104694 0.127465 0.10813 0.0896503 0.0289074 0.119097 0.119927 0.0148788 0.0419563 -0.0763728 0.122799 0.013961 -0.118008 -0.0016169 -0.03508 0.128794 -0.105825 -0.144661 -0.149481 0.195327 -0.131433 -0.140334 -0.132828 -0.15435 -0.152776 -0.134351 -0.114948 -0.113023
internal_weight=0 88363.3 15123.3 73240 12806.7 60433.3 15322.1 4456.13 45111.1 7679.73 7651.38 7471.91 5453.71 9868.44 37431.4 8350.58 7780.61 2205.37 6504.64 6346.13 22613.2 20933.6 20686.9 3477.5 2576.33 17209.4 2039.88 15169.5 1146.74 1679.6 2250.76 6675.26 2655.66 901.166 4019.6 577.639 1618.63 569.967 796.652 516.637 569.102 1595.06 83.2715 246.675 45.9621 280.016 1511.79 60.9728 200.713 172.701 158.507 23.5725 51.011 25.4462 15.2606 10.9168 35.7504 28.0119 12.6557
internal_count=268644 224250 32057 192193 45163 147030 44670 19928 102360 15556 18987 13070 17720 26950 86804 25235 24024 14095 15598 15537 44394 42055 40632 10090 9190 30542 3084 27458 3389 2339 5833 10702 3511 900 7191 1368 2034 1211 2368 1440 2021 1799 358 1423 221 928 1441 305 1202 819 61 235 274 206 73 51 201 383 184
is_linear=0
shrinkage=0.1


Tree=12
num_leaves=63
num_cat=0
split_feature=53 30 31 28 51 71 102 53 30 134 74 30 52 108 36 71 40 3 98 103 68 107 31 134 53 134 71 56 70 69 62 72 120 103 70 55 28 70 62 102 133 131 30 112 92 75 102 31 40 106 105 134 103 55 65 53 43 60 103 27 108 57
split_gain=615.275 1160.48 438.169 560.298 566.798 437.569 431.508 419.546 787.951 541.98 718.664 411.05 598.949 520.669 685.592 437.479 439.771 400.257 573.339 491.697 391.289 383.663 356.21 1091.19 486.208 363.695 355.973 351.927 331.303 327.344 315.987 315.817 326.213 281.34 555.203 251.276 248.381 245.281 292.677 243.706 237.82 234.983 230.091 242.964 221.674 443.7 203.714 154.156 148.819 147.949 140.689 123.385 122.486 119.647 90.1665 71.0848 65.1367 65.4303 64.4465 62.3153 44.2012 0.681087
threshold=1.0584226846694949 1.0595933198928835 1.001632869243622 1.1801165342330935 1.0648421049118044 -0.46216103434562678 -0.93873268365859974 1.0256025195121767 1.0714970231056216 1.0000000180025095e-35 -0.94863554835319508 1.0504273772239687 1.1121756434440615 -0.87844491004943837 0.91069272160530101 -0.47406849265098566 0.99103546142578136 0.64283883571624767 -0.92979440093040455 -0.91652387380599964 -0.021070902235805985 -0.82125619053840626 0.9936262071132661 1.0000000180025095e-35 1.1136055588722231 1.0000000180025095e-35 -0.43356344103813166 0.92367038130760204 -0.27780240774154658 -0.094063278287649141 0.58489745855331432 -0.62720769643783558 -0.94322377443313588 -0.8447480797767638 -0.31909252703189844 0.97599753737449657 1.2644906640052798 -0.26185892522335047 0.60381302237510692 -0.86450842022895802 1.0000000180025095e-35 1.0000000180025095e-35 1.0768595933914187 -1.0686587691307066 -1.1384293437004087 -1.1215544939041135 -0.82784673571586598 0.99570897221565258 0.95822763442993175 -0.92391654849052418 -0.82267847657203663 1.0000000180025095e-35 -0.84877702593803395 0.96369794011116039 0.3346701860427857 1.0002554655075075 1.1017498373985293 0.74079972505569469 -0.9109041392803191 1.2066970467567446 -0.90250810980796803 0.89106738567352306
decision_type=2 2 2 2 2 2 2 2 2 2 2 2 2 2 2 2 2 2 2 2 2 2 2 2 2 2 2 2 2 2 2 2 2 2 2 2 2 2 2 2 2 2 2 2 2 2 2 2 2 2 2 2 2 2 2 2 2 2 2 2 2 2
left_child=1 2 3 4 55 6 -5 8 31 33 48 12 13 14 26 30 51 18 -10 -19 52 27 23 24 -14 29 -2 -22 -27 -24 42 32 -3 36 -35 -12 -9 38 -18 -33 -16 -6 43 -13 47 -46 -7 -15 -11 -25 -39 54 59 -23 -17 -1 57 -32 -44 -4 -53 -54
right_child=11 7 20 5 41 46 -8 9 17 10 35 15 22 44 40 16 37 19 -20 -21 21 53 25 49 -26 28 -28 -29 -30 -31 56 39 -34 34 -36 -37 -38 50 -40 -41 -42 -43 58 -45 45 -47 -48 -49 -50 -51 -52 60 61 -55 -56 -57 -58 -59 -60 -61 -62 -63
leaf_value=-0.10799756651447295 0.012185070362935445 -0.0014923013070330953 0.20728402120975919 0.084405532545178852 -0.003842594136984458 0.048438425464277596 0.0025476044821655039 0.069592985281082251 0.08238431098565549 0.18339444949687625 -0.063041271936260843 -0.043625361445539662 0.04099504092743049 0.060044305079686083 -0.009674122614534382 0.10297032993636134 0.071612613858040089 0.059959444973226632 0.041299776237118516 0.013573257970230485 0.10386529430613534 -0.14963066967967137 -0.050080111956875034 0.21416275174101473 0.072876467607055365 -0.099760914028538997 0.093289995049327834 0.02794427946997052 0.18855990250855711 0.082305678287769857 -0.026554375342606393 -0.032954132198067101 0.065766750972549345 -0.026463519458960583 0.058990356566038529 0.07607821177225596 -0.1617270384412674 0.088832908572904545 -0.0050803359751165813 0.093615554341768714 0.07039274420407253 0.065198647366256385 0.14351856830443285 0.067427888118667914 -0.046712062074835803 0.052458464562984246 0.15165938648901975 0.12741476084036416 0.12017162613852295 -0.072679600240475636 0.14782916510927835 0.10081253828406643 -0.15026766311256648 0.1420908117143721 0.18803370502924441 -0.055233588108296705 0.091763451757833514 -0.1417964410243584 -0.11912668429422345 -0.046493349404643204 0.20684803643768152 -0.16826883519379202
leaf_weight=438.18303226307034 873.43413462489843 5578.1673158407211 14.750636562705038 837.45127364434302 5490.5500252060592 352.36784896254539 2787.3607467971742 6366.2527855783701 7449.258988648653 518.61623764038086 266.16947045922279 220.73965506255627 8059.6598720978945 769.56901677697897 4703.1191865690053 587.072320997715 3870.1888803988695 4543.4379224404693 6243.6286178827286 4597.5988267734647 708.29383809864521 14.509636566042898 195.84369246661663 18.453874886035919 11767.936869831756 43.468396246433258 1422.5003044381738 4424.8101268559694 479.32975393533707 4034.1062922328711 84.084926590323448 189.4702974408865 828.1676877066493 1093.8007025867701 2493.6670604199171 253.46059559285641 46.759575933218002 1916.0417614132166 571.01339164376259 771.85444574058056 402.74125650525093 541.59605974704027 10.327399924397467 1832.2712664306164 481.62753845751286 7130.1078735142946 418.02293296158314 607.95793544501066 1319.8137283027172 702.37450422346592 512.28539723157883 45.165393188595772 104.91285327076912 453.07782354950905 158.18929903209209 611.86491204798222 20.791199505329132 118.97966299951077 97.956639766693115 28.124312326312065 303.368707716465 26.284312635660172
leaf_count=6692 2536 18036 11 2615 19517 1031 11304 12713 13743 306 933 727 19128 1638 14629 957 7178 10879 14625 12526 1393 66 572 36 20820 183 3115 10926 554 6262 240 678 1943 3279 5370 472 204 2908 1439 1692 903 1203 13 3462 1592 15220 849 899 1605 3251 515 79 477 700 116 2674 37 448 398 89 128 110
internal_value=0 0.041141 0.0192632 0.00795886 -0.00944691 0.0360056 0.0214595 0.0500093 0.0436581 0.0655303 0.108657 0.0560103 0.0515825 0.0366912 0.0170498 0.0738491 0.0851016 0.0528332 0.0636507 0.0366289 0.0417306 0.0463197 0.0612297 0.0555233 0.0599171 0.0859014 0.0624355 0.0384203 0.164587 0.0761763 0.0362801 0.0152227 0.00720249 0.0553614 0.0329359 0.00481721 0.0679063 0.0757245 0.0617521 0.0686696 -0.00335859 0.00235627 0.047994 0.0554874 0.0528639 0.0461835 0.104447 0.0897776 0.138007 -0.0653362 0.101279 0.143994 -0.105921 0.133038 0.121026 -0.0772519 -0.0768166 -0.094077 -0.0940774 0.0408159 0.193107 -0.153874
internal_weight=0 59812.3 17252.2 11477.4 7082.19 4395.2 3624.81 42560.1 30201.6 12358.5 2358.06 52040.7 41692.2 16391.1 7401.79 10348.5 7963.33 22833.9 13692.9 9141.04 5774.76 5600.69 25301.2 20548.4 19827.6 4752.75 2295.93 5133.1 522.798 4229.95 2385.15 7367.66 6406.34 10000.5 3587.47 519.63 6413.01 6869.53 4441.2 961.325 5105.86 6032.15 2161.29 2053.01 8989.26 7611.74 770.391 1377.53 1838.43 720.828 2428.33 1093.8 174.072 467.587 745.262 1050.05 223.856 203.065 108.284 42.8749 348.534 131.197
internal_count=268644 158661 59657 45885 30086 15799 13919 99004 74122 24882 3316 109983 91338 40532 21183 18645 13320 51773 28368 23405 13772 13085 50806 43235 39948 7571 5651 12319 737 6834 5325 22349 19979 21566 8649 1405 12917 12040 8617 2370 15532 20720 4600 4189 19349 16812 1880 2537 1911 3287 3423 1280 687 766 1073 9366 725 688 411 100 207 587
is_linear=0
shrinkage=0.1


Tree=13
num_leaves=62
num_cat=0
split_feature=136 32 106 3 102 31 4 135 73 30 120 60 28 31 29 93 72 2 31 2 30 29 47 35 71 0 105 104 101 78 105 120 73 29 31 56 59 30 104 53 104 7 44 41 80 0 0 99 129 30 0 58 50 98 108 49 70 29 118 64 52
split_gain=545.185 770.889 469.859 643.451 657.02 518.657 494.436 864.952 370.076 420.568 368.661 356.97 331.699 342.079 340.83 345.272 325.55 454.257 445.589 275.83 260.263 236.968 229.275 219.413 359.289 277.163 178.356 173.391 170.878 168.576 152.355 151.826 148.308 113.044 111.701 172.864 152.188 145.207 115.087 90.7496 82.2566 78.4886 81.0408 62.3885 93.4393 176.545 72.5462 58.9746 54.1476 49.8474 89.05 71.2279 63.9677 128.501 32.7171 31.8073 85.7962 21.1572 12.8521 2.75979 1.26613
threshold=1.0000000180025095e-35 0.9626726806163789 -0.94722869992256153 0.70129519701004039 -0.93032553791999806 1.0047034621238711 0.67444926500320446 1.0000000180025095e-35 -0.84810727834701527 1.0460037589073183 -1.0026506781578062 0.82647234201431286 1.3392380475997927 0.995404213666916 1.2354449629783633 -0.9987281560897826 -0.62012937664985646 0.70374390482902538 0.96453702449798595 0.33055743575096136 1.1032932400703432 1.1512371897697451 1.0632669329643252 0.84511438012123119 -0.48504926264286036 0.52654442191123974 -0.94659629464149464 -0.82235476374626149 -0.94985565543174733 -1.2538282275199888 -0.82080671191215504 -0.94322377443313588 -0.88839787244796742 1.2073841094970705 1.0004826784133913 0.99016043543815624 0.8154849410057069 1.0514113903045657 -0.79778063297271717 0.93525153398513805 -0.8128906488418578 0.61738899350166332 1.0494808554649355 1.0894379615783694 -1.2843611836433408 0.36258487403392797 0.40446907281875616 -0.77211076021194447 1.0000000180025095e-35 1.0748770236968996 0.55549579858779918 0.78205421566963207 1.0826576352119448 -0.94935059547424305 -0.88891056180000294 0.97487619519233715 -0.41824655234813685 1.1537609100341799 -1.0942059159278867 0.48078744113445288 1.1088744997978213
decision_type=2 2 2 2 2 2 2 2 2 2 2 2 2 2 2 2 2 2 2 2 2 2 2 2 2 2 2 2 2 2 2 2 2 2 2 2 2 2 2 2 2 2 2 2 2 2 2 2 2 2 2 2 2 2 2 2 2 2 2 2 2
left_child=2 8 5 4 20 16 7 -6 49 11 -8 30 13 39 31 -16 17 21 26 -20 29 -1 55 25 -25 -11 -18 43 -15 -4 -10 -14 -22 -19 35 60 37 -36 -38 -5 -13 42 -24 44 46 -46 -3 -37 -43 52 51 -51 57 -54 -52 58 -57 -2 -7 -45 -29
right_child=1 27 3 12 6 22 10 -9 9 23 -12 40 14 28 15 -17 18 33 19 -21 32 -23 41 24 -26 -27 -28 34 -30 -31 -32 -33 -34 -35 36 47 38 -39 -40 -41 -42 48 -44 59 45 -47 -48 -49 -50 50 54 -53 53 -55 -56 56 -58 -59 -60 -61 -62
leaf_value=-0.085845271897357106 -0.09547449572583909 0.13059322016705041 0.043993427526885405 -0.078731874360773155 0.045121428075512879 0.19607360458827999 -0.028200312174688325 0.078611947224460896 -0.094648818928867937 0.11373123885478807 0.032810991606669199 0.10664908533617193 0.014606189991744931 0.11023267804605297 -0.07550736835619222 0.18366097085013597 0.085273948231005287 -0.074067217868216489 0.094763094644092688 0.02936569624063548 -0.080799244350598542 -0.011265661852422088 0.12462741117517331 -0.045235348979406773 0.028447351659698063 -0.050823068008219723 -0.029292996212850687 -0.14969191146972124 -0.084860350735931955 0.10141640309397565 0.0068976635211519602 0.094468478367267322 0.15338416248551498 0.12256960030157632 -0.11551362675719545 0.066817080948133739 0.082542453275272723 0.036125602482576777 -0.13787970755516893 0.053314994144929441 -0.1136965597869028 -0.1794460879388976 0.0046640812388469375 0.1991537763830335 0.088653327808219759 -0.022853673624410195 0.070704357609232757 -0.1702775618714617 0.12326798653171474 0.046368276015398023 -0.12509791860242575 -0.10454341448273795 0.23439163950120215 -0.067843951690957624 -0.032055357555195667 0.049058125928410752 0.13365283864465391 -0.051235021855117115 0.13181558503772695 0.15957693282980545 -0.17953812977447753
leaf_weight=533.84979542344809 378.16583308205009 491.74142555892467 602.65180169045925 844.93459641933441 73511.198693780228 65.240084081888199 1357.9514905065298 8615.4688626155257 668.45716088823974 495.67497312277555 3658.9922022782266 159.49397061765194 395.22175100445747 184.8681081533432 395.51462513953447 59.082920886576176 153.18666413426399 32.693025097250938 1025.4464335888624 1738.092305213213 135.26416589319706 2109.6368490159512 76.258339703083038 784.81878776848316 4221.1869915053248 128.99420361220837 1203.0448992103338 49.990502566099167 59.29551887512207 3370.4274956285954 189.67280844785273 598.5764147117734 33.80054846405983 276.48821570724249 90.416111886501312 100.73281960189342 700.95445239543915 209.39632229506969 24.515733003616333 55.462528847157955 18.955368742346764 29.491387948393822 215.30138795077801 35.857131004333496 487.76946459710598 200.29222632944584 343.59578002989292 11.710769176483153 7.3896023780107489 169.61242993175983 81.868864454329014 38.346335232257843 19.837433867156506 48.363809041678905 70.198853954672813 166.78157025575638 426.41323049366474 151.37538337334991 59.524548232555389 34.641806840896606 19.860234841704369
leaf_count=2478 3485 425 1206 6310 166398 44 4406 14530 2938 1080 9107 187 1178 259 1937 97 284 161 2239 5423 482 7215 97 3358 11317 577 4967 233 216 5163 609 1034 38 486 349 181 1060 436 90 120 68 120 513 13 715 519 606 49 10 592 516 195 28 219 363 337 506 903 61 29 82
internal_value=0 0.0212244 0.0452314 0.0472273 0.0486226 0.0221519 0.046773 0.0486347 0.00474277 0.0130927 0.0162969 -0.0454434 -0.0018949 -0.0421294 0.0298995 -0.0418239 0.0124299 -0.0129129 0.0305932 0.0536322 0.0875355 -0.0263269 0.0878615 0.0238689 0.0168957 0.0797508 -0.0163526 0.0660838 0.062854 0.0927063 -0.072204 0.0627082 -0.0339797 0.101777 0.0375018 -0.0346267 0.0503262 -0.00960509 0.0750938 -0.0705981 0.0832434 0.0186544 0.0360409 0.0877383 0.0834823 0.0561941 0.105959 0.0421242 -0.118793 -0.0533829 -0.0239874 0.0185411 -0.0710881 0.0200662 -0.0821468 0.119521 0.109868 -0.0828281 0.165416 0.179706 -0.158178
internal_weight=0 10426.5 101998 93878.7 91285.8 8118.84 87143.6 82126.7 7625.02 6667.25 5016.94 1036.58 2592.96 1144.56 1448.4 454.598 7072.44 2952.67 4119.77 2763.54 4142.14 2643.49 1046.4 5630.67 5006.01 624.669 1356.23 2801.47 244.164 3973.08 858.13 993.798 169.065 309.181 1207.58 182.294 1025.28 299.812 725.47 900.397 178.449 328.441 291.56 1593.9 1523.4 688.062 835.337 112.444 36.881 957.769 360.026 207.959 597.742 68.2012 152.068 717.959 593.195 529.541 124.765 70.4989 69.8507
internal_count=268644 31222 237422 212481 201330 24941 194441 180928 26435 20134 13513 3802 11151 6905 4246 2034 23253 10340 12913 7662 6889 9693 1688 16332 14675 1657 5251 4787 475 6369 3547 2212 520 647 2480 545 1935 785 1150 6430 255 740 610 2307 2265 1234 1031 230 130 6301 1666 787 4635 247 879 948 843 4388 105 42 315
is_linear=0
shrinkage=0.1


Tree=14
num_leaves=62
num_cat=0
split_feature=53 30 53 30 70 103 134 74 71 71 100 27 29 70 102 53 105 2 97 35 55 5 99 72 102 135 29 70 82 26 28 70 53 30 135 129 71 102 136 51 57 127 14 0 72 70 108 57 71 14 97 50 1 133 100 32 101 105 49 50 118
split_gain=513.204 749.068 431.454 743.666 502.943 492.329 427.649 1074.47 502.844 396.234 644.991 550.921 419.664 385.868 374.807 383.75 368.385 386.992 346.307 339.747 339.555 322.483 320.723 620.638 493.033 646.86 479.958 851.646 417.746 413.808 368.153 308.545 282.969 273.811 265.174 264.382 247.952 244.805 236.339 253.896 196.401 190.388 185.056 184.577 184.474 183.733 159.027 153.725 398.759 148.278 129.95 320.936 153.73 120.473 120.188 116.425 29.0763 16.9377 1.23725 0.167628 0.0408955
threshold=1.0743721723556521 1.0532929897308352 1.0430659651756289 1.0648853778839114 -0.3036081194877624 -0.82727476954460133 1.0000000180025095e-35 -0.92612525820732106 -0.45962771773338312 -0.43356344103813166 -0.86031970381736744 1.2427632212638857 1.0963731408119204 -0.33321921527385706 -0.83633512258529652 1.0133516788482668 -0.82143351435661305 0.37591993808746343 -0.93135121464729298 0.89205807447433483 0.95818623900413524 0.83319011330604564 -0.82208850979804982 -0.56771698594093312 -0.77485543489456166 1.0000000180025095e-35 1.0752244591712954 -0.18785773962736127 -1.4377563595771787 0.96222546696662914 1.1076252460479739 -0.22534348070621488 1.0799914598464968 1.0748770236968996 1.0000000180025095e-35 1.0000000180025095e-35 -0.44644334912300104 -0.81557172536849964 1.0000000180025095e-35 1.1437935233116152 0.91703855991363536 -1.9389556050300596 0.90319383144378673 0.36939004063606268 -0.62094435095787037 -0.32538834214210505 -0.94673198461532582 0.93025103211402904 -0.42725561559200281 0.91452389955520641 -0.88833355903625477 1.1427026987075808 0.34701287746429449 1.0000000180025095e-35 -0.8174934685230254 0.97033408284187328 -0.87257865071296681 -0.97397193312644947 1.1136346459388735 1.1193131208419802 -0.91536757349967945
decision_type=2 2 2 2 2 2 2 2 2 2 2 2 2 2 2 2 2 2 2 2 2 2 2 2 2 2 2 2 2 2 2 2 2 2 2 2 2 2 2 2 2 2 2 2 2 2 2 2 2 2 2 2 2 2 2 2 2 2 2 2 2
left_child=1 9 3 4 5 -3 8 41 37 10 21 36 18 -13 15 -5 17 -14 42 -10 -6 34 33 24 32 28 27 30 -26 -29 -25 -20 40 35 -1 47 -12 -4 53 -40 -24 -8 -11 -9 -34 -16 -27 54 -49 -18 52 -52 -37 -28 -2 58 -57 -23 60 -60 -35
right_child=22 2 6 14 20 -7 7 43 19 12 11 13 16 -15 45 -17 49 -19 31 -21 -22 57 23 26 25 46 38 29 -30 -31 -32 -33 44 55 -36 50 -38 -39 39 -41 -42 -43 -44 -45 -46 -47 -48 48 -50 -51 51 -53 -54 -55 -56 56 -58 -59 59 -61 -62
leaf_value=0.047308409678160863 0.060323312246843987 0.0032209693019085855 0.029861251587466282 0.036620664252675093 0.091871841918563527 -0.084983979426615869 -0.027071824953565245 0.0078685977829252799 0.13346174440714201 0.099899310423522417 -0.063796080931489862 -0.0099540228380168815 0.10745939558001237 0.10291809189574629 -0.087018630164967942 0.061261583139371995 0.1202165422109627 0.019798083388024069 -0.013465520549471782 0.058476441725749374 0.021312872895693835 0.082963369558569811 0.040561847945441806 -0.034397913603196988 0.16160293164725231 -0.02015439717278239 0.074188443798732046 -0.065617079024166622 -0.077951950725706043 0.056350889765204019 0.029350077384121577 0.032935902096467254 -0.029552774226740498 -0.14203492413519977 -0.069289337438315737 -0.20253542110038203 -0.013325273844535008 -0.074260135104409083 -0.041235133123569946 0.097138818330017099 -0.091613325032658621 0.1227582029029245 -0.13336724965609922 -0.11932341005756977 0.050704278266749427 0.019629775621015318 0.16037182295240124 -0.021525054424959958 0.056304938738478041 -0.15515441532873037 -0.0074242351602216402 0.096819473764688052 0.10543167414993043 0.11142704494357965 0.11214718006402047 -0.036767713179402431 0.16102177953607175 -0.10775986649775463 -0.16024748093282348 -0.17548354803374858 -0.12837550991039018
leaf_weight=3201.0750770196319 3882.7991174459457 5442.6098126024008 5477.7988052219152 23655.90511225909 943.26642364263535 716.060034096241 88.113952085375786 250.90408574044704 699.19467927515507 574.02701525948942 2081.3355555441231 744.67386143654585 648.57219232618809 510.51531445235014 323.20791062712669 8624.4891396909952 842.56852960586548 2252.9993489980698 3266.3527870252728 4448.8700399845839 2462.6923174411058 4.794299053028225 183.06230644881725 1724.3700464591384 77.325903058052063 66.688082844018936 2161.9913598299026 284.25834675692022 1242.366759352386 12983.850683743134 1908.7099209874868 2553.1778514832258 319.60202696919441 3.7265473604202271 207.70880685001612 16.341027244925499 1828.5727961584926 235.51756602525711 308.29285250604153 232.68030515313148 291.32683762907982 2260.9575186818838 36.151222497224808 209.24044726788998 2756.6888271570206 322.95095691084862 181.88228961825371 849.79674293100834 2921.0835496336222 20.018840193748474 438.42528140544891 904.92366559803486 2001.8624577522278 1452.3861641287804 505.80321978032589 14.303252875804903 15.472469329833983 161.83462638407946 8.2974480390548688 55.664392247796059 5.3222566843032819
leaf_count=9412 6616 17772 12413 56008 1804 2904 244 722 833 897 9406 3129 1132 1286 1192 16650 1154 5923 11170 7854 6551 17 440 5122 72 159 3751 2851 4445 24835 4117 6595 992 19 831 66 6020 804 977 368 1162 2355 756 819 5979 785 138 2181 5253 89 1045 1063 2477 1904 797 38 12 3941 37 229 31
internal_value=0 0.0337369 0.039536 0.0345644 0.0100185 -0.0070345 0.0549886 0.0897662 0.0459936 0.0165362 0.000913644 -0.0216876 0.0299314 0.0359538 0.0416946 0.0432041 0.0564495 0.0393925 0.0144068 0.0686607 0.0408539 0.0335637 0.0480236 0.0418853 0.0106551 -0.0360425 0.0494775 0.0419914 -0.0639155 0.0537378 -0.000906654 0.00689198 0.0312804 0.0618464 0.0402037 0.0632961 -0.0401921 0.0255691 0.0799258 0.0182815 -0.0406082 0.117138 0.086079 -0.0499691 0.0423662 -0.0337156 0.111939 0.0535729 0.0387654 0.113826 0.0868972 0.0627977 0.102938 0.0891522 0.0662962 -0.100644 0.0660104 -0.102272 -0.168611 -0.173507 -0.134001
internal_weight=0 75096.2 56161.8 42491.2 9564.63 6158.67 13670.6 2809.22 10861.4 18934.4 8740.51 5165.1 10193.9 1255.19 32926.6 32280.4 3764.16 2901.57 6429.71 5148.06 3405.96 3575.41 37799.3 26175.5 5118.94 1568.26 21056.5 16901.2 1319.69 13268.1 3633.08 5819.53 3550.68 11623.8 3408.78 11521 3909.91 5713.32 4155.35 540.973 474.389 2349.07 610.178 460.145 3076.29 646.159 248.57 8159.48 3770.88 862.587 3361.55 1343.35 2018.2 3614.38 4388.6 102.786 29.7757 166.629 73.0106 63.9618 9.0488
internal_count=268644 191468 129710 103666 29031 20676 26044 4140 21904 61758 34042 19841 27716 4415 74635 72658 8298 7055 19418 8687 8355 14201 77176 57312 13387 4814 43925 36925 4517 27686 9239 17765 8573 19864 10243 19498 15426 13217 7000 1345 1602 2599 1653 1541 6971 1977 297 14847 7434 1243 4651 2108 2543 5655 7413 366 50 3958 316 266 50
is_linear=0
shrinkage=0.1


Tree=15
num_leaves=63
num_cat=0
split_feature=136 32 108 134 31 50 75 70 78 33 46 107 107 30 109 78 74 108 72 120 105 98 53 4 104 95 36 71 0 110 105 71 87 75 125 52 105 73 69 101 35 69 61 0 2 120 71 29 106 29 104 1 25 101 104 9 118 58 56 30 52 31
split_gain=439.789 621.031 393.486 466.738 784.348 575.639 676.349 438.126 416.177 392.888 430.162 513.102 358.026 347.357 347.288 529.048 395.965 316.024 308.754 335.693 384.257 280.846 257.161 256.35 376.034 234.377 225.153 340.751 257.121 211.808 178.748 177.67 155.677 153.399 145.716 146.558 165.562 142.33 134.425 196.787 122.504 109.781 105.452 103.973 86.3663 68.1218 59.9147 59.6087 57.1743 55.8284 164.08 72.3188 66.8149 80.0155 57.6688 48.6405 32.0524 53.3994 22.8872 3.47404 2.41707 0.507371
threshold=1.0000000180025095e-35 0.96323859691619884 -0.90620547533035267 1.0000000180025095e-35 0.9936262071132661 1.1472267508506777 -1.0368151664733884 -0.27780240774154658 -1.2432212233543394 0.84198185801506054 1.2182147502899172 -0.96704649925231922 -0.9859543740749358 1.099504351615906 -0.89539441466331471 -1.2633739113807676 -1.0575976371765134 -1.0272091031074522 -0.68990278244018544 -1.1242734789848325 -0.84793162345886219 -0.96826151013374318 0.93525153398513805 0.74311864376068126 -0.9112979769706725 -1.0853452086448667 0.85204872488975536 -0.48504926264286036 0.51787221431732189 -0.92004463076591481 -0.81731280684471119 -0.23169089853763578 -1.2222537398338316 -1.0893431305885313 -1.5077051520347593 1.090108394622803 -0.81652435660362233 -0.75807058811187733 -0.1107332408428192 -0.76893332600593556 0.92222636938095104 -0.052363676950335496 0.68500638008117687 0.34509111940860754 0.51959869265556347 -1.0320244431495664 -0.41678440570831293 1.2197665572166445 -0.92391654849052418 1.1537609100341799 -0.87493088841438282 0.55463197827339183 1.3489102125167849 -0.90547716617584217 -0.90549093484878529 0.8436165750026704 -1.0151036381721494 0.86482480168342601 0.93966323137283336 1.1011983752250674 1.1325321793556216 0.9986347258090974
decision_type=2 2 2 2 2 2 2 2 2 2 2 2 2 2 2 2 2 2 2 2 2 2 2 2 2 2 2 2 2 2 2 2 2 2 2 2 2 2 2 2 2 2 2 2 2 2 2 2 2 2 2 2 2 2 2 2 2 2 2 2 2 2
left_child=2 18 3 9 38 6 -6 -7 14 17 11 -11 -12 23 15 32 25 31 49 20 37 -18 -19 24 -10 -16 28 -28 -21 -17 -22 -1 -4 -25 35 40 41 -20 48 -40 42 -37 -3 -42 56 46 -46 55 -5 52 54 -52 53 -2 -51 -15 58 -58 -36 -49 -54 -38
right_child=1 34 8 4 5 7 -8 -9 13 10 12 -13 -14 47 16 29 21 22 19 26 30 -23 -24 33 -26 -27 27 -29 -30 -31 -32 -33 -34 -35 44 36 61 -39 39 -41 43 -43 -44 -45 45 -47 -48 59 -50 50 51 -53 60 -55 -56 -57 57 -59 -60 -61 -62 -63
leaf_value=-0.077680461925778044 0.021369611249144268 0.0074340314895983087 -0.0089851205852390873 0.010672227582306088 0.057249370539166712 -0.11434363252297214 -0.032517636907515565 0.16726907573671582 0.09218696197377424 0.018925474509030246 0.1020512503897904 0.045101283664429816 0.03648581675936987 -0.15778674244568502 0.018516624743136003 0.015234563637062482 0.072310409270936571 0.0014906927334822195 -0.07723498621835978 0.11941594790761545 -0.094428457891610987 0.040138447440166647 0.0415903661702689 -0.084610189741162078 0.0519873931425964 -0.077338808947213761 -0.044192323776697878 0.025023776451474855 -0.049835957463290788 0.052524870586402754 0.074700184605884595 0.0098414663716519749 -0.07178436531587111 0.023464174243835227 0.20465173479036786 0.07596712292517295 -0.1414687282360943 0.049338032575731355 -0.00087145548274750152 -0.10309028378856191 0.11732640482330636 -0.015514104936077792 0.15747778066243107 -0.09633891872045168 -0.16131222217007479 0.1382487840262826 0.10462107711167774 -0.10733536496558582 -0.12208631628729612 -0.12445049263722562 0.13162224250066254 -0.056219346388890805 -0.12032989164309177 -0.10489000073507795 -0.038718978446033593 0.018493363047160108 0.025838306608998687 0.12598646998097596 0.12236268160117179 -0.15041896492805579 -0.19311659734392994 -0.16771852018360819
leaf_weight=558.27252271585166 103.4776857830584 236.3862444460392 1736.9494585394859 35.17596660554409 1563.7070094496012 64.163771331310272 1811.8950069248676 397.45655037462711 2766.2631109133363 12920.657985605299 1806.5172762162983 17812.575365178287 1545.2332633212209 20.547099396586418 667.86795259267092 3109.3191793859005 3038.520083013922 3403.1638135537505 108.86814479529858 407.88426940143108 736.8331748098135 25358.571326959878 3017.1539527997375 173.2003364469856 14651.738786900416 412.71415200456977 857.3214512616396 4174.5106295570731 115.08172140270472 2985.8883884400129 68.280037507414818 396.79764729179442 510.84056393802166 543.3270425349474 37.954847350716591 1225.5444037467241 10.954898267984388 482.94912629574537 455.10833688080311 321.29841671139002 26.519132107496262 146.90261554718018 58.415440142154694 161.29433020949364 29.668526709079742 20.272818505764008 11.858229070901869 25.788320377469063 417.01582007855177 99.086105994880199 76.962685160338879 27.935437917709351 189.978634852916 97.474706826731563 376.96267339587212 65.712561532855034 94.38226792216301 122.14298133552074 308.70754407346249 68.24419479072094 4.6745639443397513 22.45935332775116
leaf_count=2705 1252 540 4538 115 2945 282 6356 394 4017 37136 1718 36118 2761 92 4188 7380 5365 10507 393 793 2951 53102 7879 597 30124 1487 3838 11024 489 5619 167 2351 1744 1869 25 1787 56 1041 1656 1679 39 361 45 558 131 23 21 115 2088 661 197 127 1618 607 1836 174 184 96 247 321 19 96
internal_value=0 0.0150365 0.0365776 0.0297773 0.00112367 0.0233888 0.00906585 0.128126 0.0422139 0.0332783 0.0378066 0.0340966 0.0718241 0.0545871 0.0362221 0.0182099 0.04132 0.0123513 0.001305 0.00870136 -0.0351185 0.0435809 0.0203351 0.0559603 0.0583717 -0.0180941 0.0197213 0.0132308 0.0821711 0.0335021 -0.080085 -0.0413182 -0.0232571 -0.00265976 0.05835 0.0444985 0.0608206 0.0260542 -0.0684161 -0.0431724 -0.00304816 0.0661752 0.0371654 -0.0661695 0.100204 -0.012016 -0.0853733 -0.0835313 -0.111759 -0.0513471 -0.0316164 0.0815981 -0.0803216 -0.0398743 -0.0565634 -0.0234967 0.112518 0.0823324 0.131372 -0.138603 -0.122078 -0.159112
internal_weight=0 10441.7 102662 46526.2 5065.82 3837.22 3375.6 461.62 56135.5 41460.4 34085 30733.2 3351.75 18314.8 37820.7 8343 29477.7 7375.39 7928.28 6951.73 1396.93 28397.1 6420.32 18134.5 17418 1080.58 5554.8 5031.83 522.966 6095.21 805.113 955.07 2247.79 716.527 2513.46 1888.48 1405.86 591.817 1228.6 776.407 482.615 1372.45 294.802 187.813 624.987 61.7996 41.5268 180.292 452.192 976.552 580.947 104.898 395.606 200.952 476.049 86.2597 563.188 216.525 346.662 94.0325 194.653 33.4143
internal_count=268644 31222 237422 116690 15515 9977 9301 676 120732 101175 77733 73254 4479 37309 83423 19281 64142 23442 27013 20696 4552 58467 18386 36607 34141 5675 16144 14862 1282 12999 3118 5056 6282 2466 4209 3482 2300 1434 5538 3335 1182 2148 585 597 727 175 152 702 2203 6317 2821 324 3496 1859 2497 266 552 280 272 436 1637 152
is_linear=0
shrinkage=0.1


Tree=16
num_leaves=63
num_cat=0
split_feature=53 30 129 53 30 134 73 71 100 29 4 98 53 103 98 72 102 135 29 71 53 49 72 25 30 29 74 92 103 1 105 75 136 49 58 74 118 57 135 110 134 30 120 76 94 71 101 25 0 81 39 23 72 74 108 102 74 46 29 1 97 41
split_gain=413.161 722.652 344.009 341.638 565.513 416.751 555.765 340.566 595.159 463.143 361.649 305.758 300.453 336.666 280.892 611.954 630.679 555.762 452.749 650.334 331.293 317.111 291.271 279.505 260.434 254.852 248.231 386.058 424.676 236.389 423.877 222.502 218.585 218.88 215.283 205.297 213.362 200.269 196.26 188.241 185.792 328.005 257.947 203.645 183.026 175.643 209.728 173.572 157.061 149.917 142.855 136.932 136.074 128.968 171.646 119.047 104.544 100.27 91.0157 74.2019 59.1452 36.7292
threshold=1.0633960366249087 1.0584666728973391 1.0000000180025095e-35 1.0276752114295962 1.0704337954521181 1.0000000180025095e-35 -0.79805719852447499 -0.45395655930042261 -0.87121558189392079 1.0920940041542055 0.56937819719314586 -1.0318686962127683 1.0376294851303103 -0.94181084632873524 -0.84410086274147023 -0.55982863903045643 -0.77595302462577809 1.0000000180025095e-35 1.0752244591712954 -0.37655514478683466 1.1136055588722231 1.1527513265609743 -0.58496320247650135 1.2916564941406252 1.0473418235778811 1.1144742965698244 -0.95244807004928578 -1.118358254432678 -0.80980557203292836 0.32549288868904119 -0.8364049196243285 -1.1082562208175657 1.0000000180025095e-35 1.173572361469269 0.84958955645561229 -0.9853050410747527 -0.92458581924438465 0.90354230999946605 1.0000000180025095e-35 -1.0332041978836057 1.0000000180025095e-35 1.049424469470978 -1.0814359188079832 -1.112671911716461 -0.99940112233161915 -0.41678440570831293 -0.82707044482231129 1.2073997259140017 0.3323561698198319 -1.1881904006004331 0.9754261076450349 1.3681637048721316 -0.63032439351081837 -0.87448531389236439 -0.88584539294242848 -0.81669798493385304 -1.0492389202117918 1.1133227944374087 1.0837680101394656 0.40530222654342657 -0.84867754578590382 1.0086355209350588
decision_type=2 2 2 2 2 2 2 2 2 2 2 2 2 2 2 2 2 2 2 2 2 2 2 2 2 2 2 2 2 2 2 2 2 2 2 2 2 2 2 2 2 2 2 2 2 2 2 2 2 2 2 2 2 2 2 2 2 2 2 2 2 2
left_child=1 7 3 4 23 37 -7 8 12 45 25 -6 13 -1 26 16 21 22 19 38 -21 24 -18 -3 -16 -10 27 35 31 51 -31 -29 55 -34 53 36 -2 -5 -17 -19 42 50 48 -43 -30 46 -9 -47 -28 -23 -42 -11 -12 54 -4 -20 -14 61 -37 -44 -55 -36
right_child=14 2 34 5 11 6 -8 9 10 29 52 -13 56 -15 15 18 17 39 32 20 -22 49 -24 -25 -26 -27 40 28 44 30 -32 -33 33 -35 57 58 -38 -39 -40 -41 41 43 59 -45 -46 47 -48 -49 -50 -51 -52 -53 -54 60 -56 -57 -58 -59 -60 -61 -62 -63
leaf_value=0.057985528329890602 -0.035513164345147688 0.05405570930534144 -0.048861809651626023 0.042847526528691102 0.13600497148349328 0.10348414788320855 -0.020129339581153868 0.044208608861708999 -0.047071543917548274 0.062886177997424506 -0.07641549320755088 0.035337788243372713 -0.039217576313257702 -0.030381728349996667 -0.018203329619594363 -0.066014391905145728 -0.11215827646668966 -0.035986139763303553 0.018392442823254883 0.024776230061560246 0.053492319237965338 0.069081340674754424 -0.028347050128377752 -0.0023689408714555331 0.035048023933398419 0.017171373266815476 0.069225086728526342 -0.086011318723275165 -0.024207558121618775 -0.0027210565624919084 0.045530305411405465 0.040751984788302928 -0.037845489600661697 0.1115263907974571 0.15608405573746864 0.059456494079400284 0.052246126561161038 -0.014353737318249718 0.057784440328503751 0.14601526263732248 0.13702142958349592 0.14387122065800489 0.092643896375772486 0.031136138504642943 -0.12868723010294 -0.073306378988365978 -0.091093112428919237 0.012498872478535284 0.032216752253106509 0.02569251901157886 -0.11007132751982503 0.16631683679190956 -0.010921013118893977 0.17195309789432459 0.013223082273558621 0.08746607141487929 0.058586106664224327 -0.14014751092857355 0.10972194903061211 0.063322392765647426 -0.021062098013961972 0.068781673363392345
leaf_weight=623.27017327956855 353.95174188911915 1014.1000638604164 1051.7373365610838 9437.3089449852705 305.66589832305908 2248.2004266530275 433.9114170819521 147.5456881467253 962.71325800567865 791.42876254022121 1517.0146264415234 23364.601294219494 116.56510895490646 1398.597979484126 1982.2965559512377 788.05805067718029 564.04302463680506 77.682365909218788 271.47750927507877 7765.1267352905124 8324.5622262153774 1757.8349286317825 1565.6896898448467 6537.2939887493849 1711.2335559278727 1722.0587216243148 1497.6467442661524 148.61841815710068 746.54146684706211 2998.9528936445713 4633.6544200479984 2027.2565764635801 317.37009696662426 141.98939666152 91.121144831180573 709.1347349062562 1274.790325589478 654.52078025043011 152.9013028293848 211.68860831856728 30.650936722755432 709.40171948075294 1355.7355433106422 206.9866324365139 216.23212756216526 278.33356912061572 512.51927544176579 1540.9254325851798 4894.4640847295523 1455.8734646439552 98.876225203275681 152.69484421610832 401.09709376841784 51.095024287700653 772.30299504846334 3084.0727506875992 1751.7430595383048 17.485127240419388 732.14331094920635 2374.9772289991379 23.032235771417618 102.28432966768742
leaf_count=2359 1019 2196 3088 19752 259 2581 1260 718 4655 1760 6270 52158 384 8387 6089 2635 2454 194 581 18762 16049 2671 4481 20230 4010 5631 2275 500 2041 8614 10228 3860 999 190 74 1138 2233 1525 279 164 37 612 1646 466 832 1594 2358 5174 9839 3528 374 214 1573 53 1822 4649 4057 60 863 3910 71 159
internal_value=0 0.0259498 0.0327814 0.0346727 0.0290362 0.0484494 0.083486 0.009838 -0.00522131 0.0214063 -0.0295576 0.0366378 0.0235735 -0.00314124 0.0381899 0.032357 0.0110653 -0.032876 0.0418829 0.0349078 0.0396335 0.0264548 -0.0505438 0.0052085 0.00646833 -0.00586504 0.0483175 0.0322873 0.00762545 0.0324106 0.0265717 0.0320937 0.0730212 0.00832581 -0.00667093 0.0575005 0.0331746 0.0391377 -0.0458977 0.0971565 0.0572287 0.0973536 0.0530828 0.118408 -0.047673 -0.016661 -0.0608488 -0.000628715 0.0408877 0.0494253 -0.0516 0.0796142 -0.0627199 -0.0173202 -0.0225749 0.0818777 0.0524841 0.0891806 0.0849904 0.0739778 0.111981 0.109913
internal_weight=0 65653.8 46104.7 43995.6 31221.7 12773.9 2682.11 19549.1 8493.06 11056.1 4602.88 23670.3 3890.18 2021.87 47549.3 30171.9 9326.34 2419.1 20845.6 17030.6 16089.7 6907.24 2129.73 7551.39 3693.53 2684.77 17377.4 6208.67 3138.65 8576.73 7632.61 2175.87 3814.91 459.359 2109.06 3070.02 1628.74 10091.8 940.959 289.371 11168.7 1045.92 10122.8 916.388 962.774 2479.32 660.065 1819.26 6392.11 3213.71 129.527 944.124 1918.11 1898.17 1824.04 3355.55 1868.31 210.891 1441.28 3730.71 74.1273 193.405
internal_count=268644 169264 105288 99961 74843 25118 3841 63976 33316 30660 18129 52417 15187 10746 99380 67735 23591 7293 44144 37725 34811 16298 6935 22426 10099 10286 31645 12486 7233 20816 18842 4360 6419 1189 5327 5253 3252 21277 2914 358 19159 1489 17670 1078 2873 9844 3076 6768 12114 6199 411 1974 7843 5034 4910 5230 4441 293 2001 5556 124 233
is_linear=0
shrinkage=0.1


Tree=17
num_leaves=63
num_cat=0
split_feature=52 29 70 71 135 55 131 74 29 4 95 129 101 25 100 109 67 52 101 30 71 134 117 37 35 136 102 31 70 18 32 125 72 27 29 136 68 14 115 80 58 58 18 107 30 69 68 106 59 106 57 36 65 67 75 121 22 74 120 93 94 61
split_gain=350.622 518.43 697.762 445.609 441.031 712.171 607.03 544.869 412.593 397.423 324.31 352.907 282.095 369.909 264.424 289.775 282.076 487.126 398.384 277.317 447.327 424.708 237.689 216.089 212.213 182.413 181.681 181.331 185.487 163.83 161.52 154.919 154.745 154.444 151.192 141.138 130.183 130.179 129.604 124.54 122.529 211.188 172.065 106.735 106.378 93.6184 90.0212 89.344 79.3581 70.9295 70.1632 69.7451 52.6285 30.1975 20.8875 73.0696 18.8946 6.59442 13.2533 2.08678 0.775856 0.670914
threshold=1.1021922230720522 1.0997621417045595 -0.25484317541122431 -0.43356344103813166 1.0000000180025095e-35 0.88255390524864208 1.0000000180025095e-35 -1.0340425372123716 1.1939092278480532 0.59365600347518932 -0.99442794919013966 1.0000000180025095e-35 -0.82841700315475453 1.2602124214172366 -0.49852937459945673 -1.0971164107322691 0.28902541100978857 1.1436918973922732 -0.59065771102905262 1.0425119996070864 -0.43970352411270136 1.0000000180025095e-35 -0.98535126447677601 0.94073328375816356 0.91517421603202831 1.0000000180025095e-35 -0.80419504642486561 0.89908400177955639 -0.12987318634986875 1.1421389579772951 0.79746833443641674 -1.6303775310516355 -0.3071387112140655 1.1920852661132815 1.0752244591712954 1.0000000180025095e-35 0.15953745692968371 0.89897704124450695 -1.4224418997764585 -0.41197794675827021 0.83910235762596141 0.85875046253204357 1.1631618738174441 -0.95547586679458607 1.0408437848091128 -0.090731054544448839 0.038947304710745818 -0.86978113651275624 0.883397936820984 -0.9280114173889159 1.0094632506370547 0.8989052176475526 0.34577795863151556 0.29937990009784704 -0.46003246307373041 -1.8286839723587034 1.0025168657302859 -0.44323737919330591 -1.7140497565269468 -0.28207613527774805 -0.27388700842857355 0.81734690070152294
decision_type=2 2 2 2 2 2 2 2 2 2 2 2 2 2 2 2 2 2 2 2 2 2 2 2 2 2 2 2 2 2 2 2 2 2 2 2 2 2 2 2 2 2 2 2 2 2 2 2 2 2 2 2 2 2 2 2 2 2 2 2 2 2
left_child=1 2 12 4 6 8 7 -3 -6 -8 37 25 24 46 16 32 18 48 19 21 -21 -2 -7 40 33 -12 -15 28 -20 31 57 -25 54 -1 -13 -31 61 44 50 -40 42 -42 -5 -38 -4 -39 -14 51 49 -18 -32 -34 -26 -50 59 -56 -49 60 -59 -16 -17 -19
right_child=14 3 10 23 5 22 9 -9 -10 -11 11 34 13 26 15 30 17 36 27 20 -22 -23 -24 29 52 -27 -28 -29 -30 35 38 -33 47 -35 -36 -37 43 45 39 -41 41 -43 -44 -45 -46 -47 -48 56 53 -51 -52 -53 -54 -55 55 -57 -58 58 -60 -61 -62 -63
leaf_value=-0.053911683183928007 0.03388112883911569 -0.055884760186666854 0.039157078629170776 0.17096252989896105 -0.018751733370297105 0.052709099016093143 0.01086520080016661 0.016896109493341967 0.033511592096365034 0.055307403684783402 0.02932852223874018 -0.13117683324466289 -0.11482985504724573 -0.073324074992018679 -0.15107813780121232 -0.19899071262745271 0.053986817291639344 -0.16460516947424331 -0.13469317670375155 0.018618287533391824 0.073787856170686464 -0.036073629218247978 0.094419423745710329 -0.011415916851872614 0.013399069636697776 -0.020955927812476266 0.011123728968055586 0.14749412664383257 -0.0091816145691923558 0.015216977538464967 0.1069973824245458 0.066707169862028737 0.15594881188049098 0.024452443970141839 -0.024791044993323685 -0.095921885074544105 0.062990245423429417 0.079770705272969714 0.065640610815440509 -0.099968839492321215 0.025286901259512679 0.091415763512164433 0.077798823808378437 0.10039082938536979 0.095653851935889864 -0.092028897382802413 -0.054759675316566093 -0.10312749014697518 0.10841907807167882 -0.11428164599339469 -0.06314692947134036 -0.0046025866145147998 0.089181136697034424 -0.060722637572880989 -0.1064656100087408 0.28268662192291932 0.048765473126301036 -0.11084628027296682 0.05263047192093559 -0.12281275637908376 -0.14593170694387822 -0.20486667073742157
leaf_weight=584.27914995700121 21476.310979515314 1058.8210545927286 564.70019606500864 259.99669533967972 2004.8901349976659 4741.2951370328665 2809.7835479974747 36070.146984323859 6125.9255502969027 7088.1699213497341 4944.2884948030114 155.7582128494978 720.35694327019155 362.99648031592369 125.27247659116983 6.9802264720201492 28.890261147171259 14.932329282164575 229.32714210450649 2256.1354944780469 4216.2165619581938 904.42135879397392 1919.2732924073935 324.40772919356823 136.06111723184586 844.66622558236122 854.40735565125942 41.622644111514091 241.99820776283741 485.36744345724583 292.58672205358744 1166.7420738488436 39.958524687215686 441.56833308003843 938.42781093716621 149.44731445610523 2187.1824883893132 49.799239108338952 95.839729443192482 86.295254625380039 974.72811390459538 957.16354534029961 834.66195102035999 1171.8853393048048 813.22275359928608 87.363659255206585 381.64760658144951 74.646362669765949 31.198352590203285 188.49583802744746 26.425773978233337 83.804406896233559 280.69785945117474 15.952418863773344 99.304518802091479 5.0714144706726065 9.1988001614809018 51.636829737573862 5.4860687628388396 33.000233627855778 4.5538105815649015 5.7260607481002799
leaf_count=4387 41819 3742 1216 256 5323 8525 6381 96867 14080 12547 12600 599 4380 1637 597 28 90 67 908 5086 6489 3787 2403 866 355 2525 3099 30 847 1171 384 1783 91 1783 2569 510 3065 226 124 380 2271 1348 1522 1075 1101 968 1358 1007 38 1058 95 433 468 46 1135 2 26 770 23 232 22 24
internal_value=0 0.0243296 0.00533446 0.0277787 0.0254237 0.0404844 0.0206867 0.0148206 0.0206245 0.0426914 0.0213669 0.0121473 -0.0304559 -0.0520519 0.0364656 -0.0131805 0.0380298 0.0642705 0.0347733 0.0363263 0.0545568 0.0310542 0.0647281 0.0560329 0.00426589 0.0219915 -0.0140563 -0.0525816 -0.0702503 0.0315985 0.0347714 0.0497111 -0.0712832 -0.0201804 -0.0399351 -0.0109472 0.0744991 0.0632522 0.0544779 -0.0128249 0.0731966 0.0580507 0.0999265 0.0760383 0.0725004 -0.0296542 -0.0940263 -0.00676149 -0.0664108 -0.091919 0.0929033 0.0472336 0.0644402 0.0511937 -0.122284 -0.0875575 -0.086463 -0.109072 -0.095146 -0.145185 -0.178042 -0.175765
internal_weight=0 79131.1 12160.2 66970.8 61818.3 14791.4 47026.9 37129 8130.82 9897.95 8398.23 6883.14 3762.01 2319.41 34050.4 1040.06 33010.3 3644.26 29366 28853.1 6472.35 22380.7 6660.57 5152.51 1442.61 5788.95 1217.4 512.948 471.325 2125.96 569.804 1491.15 470.257 1025.85 1094.19 634.815 3379.73 1515.09 501.147 182.135 3026.55 1931.89 1094.66 3359.07 1377.92 137.163 1102 207.608 264.537 217.386 319.012 123.763 416.759 47.1508 262.649 104.376 83.8452 68.6569 57.1229 158.273 11.534 20.6584
internal_count=268644 198866 39271 159595 149868 30331 119537 100609 19403 18928 21804 18293 17467 10474 69778 5349 64429 5463 58966 57181 11575 45606 10928 9727 6993 15125 4736 1785 1755 4330 1826 2649 3523 6170 3168 1681 4231 3511 983 504 5397 3619 1778 4140 2317 1194 5738 1557 1232 1148 479 524 823 84 1966 1137 1033 843 793 829 50 91
is_linear=0
shrinkage=0.1


Tree=18
num_leaves=63
num_cat=0
split_feature=136 32 108 78 109 74 73 116 29 54 108 107 46 72 132 80 106 78 98 33 2 70 96 30 73 46 55 81 36 31 130 109 72 30 129 123 0 87 30 106 104 3 105 105 101 39 72 88 107 89 72 104 36 100 37 72 73 101 41 127 43 125
split_gain=342.06 478.313 334.04 435.772 361.802 332.398 311.696 593.627 415.586 425.634 371.518 619.23 687.319 323.781 318.53 613.523 401.276 299.088 284.578 261.695 313.798 337.402 258.144 253.47 272.502 246.018 239.134 212.168 285.428 210.022 168.626 166.016 162.567 177.458 173.033 128.09 123.453 122.691 120.918 174.541 102.698 106.885 98.2907 92.7637 84.548 80.8431 191.427 75.3546 74.7596 74.6007 56.1175 57.8264 52.4005 40.8799 30.2135 29.7573 24.4073 21.4202 21.0075 70.7564 13.6083 3.44301
threshold=1.0000000180025095e-35 0.9626726806163789 -0.89994487166404713 -1.2498248815536497 -0.89539441466331471 -1.0531730651855467 -0.72753304243087757 -1.2203818559646604 1.1249625086784365 0.97422966361045849 -1.0241562724113462 -0.98255917429924 1.2182147502899172 -0.61775487661361683 1.0000000180025095e-35 -0.83194369077682484 -0.9171595275402068 -1.2633739113807676 -0.98733785748481739 0.93682873249053966 0.66278994083404552 -0.56591367721557606 -1.0263370275497434 1.0460037589073183 -0.84143325686454762 1.2433516383171084 1.0766971707344057 -1.3668796420097349 0.88179764151573192 0.9976886808872224 1.0000000180025095e-35 -0.90896150469779957 -0.58095416426658619 1.0462849736213686 1.0000000180025095e-35 -1.2936175465583799 0.39368823170661932 -1.2222537398338316 1.0697641372680666 -0.86517006158828724 -0.79435181617736805 0.3930948823690415 -0.82080671191215504 -0.836818367242813 -0.83176046609878529 0.89132988452911388 -0.64408889412879933 -1.2187530398368833 -0.84858128428459156 -1.2565912604331968 -0.59051182866096485 -0.82326573133468617 0.91769862174987804 -0.87722608447074879 0.94693875312805187 -0.56644016504287709 -0.6882471740245818 -0.85318723320960987 1.0306673645973208 -1.7341524958610532 1.1703721880912783 -1.4868665337562559
decision_type=2 2 2 2 2 2 2 2 2 2 2 2 2 2 2 2 2 2 2 2 2 2 2 2 2 2 2 2 2 2 2 2 2 2 2 2 2 2 2 2 2 2 2 2 2 2 2 2 2 2 2 2 2 2 2 2 2 2 2 2 2 2
left_child=2 23 6 4 17 18 7 45 9 -9 11 12 -8 -10 15 -12 -16 37 -6 20 30 -22 -7 26 38 -13 42 29 -29 -26 -5 -19 33 -21 -34 36 40 -4 49 -40 41 -3 43 -2 52 46 -1 50 -44 -25 51 -37 -38 -47 -52 -46 -42 -28 59 -49 -59 -60
right_child=1 35 3 19 5 22 10 8 13 -11 14 25 -14 -15 16 -17 -18 31 -20 32 21 -23 -24 24 27 -27 57 28 -30 -31 -32 -33 34 -35 -36 47 44 -39 39 -41 56 -43 48 -45 55 53 -48 58 -50 -51 54 -53 -54 -55 -56 -57 -58 60 61 -61 -62 -63
leaf_value=-0.10009255333846703 -0.051856575683564256 0.11689781426239428 -0.012346300060256485 0.065160772370441419 0.012255550260268061 0.063781198019672788 0.017036827738470581 -0.13020401749816443 0.021372702858595698 0.0018857458214639078 0.043979752148254538 -0.034152959776197665 0.085062718090750666 0.077798552257919429 -0.024915069312812337 -0.059871374656157494 0.09695059787120236 -0.028548241848060374 -0.086879836205851796 -0.12975903422014431 0.047303673784226619 -0.051246496951742798 0.030414064267524511 0.013429562841267976 -0.11234858078354081 0.092851929351860943 -0.072395662329940838 0.046123400859400407 -0.010101795225973341 0.079817719723928537 0.033290032967624422 0.030866012571550618 0.051701546780165746 0.0089242890865107033 0.0024212207439548101 0.051135937782494624 -0.17380437835276655 -0.068457373132458033 -0.040299353655940298 0.09064108726847217 -0.16480281604715963 0.034667725852867717 0.033907441179845954 -0.121692793739249 -0.15429666097111375 0.1256677851715324 0.10779878099073857 -0.076562855149084841 -0.096120471600836394 -0.10064237184905581 0.13308311378135179 -0.06606062543418964 0.03478312064419041 -0.11123019134874179 0.010186466714647412 0.019840977292516868 0.083833840038312776 0.096098990272043883 0.12474129068485007 0.14083041661103146 0.00080386368436523845 0.15142623255510837
leaf_weight=130.33950680494308 429.32327940687537 174.57608775794506 1726.3736562281847 8828.8944079168141 1009.7145599555224 2555.8307177107781 7533.0326789729297 251.51999226212502 20705.296968653798 8103.5961841866374 6887.9129689484835 2312.3111880403012 1850.060216518119 1069.4665356129408 316.78880302608013 620.07510416954756 1837.1386013310403 556.79977867007256 405.9929974982515 137.4155401289463 919.08295053616166 558.51391939818859 24978.84693618305 67.71638385951519 62.36596804857254 163.29026286303997 9.4382587224245054 1211.5984891876578 3543.5942475497723 645.80350264906883 2044.5720613896847 3027.0166784524918 1622.3790031522512 280.82892833650112 1270.421695202589 220.74034211039543 13.721758976578711 503.29195722937584 541.33475323021412 125.37863335758448 29.857519686222076 1671.9973264783621 145.82592949271202 341.49457862600684 63.948912233114243 7.4153282195329657 67.091978318989277 21.247203126549721 63.459751189686358 373.79487386345863 102.68906302750111 52.023800656199455 98.481316909193993 412.18911079317331 24.843827545642853 11.591983973979948 4.5497255325317374 114.0202554911375 85.794291943311691 50.691267788410187 17.252668723464012 110.78772212564945
leaf_count=688 2573 176 4495 15943 4925 4360 22155 1434 48038 22231 13679 8766 2042 1765 1224 1904 3133 1554 1593 519 2206 1746 52267 324 351 274 29 3496 9982 1358 4285 6176 2858 611 2652 367 58 1743 2476 345 137 3064 399 1751 265 11 205 58 612 2582 80 154 193 1940 47 29 10 120 58 45 37 46
internal_value=0 0.00793617 0.0269432 0.0327498 0.0265101 0.0310816 0.0213413 0.0148806 0.0168691 -0.00209065 0.0305717 0.018712 0.0304495 0.0241441 0.045128 0.0354028 0.0790272 0.00374438 -0.0161742 0.0465995 0.0532922 0.0100529 0.0335113 -0.00483893 0.00265766 -0.0257757 -0.0487931 0.011829 0.00422409 0.0628943 0.059168 0.0216351 0.0216339 -0.0366406 0.0300593 0.0438338 0.0315345 -0.025012 -0.0425556 -0.0156754 0.0392523 0.0424418 -0.0662949 -0.082796 -0.0457885 -0.082215 -0.0294461 0.0818769 -0.00551971 -0.0831467 0.0543853 0.0287833 0.00927413 -0.107044 0.109142 -0.127575 -0.131925 0.073113 0.12286 0.0766228 0.0835747 0.13978
internal_weight=0 10429.9 102694 50426 34763.9 28950.4 52267.5 30746.9 30129.9 8355.12 21520.6 11858.7 9383.09 21774.8 9661.92 7507.99 2153.93 5813.48 1415.71 15662.1 12351.1 1477.6 27534.7 7692.4 6571.59 2475.6 1120.81 5463.36 4755.19 708.169 10873.5 3583.82 3311.05 418.244 2892.8 2737.54 2068.72 2229.67 1108.22 666.713 1880.98 1846.57 980.104 770.818 187.744 617.036 197.431 668.818 209.286 441.511 400.297 272.764 112.203 419.604 127.533 75.5409 34.4072 140.711 268.52 71.9385 131.273 196.582
internal_count=268644 31222 237422 107933 77113 63145 129489 76312 73468 23665 53177 33237 24197 49803 19940 15583 4357 13968 6518 30820 24180 3952 56627 26435 20914 9040 5521 15187 13478 1709 20228 7730 6640 1130 5510 4787 3932 6238 5727 2821 3387 3240 5335 4324 545 2844 893 855 1011 2906 648 521 251 1951 127 294 147 186 207 103 157 104
is_linear=0
shrinkage=0.1


Tree=19
num_leaves=63
num_cat=0
split_feature=52 30 131 75 54 29 53 134 32 92 32 135 98 12 41 30 70 103 27 70 39 99 32 108 39 132 71 40 63 71 29 29 73 76 1 134 70 103 41 4 4 117 60 78 135 107 106 110 53 31 36 40 51 134 120 98 5 19 66 29 31 95
