tree
version=v4
num_class=1
num_tree_per_iteration=1
label_index=0
max_feature_idx=136
objective=binary sigmoid:1
feature_names=Column_0 Column_1 Column_2 Column_3 Column_4 Column_5 Column_6 Column_7 Column_8 Column_9 Column_10 Column_11 Column_12 Column_13 Column_14 Column_15 Column_16 Column_17 Column_18 Column_19 Column_20 Column_21 Column_22 Column_23 Column_24 Column_25 Column_26 Column_27 Column_28 Column_29 Column_30 Column_31 Column_32 Column_33 Column_34 Column_35 Column_36 Column_37 Column_38 Column_39 Column_40 Column_41 Column_42 Column_43 Column_44 Column_45 Column_46 Column_47 Column_48 Column_49 Column_50 Column_51 Column_52 Column_53 Column_54 Column_55 Column_56 Column_57 Column_58 Column_59 Column_60 Column_61 Column_62 Column_63 Column_64 Column_65 Column_66 Column_67 Column_68 Column_69 Column_70 Column_71 Column_72 Column_73 Column_74 Column_75 Column_76 Column_77 Column_78 Column_79 Column_80 Column_81 Column_82 Column_83 Column_84 Column_85 Column_86 Column_87 Column_88 Column_89 Column_90 Column_91 Column_92 Column_93 Column_94 Column_95 Column_96 Column_97 Column_98 Column_99 Column_100 Column_101 Column_102 Column_103 Column_104 Column_105 Column_106 Column_107 Column_108 Column_109 Column_110 Column_111 Column_112 Column_113 Column_114 Column_115 Column_116 Column_117 Column_118 Column_119 Column_120 Column_121 Column_122 Column_123 Column_124 Column_125 Column_126 Column_127 Column_128 Column_129 Column_130 Column_131 Column_132 Column_133 Column_134 Column_135 Column_136
feature_infos=[-1.8014661073684692:1.5536434650421143] [-1.7160434722900391:1.5276378393173218] [-1.6382262706756592:1.5042563676834106] [-1.5680137872695923:1.4834985733032227] [-1.5054070949554443:1.465364933013916] [-1.4504051208496094:1.4498553276062012] [-1.4123568534851074:1.6444088220596313] [-1.3844102621078491:1.77842116355896] [-1.3517893552780151:2.0758624076843262] [-1.3099035024642944:2.0974209308624268] [-1.2559221982955933:1.9582076072692871] [-1.1870334148406982:1.9751508235931396] [-1.1039742231369019:2.0487997531890869] [-1.0067610740661621:2.1759791374206543] [-0.90047705173492432:2.2825961112976074] [-0.78966546058654785:2.4052433967590332] [-0.67814630270004272:2.5269482135772705] [-0.65620064735412598:2.5277442932128906] [-0.66012513637542725:2.5653238296508789] [-0.66667592525482178:2.5221147537231445] [-0.8555336594581604:2.4413206577301025] [-0.86833834648132324:2.3840618133544922] [-0.86565589904785156:2.2409591674804688] [-0.6943366527557373:2.1797337532043457] [-0.6794590950012207:2.1696581840515137] [-0.92955285310745239:2.0883691310882568] [-1.274228572845459:1.9448176622390747] [-1.700652003288269:1.7312250137329102] [-1.9202775955200195:1.5516149997711182] [-2.2033448219299316:1.3473584651947021] [-2.6534385681152344:1.1459542512893677] [-2.9375624656677246:1.0433628559112549] [-2.8964071273803711:1.0182701349258423] [-2.6209216117858887:1.0153312683105469] [-1.9672813415527344:1.0222163200378418] [-1.2877312898635864:1.096311092376709] [-0.66409575939178467:1.2523990869522095] [-0.67050886154174805:1.345354437828064] [-0.67336314916610718:1.4686216115951538] [-0.67729061841964722:1.427788257598877] [-0.67391806840896606:1.3506048917770386] [-0.77278417348861694:1.3033223152160645] [-0.78214722871780396:1.4334096908569336] [-0.67821109294891357:1.6771683692932129] [-0.67529547214508057:1.8418123722076416] [-0.67887544631958008:1.9795904159545898] [-0.6766776442527771:1.8671952486038208] [-0.68056988716125488:1.8940913677215576] [-0.67851173877716064:2.0411467552185059] [-0.68057990074157715:2.1347439289093018] [-0.67868822813034058:2.3221406936645508] [-0.68411111831665039:2.3866791725158691] [-0.68785721063613892:2.2922041416168213] [-0.6967010498046875:2.0923285484313965] [-0.68777680397033691:1.9014968872070312] [-0.66555494070053101:1.663224458694458] [-0.62668591737747192:1.3939603567123413] [-0.79989981651306152:1.3641012907028198] [-0.9627259373664856:1.3483799695968628] [-0.83332031965255737:1.3266682624816895] [-0.58480948209762573:1.3006186485290527] [-0.6056399941444397:1.5017008781433105] [-0.63139909505844116:1.6372760534286499] [-0.66095739603042603:1.5962808132171631] [-0.89532732963562012:1.2496439218521118] [-1.1747497320175171:1.0751444101333618] [-1.3727543354034424:0.99085426330566406] [-1.6713657379150391:0.88485002517700195] [-1.8910553455352783:0.75389385223388672] [-2.0949718952178955:0.60495084524154663] [-1.9126988649368286:0.45876148343086243] [-1.7446892261505127:0.33052113652229309] [-1.674402117729187:0.23037496209144592] [-1.5674382448196411:0.15855956077575684] [-1.4517455101013184:0.23297213017940521] [-1.6804615259170532:0.78198343515396118] [-1.8599822521209717:1.2524018287658691] [-2.0371255874633789:0.97948074340820312] [-2.1728529930114746:1.1285310983657837] [-2.2573421001434326:0.92254304885864258] [-2.3058340549468994:0.73609095811843872] [-2.3315773010253906:0.28676301240921021] [-2.3403120040893555:0.33890664577484131] [-2.3343968391418457:0.39074629545211792] [-2.3124566078186035:0.5232703685760498] [-2.2730567455291748:0.47703936696052551] [-2.2140905857086182:0.50853937864303589] [-2.1362462043762207:0.53271615505218506] [-2.0426793098449707:0.59374678134918213] [-1.9374580383300781:0.56802195310592651] [-1.8240519762039185:0.65060514211654663] [-1.8478662967681885:1.0689502954483032] [-1.648851752281189:1.4172115325927734] [-1.5846540927886963:1.6290324926376343] [-1.5209465026855469:1.6649528741836548] [-1.4629137516021729:1.6171708106994629] [-1.4139829874038696:1.5605852603912354] [-1.3925197124481201:1.5597559213638306] [-1.3791044950485229:1.5643377304077148] [-1.5388252735137939:1.563044548034668] [-2.0638625621795654:1.5685317516326904] [-2.4585905075073242:1.5680602788925171] [-2.604130744934082:1.5700795650482178] [-2.5047333240509033:1.5662518739700317] [-2.1062953472137451:1.5664080381393433] [-1.4475361108779907:1.5610309839248657] [-1.1032946109771729:1.5632989406585693] [-1.1215335130691528:1.561995267868042] [-1.168958306312561:1.5723429918289185] [-1.225764274597168:1.5757462978363037] [-1.369315505027771:1.5835809707641602] [-1.6010570526123047:1.5860384702682495] [-2.1418814659118652:1.5904401540756226] [-2.465855598449707:1.5896482467651367] [-2.5047738552093506:1.5896980762481689] [-2.0072333812713623:1.5826603174209595] [-1.6131480932235718:1.5835590362548828] [-1.6319060325622559:1.579189658164978] [-1.6864286661148071:2.2872264385223389] [-1.7459897994995117:2.4594569206237793] [-1.8207311630249023:2.1617026329040527] [-1.9280952215194702:1.6088942289352417] [-2.1567583084106445:1.5763181447982788] [-2.3918964862823486:1.5743108987808228] [-2.6616356372833252:1.8138364553451538] [-2.9659750461578369:2.1341862678527832] [-3.3559722900390625:2.4851961135864258] [-3.8750591278076172:3.3610599040985107] [0:1] [0:1] [0:1] [0:1] [0:1] [0:1] [0:1] [0:1] [0:1]
tree_sizes=2088 5787 5933 6238 6260 6393 5639 6349 5224 5268 5245 5893 6785 6905 6316 6346 6316 6216 6804 6447 5862 6558 6759 6917 6453 6598 6705 6926 5777 6768 5135 6878 6476 6808 6888 6923 6911 6319 7033 6012 6896 6720 6712 6419 6300 6896 6422 6930 6922 6928 6568 6927 6737 5428 6806 6438 6913 6566 6481 6950 6952 6920 5923 6560 6365 6019 6892 6549 6562 6409 6619 6447 6310 6443 7084 6939 6878 6358 6949 6937 5259 6602 7078 6683 6883 6806 5408 6923 5318 6816 6143 6939 6608 6311 6902 6901 6332 6485 6795 6353 6610 7081 5911 6656 6159 6769 6476 5043 5559 6879 6146 6367 6243 5316 6888 6149 6896 6764 5908 5240 6541 6576 6006 5108 6913 6240 6146 5693 7081 5946 6706 6321 5915 6004 6356 6336 6216 4928 6250 4622 6286 6002 5272 6375 6234 7052 5020 6105 6801 5199 5190 6603 4713 7026 6129 6177 5738 6052 5341 6213 6877 6438 6729 6343 5918 4713 6133 6701 6050 6089 5257 6874 6927 6911 5903 6115 6907 5476 6887 6320 6319 5787 6772 6062 6606 6668 6036 6440 6231 6838 5599 5887 5815 6680 6460 6052 5572 5537 6547 6546

Tree=0
num_leaves=18
num_cat=0
split_feature=134 132 131 31 118 3 135 73 103 79 0 0 0 111 0 17 2
split_gain=463884 489156 471491 119083 67617.6 38145.8 34938.6 28271.3 10042.2 1486.85 1.13687e-13 1.13687e-13 1.13687e-13 1.13687e-13 5.68434e-14 2.84217e-14 4.44089e-16
threshold=1.0000000180025095e-35 1.0000000180025095e-35 1.0000000180025095e-35 1.0010123848915102 -0.85594990849494923 0.44742757081985479 1.0000000180025095e-35 -0.80293872952461232 -0.88156300783157338 -1.1550405025482176 0.76415285468101513 0.6507227122783662 1.0180168151855471 -1.0271536111831663 0.48975780606269842 1.279312312602997 0.79998090863227855
decision_type=2 2 2 2 2 2 2 2 2 2 2 2 2 2 2 2 2
left_child=1 2 3 4 5 -1 7 -5 -8 -6 11 -3 14 -2 -4 -16 -12
right_child=13 10 12 6 9 -7 8 -9 -10 -11 16 -13 -14 -15 15 -17 -18
leaf_value=-1.5824585176909074 -4.0289190040214695 -4.0289190040214695 -4.0289190040214695 -0.69020290109701499 -4.0289190040214695 -0.94051424961536201 -3.3370152749882811 -0.045252770868474457 -1.2820416828550361 -2.446509977159204 -4.0289190040214695 -4.0289190040214695 -4.0289190040214695 -4.0289190040214695 -4.0289190040214695 -4.0289190040214695 -4.0289190040214695
leaf_weight=1205.2858392857015 52.67986711114645 551.64158686064184 319.07323827967048 1082.3123878911138 79.910431513562799 3989.9421369917691 44.010642278939486 1826.9149695094675 51.73338489420712 6.4145082999020806 1.0043284017592662 23.781738569959998 8.432568656280635 571.93660041317344 133.04508884437382 33.730274625122547 2.8045396879315376
leaf_count=34699 2780 29111 16838 21692 4217 89758 2024 25065 1337 239 53 1255 445 30182 7021 1780 148
internal_value=-3.92695 -1.21426 -1.02859 -0.849625 -1.13557 -1.08944 -0.34705 -0.285192 -2.22665 -3.91134 -4.02892 -4.02892 -4.02892 -4.02892 -4.02892 -4.02892 -4.02892
internal_weight=0 9360.04 8780.81 8286.52 5281.55 5195.23 3004.97 2909.23 95.744 86.3249 579.232 575.423 494.281 624.616 485.849 166.775 3.80887
internal_count=268644 235682 205115 179031 128913 124457 50118 46757 3361 4456 30567 30366 26084 32962 25639 8801 201
is_linear=0
shrinkage=1


Tree=1
num_leaves=53
num_cat=0
split_feature=72 37 132 38 70 38 71 31 29 30 70 4 71 45 136 73 74 80 107 14 31 72 44 60 6 6 103 128 51 11 32 76 103 8 87 56 47 82 26 0 30 31 72 103 63 57 0 4 0 0 1 69
split_gain=7622.44 5102.15 4490.15 3355.3 4386.36 4114.27 3153.86 2561.65 2225.15 2235.67 2164.25 2330.32 2148.33 1759.37 1401.43 1245.7 1138.19 994.027 984.916 972.576 636.37 532.177 576.338 513.568 507.72 498.704 467.552 389.44 340.67 331.732 305.977 625.954 223.838 223.376 221.537 218.824 214.242 169.225 168.826 115.031 97.7866 283.29 88.314 61.426 0.131631 0.0610239 0.00059103 3.71837e-05 1.13687e-13 4.44089e-16 4.44089e-16 2.22045e-16
threshold=-0.5539288818836211 0.86988717317581188 1.0000000180025095e-35 0.99798145890235912 -0.2237356901168823 0.97704300284385692 -0.43165345489978785 1.0010123848915102 1.2352198362350466 1.0323458313941958 -0.36565512418746943 0.52583840489387523 -0.22559664398431775 1.1670002341270449 1.0000000180025095e-35 -0.70067679882049549 -0.95944905281066883 -0.67457157373428334 -0.87167599797248829 0.82990998029708873 1.0007985830307009 -0.56665149331092823 1.1397358179092409 0.78544187545776378 0.53183284401893627 0.79120740294456493 -0.82253983616828907 1.0000000180025095e-35 1.2328941822052004 0.6332530975341798 0.79279562830924999 -1.1092153191566465 -0.87799388170242298 0.50010383129119884 -0.9456685185432433 0.97274193167686474 1.2052894830703738 -0.62812164425849903 1.1781545877456667 0.38537333905696874 1.020641624927521 0.97780424356460582 -0.56538602709770192 -0.81835994124412526 0.46105892956256872 0.73168441653251659 0.52626001834869396 0.50170543789863598 0.36139780282974249 0.43563316762447363 0.42237955331802374 -0.11738177761435507
decision_type=2 2 2 2 2 2 2 2 2 2 2 2 2 2 2 2 2 2 2 2 2 2 2 2 2 2 2 2 2 2 2 2 2 2 2 2 2 2 2 2 2 2 2 2 2 2 2 2 2 2 2 2
left_child=1 8 7 4 5 6 -3 12 9 27 11 -11 13 17 -7 -15 30 -2 35 -20 -12 40 23 -23 29 46 32 37 -29 33 31 -10 -14 -9 -27 -6 -28 -1 47 -40 41 -5 -24 -42 -31 -32 -18 -26 -4 50 -50 -52
right_child=2 3 48 21 18 14 -8 24 16 10 20 -13 26 15 -16 -17 25 -19 19 -21 -22 22 42 -25 38 34 36 28 -30 44 45 -33 -34 -35 -36 -37 -38 -39 39 -41 43 -43 -44 -45 -46 -47 -48 -49 49 -51 51 -53
leaf_value=-0.087254229617789447 0.26968982004277525 0.096329511926950662 -0.10177934831653918 -0.13146666982233396 0.077232259614509802 0.027687773138329833 0.15811034627212103 -0.086306951977192625 0.28847825160981527 -0.045538840516329351 0.28314566890672593 0.16747416355921496 0.17934689395521208 -0.058591770367692655 -0.16279446898618236 0.18528717676907075 -0.1377058131427859 -0.0065103510173923108 0.33391294705601127 0.18893774841781949 0.16767817831672546 -0.028768650507158707 0.05342452871386201 0.1851348534440837 -0.19523744958162051 0.29274264922474386 0.50542036904966581 0.10727139549501302 0.98834271718483735 -0.17103145462755143 -0.13893057706081832 -0.10092831107350336 0.55316778985989645 0.1014795619738133 0.011434878863313026 -0.15343287234813255 -0.12003085785405039 0.2862935032586254 0.15389254145403922 -0.039236040446717503 0.0072289725882940525 0.24857555418901753 -0.13818004247112123 -0.14799991804114565 -0.19506519943710365 -0.12764984262968654 -0.13909187949646129 -0.19557558369407638 -0.10177934831653901 -0.10177934831653897 -0.10177934831653904 -0.10177934831653904
leaf_weight=417.57685401849449 6551.1954602580518 31061.354296764359 413.25764930434525 74.275985863059759 77.031278064474463 3632.1723035015166 11257.740193918347 95.530033657327294 59.359008621424437 525.71281783282757 2102.5771194789559 22242.482051244006 16.94155659340322 245.94295113533735 432.20553391985595 1411.2467049900442 3.3514350149780503 132.94609717652202 507.27337156236172 5270.9090014938265 617.4683680664748 229.43563163094223 27.140968283638358 219.74829286523163 4.7647459562867871 164.31699145026505 8.1103275101631898 84.955807624384761 4.6274926178157321 2.3493613302707663 343.77791659906507 135.53146632015705 293.81068116798997 188.01181353069842 33.744218908250332 88.238356836140156 16.865617515519261 12.490253297612069 595.71631750650704 32.524430278688669 27.000307787209749 26.652038982138038 211.61555643565953 456.39234844781458 75.922185020521283 4.8632458932697764 37.486372435465455 10.244754403829573 0.61836632341146458 0.49812842719256867 1.0993179082870486 0.36071368865668718
leaf_count=7970 14103 105571 24059 610 144 14258 16527 297 47 2671 2564 49312 85 1642 1925 6352 23 786 500 6839 532 776 127 425 20 144 12 1054 21 11 1772 738 171 212 121 617 143 54 371 86 104 54 1341 2637 319 117 189 41 36 29 64 21
internal_value=0 0.127808 0.219986 0.109997 0.113899 0.103535 0.112764 0.233805 0.163442 0.168441 0.172628 0.162556 0.251311 0.241328 0.00743191 0.149093 -0.00271506 0.264196 0.194781 0.201665 0.256934 -0.0504607 0.00914536 0.0758765 0.0826705 0.179209 0.499332 -0.0368952 0.152784 -0.0120978 -0.0826764 0.0176757 0.532788 0.0382111 0.244815 -0.0459211 0.0830691 -0.0764054 0.135976 0.143894 -0.120637 -0.031109 -0.116399 -0.139329 -0.194344 -0.138773 -0.138978 -0.195468 -0.101779 -0.101779 -0.101779 -0.101779
internal_weight=0 80389.5 10098 53599.2 52326.9 46383.5 42319.1 9682.12 26790.3 26007.9 25488.2 22768.2 8677.06 8341.33 4064.38 1657.19 782.431 6684.14 5943.45 5778.18 2720.05 1272.26 687.94 449.184 1005.06 238.899 335.728 519.65 89.5833 361.813 543.532 194.89 310.752 283.542 198.061 165.27 24.9759 430.067 643.25 628.241 584.321 100.928 238.757 483.393 78.2715 348.641 40.8378 15.0095 415.834 2.57653 2.0784 1.46003
internal_count=268644 219784 48860 152455 146381 138281 122098 24651 67329 64178 55079 51983 23294 22883 16183 7994 3151 14889 8100 7339 3096 6074 2669 1201 1357 477 411 9099 1075 839 2674 785 256 509 265 761 155 8024 518 457 3405 664 1468 2741 330 1889 212 61 24209 150 121 85
is_linear=0
shrinkage=0.1


Tree=2
num_leaves=54
num_cat=0
split_feature=72 38 132 71 38 38 136 70 70 29 72 106 36 4 29 31 31 72 71 105 33 38 31 127 73 114 6 56 60 136 28 29 112 27 10 8 128 72 27 104 36 64 49 72 80 69 15 128 72 71 30 16 70
split_gain=4336.49 3931.77 2910.31 2717.8 3496.45 3183.81 2267.32 2218.58 1760.79 3044.85 1743.36 1732.76 2975.48 1596.63 1565.05 1536.66 1261.62 1245.87 944.811 896.769 1308.46 1214.9 837.397 1089.55 835.185 863.314 777.219 747.007 740.304 724.535 419.204 390.763 343.936 319.373 319.148 216.528 208.981 171.958 150.352 129.387 85.4448 34.7293 0.751799 0.270582 0.0525117 0.0375974 0.0198042 8.57252e-05 6.26521e-05 1.02203e-06 2.54284e-07 2.88424e-07 6.45356e-08
threshold=-0.56006011366844166 0.91954216361045849 1.0000000180025095e-35 -0.44221594929695124 0.99297514557838451 0.94394764304161083 1.0000000180025095e-35 -0.30452734231948847 -0.33548796176910395 1.1377144455909731 -0.64916422963142384 -0.84604540467262257 0.92923054099082958 0.52810692787170421 1.2352198362350466 1.0010123848915102 1.0086044073104861 -0.58002677559852589 -0.50674927234649647 -0.93969663977622975 0.8465891182422639 0.94394764304161083 0.95290294289588939 -2.3387128114700313 -0.75163936614990223 -1.0110004544258115 0.53183284401893627 0.92090907692909252 0.75122496485710155 1.0000000180025095e-35 1.2013295292854311 1.1022829413414004 -1.1967570781707761 1.2505373358726504 0.5893201231956483 0.50010383129119884 1.0000000180025095e-35 -0.6666574478149413 1.1478144526481631 -0.92018431425094593 0.94123581051826488 0.43309417366981512 1.0525596737861636 -0.5539288818836211 -0.67457157373428334 -0.032799825072288506 1.033266603946686 1.0000000180025095e-35 -0.5539288818836211 -0.43165345489978785 1.0328055024147036 1.0719842910766604 -0.27414998412132258
decision_type=2 2 2 2 2 2 2 2 2 2 2 2 2 2 2 2 2 2 2 2 2 2 2 2 2 2 2 2 2 2 2 2 2 2 2 2 2 2 2 2 2 2 2 2 2 2 2 2 2 2 2 2 2
left_child=1 8 15 5 11 7 10 16 9 29 -7 12 -5 18 -15 19 -3 -13 -11 28 44 -22 42 32 36 -26 34 -25 33 30 -1 -9 -24 -2 35 -17 -6 -31 45 -30 -40 -8 47 -36 -21 -28 -44 -10 49 50 51 -4 -51
right_child=2 3 48 4 24 6 41 31 22 13 -12 17 -14 14 -16 26 -18 -19 -20 20 21 -23 23 27 25 -27 38 -29 39 37 -32 -33 -34 -35 43 -37 -38 -39 40 -41 -42 -43 46 -45 -46 -47 -48 -49 -50 52 -52 -53 -54
leaf_value=-0.0061984072608331948 -0.13286339560596896 0.026029210688764529 -0.1019745603373526 0.11645124237784568 -0.14654385850359644 -0.084623221360489664 -0.16807686960510759 -0.074089402140502567 -0.10163384403598941 -0.069614022546833132 0.050330252508020229 0.122297070583212 -0.032733992012696174 0.1405758628140677 -0.0031535023242975089 -0.092983577322951705 0.12848772229753821 0.18648179102317819 0.11063926129370119 -0.12537854320621272 0.28193101631686857 0.17694351980491738 -0.12680203721861893 0.14087301402549132 -0.084439198044649277 0.1117602841846716 -0.18922426121338565 0.2281739402666596 0.23034741398243974 -0.14147856899365277 0.089218981372140516 0.15184414481142042 0.35321866775841992 0.25352126581435003 -0.19021445965904127 0.079430786686575133 -0.048457609638281884 0.05851732083602551 0.16134927239659852 0.37538838905475758 0.10806131778649071 -0.087072623712868349 -0.12093231806433587 -0.1787308306045472 -0.12143010414245847 -0.17850292796234149 -0.1294728923546006 -0.10198084036920396 -0.101607165452054 -0.10208415098985874 -0.10204155232604153 -0.10187248330884019 -0.10203810666028124
leaf_weight=1007.6485700681806 47.919314101338387 4359.0595171749592 1.2137358821928503 5368.4928750609979 402.90665504708886 1169.7669002767652 660.0918967621401 77.937801994383335 17.630826478824019 600.51449049077928 5268.6065399330109 11975.291309872642 1780.2564012613147 30113.602741455659 777.14781450852752 110.21653026528656 1659.2545181717724 4045.9238391434774 563.80077969096601 62.239863703027368 1249.4737767055631 9352.2294457051903 15.413441574200986 2203.895958615467 350.7284545879811 622.01329579483718 4.7285772860050193 1765.1521118115634 71.284280627965927 325.21099190041423 847.85856033116579 4302.5265678633004 472.48746873810887 38.643964469432831 28.493842795491219 214.78648692183197 471.30442918464541 49.54021579772234 570.82763044442981 448.32694674097002 636.34234826732427 57.541134186089039 55.408440256491303 73.304607855156064 73.41038607340306 10.609982065856455 2.8549859132617703 11.942092638462784 376.86750092078 1.3799444474279878 0.38930466398596753 0.35858561471104611 0.39055413007736106
leaf_count=10335 283 22257 64 13199 2302 8573 2787 443 1115 3047 22266 17396 7995 63911 3149 359 4204 4047 1334 411 2023 23116 109 4192 1961 1373 20 1559 215 2516 3953 7560 588 47 123 275 1879 136 224 179 593 204 419 312 549 44 33 627 24209 69 20 20 20
internal_value=0 0.109508 0.170951 0.0885181 0.109684 0.0583556 0.0070185 0.0936837 0.132519 0.124766 0.025811 0.120239 0.0792996 0.132627 0.13696 0.178935 0.0542771 0.138506 0.0176707 0.192049 0.185368 0.189317 0.191007 0.197033 -0.0227297 0.0410193 0.0887453 0.179698 0.310385 0.0117869 0.0374018 0.147824 0.338054 0.0396282 -0.0274352 0.0209608 -0.0936636 -0.11504 0.129306 0.355491 0.133259 -0.161582 -0.11476 -0.181945 -0.123242 -0.181808 -0.121351 -0.101774 -0.101611 -0.102019 -0.101969 -0.101951 -0.102074
internal_weight=0 81401.8 13373.4 42571.7 25016.9 17554.8 7156.01 10398.8 38830.1 34285.3 6438.37 23170 7148.75 32055.1 30890.8 12992.8 6018.31 16021.2 1164.32 11343.5 10737.4 10601.7 4544.79 4456.95 1846.95 972.742 1649.31 3969.05 606.175 2230.26 1855.51 4380.46 487.901 86.5633 426.801 325.003 874.211 374.751 1222.51 519.611 1207.17 717.633 87.8363 101.798 135.65 15.3386 58.2634 29.5729 380.6 3.73212 1.96163 1.57232 1.7705
internal_count=268644 215469 53175 118446 50152 68294 33830 34464 97023 88381 30839 42637 21194 71441 67060 28773 26461 21443 4381 26823 26099 25139 8642 6448 7515 3334 1950 5751 724 16940 14288 8003 697 330 1069 634 4181 2652 881 394 817 2991 2194 435 960 64 452 1742 24402 193 104 84 89
is_linear=0
shrinkage=0.1


Tree=3
num_leaves=56
num_cat=0
split_feature=134 72 37 72 118 131 71 38 37 136 31 6 73 45 104 125 72 36 44 106 53 30 33 33 132 33 82 29 72 36 29 38 70 29 71 37 45 72 33 38 73 38 31 108 70 39 83 41 33 35 31 37 30 18 0
split_gain=2844.55 2630.49 3290.17 2772.26 2098.12 1988.56 1757.47 3598.47 1649.11 1308.24 1055.29 900.778 786.459 1089.15 716.97 449.684 327.202 318.42 367.736 275.11 201.752 137.037 54.8192 150.941 2.98077 0.0711847 0.00195167 0.00140179 0.000760274 0.000577065 0.000435159 0.000335206 0.000336811 0.000138423 0.000130614 6.28162e-05 6.08906e-05 3.97629e-05 3.48872e-05 2.9788e-05 2.57438e-05 2.13578e-05 1.38597e-05 8.84736e-06 6.4455e-06 4.91838e-06 2.06488e-06 2.04534e-06 1.48883e-06 1.42863e-06 4.929e-07 3.99486e-07 3.91903e-07 7.67245e-08 5.68434e-14
threshold=1.0000000180025095e-35 -0.56538602709770192 0.95771560072898876 -0.58782169222831715 -1.4774293303489683 1.0000000180025095e-35 -0.41870029270648951 0.93121615052223217 0.96983182430267345 1.0000000180025095e-35 1.0010123848915102 0.53183284401893627 -0.53350397944450367 1.1670002341270449 -0.80923402309417714 -1.5629422068595884 -0.54289603233337391 0.93993037939071666 1.1177589297294619 -0.9109131097793578 1.0887054800987246 1.0386509895324709 0.90587523579597484 0.90683841705322277 1.0000000180025095e-35 0.8465891182422639 -0.6041712462902068 1.1377144455909731 -0.5539288818836211 0.83175402879714977 1.1377144455909731 0.97704300284385692 -0.30452734231948847 1.2352198362350466 -0.43165345489978785 0.86988717317581188 1.1670002341270449 -0.56006011366844166 0.8465891182422639 0.99798145890235912 -0.70067679882049549 0.91954216361045849 1.0011184215545657 -0.9034898281097411 -0.36565512418746943 0.94037273526191723 -0.69256594777107228 1.0268647670745852 0.77583539485931408 0.93933629989624035 1.0078952908515932 0.92402330040931713 1.0711162686347964 1.2236947417259219 0.18727308511734012
decision_type=2 2 2 2 2 2 2 2 2 2 2 2 2 2 2 2 2 2 2 2 2 2 2 2 2 2 2 2 2 2 2 2 2 2 2 2 2 2 2 2 2 2 2 2 2 2 2 2 2 2 2 2 2 2 2
left_child=1 2 5 17 22 6 7 -1 9 -5 12 16 13 -6 -8 -10 -12 18 -4 -19 -14 -13 24 -24 25 -3 -25 29 30 -7 31 32 41 -29 -34 44 42 39 51 -33 -40 -2 46 -39 48 53 47 -30 -32 -42 -47 -38 -46 -37 -26
right_child=28 4 3 8 10 27 14 -9 15 -11 11 21 20 -15 -16 -17 -18 19 -20 -21 -22 -23 23 26 54 -27 -28 33 36 -31 35 37 34 -35 -36 45 38 43 40 -41 49 -43 -44 -45 52 50 -48 -49 -50 -51 -52 -53 -54 -55 -56
leaf_value=0.11452947989853926 -0.10207382948231725 -0.12004954813672973 0.050591470089888346 0.12320352801659423 0.16327034489729206 -0.10161512262492862 0.11205039139426037 0.064947935800207759 0.00079429820630878833 -0.16424859238989978 -0.1366535853499839 -0.014571864467623451 -0.12509573153550207 0.081886345046450038 0.17283859610930466 -0.14690839947954668 0.032295941378149055 0.20919437219807904 -0.15050209212124027 -0.1157326129309731 0.26589408960242084 0.1212518703831498 0.33890674708296009 -0.13006932823138084 -0.10145189193050573 -0.12752048501276095 -0.12801918896409298 -0.10231887656139338 -0.10296265649664681 -0.10201391530912299 -0.10228088895409566 -0.10184722953367467 -0.10214620493690135 -0.10158350313835714 -0.10229208018170124 -0.10229518179937902 -0.10179463065866108 -0.10207684066989338 -0.10200290936085016 -0.10146028392084841 -0.10255407013307156 -0.10200267567690982 -0.10223874877617381 -0.10254776617779163 -0.10271820904858892 -0.10201896078679325 -0.10258151849995632 -0.10278024352473214 -0.10242108206287044 -0.10273002241795642 -0.10214873910482652 -0.10193209111680723 -0.10259906450865497 -0.10225501909535467 -0.10145189193050573
leaf_weight=44893.640854718164 58.793535659089684 17.63964974321425 304.01035483088344 2812.8909885138273 11016.482653246261 42.554062478244305 3288.9661829713732 21719.722250305116 787.89682719390839 167.7711775302887 202.27321285288781 77.699806304648519 13.448967319913207 1932.9326267186552 4731.5931198764592 279.15650549903512 264.56239643786103 26.619137668982148 129.74717105645686 1235.3546685436741 705.45262090116739 1689.0139337526634 10.589948625303807 12.182927550747992 275.89080972038209 46.044498030096292 7.5032693762332192 181.11400179564953 0.64114630967379227 246.31181123480201 0.77161622885614534 46.961699862964451 211.25843939557672 2.5964204436168066 86.516680203378201 0.48198208212852378 0.34150199592113395 5.0973703414201736 0.88551293313503165 2.0774999009445301 12.066127965226766 149.334797071293 0.48503189720213313 0.43281537666916747 0.59253716282546409 0.91103734448552021 0.5010480266064431 14.894639024510978 41.450414922088385 0.47980362549424249 0.43115510605275631 0.55503667891025543 0.51692494936287403 36.210330422967672 0.33855094760656257
leaf_count=87791 2971 129 882 4060 23594 2728 3528 43792 2971 790 757 171 165 8099 4180 1416 503 41 777 6124 914 1122 3 71 19558 277 46 8200 23 12799 36 2651 10293 170 3965 22 20 258 46 147 497 7769 23 18 23 47 21 566 1796 19 21 30 21 1679 24
internal_value=0 0.104198 0.0968145 0.0238651 0.140882 0.102393 0.103688 0.0983631 0.0688332 0.107024 0.146361 0.0826339 0.156774 0.151122 0.147911 -0.0378469 -0.0409075 -0.0834738 -0.00956039 -0.108879 0.25858 0.115278 -0.0944635 0.0344766 -0.105948 -0.125451 -0.129288 -0.102093 -0.10215 -0.101955 -0.102126 -0.102095 -0.10212 -0.102308 -0.102189 -0.102342 -0.102635 -0.10186 -0.102484 -0.101831 -0.102524 -0.102023 -0.102765 -0.102114 -0.102425 -0.102249 -0.102781 -0.102788 -0.102419 -0.102561 -0.102061 -0.10188 -0.102663 -0.102256 -0.101452
internal_weight=0 97122 80849.9 5743.45 16272.1 75106.5 74633.9 66613.4 4047.72 2980.66 15901.9 2233.55 13668.3 12949.4 8020.56 1067.05 466.836 1695.73 433.758 1261.97 718.902 1766.71 370.19 30.2761 339.914 63.6841 19.6862 472.576 672.689 288.866 641.839 560.473 505.903 183.71 297.775 81.366 30.8498 54.5694 14.328 49.0392 13.4314 208.128 16.5219 5.53019 43.3315 38.0345 16.0368 15.5358 42.222 12.5459 1.34219 0.896539 1.10946 36.6923 276.229
internal_count=268644 235682 180249 17061 55433 163188 139291 131583 9237 4850 35325 2553 32772 31693 7708 4387 1260 7824 1659 6165 1079 1293 20108 120 19988 406 117 23897 32962 15527 31717 28072 24998 8370 14258 3645 1245 3074 612 2798 562 10740 633 276 1876 1769 610 589 1832 516 68 50 44 1701 19582
is_linear=0
shrinkage=0.1


Tree=4
num_leaves=56
num_cat=0
split_feature=134 72 38 132 131 30 72 109 88 72 45 104 128 127 99 76 77 89 34 72 37 60 29 118 72 36 29 38 70 29 71 37 45 72 33 38 73 38 31 22 108 45 70 39 73 83 42 35 36 31 39 30 35 19 35
split_gain=2269.39 1880.69 2601.37 1799.78 1674.89 1383.19 3451.31 1425.56 442.018 576.649 1004.95 378.261 315.992 400.454 424.057 184.333 224.672 134.136 121.554 112.038 245.827 38.0852 0.00099546 0.000821818 0.00055919 0.000449788 0.000320133 0.000246753 0.000247915 0.000101878 9.61221e-05 4.61999e-05 4.4739e-05 2.92877e-05 2.56602e-05 2.19534e-05 1.89345e-05 1.5739e-05 1.01815e-05 8.48341e-06 6.5091e-06 6.30112e-06 4.73856e-06 3.6185e-06 2.98359e-06 1.51336e-06 1.50296e-06 1.09304e-06 1.05715e-06 3.62887e-07 2.94516e-07 2.87738e-07 6.64177e-08 5.65363e-08 7.17932e-11
threshold=1.0000000180025095e-35 -0.54699096083641041 1.0013439655303957 1.0000000180025095e-35 1.0000000180025095e-35 1.0659541487693789 -0.61044147610664357 -0.89521893858909596 -0.53887116909027089 -0.4795334786176681 1.1670002341270449 -0.75000968575477589 1.0000000180025095e-35 -1.9517692923545835 -0.78889134526252735 -0.67818331718444813 -0.68201971054077137 -0.54378217458724964 0.93664833903312694 -0.5488806664943694 0.97820347547531139 0.80615228414535534 1.1377144455909731 -1.4774293303489683 -0.5539288818836211 0.83175402879714977 1.1377144455909731 0.97704300284385692 -0.30452734231948847 1.2352198362350466 -0.43165345489978785 0.86988717317581188 1.1670002341270449 -0.56006011366844166 0.8465891182422639 0.99798145890235912 -0.70067679882049549 0.91954216361045849 1.0011184215545657 1.1587498784065249 -0.9034898281097411 1.1670002341270449 -0.36565512418746943 0.94037273526191723 -0.53350397944450367 -0.69256594777107228 1.0550244450569155 0.70202383399009716 0.95844763517379772 1.0078952908515932 1.0006383061408999 1.0711162686347964 0.92672571539878856 1.2690913081169131 0.92211371660232555
decision_type=2 2 2 2 2 2 2 2 2 2 2 2 2 2 2 2 2 2 2 2 2 2 2 2 2 2 2 2 2 2 2 2 2 2 2 2 2 2 2 2 2 2 2 2 2 2 2 2 2 2 2 2 2 2 2
left_child=1 2 4 8 5 6 -1 -7 9 10 -3 -11 19 14 -14 16 -10 -17 -15 21 -21 -4 25 52 26 -6 27 28 37 -24 -30 42 38 35 50 -29 -36 -2 45 44 -35 -41 47 53 -25 46 -26 -28 -38 -45 -34 -44 54 -33 -5
right_child=24 3 12 23 22 7 -8 -9 15 11 -12 -13 13 18 -16 17 -18 -19 -20 20 -22 -23 29 39 32 -27 31 33 30 -31 -32 43 34 40 36 -37 48 -39 -40 41 -42 -43 51 49 -46 -47 -48 -49 -50 -51 -52 -53 -54 -55 -56
leaf_value=0.049052159744195745 -0.10187263232793631 0.14699627938391932 -0.14418955211033871 -0.10131181577128695 -0.10145937227908793 0.093377197321055261 0.10236894989058397 0.13910114762249137 -0.1261586148483553 0.20565570610709238 0.056253837451365078 -0.13142110499626614 0.14490497658459051 -0.0011903654549855697 -0.14673107554886167 0.20676715845012439 0.27797008627938602 -0.1251571054738409 -0.13165382863778999 0.25613237932448218 -0.14950106465155252 -0.073305648173432894 -0.10209332098166427 -0.10157578011973308 -0.10267284851053066 -0.1018260206578306 -0.10204667857260515 -0.10166838901982633 -0.10193782448625255 -0.10143057782010018 -0.10206924777715845 -0.10207203712270561 -0.10162095104943143 -0.10187536555851072 -0.10180868543460851 -0.10131940507202707 -0.10230512754963901 -0.10180847867473762 -0.10202128208125426 -0.1017024955498827 -0.10229952407649985 -0.10162372258044164 -0.10245285928986742 -0.1018231577069607 -0.10188387875864001 -0.10233005025711878 -0.10250868360359405 -0.10218517687872025 -0.10246404799895861 -0.10194011029748651 -0.10174492664387869 -0.10234566364439801 -0.10136352874023635 -0.10203583094886848 -0.10131013785727545
leaf_weight=21823.749594826251 53.298307512886822 7088.0073453271762 409.87488355208188 249.79775978252292 38.553424729034305 28988.343284444883 27364.612904633395 8915.8207042813301 21.854899734258652 1490.385667999275 1474.3163616349921 34.052148463204503 212.99738199263811 107.91437030211091 65.096727855503559 13.736127246171234 37.124533923342824 107.12185447849333 211.15153466165066 24.711321219801903 37.785328384488821 92.996421278454363 164.23680466227233 0.35127184819430146 0.58169147372245689 253.18774153850973 0.57857442833483119 42.563644547015429 191.52540553919971 2.3527001943439236 78.445733763277531 0.43702337890863319 0.30949605349451204 4.6209485363215208 0.80269602313637634 1.8822803916409601 10.943086266517636 135.36832907423377 0.43976287171244699 55.983165792189538 0.39252946153283019 12.404647554270921 0.53746766410767921 0.82584513537585624 2.9871814064681521 0.45442437194287855 13.511106573045252 37.709040580317378 0.4352251701056965 0.39088304899632931 0.50310367159545422 0.46883212029933929 0.24859238415956397 32.831258149817586 0.2552863322198381
leaf_count=55535 2971 11021 2488 19545 2727 50149 44479 10889 136 2075 5472 190 334 493 340 13 57 699 957 14 193 568 8201 23 23 14511 30 2651 10293 170 3965 22 20 258 46 147 497 7769 23 3406 18 793 23 47 165 21 566 1802 19 21 30 21 19 1679 20
internal_value=0 0.0915541 0.0867996 0.131388 0.0887729 0.0897762 0.0787135 0.104132 0.13869 0.14146 0.131372 0.198126 -0.0618059 -0.0110769 0.0766383 -0.0167071 0.12822 -0.0874322 -0.0875285 -0.115388 0.0108873 -0.131081 -0.101889 -0.101397 -0.101941 -0.101778 -0.10192 -0.101892 -0.101915 -0.102084 -0.101976 -0.102115 -0.102378 -0.101679 -0.102242 -0.101654 -0.102278 -0.101827 -0.102495 -0.101696 -0.101909 -0.101688 -0.102189 -0.10203 -0.101851 -0.10251 -0.102515 -0.102183 -0.102311 -0.101861 -0.101698 -0.102403 -0.101312 -0.102036 -0.101312
internal_weight=0 99302 88713.4 10588.6 87550.9 87092.5 49188.4 37904.2 10266.6 10086.8 8562.32 1524.44 1162.53 597.16 278.094 179.837 58.9794 120.858 319.066 565.368 62.4966 502.871 458.331 322.028 609.857 291.741 581.876 508.097 458.638 166.59 269.971 73.7789 27.9806 49.4594 12.9936 44.4459 12.181 188.667 14.987 71.7263 5.01348 68.3878 39.2939 34.485 3.33845 14.5472 14.0928 38.2876 11.3783 1.21673 0.8126 1.0063 250.302 33.2683 250.053
internal_count=268644 235682 192048 43634 186661 161052 100014 61038 19663 18758 16493 2265 5387 2124 674 905 193 712 1450 3263 207 3056 25609 23971 32962 17238 31717 28072 24998 8371 14258 3645 1245 3074 612 2798 562 10740 633 4387 276 4199 1876 1769 188 610 589 1832 516 68 50 44 19584 1701 19565
is_linear=0
shrinkage=0.1


Tree=5
num_leaves=57
num_cat=0
split_feature=134 132 71 38 71 71 35 38 127 37 73 64 60 36 103 45 33 72 118 30 72 29 37 21 38 70 29 71 72 70 37 45 71 72 33 38 79 73 38 31 22 108 70 39 83 42 33 36 31 39 30 15 35 19 0 0
split_gain=1838.77 1527.6 1845.95 2557.99 2543.15 1778.67 2802.28 1590.41 618.537 491.652 1480.6 641.182 465.436 332.403 317.458 213.86 0.547464 0.0204135 0.000721458 0.000634722 0.000411573 0.000235681 0.000223812 0.000194497 0.000181749 0.000182568 0.000177312 7.07799e-05 5.26378e-05 3.87873e-05 3.40045e-05 3.28997e-05 2.68627e-05 2.15843e-05 1.88862e-05 1.61874e-05 1.51336e-05 1.39357e-05 1.16063e-05 7.48558e-06 6.25068e-06 4.79212e-06 3.48599e-06 2.66441e-06 1.11035e-06 1.10502e-06 8.03168e-07 7.81782e-07 2.67331e-07 2.17004e-07 2.11435e-07 5.36321e-08 4.91409e-08 4.16243e-08 8.88178e-16 1.11022e-16
threshold=1.0000000180025095e-35 1.0000000180025095e-35 -0.37974615395069117 0.97704300284385692 -0.40698070824146265 -0.4233966320753097 0.90605756640434276 0.99643173813819896 -1.7856096625328062 0.97926324605941784 -0.72759059071540821 0.50626963376998912 0.74309125542640697 0.86799687147140514 -0.78266295790672291 1.1531696915626528 0.8465891182422639 -0.5539288818836211 -1.4774293303489683 1.0323458313941958 -0.5539288818836211 1.1377144455909731 0.86988717317581188 1.3781577944755556 0.97704300284385692 -0.30452734231948847 1.2352198362350466 -0.43165345489978785 -0.54699096083641041 -0.33548796176910395 0.86988717317581188 1.1670002341270449 -0.44221594929695124 -0.56006011366844166 0.8465891182422639 0.99798145890235912 -0.67189893126487721 -0.70067679882049549 0.91954216361045849 1.0011184215545657 1.1587498784065249 -0.9034898281097411 -0.36565512418746943 0.94037273526191723 -0.69256594777107228 1.0550244450569155 0.77583539485931408 0.95844763517379772 1.0078952908515932 1.0006383061408999 1.0711162686347964 0.9071469008922578 0.92672571539878856 1.2690913081169131 0.33265055716037756 0.20986159890890124
decision_type=2 2 2 2 2 2 2 2 2 2 2 2 2 2 2 2 2 2 2 2 2 2 2 2 2 2 2 2 2 2 2 2 2 2 2 2 2 2 2 2 2 2 2 2 2 2 2 2 2 2 2 2 2 2 2 2
left_child=1 2 3 5 8 6 -1 -6 -5 13 15 -12 -7 16 -15 -11 -4 19 51 23 21 24 26 32 25 38 -21 -27 54 -24 42 39 -3 35 49 -26 -25 55 -2 44 -30 -35 46 53 45 -22 -23 -39 -45 -33 -44 52 -19 -32 -20 -36
right_child=20 17 9 4 7 12 -8 -9 -10 10 11 -13 -14 14 -16 -17 -18 18 28 22 31 30 29 36 33 27 -28 -29 40 -31 43 34 -34 41 37 -37 -38 47 -40 -41 -42 -43 50 48 -46 -47 -48 -49 -50 -51 -52 -53 -54 -55 -56 -57
leaf_value=0.083449362254549006 -0.10169130011401727 -0.10245911078068021 -0.11936798662496646 -0.027261233162846302 0.085804631277971347 0.086886021065406119 0.016894455145013473 -0.053636813474418947 -0.14247611340651475 -0.001026596625394225 0.012941781109651369 0.12871070443709015 0.13168642249171358 0.10462104080574074 0.15202107690966582 -0.12100891132687915 -0.15502754829116494 -0.10118542369730983 -0.10189364493792324 -0.10289660061801463 -0.10241206680162161 -0.10185953467186713 -0.10242786123311101 -0.10210959512331599 -0.10150713115612482 -0.10175003513369558 -0.10215870908013631 -0.10186848435044403 -0.1016721793018204 -0.1026614632425264 -0.10187098193337135 -0.10146437239291509 -0.10270355334008957 -0.10169377375094886 -0.10163361223871832 -0.10119228628337168 -0.10272992752573695 -0.10208096232498687 -0.10163343325771142 -0.10182532472403039 -0.10152498403964644 -0.10207598394873406 -0.10221399664691391 -0.10164665395629809 -0.10210358397027591 -0.10226426360215908 -0.1019731109988473 -0.10222447431958635 -0.1017520902292412 -0.10157616250418899 -0.10211749992412322 -0.10123284794985997 -0.10123215855718407 -0.10183835313394021 -0.10189364493792318 -0.10163361223871802
leaf_weight=60703.593176526949 48.307922144420445 10.086621273308994 44.407553782686591 2346.7926746187732 5083.110256684944 3226.0847165156156 7062.3366223108023 974.80737978871912 581.39746183715761 360.3835639115423 542.73747768253088 4036.1919684959576 8247.2867308510467 2000.2851566905156 4812.154411370866 252.74392991326749 4.7675098180770865 226.32876281253994 2.5534807145595542 87.512471504509449 0.52760819904506107 0.63421894796192546 13.848692597821357 20.604962905868891 38.571246509440243 173.6029055044055 3.3823899943381539 71.113401889801025 3.0258129918947807 14.602525159716604 0.39617580547929421 0.28045377228408952 8.1106682345271093 4.1882934542372823 0.4111938513815393 1.7051883749663819 0.40092549845576186 9.9223508052527869 122.68655579537153 0.39864066429436285 61.974272603169084 0.35591355059295793 0.48739944770932098 0.74848710745572933 0.4120457302778967 12.253086499869822 34.078223581425846 0.39468394964933473 0.3543058717623353 0.45594488829374313 0.42511642165482044 0.23918459750711818 0.22521274071186681 29.761625792831182 1.7327190563082693 0.31630296260118484
leaf_count=128709 2971 434 523 8508 8712 5142 18388 4286 3169 948 1278 7585 7546 3338 5631 1330 22 19548 140 3212 23 36 601 1024 2651 10293 168 3965 188 583 22 20 320 258 26 147 16 497 7769 23 4199 18 23 47 21 566 1796 19 21 30 21 20 19 1679 95 20
internal_value=0 0.0811297 0.0819588 0.0769439 0.0263804 0.082678 0.0765132 0.0633665 -0.0501374 0.118665 0.0954479 0.114989 0.119089 0.136233 0.138103 -0.0504858 -0.122825 -0.101762 -0.101272 -0.102678 -0.101753 -0.101734 -0.102793 -0.102329 -0.101708 -0.101729 -0.102869 -0.101784 -0.101554 -0.102548 -0.101909 -0.102146 -0.102568 -0.101517 -0.102024 -0.101494 -0.102121 -0.102057 -0.10165 -0.102252 -0.101532 -0.101724 -0.101976 -0.101833 -0.102265 -0.10227 -0.101971 -0.102086 -0.101681 -0.101534 -0.102169 -0.101186 -0.101185 -0.101839 -0.101894 -0.101634
internal_weight=0 100734 100279 88225.4 8986.11 79239.3 67765.9 6057.92 2928.19 12053.7 5192.06 4578.93 11473.4 6861.61 6812.44 613.127 49.1751 454.629 296.079 158.549 552.789 527.417 119.346 39.2032 460.531 415.711 90.8949 244.716 69.2863 28.4512 66.8856 25.3723 18.1973 44.8206 11.7809 40.2764 21.0059 11.0445 170.994 13.5914 65.0001 4.54421 35.625 31.2606 13.1927 12.7807 34.7124 10.317 1.10279 0.736399 0.912516 226.793 226.554 30.1578 4.2862 0.727497
internal_count=268644 235682 205115 184460 24675 159785 147097 12998 11677 20655 11141 8863 12688 9514 8969 2278 545 30567 24209 6358 32962 31717 4564 1794 28072 24998 3380 14258 4622 1184 3645 1245 754 3074 612 2798 1040 562 10740 633 4387 276 1876 1769 610 589 1832 516 68 50 44 19587 19567 1701 235 46
is_linear=0
shrinkage=0.1


Tree=6
num_leaves=50
num_cat=0
split_feature=134 131 132 70 38 38 106 32 37 19 72 107 72 29 118 30 34 72 102 29 37 21 38 70 29 104 31 71 72 37 45 72 33 38 73 38 31 108 70 39 83 41 35 35 31 37 30 101 18
split_gain=1506.24 1387.52 1261.38 1341.68 2218.73 1173.01 525.004 512.605 416.645 226.883 0.0150348 0.0095221 0.00229084 0.00123904 0.000532312 0.000466411 0.000313167 0.000303121 0.000193199 0.000173603 0.000164385 0.000143087 0.00013394 0.00013455 9.60895e-05 8.85315e-05 6.46636e-05 5.21483e-05 3.87902e-05 2.50367e-05 2.42108e-05 1.59145e-05 1.39095e-05 1.19417e-05 1.02635e-05 8.562e-06 5.50758e-06 3.53013e-06 2.56694e-06 1.96291e-06 8.15439e-07 8.13195e-07 5.90507e-07 5.78534e-07 1.97087e-07 1.60097e-07 1.55558e-07 3.96664e-08 3.06851e-08
threshold=1.0000000180025095e-35 1.0000000180025095e-35 1.0000000180025095e-35 -0.20245148241519925 0.99643173813819896 0.93121615052223217 -0.78184196352958668 0.96572414040565502 0.97926324605941784 1.1316184401512148 -0.5539288818836211 -1.0165209770202634 -0.54699096083641041 1.1377144455909731 -1.4774293303489683 1.0323458313941958 0.77183419466018688 -0.5539288818836211 -0.8289632499217986 1.1377144455909731 0.86988717317581188 1.3781577944755556 0.97704300284385692 -0.30452734231948847 1.2352198362350466 -0.89624834060668934 1.0010123848915102 -0.43165345489978785 -0.54699096083641041 0.86988717317581188 1.1670002341270449 -0.56006011366844166 0.8465891182422639 0.99798145890235912 -0.70067679882049549 0.91954216361045849 1.0011184215545657 -0.9034898281097411 -0.36565512418746943 0.94037273526191723 -0.69256594777107228 1.0268647670745852 0.70202383399009716 0.93933629989624035 1.0078952908515932 0.92402330040931713 1.0711162686347964 -0.74949821829795826 1.2236947417259219
decision_type=2 2 2 2 2 2 2 2 2 2 2 2 2 2 2 2 2 2 2 2 2 2 2 2 2 2 2 2 2 2 2 2 2 2 2 2 2 2 2 2 2 2 2 2 2 2 2 2 2
left_child=1 2 3 4 5 -1 8 -8 -5 -6 15 18 13 16 47 21 -13 19 -3 22 -17 -4 23 35 -15 -14 -27 -25 -16 38 36 33 45 -24 -34 -2 40 -33 42 48 41 -19 -21 -36 -41 -32 -40 -12 -31
right_child=17 11 10 6 9 -7 7 -9 -10 -11 14 12 25 24 28 20 -18 30 -20 29 -22 -23 31 27 -26 26 -28 -29 -30 39 32 37 34 -35 43 -37 -38 -39 46 44 -42 -43 -44 -45 -46 -47 -48 -49 -50
leaf_value=0.082188868810807905 -0.10152779176985782 -0.10621263411390565 -0.10231783068763006 0.13360943947840759 -0.014151870395760808 0.05907799253077807 -0.029869397081798504 0.14179860145690043 0.092491124389273788 -0.092608316258984524 -0.10111419371556292 -0.10143317167936659 -0.10463474921502081 -0.10205438430490227 -0.10171019974770704 -0.10258872805912229 -0.10174099897839667 -0.10217730795300571 -0.10786951186477885 -0.10166933604968534 -0.10229951716429618 -0.10191554097174454 -0.10136168041027688 -0.1015807447726894 -0.10140509192072228 -0.1036093773626654 -0.1024788744419186 -0.10168754017714261 -0.10138395834037468 -0.10168978932029196 -0.10132309460004339 -0.10153003797872251 -0.10147573947162486 -0.10107754902171638 -0.10187901940404918 -0.1014755813301844 -0.10164868286997629 -0.10187458403968658 -0.10199889015178397 -0.10148750675205576 -0.10189954450970745 -0.10204415895388097 -0.10178164303481099 -0.10200867350189272 -0.10158260504588822 -0.10142396935415834 -0.10191196196038479 -0.10107138401558258 -0.10166036287744723
leaf_weight=48844.197954373434 43.777625541202724 1.0448866225779059 16.503806012682617 5052.6564488299191 768.31802359782159 39903.798600163311 514.33214796707034 262.82706268131733 4810.524433799088 708.47288686968386 0.21666913107037444 38.242668990045786 0.78733853995800007 161.30723177921027 3.8849526271224013 82.458425834774971 243.36579530034214 0.47844312153756519 2.155632395297288 0.47535991854965942 25.80301452986896 19.04335767775774 34.948240057565272 157.33087105955929 2.311935717239975 5.775298584252595 0.55454209353774775 64.454735170118511 58.895932328887284 0.35908273234964028 0.25409562420099874 3.7955251205712557 0.65923833474516769 1.5445805536583055 8.9949974268674815 111.17528123408556 0.36129991617053825 0.32264814060181279 0.44189999252557655 0.67826709989458223 0.37354294210672456 11.109744823537765 30.989723812788725 0.35784855484962541 0.32109688501805067 0.41314881760627031 0.38539752177894115 205.21412345580757 26.974179316312075
leaf_count=84373 2971 20 754 5660 3270 71011 1924 239 9451 3103 20 2755 19 8202 235 3380 14683 23 33 30 1184 1040 2651 10293 170 176 26 3965 4387 22 20 258 46 147 497 7769 23 18 23 47 21 566 1802 19 21 30 21 19567 1679
internal_value=0 0.0722388 0.073022 0.0737353 0.0697746 0.0717975 0.10732 0.0281869 0.113555 -0.0517904 -0.101592 -0.101893 -0.101855 -0.101826 -0.101149 -0.102417 -0.101699 -0.101583 -0.107329 -0.101566 -0.10252 -0.102102 -0.101543 -0.101562 -0.102045 -0.103635 -0.10351 -0.101612 -0.101404 -0.101724 -0.101938 -0.101371 -0.101828 -0.10135 -0.101857 -0.10149 -0.102033 -0.101557 -0.101785 -0.101656 -0.102045 -0.10205 -0.10178 -0.101884 -0.101518 -0.101386 -0.101958 -0.101071 -0.101661
internal_weight=0 101733 101277 100865 90224.8 88748 10640.3 777.159 9863.18 1476.79 412.02 455.545 452.345 445.228 268.212 143.809 281.608 500.977 3.20052 477.975 108.261 35.5472 417.35 376.739 163.619 7.11718 6.32984 221.786 62.7809 60.625 23.0024 40.611 10.6793 36.4928 10.0121 154.953 12.323 4.11817 32.2924 28.3326 11.9617 11.5882 31.4651 9.35285 0.999364 0.667244 0.827298 205.431 27.3333
internal_count=268644 235682 209598 179031 161757 155384 17274 2163 15111 6373 30567 26084 26031 25810 24209 6358 17438 32962 53 31717 4564 1794 28072 24998 8372 221 202 14258 4622 3645 1245 3074 612 2798 562 10740 633 276 1876 1769 610 589 1832 516 68 50 44 19587 1701
is_linear=0
shrinkage=0.1


Tree=7
num_leaves=57
num_cat=0
split_feature=134 72 30 3 36 71 97 29 72 43 133 72 73 39 116 135 74 136 61 32 38 107 70 98 36 35 19 99 126 14 98 31 72 29 38 70 71 37 45 72 33 38 73 38 31 108 70 39 83 42 33 36 31 39 30 19
split_gain=1245.34 1184.56 3468.73 2130.68 1671.51 1642.63 1372.49 1088.65 1166.27 1005.49 1721.48 1527.26 1176.61 2020.79 904.262 800.415 791.552 772.958 759.63 761.501 837.465 694.59 437.7 373.341 168.917 185.579 162.451 157.01 243.811 142.306 125.385 31.6232 0.000223376 0.000127956 9.87577e-05 9.91905e-05 3.84501e-05 1.84536e-05 1.78292e-05 1.17399e-05 1.02498e-05 8.81323e-06 7.56316e-06 6.31933e-06 4.05504e-06 2.60195e-06 1.89074e-06 1.44659e-06 5.99383e-07 5.98642e-07 4.3453e-07 4.28012e-07 1.45331e-07 1.18088e-07 1.14463e-07 2.26309e-08
threshold=1.0000000180025095e-35 -0.60876357555389393 1.0600628256797793 0.49489268660545355 0.93315657973289501 -0.44990977644920344 -0.93108776211738575 1.2352198362350466 -0.80750322341918934 1.0784089565277102 1.0000000180025095e-35 -0.5317404270172118 -0.75256738066673268 1.0146991610527041 -1.4105123877525327 1.0000000180025095e-35 -0.95944905281066883 1.0000000180025095e-35 0.68152743577957164 0.88797304034233104 0.91189935803413402 -0.94448000192642201 -0.37640631198883051 -0.82232028245925892 0.91727408766746532 0.83034756779670726 1.40029513835907 -0.85508543252944935 -1.645586311817169 0.89364340901374828 -0.86045587062835682 1.0010123848915102 -0.5539288818836211 1.1377144455909731 0.97704300284385692 -0.30452734231948847 -0.43165345489978785 0.86988717317581188 1.1670002341270449 -0.56006011366844166 0.8465891182422639 0.99798145890235912 -0.70067679882049549 0.91954216361045849 1.0011184215545657 -0.9034898281097411 -0.36565512418746943 0.94037273526191723 -0.69256594777107228 1.0550244450569155 0.77583539485931408 0.95844763517379772 1.0078952908515932 1.0006383061408999 1.0711162686347964 1.2690913081169131
decision_type=2 2 2 2 2 2 2 2 2 2 2 2 2 2 2 2 2 2 2 2 2 2 2 2 2 2 2 2 2 2 2 2 2 2 2 2 2 2 2 2 2 2 2 2 2 2 2 2 2 2 2 2 2 2 2 2
left_child=1 2 4 15 5 17 -7 8 -5 18 12 30 13 -11 -14 22 -9 -1 19 26 -21 -13 -4 -17 25 -20 -3 28 -6 -26 -12 -29 33 34 35 43 -37 46 44 41 53 -36 -42 -2 48 -41 50 55 49 -34 -35 -44 -49 -40 -48 -39
right_child=32 9 3 7 27 6 -8 16 -10 10 11 21 14 -15 -16 23 -18 -19 24 20 -22 -23 -24 -25 29 -27 -28 31 -30 -31 -32 -33 38 37 39 36 -38 47 40 45 42 -43 51 -45 -46 -47 54 52 -50 -51 -52 -53 -54 -55 -56 -57
leaf_value=0.011625665986894171 -0.10138031933271215 -0.13500135905228094 -0.15403201905449049 0.13566879441051202 0.054097607325611655 0.11627339805018906 0.013901780973743828 -0.10141518602031539 0.072030888499195714 0.060337894780339185 0.054428709857007367 0.071233605636556244 -0.10705911611000996 -0.0961755437685161 0.091015966028029582 0.019723583977535711 0.1027201002212097 -0.06229986694494645 -0.13010091545295707 0.14375318591107661 0.075820873605990324 -0.15242664719129972 -0.032272111696948533 0.22098866923850544 0.13413344093600613 0.19226323782917834 0.22707936573489673 -0.14601522147618481 -0.12328022416295065 -0.060595848114428266 -0.14440311995845118 -0.20385979202950147 -0.1019658408542987 -0.10151721239903587 -0.10123044006163298 -0.10142806029384539 -0.10152439241319067 -0.10152640695194233 -0.10119563450877807 -0.10138235331106507 -0.10133333247264223 -0.10097395959712641 -0.10169701394628167 -0.10133319738183558 -0.10148939051571426 -0.10169306237187273 -0.10180505326359504 -0.10134395916624794 -0.10171563391465588 -0.10184585971511889 -0.10160939117245844 -0.10181414496261694 -0.10142974843782371 -0.10128665544346521 -0.10172673202162792 -0.10149986037110895
leaf_weight=7918.9111795229837 39.666323042474687 178.40075005404651 385.79692028090358 3105.9519667811692 101.74851346388459 2772.6635353993624 2481.9592993753031 593.94390421360731 39558.855610361323 7132.2671548621729 33.192868828773499 1140.362317211926 233.5896665873006 932.82387346588075 17316.919556270353 233.33926881104708 279.2643196163699 1721.9335507499054 18.281446001492441 2349.8026513280347 7969.650562165305 158.10238873958588 1257.7102355100214 152.33586789667606 2091.1955020315945 771.08859444409609 13.316053216345606 246.25882161129266 325.04631278337911 38.214315365999937 712.61812187731266 153.37300696969032 0.43376539461314578 0.52091161534190789 31.661385577172041 142.56224805582315 58.410006886348128 0.32540777511895314 0.23018995206802983 3.4390813484787945 0.59729913622140784 1.3989551197737444 8.1528349798172677 100.72970779240131 0.32740467786789018 0.29243870731443067 0.40057019330561061 0.61454653646796842 0.33857563976198513 10.07108919136226 27.995680347084999 0.32438207045197565 0.2909560427069664 0.37431365437805653 0.34932476095855236 24.443876654841006
leaf_count=33231 2971 1463 1950 3628 381 3894 5519 2604 73891 11686 41 2541 19800 4489 32804 689 455 6565 109 2969 13349 751 3635 197 1062 311 25 1419 1831 113 3275 1005 23 36 2651 10293 3965 22 20 258 46 147 497 7769 23 18 23 47 21 566 1796 19 21 30 21 1679
internal_value=0 0.0645666 0.0557592 0.0697331 0.0152581 0.0229383 0.0679194 0.0744014 0.0766637 0.0777036 0.0668034 -0.0215062 0.0738511 0.0422353 0.0883797 -0.0304296 -0.0361298 -0.00157804 0.100153 0.0876208 0.0912895 0.0440005 -0.060854 0.0992203 0.145286 0.184797 -0.109852 -0.123171 -0.0809931 0.130639 -0.135554 -0.168215 -0.10143 -0.101415 -0.101394 -0.101411 -0.101456 -0.101558 -0.10175 -0.101239 -0.101651 -0.10122 -0.101677 -0.101347 -0.101836 -0.101407 -0.101612 -0.101496 -0.101847 -0.101851 -0.101608 -0.101701 -0.101372 -0.101252 -0.101769 -0.1015
internal_weight=0 102379 61289.1 45567.2 15721.9 14895.5 5254.62 43538 42664.8 41089.8 27659.9 2044.28 25615.6 8065.09 17550.5 2029.18 873.208 9640.84 13429.9 10511.2 10319.5 1298.46 1643.51 385.675 2918.78 789.37 191.717 826.427 426.795 2129.41 745.811 399.632 453.951 433.101 378.16 341.368 200.972 54.9413 20.8499 36.7919 9.67902 33.0603 9.07452 140.396 11.1708 3.73152 29.2665 25.6748 10.8434 10.5049 28.5166 8.47722 0.905503 0.604504 0.749895 24.7693
internal_count=268644 235682 140894 87049 53845 49209 9413 80578 77519 94788 75387 6608 68779 16175 52604 6471 3059 39796 19401 17806 16318 3292 5585 886 1595 420 1488 4636 2212 1175 3316 2424 32962 31717 28072 24998 14258 3645 1245 3074 612 2798 562 10740 633 276 1876 1769 610 589 1832 516 68 50 44 1701
is_linear=0
shrinkage=0.1


Tree=8
num_leaves=46
num_cat=0
split_feature=131 134 132 71 38 71 136 38 72 130 72 107 72 29 118 30 37 102 32 72 70 37 29 31 30 29 100 38 70 29 72 6 37 45 72 33 30 116 73 116 31 70 39 83 37
split_gain=1097.36 1048.22 940.566 1012.3 3233.96 1210.22 751.669 594.324 1529.56 595.363 0.0144144 0.00926478 0.00236975 0.00153508 0.000996256 0.000532456 0.000269082 0.000181907 0.000181458 0.000164691 0.0001517 0.000141612 0.000151114 0.000120572 0.000117677 9.43502e-05 8.89668e-05 7.28512e-05 7.31672e-05 4.11617e-05 3.74457e-05 2.0828e-05 1.36046e-05 1.31343e-05 8.66331e-06 7.55726e-06 7.12456e-06 6.68673e-06 5.57644e-06 4.40269e-06 2.98709e-06 1.39346e-06 1.06677e-06 4.40836e-07 8.71917e-08
threshold=1.0000000180025095e-35 1.0000000180025095e-35 1.0000000180025095e-35 -0.39834322035312647 0.97704300284385692 -0.42721244692802424 1.0000000180025095e-35 0.99643173813819896 -0.5488806664943694 1.0000000180025095e-35 -0.54699096083641041 -1.0165209770202634 -0.5539288818836211 1.1313998103141787 -1.4774293303489683 1.0323458313941958 0.86988717317581188 -0.8289632499217986 0.88797304034233104 -0.5539288818836211 -0.22516953945159909 0.86988717317581188 1.2352198362350466 1.0010123848915102 1.0646517276763918 1.1377144455909731 -0.82745593786239613 0.97704300284385692 -0.30452734231948847 1.1377144455909731 -0.54699096083641041 0.53183284401893627 0.86988717317581188 1.1670002341270449 -0.56006011366844166 0.8465891182422639 1.0323458313941958 -1.4105123877525327 -0.70067679882049549 -1.4105123877525327 1.0011184215545657 -0.36565512418746943 0.94037273526191723 -0.69256594777107228 0.92402330040931713
decision_type=2 2 2 2 2 2 2 2 2 2 2 2 2 2 2 2 2 2 2 2 2 2 2 2 2 2 2 2 2 2 2 2 2 2 2 2 2 2 2 2 2 2 2 2 2
left_child=1 2 3 4 5 -1 -6 9 -9 -5 15 17 13 16 39 18 36 -2 -4 25 -18 22 -15 26 -17 27 -14 28 -3 -23 -28 -25 41 40 -29 44 -13 -16 -37 -12 43 -27 -34 -21 -35
right_child=11 19 10 7 6 -7 -8 8 -10 -11 14 12 23 21 37 24 20 -19 -20 33 -22 29 -24 31 -26 32 30 34 -30 -31 -32 -33 42 35 -36 38 -38 -39 -40 -41 -42 -43 -44 -45 -46
leaf_value=0.054124916635122061 -0.10611953462768248 -0.10121674322143602 -0.10172096765964088 0.084909090905087872 -0.016433024282057198 0.090340922183778372 -0.16399920580255195 -0.02331321432433273 0.081358190926896112 0.1479708806001305 -0.10087037874310936 -0.10130605876797068 -0.10454539702192552 -0.10207228809254761 -0.1011658998161459 -0.10232591314119815 -0.10159763021226634 -0.10773835898702849 -0.10216740652467154 -0.10167158372163843 -0.10219893882970768 -0.1017759482257036 -0.10117627416347857 -0.1017955933538187 -0.10255071970992098 -0.10145237597070687 -0.10284612802342788 -0.1011021995015671 -0.10131559079688396 -0.10191312850423556 -0.10355082606562763 -0.10284982336540643 -0.10135541096102074 -0.10108057265747067 -0.10127107395232873 -0.10120484197948776 -0.10176585442838532 -0.10136012992675288 -0.10153697814091669 -0.10105919794385115 -0.10134570301495743 -0.10159743750558783 -0.10123931073346432 -0.10154980355386614 -0.10116274979673245
leaf_weight=67155.466648031957 1.0309402383863928 127.19016299769282 17.08257982134819 9030.8661922588944 4010.1833286723122 10696.735908919945 377.69705037027597 1749.3881473690271 6912.6593072116375 1794.5925004351884 166.48545334022492 34.871163500472903 0.84881271235644806 77.770804743282497 1.830708798021077 68.09874214977026 190.83985000662506 2.1247776448726645 19.494035331532359 9.5210884744301421 4.2898904276080421 30.129596676677465 1.9289234504103649 0.42558611650019873 35.383270039223135 25.840372798033062 0.86940712668001552 29.947199176996946 182.08650376368314 79.818770435638726 5.6825710870325556 0.33485298231244087 22.442564477212731 0.20850561279803415 3.3807108029723159 0.54110986366867919 0.3402872271835794 55.725104938261211 7.6822991743683806 1.2441119449213136 0.29664664901793081 0.67961771227419276 0.82034815568476815 0.30683072376996356 0.33909062389284372
leaf_count=121517 20 10740 1036 12704 11749 12094 1630 6027 11784 1526 19464 2745 21 3925 162 3112 12568 33 961 589 223 1766 170 27 1487 1832 33 2798 14258 4344 176 13 1701 20 276 46 20 4225 516 120 23 44 68 21 30
internal_value=0 0.058032 0.0586738 0.0592491 0.0543931 0.0591009 -0.0291351 0.0797417 0.0602187 0.0953632 -0.10149 -0.101811 -0.101771 -0.101738 -0.100995 -0.102287 -0.101565 -0.10721 -0.101959 -0.101292 -0.101611 -0.101949 -0.102051 -0.103459 -0.102403 -0.101278 -0.103582 -0.10126 -0.101275 -0.101876 -0.103457 -0.10226 -0.101407 -0.101581 -0.101119 -0.101491 -0.101311 -0.101354 -0.101515 -0.100872 -0.101658 -0.101456 -0.101351 -0.101668 -0.101131
internal_weight=0 102504 102093 101728 82240.1 77852.2 4387.88 19487.5 8662.05 10825.5 365.344 431.306 428.151 419.989 225.285 140.059 230.341 3.15572 36.5766 411.283 195.13 189.648 79.6997 8.16123 103.482 392.387 7.40079 342.605 309.277 109.948 6.55198 0.760439 49.7829 18.8956 33.3279 8.77101 35.2115 57.5558 8.22341 167.73 10.1246 26.52 23.2629 9.82792 0.547596
internal_count=268644 242560 209598 179031 146990 133611 13379 32041 17811 14230 30567 26084 26031 25761 23971 6596 15556 53 1997 32962 12791 10205 4095 270 4599 31717 230 28072 24998 6110 209 40 3645 1245 3074 612 2765 4387 562 19584 633 1876 1769 610 50
is_linear=0
shrinkage=0.1


Tree=9
num_leaves=48
num_cat=0
split_feature=74 73 30 127 136 3 97 72 37 74 107 108 98 48 73 113 30 4 28 2 103 50 128 30 31 31 82 90 89 92 93 53 111 127 118 92 128 81 31 31 19 131 131 118 94 120 119
split_gain=1047.25 1118.32 2838.26 1503.08 1269.64 1804.1 1230.07 1883 2482.24 1325.41 873.102 871.766 719.936 635.09 582.677 526.763 442.253 420.707 776.677 412.837 369.305 334.306 326.611 279.116 296.326 270.177 269.997 256.779 205.364 205.268 160.079 146.113 126.142 100.914 67.9053 71.3567 47.4302 84.2466 43.7817 31.0572 15.5272 14.5257 8.15478 6.41494 1.79961 0.867375 0.0919983
threshold=-1.0523623824119566 -0.91728758811950672 1.0922479629516604 -1.5078779458999632 1.0000000180025095e-35 0.66724207997322094 -0.94681993126869191 -0.61044147610664357 0.92013090848922741 -1.0120465755462644 -0.86688575148582447 -0.89114734530448902 -0.93908327817916859 1.032177805900574 -0.8345646560192107 -0.96108892560005177 1.0654270052909853 0.70777240395545971 1.3044341802597048 0.6739434301853181 -0.90760466456413258 1.2095572352409365 1.0000000180025095e-35 1.0957745909690859 1.0143958926200869 1.0052290558815005 -1.2844998836517332 -1.2514201402664182 -1.1685412526130674 -1.1382225751876829 -1.1065279841423032 0.90971010923385631 -0.89993813633918751 -1.3096391558647154 -0.91011393070220936 -1.171590209007263 1.0000000180025095e-35 -1.3298854231834409 0.95290294289588939 0.93548819422721874 1.596027731895447 1.0000000180025095e-35 1.0000000180025095e-35 -0.85594990849494923 -1.0794152617454527 -0.91812357306480397 -0.86584851145744313
decision_type=2 2 2 2 2 2 2 2 2 2 2 2 2 2 2 2 2 2 2 2 2 2 2 2 2 2 2 2 2 2 2 2 2 2 2 2 2 2 2 2 2 2 2 2 2 2 2
left_child=21 2 15 6 5 12 9 8 -8 13 -9 -7 -5 -3 -11 22 31 29 -19 23 -18 25 43 28 -25 30 -21 36 -4 -17 39 -6 45 -24 35 -29 37 -27 -28 46 -23 -41 -36 -2 -34 -32 -1
right_child=1 3 19 4 16 11 7 10 -10 14 -12 -13 -14 -15 -16 17 20 18 -20 26 -22 40 33 24 -26 27 38 34 -30 -31 32 -33 44 -35 42 -37 -38 -39 -40 41 -42 -43 -44 -45 -46 -47 -48
leaf_value=-0.14279632108244097 -0.17062147541700448 0.17045631632177327 -0.10086253546277579 0.067250268267720417 0.13417199225306267 -0.074261213426438072 0.048347651200575756 0.046607969999486652 -0.015047346078343708 0.06668195071712342 0.075627496072635192 0.062637637665237819 -0.054498862646149442 -0.070565595510389253 0.10751720547736442 -0.056212275730447459 -0.1920054688969895 -0.11710274028318673 0.11913377230037291 0.17384205280847673 -0.014397102543979953 0.22486207295965588 0.17759876778438033 -0.15397065542320387 0.14200859365810911 -0.18677989265190043 -0.093412443534483858 0.17375798452495916 0.11365942643753646 0.17327837844469579 -0.18215290097175152 -0.16760768322250952 0.20236776919550103 -0.14252741089584234 -0.20762528492365481 -0.16519962350336315 0.16755600424144798 0.18493603259133776 -0.17518511521733302 -0.18076125559549697 0.39136170591915742 -0.10170022940148885 -0.10180497907636746 -0.10646018020802575 0.15103280830967905 -0.1390823427181764 -0.10216973489489747
leaf_weight=0.56149605195969243 84.789031185209751 127.13139692042023 57.386698106303811 5805.2007190198638 16.68527022562921 1977.4044198747724 20564.476244768128 19118.895759372041 8827.6982700577937 6729.5424503637478 22650.723834251985 608.23759032320231 530.03957936773077 780.57640102598816 7268.2894018776715 39.837268998846412 133.66551394760609 146.53069272916764 2770.601480637677 25.954966515302658 943.14513297379017 13.340367356315255 56.843464149162173 158.9979550037533 42.96654087677598 11.810740359127522 81.906382194720209 13.017476270906629 200.67619685083628 1801.7333325045183 9.8441014718264359 417.38755177520216 12.686232566833498 11.91031416878104 42.266113609075546 11.877700973302124 68.147094041109085 12.603785514831543 326.38050122745335 267.97636752016842 9.6544589996337891 25.445360005833209 8.798331583850084 19.09154487401247 14.79068813100457 8.9056367967277748 76.218106093816459
leaf_count=10 713 125 218 13104 51 6987 51530 74518 35240 14943 32200 1428 3480 4571 8015 277 537 635 2914 5 2096 46 33 771 120 168 327 12 221 958 65 1806 1 155 197 326 25 1 1473 1373 1 1570 508 721 40 134 3995
internal_value=0 0.0523942 0.0949427 0.0498256 0.0139772 0.0283345 0.0541706 0.0486992 0.0293075 0.0802919 0.0623446 -0.0420576 0.0570641 -0.0368086 0.0878854 0.124667 -0.0707942 0.130892 0.107267 -0.0689668 -0.0364438 -0.0792434 -0.0469289 -0.0029538 -0.0910031 -0.0939461 -0.1389 0.0128875 0.0659551 0.168314 -0.13718 -0.156008 0.0382769 0.122143 -0.123375 0.0120384 0.12471 0.0051152 -0.158781 -0.159089 0.294768 -0.173905 -0.189393 -0.15883 0.174734 -0.161696 -0.102467
internal_weight=0 102325 5825.61 96499.1 10431.8 8920.88 86067.3 71161.8 29392.2 14905.5 41769.6 2585.64 6335.24 907.708 13997.8 4931.34 1510.88 4758.7 2917.13 894.269 1076.81 607.944 172.634 460.027 201.964 584.949 434.242 168.521 258.063 1841.57 416.428 434.073 46.2267 68.7538 75.9596 24.8952 92.5616 24.4145 408.287 370.201 22.9948 293.422 51.0644 103.881 27.4769 18.7497 76.7796
internal_count=268644 260172 9541 250631 29489 24999 221142 193488 86770 27654 106718 8415 16584 4696 22958 6406 4490 4784 3549 3135 2633 8472 1622 1330 891 8425 1805 1237 439 1235 7188 1857 240 188 1043 338 194 169 1800 6948 47 2943 705 1434 41 199 4005
is_linear=0
shrinkage=0.1


Tree=10
num_leaves=47
num_cat=0
split_feature=131 108 32 135 73 30 75 31 31 95 74 95 132 0 41 1 108 108 106 89 130 52 30 94 128 6 106 127 97 110 54 0 107 72 29 34 70 102 29 29 31 100 74 45 3 87
split_gain=865.89 849.381 1548.65 1376 2460.32 1238.51 1101.24 1071.46 967.954 935.413 1886.88 898.81 712.504 702.994 687.691 658.623 550.981 507.241 594.896 434.014 433.783 393.237 364.789 332.303 310.73 332.658 281.083 248.756 135.544 128.717 111.503 0.497159 0.0079093 0.00218843 0.00129479 0.000314607 0.000193436 0.000150651 0.000141444 0.000109116 0.000100734 7.14772e-05 4.14889e-05 3.52736e-05 1.75742e-05 8.09173e-06
threshold=1.0000000180025095e-35 -0.89236614108085621 0.95567253232002269 1.0000000180025095e-35 -0.84758570790290821 1.0737112760543825 -0.95459896326065052 0.98782098293304454 1.0088446736335757 -1.0196191072463987 -0.98657885193824757 -1.0449959635734556 1.0000000180025095e-35 0.48181886970996862 0.99997642636299144 0.52539360523223888 -0.89964297413825978 -0.89844879508018483 -0.90215653181076039 -1.1801154017448423 1.0000000180025095e-35 1.065900504589081 1.0370901226997378 -1.0865790843963621 1.0000000180025095e-35 0.46606041491031652 -0.89231860637664784 -1.5854067802429197 -0.95331978797912587 -0.87756717205047596 1.0534720420837405 0.33431659638881689 -1.0165209770202634 -0.5539288818836211 1.1269316673278811 0.79633706808090221 -0.22516953945159909 -0.8289632499217986 1.1377144455909731 1.2352198362350466 1.0010123848915102 -0.82745593786239613 -1.0523623824119566 1.1670002341270449 0.44742757081985479 -1.3775843381881712
decision_type=2 2 2 2 2 2 2 2 2 2 2 2 2 2 2 2 2 2 2 2 2 2 2 2 2 2 2 2 2 2 2 2 2 2 2 2 2 2 2 2 2 2 2 2 2 2
left_child=1 2 8 4 5 14 17 22 11 15 -11 16 -13 -7 -3 -6 -1 18 -4 29 27 -19 31 -24 25 -8 -22 -10 -21 -9 -26 -5 37 34 35 45 -37 -2 42 -40 41 -35 -36 -43 -42 -34
right_child=32 3 6 7 9 13 24 19 20 10 -12 12 -14 -15 -16 -17 -18 21 -20 28 26 -23 23 -25 30 -27 -28 -29 -30 -31 -32 -33 33 40 38 36 -38 -39 39 -41 44 43 -44 -45 -46 -47
leaf_value=-0.15307328718694307 -0.1057681083261512 -0.025468543849083147 0.057784092797273957 -0.13080711528701292 0.11218579142493644 -0.19445262651090198 -0.037063880312086767 -0.1670468151076262 0.11722707813397684 -0.083151240200999149 0.057245328870768712 0.044321323486361967 -0.10138242762240834 0.064137302215995118 -0.15038198113244389 0.032974845648025219 0.0084072997546302333 -0.15437000049389094 -0.062657560293057524 -0.19118923541254118 -0.22417132432268244 0.027598937593138084 -0.18455550612950763 0.12736419653650904 0.076094263834097731 0.067738757136231648 0.027190824970513033 0.023636082803269051 0.14670664192788679 0.1281751455178633 0.17663456836593205 -0.16460547910352594 -0.10103553983612559 -0.10429002131137595 -0.10136795374608094 -0.10144258991439425 -0.10213371126671922 -0.10728070037246838 -0.10183165999135627 -0.10101031828264705 -0.10170842704466306 -0.10362242301876329 -0.10166046140555929 -0.10311954178499219 -0.10269487911717384 -0.10114533240795119
leaf_weight=366.8793005393818 0.97786329872906241 3465.7645582202822 468.79606742039323 4.8794394060969344 4922.0610287589952 110.55233206879348 417.15401845332235 205.27252610400319 2770.6380056766793 984.40005730465055 34727.46530233277 37456.370461975224 338.65303277317435 2143.6211038483307 504.94470479059964 1334.2525887629017 498.26664375700057 127.15386643819511 3275.2949339025654 13.675324544310568 54.226356580853462 1798.3465127218515 34.437174052000046 4162.0603039339185 192.96027708053589 1105.4923798572272 247.69753566384315 316.42597272619605 90.014801099896431 15.913459360599516 257.52616117149591 40.274343892931938 10.021340339444579 0.80496384948492039 5.4156176690012208 150.82751772366464 4.1614917083643368 2.0158931799232951 143.46223853714764 1.6359251039102662 0.38920419476926316 2.1026313323527566 46.351567787118256 4.1434703748673201 0.33696212712675333 20.331456419546157
leaf_count=1523 20 14950 567 29 4742 456 1374 803 2044 3721 57670 89099 30269 3449 2246 2383 1089 1113 14134 55 221 3571 139 3380 219 1753 407 613 63 24 279 175 990 21 408 11029 223 33 8202 170 26 64 2910 145 14 1829
internal_value=0 0.0470569 0.0376748 0.0558934 0.0509223 -0.00774532 -0.00373359 0.108357 0.045201 0.0596241 0.0533753 0.0407089 0.0430158 0.0514552 -0.0413535 0.0952929 -0.0600712 -0.026127 -0.0475771 -0.0666692 0.0964453 0.0155823 0.121763 0.124805 0.0606115 0.0390264 -0.0179545 0.107634 0.102143 -0.145807 0.133569 -0.160953 -0.101666 -0.101627 -0.101593 -0.101403 -0.101461 -0.106787 -0.101772 -0.101822 -0.103288 -0.103403 -0.10163 -0.103289 -0.102166 -0.101109
internal_weight=0 102451 49691.9 52759.6 48193.1 6224.88 7642.72 4566.53 42049.2 41968.2 35711.9 38660.2 37795 2254.17 3970.71 6256.31 865.146 5669.59 3744.09 324.876 3388.99 1925.5 4241.65 4196.5 1973.13 1522.65 301.924 3087.06 103.69 221.186 450.486 45.1538 392.978 389.984 382.207 185.342 154.989 2.99376 196.865 145.098 7.77723 7.05107 51.7672 6.2461 0.726166 30.3528
internal_count=268644 242560 148275 94285 89617 21101 23010 4668 125265 68516 61391 121980 119368 3905 17196 7125 2612 19385 14701 945 3285 4684 3723 3519 3625 3127 628 2657 118 827 498 204 26084 26031 25761 14071 11252 53 11690 8372 270 230 3318 209 40 2819
is_linear=0
shrinkage=0.1


Tree=11
num_leaves=53
num_cat=0
split_feature=134 74 73 30 127 37 71 69 136 3 29 31 30 128 50 73 31 90 30 93 112 118 128 76 31 19 72 29 36 71 38 107 45 30 72 33 73 107 74 74 72 21 37 31 113 35 41 32 72 37 30 79
split_gain=805.755 771.207 824.118 2127.89 1197.31 999.392 1514.31 1240.32 888.507 1301.05 417.758 417.113 414.593 367.072 262.658 239.337 220.972 210.115 134.532 130.346 93.288 54.328 38.82 20.9794 18.5194 7.24347 0.000197128 0.000107606 7.26001e-05 9.9355e-05 4.10394e-05 3.05152e-05 1.12633e-05 1.12241e-05 8.6504e-06 6.98196e-06 5.89192e-06 5.65414e-06 5.53966e-06 3.83752e-06 3.6834e-06 3.41771e-06 2.72341e-06 2.69987e-06 1.7037e-06 4.75628e-07 3.9975e-07 2.84628e-07 2.28075e-07 8.23385e-08 3.9658e-08 1.71814e-08
threshold=1.0000000180025095e-35 -1.0523623824119566 -0.91728758811950672 1.0947939753532412 -1.4776443839073179 0.86033901572227489 -0.48111838102340693 -0.24295964092016217 1.0000000180025095e-35 0.66724207997322094 1.2352198362350466 0.98867726325988781 1.0749097466468813 1.0000000180025095e-35 1.2095572352409365 -0.95401713252067555 1.0052290558815005 -1.2514201402664182 1.0957745909690859 -1.1065279841423032 -0.9033447504043578 -0.91011393070220936 1.0000000180025095e-35 -1.1860164403915403 0.93548819422721874 1.596027731895447 -0.5539288818836211 1.1377144455909731 0.92923054099082958 -0.43507134914398188 0.94394764304161083 -0.87167599797248829 1.1670002341270449 1.0737112760543825 -0.56006011366844166 0.8465891182422639 -0.70067679882049549 -0.87080436944961537 -1.0523623824119566 -1.0450683236122129 -0.58002677559852589 1.3679230213165285 0.86988717317581188 1.0011184215545657 -1.056012690067291 0.92731243371963512 1.0268647670745852 0.95585253834724437 -0.78091388940811146 0.92402330040931713 1.0244067311286928 -1.2822413444519041
decision_type=2 2 2 2 2 2 2 2 2 2 2 2 2 2 2 2 2 2 2 2 2 2 2 2 2 2 2 2 2 2 2 2 2 2 2 2 2 2 2 2 2 2 2 2 2 2 2 2 2 2 2 2
left_child=1 14 3 10 5 7 -7 -4 9 -6 11 -3 -10 18 16 -12 19 22 -5 24 -21 -19 -18 -15 -1 -16 27 28 29 30 -2 34 43 38 -30 49 50 -31 51 48 -33 -40 -41 44 46 -46 -28 -38 -35 -34 -37 -29
right_child=26 2 4 13 8 6 -8 -9 12 -11 15 -13 -14 23 25 -17 17 21 -20 20 -22 -23 -24 -25 -26 -27 32 33 31 37 -32 40 35 39 -36 36 47 -39 41 42 -42 -43 -44 -45 45 -47 -48 -49 -50 -51 -52 -53
leaf_value=-0.10218043685521323 -0.10122486142808669 0.10977064652060323 0.051932480416426591 -0.014670025349014987 0.048297305868725743 0.010295934912483987 0.046553160506627951 0.11867939078552021 -0.14852858556098789 -0.042057603467947471 0.19947614450057582 -0.17624415827359319 -0.020717680830391577 0.16109400661895848 0.19435848920223642 -0.067548298687616068 0.0010738141541565404 0.0088627580670043154 -0.15081806479610604 -0.14849165049841115 0.1495995388236448 -0.17653396427331949 0.15064654861147314 0.054939161602499266 -0.16072489966338349 0.30208172818772583 -0.10175633320608723 -0.10106660948418347 -0.1010309632096687 -0.10132873421525863 -0.10113982802086417 -0.10126179719574094 -0.10107501627374793 -0.10115294568513927 -0.10121102417975764 -0.10119391474431637 -0.10152074321935441 -0.10142630924282676 -0.10130373934009913 -0.10145561734866962 -0.10148282172844908 -0.10137445496711604 -0.10136356786878753 -0.1013269404956329 -0.10161560908883804 -0.10151472308430842 -0.10165230068247749 -0.10142192816768481 -0.10126188762371791 -0.10115503698460156 -0.10113828007832187 -0.10109925176748841
leaf_weight=67.172685666941106 136.29603397287428 4886.9938983465545 12392.838998753577 87.020961264148355 4545.3405610788614 14410.281042322051 57417.726366869174 3590.6453684153967 498.63959423033521 2454.0538703650236 39.883342643268406 51.526635515503585 516.87563686072826 37.941232934594154 14.039402567781508 211.93687700480223 23.410094852559268 23.336173292249441 437.27679868368432 17.213982420507818 26.911128848791122 48.982277415692806 67.053738787770271 36.553109526634216 276.21384482737631 11.239067077636719 0.38913032039999862 0.65759354829788208 32.748480210546404 45.988463872112334 97.258445496670902 1.450843593105674 0.20816875621676345 0.40461490768939257 2.9047197317704549 0.30312634818255801 7.2790447250008574 6.8192739766091099 18.041832939721647 12.954075390007349 1.5698216892778862 11.002243570052086 4.2748634256422511 0.29075755830854255 0.75834197271615345 1.217673319391906 7.2699523633345962 0.30365479178726662 0.36600214336067693 0.33635762427002192 0.22193552553653717 0.21363526955247181
leaf_count=4004 11481 5688 23175 227 11709 39575 128772 3756 2099 7651 49 382 1184 7 46 808 169 338 2200 215 23 705 25 52 2822 1 23 63 3267 3569 8783 120 20 36 249 26 494 493 1426 920 110 827 323 23 49 83 455 22 30 30 20 20
internal_value=0 0.0424943 0.0431481 0.0797877 0.0409346 0.0443116 0.0392792 0.066927 0.00393584 0.016618 0.10038 0.106786 -0.0834756 -0.0987079 -0.0729331 -0.0252569 -0.0874116 0.0103595 -0.128221 -0.128482 0.0333089 -0.116709 0.11194 0.109006 -0.149273 0.242253 -0.101237 -0.101221 -0.1012 -0.101217 -0.101189 -0.101071 -0.101554 -0.101361 -0.101046 -0.101471 -0.101494 -0.101341 -0.101323 -0.101423 -0.101377 -0.101331 -0.101433 -0.101627 -0.101636 -0.101553 -0.101658 -0.101517 -0.101205 -0.101124 -0.10117 -0.101075
internal_weight=0 102191 101616 5789.13 95826.4 87811.5 71828 15983.5 8014.91 6999.39 5190.34 4938.52 1015.52 598.792 575.572 251.82 550.294 162.782 524.298 387.512 44.1251 72.3185 90.4638 74.4943 343.387 25.2785 391.529 372.951 325.036 286.362 233.554 38.6739 18.5781 47.9149 35.6532 8.65229 8.10776 52.8077 29.9153 17.9996 3.02067 29.0441 17.2289 9.92586 9.6351 1.97602 7.65908 7.5827 0.770617 0.544526 0.525062 0.871229
internal_count=268644 235682 227334 9413 217921 195278 168347 26931 22643 19360 6927 6070 3283 2486 8348 857 8301 1237 2427 7064 238 1043 194 59 6826 47 32962 31717 28072 24326 20264 3746 1245 3645 3516 612 562 4062 2336 1309 230 2253 1243 633 610 132 478 516 66 50 46 83
is_linear=0
shrinkage=0.1


Tree=12
num_leaves=62
num_cat=0
split_feature=108 32 135 73 30 53 74 38 75 31 31 97 103 46 32 70 71 38 37 71 35 128 130 76 83 94 38 73 89 33 30 30 136 96 59 11 135 31 57 72 73 32 60 28 72 83 121 47 130 108 104 97 110 130 4 75 31 103 80 0 30
split_gain=708.245 1288.8 1049.36 1960.11 995.721 908.263 922.08 1246.08 894.72 827.689 800.676 756.639 698.67 1449.72 1297.51 1226.16 1013.28 890.971 691.08 646.598 700.735 591.328 558.529 516.693 394.952 387.279 386.951 376.91 345.952 342.886 298.91 308.141 283.325 274.362 273.779 361.748 259.381 255.777 243.966 274.292 234.143 229.342 290.429 236.899 216.884 205.584 158.244 147.762 126.24 273.528 119.599 110.642 105.018 103.481 44.1585 26.0413 3.31421 0.420402 0.395517 0.349806 0.0118803
threshold=-0.89236614108085621 0.95412787795066845 1.0000000180025095e-35 -0.84758570790290821 1.0667859911918642 1.1043263077735903 -0.90882870554924 0.95660907030105602 -0.95459896326065052 0.98782098293304454 1.0088446736335757 -0.96296173334121693 -0.87888216972351063 1.0310309529304507 0.88680347800254833 -0.30549339950084681 -0.52700212597846974 0.90423363447189342 0.92162325978279125 -0.44047060608863825 0.91800144314765941 1.0000000180025095e-35 1.0000000180025095e-35 -1.1963333487510679 -1.2169639468193052 -1.091038644313812 0.96313920617103588 -0.8830602467060088 -1.1801154017448423 0.8495924472808839 1.0864529609680178 1.0370901226997378 1.0000000180025095e-35 -0.9548390507698058 0.88373690843582164 0.57195010781288158 1.0000000180025095e-35 0.99043825268745433 0.98916769027709972 -0.4795334786176681 -0.93277615308761586 0.95014089345932018 0.63393592834472667 1.1962077021598818 -0.63345363736152638 -1.2883609533309934 -0.96307736635208119 0.98834145069122326 1.0000000180025095e-35 -0.91698014736175526 -0.87791800498962391 -0.95331978797912587 -0.87756717205047596 1.0000000180025095e-35 0.64244017004966747 -1.0963652729988096 1.0021760463714602 -0.88156300783157338 -0.9462183117866515 0.33431659638881689 1.084310829639435
decision_type=2 2 2 2 2 2 2 2 2 2 2 2 2 2 2 2 2 2 2 2 2 2 2 2 2 2 2 2 2 2 2 2 2 2 2 2 2 2 2 2 2 2 2 2 2 2 2 2 2 2 2 2 2 2 2 2 2 2 2 2 2
left_child=1 10 3 4 21 6 7 -5 18 30 12 27 13 16 29 -15 -1 -16 32 26 -21 25 -8 -23 41 -2 -20 -6 52 -14 31 59 44 -34 37 -36 38 -7 39 -10 46 42 -12 -43 -3 -33 -32 -42 50 -50 -26 60 54 -13 -11 -53 -40 -38 -59 -4 -30
right_child=2 8 9 5 11 34 22 -9 36 28 24 53 14 15 17 -17 -18 -19 19 20 -22 23 -24 -25 48 -27 -28 -29 51 -31 40 45 33 -35 35 -37 57 -39 56 -41 47 43 -44 -45 -46 -47 -48 -49 49 -51 -52 55 -54 -55 -56 -57 -58 58 -60 -61 -62
leaf_value=0.022348789128255983 -0.016009288008295829 0.018181192229866333 -0.12837234771611986 0.064864516524550234 -0.011297696625989888 -0.076602202117090817 0.068513273066019828 0.025535276456844398 0.044081659049027146 -0.064388898533217082 -0.077303059635638979 -0.17983622378192898 -0.1044204910347685 -0.075176943461683604 0.08179144570238657 0.10746778755644254 0.10999349853535607 0.035969959617002903 -0.074546117538584075 0.0332770626956903 -0.055464592367466183 -0.053070390000187796 0.13172965051527297 0.10585201344499534 0.11025250448276187 -0.11172397909557095 -0.2082452327666168 0.063684738785288547 -0.18152584959223003 0.026846119212885839 0.13892840969547746 0.031551162503099965 0.0026736437427145963 -0.27411183997635419 -0.15497528040886002 0.11180601857999105 -0.10781925688781067 0.017444261073492565 -0.15749438986689765 0.14458915132088179 -0.2027139415979331 0.14513577472254116 0.091639603986904877 -0.2200479812590338 0.10526489873810928 0.11891461224435368 -0.18689875438146661 0.17237034563798981 -0.21126585073692242 0.1605116260420644 -0.090261714252162978 0.17402844104855444 0.11366437881300791 -0.064134767491107025 -0.17826216477794227 0.065085105095495241 -0.2272336401066368 -0.16414589088452247 -0.14761049940439253 -0.15731922995572928 -0.17550513806230184
leaf_weight=13971.89473569952 601.77485163789243 655.54986258409917 4.6735180094838134 15892.088270843029 970.52315103029832 852.65982897952199 6055.8391578020528 16337.798996445257 1784.0884185624309 43.384876132011414 146.95476910006255 158.51970131974667 696.33212008420378 2399.3836235725321 6392.8249928867444 434.05573123600334 1456.6222698334605 12621.711191832088 850.57634969195351 1408.2126299245283 2417.1441618646495 464.01718250382692 1816.9388587363064 365.90099202422425 2344.9755680453964 1420.8442701413296 290.36921470565721 2167.6520524956286 7.9066067785024625 278.61664283135906 83.427683815360069 290.65701247751713 115.89517447352409 51.828056275844574 63.444040175992996 255.58430962637067 1.7968168519437302 437.6000249190256 39.3541697608307 320.27275027427822 69.834687814116478 23.578844146803021 330.84344034548849 72.031960516236722 507.3125012377277 3675.669202066958 18.14818149805069 12.361968994140623 38.591904148459435 40.618094712495804 30.128800433129072 51.877207279205322 15.836037702858446 150.87176491320133 158.34132724255323 38.022858411073685 8.2413911670446378 33.117124885320663 25.684690803289413 39.112428925931454 5.5977978110313416
leaf_count=30981 6478 2611 29 27980 5731 3654 8769 31408 3517 127 774 1494 11520 8100 10494 472 1491 49293 5846 4252 9508 2226 1322 822 2052 10152 3297 4402 32 9668 41 475 201 226 329 424 27 1263 195 313 284 7 510 550 573 2642 76 1 157 14 167 10 24 408 676 53 34 142 122 175 23
internal_value=0 0.0293022 0.045948 0.0416138 -0.0103764 0.0494663 0.0524223 0.044928 -0.00613368 0.0920399 0.036607 0.0257857 0.0326888 0.0185491 0.0456064 -0.0471975 0.0306234 0.0513755 -0.0253547 -0.0425024 -0.0227965 -0.0540819 0.0831028 0.0169966 0.0861097 -0.0832467 -0.108572 0.0404954 -0.0627313 -0.0669077 0.103885 0.1096 0.0386477 -0.0828557 -0.024196 0.0587522 0.048569 -0.0447057 0.0543146 0.0593784 -0.0208248 0.011388 0.0396785 -0.129989 0.0561725 0.112513 0.0807141 -0.146303 0.103567 -0.0206221 0.107709 0.0878602 -0.134305 -0.123416 -0.153772 0.127951 -0.16957 -0.155467 -0.156923 -0.15423 -0.17903
internal_weight=0 49788.6 52526.9 48012.1 6300.1 41712 40102.7 32229.9 8509.44 4514.85 41279.2 3447.57 38251.4 18262 19989.5 2833.44 15428.5 19014.5 6296.89 4966.3 3825.36 2852.54 7872.78 829.918 3027.72 2022.62 1140.95 3138.18 320.967 974.949 4193.88 4010.11 1330.59 167.723 1609.29 319.028 2212.56 1290.26 2151.96 2104.36 183.773 573.409 477.798 95.6108 1162.86 3966.33 101.576 82.1967 2454.31 79.21 2375.1 103.404 217.562 309.391 201.726 89.9001 47.5956 60.5986 58.8018 43.7859 13.5044
internal_count=268644 157114 111530 106862 31713 75149 69479 59388 30864 4668 126250 12035 122019 41044 80975 8572 32472 59787 26514 22903 13760 19678 10091 3048 4231 16630 9143 10133 945 21188 3723 3321 3611 427 5670 753 4350 4917 4059 3830 402 1841 1284 557 3184 3117 117 285 2390 171 2219 118 827 1902 803 63 229 291 264 204 55
is_linear=0
shrinkage=0.1


Tree=13
num_leaves=63
num_cat=0
split_feature=72 38 30 58 3 44 72 61 45 59 37 105 136 59 109 76 31 45 17 74 46 127 135 136 105 36 133 29 36 72 59 37 72 102 101 21 3 116 0 10 100 13 66 110 17 28 127 48 13 113 98 73 31 59 31 38 31 70 98 73 38 38
split_gain=691.371 2331.83 1087.19 1806.49 1161.69 861.829 875.086 866.435 787.134 1066.6 654.285 958.226 776.895 628.374 622.726 1167.77 633.711 614.508 1117.52 610.31 631.75 1003.11 588.623 546.493 727.805 569.424 533.137 523.6 501.672 487.409 448.126 376.851 368.61 321.496 297.859 278.947 241.773 228.005 280.851 223.885 146.705 138.423 282.199 136.216 108.955 88.9176 134.984 69.8263 143.858 54.6665 45.3632 101.043 32.6929 32.362 10.2579 8.65457 6.22594 4.25747 3.8333 2.6977 0.698915 0.199016
threshold=-0.59683728218078602 0.97610446810722362 1.0609952807426455 0.85525816679000866 0.48891222476959234 1.096905052661896 -0.65435871481895436 0.67490705847740184 1.1224035620689394 0.82301414012908947 0.92780250310897838 -0.89933863282203663 1.0000000180025095e-35 0.81849053502082836 -0.89521893858909596 -1.1721428632736204 0.97603809833526622 1.1000462174415591 1.0967087149620058 -0.944514900445938 1.1564964652061465 -1.9170616865158079 1.0000000180025095e-35 1.0000000180025095e-35 -0.88685640692710865 0.94468191266059887 1.0000000180025095e-35 1.0861760377883913 0.92878976464271557 -0.61770546436309803 0.83781504631042492 0.95933029055595409 -0.61453011631965626 -0.80211272835731495 -0.79862651228904713 1.2443451285362246 0.44582185149192816 -0.94755619764327992 0.37754261493682867 0.61957761645317089 -0.79974853992462147 0.80157801508903515 0.3035068958997727 -1.1937465071678159 1.041314482688904 1.1017619967460635 -1.8525737524032591 1.1369421482086184 0.79668331146240245 -1.1686046719551084 -0.88174670934677113 -0.78623828291892994 1.0010123848915102 0.81924939155578624 1.0011184215545657 0.99232092499732982 1.0010123848915102 -0.22801712900400159 -0.81311595439910878 -0.80293872952461232 0.97704300284385692 0.99719753861427318
decision_type=2 2 2 2 2 2 2 2 2 2 2 2 2 2 2 2 2 2 2 2 2 2 2 2 2 2 2 2 2 2 2 2 2 2 2 2 2 2 2 2 2 2 2 2 2 2 2 2 2 2 2 2 2 2 2 2 2 2 2 2 2 2
left_child=1 2 3 10 22 6 -5 -7 13 23 11 -1 -12 17 15 -6 -16 27 28 37 30 -22 29 24 39 -26 -20 43 -19 -4 -21 32 54 -29 35 -34 -24 55 -39 -10 41 49 -43 -2 53 46 -33 48 -25 -15 51 -47 -52 -42 60 -11 -36 -49 -46 -56 -3 -48
right_child=8 31 4 5 14 7 -8 -9 9 19 12 -13 -14 40 16 -17 -18 18 26 20 21 -23 36 47 25 -27 -28 33 -30 -31 -32 45 34 -35 56 -37 -38 38 -40 -41 44 42 -44 -45 58 50 61 57 -50 -51 52 -53 -54 -55 59 -57 -58 -59 -60 -61 -62 -63
leaf_value=-0.074737999600615862 0.14290643934956634 -0.1590621335463544 -0.10200217041146538 -0.093849136778517431 -0.048447272423922917 -0.1144356145251829 0.071465014223914061 0.025051367980518144 -0.09622083233153475 -0.19527738852258103 -0.029354254206351005 0.014477726766567535 -0.15884560386354524 -0.19906991451173273 0.10499415988456934 0.040461548128977995 0.05050802943309074 0.079818480351177626 0.015807127178489356 0.04304608894194796 0.035982237504819319 -0.12511704801803253 0.16001282491091978 0.11000905803888228 0.052186053893857103 -0.054147554593036808 -0.14186118041168236 0.069146936611747992 0.0038276843434300808 0.013614028418267572 0.089013267655881259 0.28821050188689457 0.031324599105977922 0.13389531619519485 -0.16008565914680417 -0.19082982273389315 0.0046698219996515839 0.015845612727336297 -0.19835399116887675 0.19430241194067266 0.20615849865803298 0.096554849771962339 -0.1375902372727302 -0.17010655359182805 -0.21966922837653691 -0.15939509956832601 -0.13617176649549714 -0.1853330138898216 -0.21820205159582051 0.13486056022662588 -0.14658933396442794 0.032540916168124177 -0.19848828533676233 0.0055788414628256443 -0.15751052234866433 -0.14555071305153355 -0.22754067278535231 -0.22526770069928825 -0.14888054477108775 -0.20031591858453762 -0.14098865519662959 -0.1177780762056593
leaf_weight=1449.3197297514416 16.024788579437882 25.628120674751699 1040.0714398054406 336.65266043785959 1556.6826897338033 552.4801945486106 6554.7091915183701 2295.8131223595701 801.92868146300316 64.390581106767058 2239.7365039777942 7109.0923774805851 584.16115733142942 4.9228462725877753 2733.265283643268 28966.392429707572 9746.0095312194899 2230.2341805961914 370.93300416506827 4100.2426570486277 8256.4546492225491 405.49445213796571 179.49914729967713 25.394267130643129 1756.4829636132345 706.04352794867009 508.40567158162594 3883.6617699190974 1423.1078382050619 561.47977572213858 4393.1558202551678 11.731539405882357 599.61901235301048 955.54485480487347 89.543550108093768 62.403622148092836 226.7587760835886 350.84634873177856 74.149246966466308 27.432905719615519 12.676647186279295 1964.436688660644 52.858660848811269 104.99300902709365 12.796885048039259 85.197145741898566 10.327642345800998 150.35579358972609 28.167126223444939 1180.7090367246419 355.27512518689036 40.45004472322762 184.36280819028616 22.009914104826748 20.058141169138253 76.679498213343322 16.150798054412007 32.459628969430923 19.018655533902347 55.353158041834831 129.58117231633514 13.666266781277953
leaf_count=8758 38 184 4235 1837 7703 3618 9765 6495 4800 271 11152 29961 2007 20 2347 57702 22143 4133 1577 7112 38652 1794 270 19 7041 2103 2135 6038 2781 1102 4814 6 1216 1176 686 448 577 727 309 32 1 1369 182 1026 72 560 73 645 118 551 2113 99 1347 49 170 395 91 136 111 482 1029 241
internal_value=0 0.0283949 0.031367 0.0126501 0.0401503 0.0442652 0.0633892 -0.00200476 0.0458648 0.0340752 -0.0144024 -0.000630463 -0.0561413 0.0654947 0.0436217 0.0359272 0.0624418 0.0524726 0.025857 0.0440719 0.0474429 0.0284406 -0.0341987 -0.0161352 -0.00558907 0.0216986 -0.0753517 0.0767942 0.0502173 -0.0614689 0.0668223 -0.0872691 -0.0478082 0.0819321 -0.0145044 0.0103839 0.0733059 -0.0580908 -0.0215259 -0.0866112 0.103305 0.106357 0.0904196 -0.128658 -0.0437039 -0.143467 0.0102233 -0.163005 -0.0625922 0.133474 -0.15172 -0.0976045 -0.16432 0.0788832 -0.158674 -0.168248 -0.170393 -0.192424 -0.177353 -0.18893 -0.143973 -0.125695
internal_weight=0 67831.5 66132.1 21122 45010.2 9739.66 6891.36 2848.29 34012 21249.7 11382.3 8558.41 2823.9 12762.3 43002.3 30523.1 12479.3 9492.91 4532.68 17721.4 17155.3 8661.95 2007.81 3528.26 3291.89 2462.53 879.339 4960.22 3653.34 1601.55 8493.4 1699.35 998.338 4839.21 767.717 662.023 406.258 566.066 424.996 829.362 3269.43 3202.93 2017.3 121.018 66.5021 701.011 35.7254 236.377 53.5614 1185.63 665.285 125.647 539.638 34.6866 230.621 141.07 105.694 182.815 31.8155 75.4113 155.209 23.9939
internal_count=268644 178417 169672 73593 96079 21715 11602 10113 90227 68968 51878 38719 13159 21259 89895 65405 24490 18904 10626 54074 52372 40446 6184 14894 13976 9144 3712 8278 6914 5337 11926 8745 4306 7214 2441 1664 847 1702 1036 4832 2355 2122 1551 1064 233 4439 320 918 137 571 4119 659 3460 50 1865 666 777 781 183 652 1213 314
is_linear=0
shrinkage=0.1


Tree=14
num_leaves=56
num_cat=0
split_feature=134 131 132 72 30 136 2 40 70 60 72 72 107 30 118 31 71 74 31 72 30 38 102 36 71 38 103 72 107 71 30 33 32 107 72 33 33 105 108 32 45 73 29 71 83 32 107 72 107 32 116 123 41 54 0
split_gain=640.66 638.116 588.199 618.742 2404.31 1285.39 1203.21 871.973 1208.27 929.534 0.0104715 0.00901829 0.00235313 0.00106564 0.000899554 0.000641796 0.000378672 0.000291839 0.000257168 0.00019586 0.000186049 0.000151936 0.000139884 0.00013762 0.000130728 0.00017615 0.000118708 0.000112845 6.23652e-05 5.66653e-05 5.00673e-05 3.76774e-05 3.21118e-05 3.20439e-05 2.24897e-05 1.51552e-05 1.2599e-05 1.08744e-05 8.51201e-06 8.36352e-06 6.13211e-06 5.85089e-06 5.29839e-06 4.91108e-06 4.37987e-06 3.51359e-06 2.65032e-06 1.96096e-06 1.62712e-06 1.56849e-06 7.34561e-07 3.77992e-07 2.64487e-07 1.37361e-07 4.84185e-08
threshold=1.0000000180025095e-35 1.0000000180025095e-35 1.0000000180025095e-35 -0.61292794346809376 1.0565149188041689 1.0000000180025095e-35 0.4603876024484635 1.0147866010665896 -0.21943867951631543 0.74012747406959545 -0.54699096083641041 -0.54699096083641041 -1.0165209770202634 1.0667859911918642 -1.4774293303489683 0.94685056805610668 -0.40085342526435846 -1.0523623824119566 0.9066160023212434 -0.5539288818836211 1.0323458313941958 0.94394764304161083 -0.8289632499217986 0.92923054099082958 -0.43165345489978785 0.94394764304161083 -0.88511747121810902 -0.5539288818836211 -0.86215260624885548 -0.44221594929695124 1.070453464984894 0.8495924472808839 0.9709642529487611 -0.87167599797248829 -0.59683728218078602 0.8465891182422639 0.93027439713478099 -0.88685640692710865 -0.89236614108085621 0.95567253232002269 1.1670002341270449 -0.70067679882049549 1.1377144455909731 -0.41965560615062708 -1.1472501158714292 0.95452028512954723 -0.86820107698440541 -0.59683728218078602 -0.86864888668060292 0.96504580974578869 -1.0579602718353269 -2.0339198112487789 1.1200516223907473 1.0955265164375307 -0.21974989026784894
decision_type=2 2 2 2 2 2 2 2 2 2 2 2 2 2 2 2 2 2 2 2 2 2 2 2 2 2 2 2 2 2 2 2 2 2 2 2 2 2 2 2 2 2 2 2 2 2 2 2 2 2 2 2 2 2 2
left_child=1 2 3 4 5 -1 -6 9 -9 -5 15 13 22 16 31 20 18 42 -3 23 -4 -19 -13 24 25 30 -14 -17 -28 -27 -2 -12 -18 34 45 51 -36 -16 39 -26 44 53 -15 50 48 -25 -45 -40 -37 -46 -35 54 -43 -42 -21
right_child=19 11 10 7 6 -7 -8 8 -10 -11 14 12 26 17 37 27 32 21 -20 35 -22 -23 -24 33 38 29 28 -29 -30 -31 -32 -33 -34 43 36 40 -38 -39 47 -41 41 52 -44 46 49 -47 -48 -49 -50 -51 -52 -53 -54 -55 -56
leaf_value=-0.0051226324606290057 -0.10118462285101693 -0.10103747055968325 -0.1014091372081774 0.04012712529468751 -0.032721970865803945 -0.11186536212255216 0.038663203992164753 0.0027949036294306812 0.047441616381927142 0.088174018913252494 -0.10072893231177477 -0.10591148683577299 -0.10471594829965065 -0.10116517795354647 -0.10122007006227141 -0.10222473837889917 -0.1022870445154393 -0.10175697200734542 -0.10135770612456806 -0.10088066315068203 -0.10191022901695612 -0.10128584845100963 -0.10734978934378243 -0.10089827757544952 -0.10135440841114288 -0.10099237080606974 -0.10323245386894449 -0.10162220406352536 -0.1040866718580552 -0.10116532636174164 -0.10132624049801071 -0.10083096567080832 -0.10153649610354376 -0.10089954514577343 -0.10105699661056329 -0.10138238687917722 -0.10091295882991275 -0.10131024071462971 -0.10137608568928849 -0.10125382415265211 -0.10105145092012945 -0.10146418498063846 -0.10134911187311829 -0.10122091765040944 -0.1016082671843382 -0.1007328288212513 -0.10144774887265225 -0.10150338814461 -0.10163272623626617 -0.10137428312225888 -0.10112436706816802 -0.10109124840545242 -0.10155277678478028 -0.10115818234319002 -0.1009544093667587
leaf_weight=8671.7551695867442 145.79004889540374 29.934060326311737 14.140535194426777 10103.93783998955 2490.344590883702 1296.8401817996055 45518.698391615413 9979.8198023708537 15438.734045982361 6694.3638886064291 59.633693937212229 1.0142242163419726 0.74455454759299744 1.7025900306180144 25.506621492095292 91.688458097167313 4.3360319519415489 131.4283626251854 154.55598170356825 0.16969492984935641 15.566124883480368 7.2213989840820423 2.0287793725728989 1.7126416028477276 25.072416656650603 68.915880376473069 5.0214368691667914 3.217345210723578 1.0299957133829574 26.123561577405781 30.122260063886642 92.06086618732661 0.656328685581684 0.23152697505429387 11.282013966701927 1.4942410830408333 13.152086040005086 28.118466468062252 1.896048257127404 12.332947503775356 0.20429255161434401 6.9901241632178417 19.536153963301331 0.84329998027533348 7.287363854236899 5.1235789940692484 1.3235465614125119 3.344333723653107 0.31423506326973782 0.29821419436484564 0.39034840371459756 0.19936929363757627 0.35405883379280556 0.29427057690918446 0.18728816602379084
leaf_count=24138 12781 3031 1057 17224 7201 5778 71227 22182 25117 6164 8302 20 18 151 2167 4449 218 7924 12355 20 883 586 33 196 1911 7211 175 207 28 2320 2361 11282 48 28 1103 112 1486 2220 142 1014 20 492 1497 72 469 731 95 230 20 23 36 19 24 26 20
internal_value=0 0.0314722 0.0319476 0.0323866 0.0256809 -0.0190091 0.0349603 0.0415958 0.0299124 0.0592745 -0.101354 -0.101574 -0.104559 -0.101489 -0.100915 -0.102077 -0.101329 -0.10168 -0.101306 -0.101171 -0.101672 -0.101732 -0.10687 -0.101154 -0.101175 -0.10115 -0.103524 -0.102204 -0.103378 -0.10104 -0.101209 -0.100791 -0.102188 -0.100964 -0.100935 -0.101495 -0.100979 -0.101267 -0.101338 -0.101321 -0.101511 -0.101446 -0.101334 -0.101288 -0.101566 -0.100774 -0.101359 -0.101457 -0.101426 -0.101599 -0.101041 -0.100981 -0.101468 -0.101114 -0.100919
internal_weight=0 100884 100524 100194 57977.6 9968.6 48009 42216.9 25418.6 16798.3 329.932 359.21 9.83899 349.371 205.32 124.612 189.482 159.889 184.49 365.45 29.7067 138.65 3.043 347.657 313.597 270.952 6.79599 94.9058 6.05143 95.0394 175.912 151.695 4.99236 34.059 31.2703 17.7932 24.4341 53.6251 42.6457 37.4054 17.2368 7.84275 21.2387 2.78872 9.39405 6.83622 2.16685 5.24038 1.80848 7.58558 0.621875 0.556352 7.34418 0.498563 0.356983
internal_count=268644 235682 209598 179031 108344 29916 78428 70687 47299 23388 30567 26084 274 25810 23971 6596 15652 10158 15386 32962 1940 8510 53 31717 27970 24673 221 4656 203 9531 15142 19584 266 3747 3516 1245 2589 4387 3297 2925 1186 562 1648 231 624 927 167 372 132 492 64 59 516 46 40
is_linear=0
shrinkage=0.1


Tree=15
num_leaves=58
num_cat=0
split_feature=109 78 77 111 73 40 126 95 74 38 133 72 76 69 31 30 113 136 124 123 1 109 90 73 0 27 113 7 77 74 104 71 69 112 121 7 31 101 101 71 120 73 31 29 74 83 48 134 30 29 131 85 30 30 76 15 108
split_gain=568.088 1643.62 970.001 3256.13 1023.49 1037.21 925.41 887.37 1375.65 726.582 1191.9 1507.9 1347.04 886.833 831.806 712.976 682.671 602.255 563.667 544.794 538.56 505.749 399.458 323.336 311.931 305.638 292.059 438.876 282.485 237.671 163.721 154.937 111.281 104.531 221.605 82.1652 81.5599 60.2281 59.1395 58.4789 93.2109 20.3503 24.1899 17.1164 7.30571 6.56528 6.29713 5.26857 5.22315 4.11323 3.78519 1.19957 0.748815 0.606684 0.229732 0.144908 1.22826e-06
threshold=-0.90432733297348011 -1.2572926878929136 -1.224305987358093 -0.92788493633270253 -0.84091478586196888 0.97847115993499767 -1.1970916390419004 -1.0196191072463987 -0.98246634006500233 0.93051201105117809 1.0000000180025095e-35 -0.53405460715293873 -1.0349943637847898 -0.18078114092350003 1.0057975053787234 1.0922479629516604 -0.98981359601020802 1.0000000180025095e-35 -2.0962320566177364 -1.4612804651260374 0.52539360523223888 -0.90054214000701893 -1.1721698045730589 -0.87840843200683583 0.61002129316329967 1.1529963016510012 -0.95603451132774342 0.6295146942138673 -1.1896963715553281 -1.0627521276473997 -0.91112181544303883 -0.66029521822929371 -0.25378867983818049 -0.94269070029258717 -1.1326971054077146 0.81613218784332286 1.0010123848915102 -0.9474559724330901 -0.95803076028823841 -0.71558234095573414 -0.93919751048088063 -0.80293872952461232 1.0010123848915102 1.2352198362350466 -0.94846770167350758 -1.3048481345176695 1.1497213840484621 1.0000000180025095e-35 1.0947939753532412 1.2352198362350466 1.0000000180025095e-35 -1.2646549940109251 1.0598398447036745 1.0957745909690859 -1.172962963581085 1.2546634674072268 -0.89236614108085621
decision_type=2 2 2 2 2 2 2 2 2 2 2 2 2 2 2 2 2 2 2 2 2 2 2 2 2 2 2 2 2 2 2 2 2 2 2 2 2 2 2 2 2 2 2 2 2 2 2 2 2 2 2 2 2 2 2 2 2
left_child=1 26 3 23 5 17 9 20 -9 13 12 -12 -11 14 -3 16 21 -5 -15 46 -6 28 -21 32 30 -7 41 -28 -4 -23 37 -32 54 36 -35 38 -25 -17 55 40 -26 47 51 48 50 -44 -18 52 -37 -41 -29 -43 -1 -45 -2 -8 -49
right_child=2 6 15 4 7 25 35 8 -10 10 11 -13 -14 18 -16 24 19 -19 -20 22 -22 29 -24 33 39 -27 27 44 -30 -31 31 -33 -34 34 -36 43 -38 -39 -40 49 -42 42 45 53 -46 -47 -48 56 -50 -51 -52 -53 -54 -55 -56 -57 -58
leaf_value=-0.171988119055688 -0.17623619651045827 0.018446763518664266 -0.17841740616550839 0.027194598009534273 0.092933544558749637 0.2232106809394733 -0.1858728296426542 -0.071060086995305916 0.03823111725177495 0.00099782432609719679 -0.10464386095719727 0.023393632294609928 0.062209479604907414 -0.13983814032410949 0.065698500752807421 -0.0067718620540570046 -0.27814313116382844 -0.043223595781183573 0.083570913802793356 -0.0449291046998717 0.0066079503624077709 0.19235664121099877 0.069949118510258076 -0.16982038660180471 0.1748996294339118 -0.12058349632297123 0.12928783215849257 -0.20103751242068824 0.098240349220102774 -0.11115010557117677 0.13607145822024 -0.13546083031643283 0.24415170060211958 0.10369581180516313 -0.2028274790069424 -0.21008211711603453 -0.24100119283710969 0.17050322645851301 0.16534273892530163 -0.18148938264659842 -0.14857844829701614 -0.19331354277396379 -0.30105440645166776 -0.15235984252644846 -0.31482921507477513 -0.24528278701465389 -0.16953082302569331 -0.1009775932811655 -0.166121638333112 -0.14250835302691928 -0.10146611869676321 -0.16388339749693373 -0.19232907356357179 -0.13974422524983038 -0.14330444753685675 -0.15941365643611369 -0.10105764079339644
leaf_weight=24.691419315524399 5.8078113119117898 21594.640938190743 42.01695490302518 5591.9924475699663 4246.3944816933945 26.767018282786012 3.3743774527683854 1225.2176277134567 19192.973019681871 11436.629880167544 1898.6906746923923 1784.1031674072146 5243.3630618699826 116.30396775901318 4502.2489196276292 27.180209648795426 5.688094586133956 1551.5148116806522 3896.3183588748798 309.64202676620334 870.91715879086405 27.353309219237417 13478.437641059514 447.6233773608692 13.302329048514364 762.24586139293388 72.563726849853992 77.547248078044504 303.47976639633998 454.70720276469365 28.615960308350623 79.105819229967892 24.70140411099419 38.086435587145388 61.949688047170639 83.170539272017777 251.36817791080102 64.987609361764044 13.301706895232201 153.45719852112234 26.96528633730486 25.729774712584913 24.784644572995603 72.334675549063832 5.5377665869891635 142.24695234047249 86.747168894857168 3.4905388322658828 40.038874777965248 32.866891416255385 4.015545758418738 29.995683566201478 67.775188840925694 80.588084701448679 3.3345535900443792 5.3540331521071494 4.2518035690300167
leaf_count=160 57 50181 198 22846 4275 37 26 4991 31973 45471 6653 3740 36586 692 7241 72 25 5061 6775 1038 1668 118 19104 2484 4 4768 32 453 411 3385 24 296 15 56 496 492 1454 16 4 638 127 124 117 416 27 862 383 369 195 159 287 229 417 412 55 36 413
internal_value=0 0.0206776 0.0357028 0.0263982 0.0312586 -0.000117195 0.0224236 0.0410053 0.031673 0.0234613 0.00887152 -0.042617 0.0202397 0.0333283 0.0265987 0.0567908 0.0604867 0.0119003 0.0770955 0.0657472 0.0782418 -0.0277464 0.0673693 -0.168912 -0.0706712 -0.10892 -0.162992 -0.0523548 0.0645951 -0.0939284 0.0203843 -0.0633291 0.133835 -0.181735 -0.0861258 -0.153232 -0.195418 0.118225 0.0326203 -0.150996 -0.0417181 -0.217688 -0.234524 -0.168059 -0.203682 -0.253558 -0.176214 -0.180262 -0.195796 -0.174613 -0.196135 -0.177472 -0.186897 -0.145712 -0.164225 -0.169643 -0.101022
internal_weight=0 51253.1 49435.4 34300.9 33468 7932.52 50770.5 25535.5 20418.2 50472.3 20362.8 3682.79 16680 30109.5 26096.9 15134.6 14708.1 7143.51 4012.62 13880.5 5117.31 827.557 13788.1 832.871 426.481 789.013 482.63 159.664 345.497 482.061 199.89 107.722 33.8438 799.028 100.036 298.162 698.992 92.1678 22.0301 226.592 40.2676 322.966 222.757 276.132 87.1006 167.032 92.4353 100.209 123.209 186.324 81.5628 55.7255 92.4666 152.923 9.14236 8.72841 7.74234
internal_count=268644 162410 106234 80236 75619 32712 158920 42907 36964 157339 92450 10393 82057 64889 57422 25998 24662 27907 7467 20550 5943 4112 20142 4617 1336 4805 3490 799 609 3503 408 320 127 4490 552 1581 3938 88 66 928 131 2691 1332 1515 767 979 408 1359 687 797 740 353 577 828 112 62 782
is_linear=0
shrinkage=0.1


Tree=16
num_leaves=58
num_cat=0
split_feature=74 111 77 76 113 31 40 74 39 30 95 30 103 72 90 110 108 30 4 128 111 83 100 50 53 93 112 112 51 29 31 91 31 31 31 73 106 31 74 3 31 131 32 24 131 31 53 104 32 90 30 31 119 112 118 40 117
split_gain=552.451 590.654 2310.87 1020.48 2694.37 760.826 722.455 710.201 690.05 682.201 609.979 575.792 1748.44 508.302 413.221 367.921 265.104 388.093 227.291 220.076 207.323 424.334 186.851 162.944 149.771 82.3122 66.6568 66.512 53.6113 52.6079 49.486 60.0684 44.6755 41.4897 77.6521 33.5001 29.5647 38.5824 21.231 13.7079 11.1606 8.77085 3.81151 2.24719 1.38724 0.63457 0.622046 0.50054 0.387989 0.209908 0.169896 0.167227 0.15889 0.107244 0.0810612 0.0115653 0.00971517
threshold=-1.0523623824119566 -0.91087043285369862 -1.2503796219825742 -1.1974159479141233 -0.91950699687004078 0.99613428115844738 1.0247932672500613 -1.0014936327934263 1.0356169342994692 1.0914855599403384 -1.0363949537277219 1.0749097466468813 -0.87975549697875965 -0.64658266305923451 -1.2062271833419798 -0.89090991020202626 -0.94864365458488453 1.0894739627838137 0.71760806441307079 1.0000000180025095e-35 -0.89565014839172352 -1.3584600687026975 -0.93084853887557972 1.0285397171974184 1.0867210626602175 -1.1065279841423032 -0.9033447504043578 -0.93040692806243885 1.1319659352302553 1.0615611076354983 1.0135064721107485 -1.2386613488197324 1.0010123848915102 1.0017475485801699 1.0016417503356936 -0.80293872952461232 -0.82799071073532093 1.0081163644790652 -0.99349683523178089 0.44742757081985479 0.94842743873596203 1.0000000180025095e-35 0.86231750249862682 1.2651880979537966 1.0000000180025095e-35 1.0009027719497683 1.1043263077735903 -0.95877844095230091 0.9366019368171693 -1.2934817671775816 1.0670747160911562 1.0039635300636294 -0.86584851145744313 -0.90718546509742726 -0.88321036100387562 0.9836888611316682 -0.67292720079421986
decision_type=2 2 2 2 2 2 2 2 2 2 2 2 2 2 2 2 2 2 2 2 2 2 2 2 2 2 2 2 2 2 2 2 2 2 2 2 2 2 2 2 2 2 2 2 2 2 2 2 2 2 2 2 2 2 2 2 2
left_child=19 2 15 4 20 6 -6 -7 9 14 16 12 -12 -13 -5 33 38 -18 -11 25 32 -22 23 42 29 30 47 28 -10 -17 40 -32 -3 34 -2 -35 37 -25 -4 -29 52 -42 56 49 -33 50 -26 54 -44 55 -45 -47 -1 -49 -27 -24 -21
right_child=1 3 10 8 5 7 -8 -9 27 18 11 13 -14 -15 -16 24 17 -19 -20 22 21 -23 43 36 46 26 -28 39 -30 -31 31 44 -34 35 -36 -37 -38 -39 -40 -41 41 -43 48 45 -46 51 -48 53 -50 -51 -52 -53 -54 -55 -56 -57 -58
leaf_value=-0.13539319752835607 -0.17672749693005096 -0.14784560795792123 0.071369523821966457 -0.074409747739506232 0.013129044408778049 0.0044236863134336857 -0.10486257184877568 0.060987877677558394 0.15601470456268163 -0.0016963849986061695 -0.038094392604851715 0.032590501852887581 0.024778509346934999 0.080340705717299593 0.066928783868573802 0.25797909898600974 -0.0014403545058781549 -0.10284124313913375 -0.16294190550379398 -0.1179359016392954 -0.15856186073444278 0.10226214274392752 -0.10200027284249409 -0.022511467568667301 -0.17146824295050664 -0.1307270006983029 0.11966099480181767 -0.16055784216895541 -0.15945109232801219 0.045745245144465978 0.15925111992103835 -0.18384900013652189 -0.19981181147323188 -0.18837113383962131 0.051736538051409243 -0.26022363811261889 0.18315793814004133 0.14338347156555092 0.17443585786281934 -0.23626957896600331 -0.16372724861043395 -0.10115947232245828 -0.17451315419586794 -0.14338440057303722 -0.10122085261986605 -0.16708863629575521 -0.13877099586220717 -0.15495311681823673 -0.20700668477762504 -0.12748417065100728 -0.16723916546464318 -0.18887346807932345 -0.10155641304146866 -0.18300369889741952 -0.10587014046754895 -0.12146412338957649 -0.10223905741832935
leaf_weight=1.4350076839327801 316.14719162322581 327.85690951906145 32.579587885644287 210.31512011168525 2340.7728159655817 3173.844743879512 666.74029832147062 7383.7826007278636 11.679469108581545 188.11321853846312 4903.1469142031856 16892.1405018433 45174.96363000432 2568.2535287076607 12564.770068739075 24.263310294598341 829.21802180679515 692.78819373622537 163.31311741657555 0.41463744826615112 186.81487404694781 93.640935287810862 8.2293837796896661 22.875412952154875 11.162568331696095 5.507914969697592 23.938237457536161 101.33626639842987 9.9990441915579122 22.51942621357739 11.88530040998012 8.4593378454446775 333.93953940551728 152.0665765684098 15.61172310868278 113.18366332398728 50.863856308162212 36.211292564868927 51.70719557441771 31.299802838824689 225.12148327101022 24.88098332285881 10.497757483273746 17.569231791421775 2.6741899810731402 12.61433118581772 12.152928232681004 7.0223221816122532 5.6538535803556433 5.7111684381961814 3.5968389958143225 4.8895532190799704 42.162425372283906 1.6912327697500567 1.7221725201234237 0.31704161688685495 8.0384663082659227
leaf_count=30 2141 2248 47 754 6042 11066 2290 9828 1 423 17809 31651 145416 2340 16516 6 2392 2714 739 5 897 118 450 55 57 32 21 464 54 52 2 36 2101 1210 28 532 20 8 13 133 1194 2238 46 121 228 53 90 97 23 34 15 20 3239 9 107 12 377
internal_value=0 0.0259411 0.0211507 0.0383206 0.0199853 0.0313434 -0.0130287 0.0439835 0.0583494 0.0608209 0.0228878 0.0242951 0.0186226 0.0388923 0.0646019 -0.164101 -0.0380359 -0.0475961 -0.0766296 -0.0751091 -0.143532 -0.0714758 0.0125997 0.0752117 0.0526273 -0.121235 0.0141538 -0.151883 0.0105086 0.155818 -0.138289 0.00290296 -0.174068 -0.189549 -0.165977 -0.219031 0.127269 0.0791573 0.134597 -0.178424 -0.149358 -0.1575 -0.157414 -0.146576 -0.164002 -0.159087 -0.154425 -0.144258 -0.185887 -0.112641 -0.147438 -0.173174 -0.10267 -0.160398 -0.124806 -0.102722 -0.103009
internal_weight=0 99600.1 71811.9 27788.2 14507.4 13565.1 3007.51 10557.6 13280.8 13126.5 71144.8 69538.5 50078.1 19460.4 12775.1 667.107 1606.29 1522.01 351.426 543.983 942.252 280.456 187.483 134.555 70.0982 356.501 39.8819 154.315 21.6785 46.7827 316.619 23.0188 661.796 597.009 331.759 265.25 109.951 59.0867 84.2868 132.636 293.6 250.002 24.6047 52.9275 11.1335 38.67 23.3155 15.9436 16.1516 14.2576 21.1661 17.5039 43.5974 8.71355 7.23009 8.54643 8.4531
internal_count=268644 260172 206498 53674 34590 29226 8332 20894 19084 18432 202382 197216 163225 33991 17270 4116 5166 5106 1162 8472 5364 1015 1239 534 205 7233 266 652 55 58 6967 266 4349 3911 2169 1742 83 63 60 597 6701 3432 451 705 264 209 147 245 69 496 136 73 3269 106 139 462 382
is_linear=0
shrinkage=0.1


Tree=17
num_leaves=55
num_cat=0
split_feature=134 131 132 72 44 30 40 14 61 73 72 72 107 30 118 31 74 72 74 72 102 38 32 30 107 106 72 103 30 75 107 71 33 71 36 37 71 33 29 105 74 108 30 111 75 45 29 73 35 31 39 106 123 30
split_gain=525.262 512.525 498.3 491.013 1839.76 798.421 789.613 1057.43 766.833 437.316 0.0085729 0.0077237 0.00222763 0.00093541 0.000859182 0.000674568 0.000411758 0.000400527 0.000251445 0.000247122 0.000152387 0.000145483 0.000113481 0.000111376 9.64937e-05 9.44542e-05 8.32098e-05 6.99715e-05 6.89423e-05 6.91162e-05 4.17015e-05 3.95789e-05 3.61792e-05 3.34924e-05 4.69387e-05 2.54373e-05 2.01245e-05 1.53362e-05 1.40656e-05 9.9594e-06 9.59463e-06 9.55433e-06 9.52389e-06 8.89998e-06 7.63821e-06 7.36935e-06 3.08855e-06 2.80265e-06 1.97929e-06 1.78798e-06 5.20324e-07 3.44647e-07 1.19189e-07 6.24522e-08
threshold=1.0000000180025095e-35 1.0000000180025095e-35 1.0000000180025095e-35 -0.61044147610664357 1.0956237912178042 1.0549483299255373 1.0165938735008242 0.88629132509231578 0.67490705847740184 -0.74252256751060475 -0.54699096083641041 -0.54699096083641041 -1.0165209770202634 1.0667859911918642 -1.4774293303489683 0.94685056805610668 -1.0523623824119566 -0.58782169222831715 -1.0523623824119566 -0.5539288818836211 -0.8289632499217986 0.94394764304161083 0.95567253232002269 1.0323458313941958 -0.87373825907707203 -0.83870288729667652 -0.60284221172332753 -0.88511747121810902 1.0694767236709597 -1.1023759841918943 -0.86215260624885548 -0.43598079681396479 0.8495924472808839 -0.44047060608863825 0.92923054099082958 0.92162325978279125 -0.43165345489978785 0.8465891182422639 1.1377144455909731 -0.88685640692710865 -1.0523623824119566 -0.89236614108085621 1.0737112760543825 -0.9387713074684142 -0.95459896326065052 1.1670002341270449 1.1377144455909731 -0.70067679882049549 0.92731243371963512 1.0009027719497683 1.0249390006065371 -0.84174242615699757 -2.0728880167007442 1.0737112760543825
decision_type=2 2 2 2 2 2 2 2 2 2 2 2 2 2 2 2 2 2 2 2 2 2 2 2 2 2 2 2 2 2 2 2 2 2 2 2 2 2 2 2 2 2 2 2 2 2 2 2 2 2 2 2 2 2
left_child=1 2 3 4 5 -1 8 -8 -5 -6 13 15 20 17 32 23 46 18 -3 22 -12 -18 28 -4 33 -19 -17 -14 29 38 -29 -31 -13 35 -35 -24 43 52 -2 -16 53 -38 -42 -26 48 49 -15 -47 51 -46 -50 -39 -21 -30
right_child=19 10 11 6 9 -7 7 -9 -10 -11 12 14 27 16 39 26 21 25 -20 37 -22 -23 24 -25 36 -27 -28 30 40 31 -32 -33 -34 34 -36 -37 41 44 -40 -41 42 -43 -44 -45 45 47 -48 -49 50 -51 -52 -53 -54 -55
leaf_value=-0.0089693884087046431 -0.10084299243536538 -0.10081375173974881 -0.10126893495661533 0.033086684338837782 -0.073580350467628286 0.0267097674892968 0.023070760011907231 -0.20523160590855227 0.077900771774203834 0.16065342842682648 -0.10567267346221321 -0.10071872553820325 -0.10435171018828338 -0.10097671805117243 -0.10120338056382908 -0.10198990522539726 -0.10165430436213702 -0.10161286502060451 -0.10122717981376811 -0.10088611777015799 -0.10720206832125248 -0.10117046100564396 -0.10103640783037691 -0.10168110218893581 -0.10097684476865501 -0.10225317862441674 -0.10219343135033672 -0.10316986190216065 -0.10079292520999389 -0.1010825470875759 -0.1038841185666585 -0.10119230920849126 -0.10081940756580432 -0.10109144310380963 -0.10084178995743692 -0.10077145936224097 -0.10114367018634113 -0.10136982710691067 -0.10102695471744264 -0.10129030943055456 -0.10119825906500242 -0.101358740203339 -0.10130555134965424 -0.1011498155298995 -0.10158495067164069 -0.10114190147383771 -0.1011298098102595 -0.10144777889783477 -0.10125138916908172 -0.10131149587534766 -0.10109208558838007 -0.10150891989875405 -0.10098093597822418 -0.10086080379125216
leaf_weight=7200.5864882413298 12.393107580952348 16.386773046804592 12.591362410690637 10357.453694974072 2403.5267706068698 48632.372598736081 23687.88708786061 204.6295538879931 6047.8876813938841 82.440862752497196 0.96779714711010489 58.805581690277904 0.69170779548585404 1.4328301297500754 25.162598523311317 57.930955922696739 122.99347367137671 6.9153198981657624 143.858285774244 0.26215978758409619 1.9933777991682289 6.5451432554982594 4.3767162933945682 13.677987520582972 5.4417234444990754 3.4546115063130838 30.750921118073165 4.9173649065196514 0.2263127057813098 152.10216480353847 0.98038648627698233 41.901937598362565 90.799070132896304 15.846356492489578 14.351881409063934 21.060672810301185 3.4633184829726815 0.45873364806175232 6.2534510362893334 27.675682263914496 17.347495987080038 5.1180530241690558 15.816287850495426 6.5615636906586605 7.1257526883855427 0.3125532958656575 16.415112583432347 7.2019613943994019 0.97189263720065333 0.24740848410874594 0.25985146686434746 0.291240090504293 0.26819577813148754 0.3379535973072052
leaf_count=21266 1536 2103 1057 17489 8439 80694 44321 848 5823 151 20 8302 18 151 2167 3133 7924 487 12883 31 33 586 439 883 583 179 1523 175 29 14617 28 3667 11282 1498 1764 2829 317 35 638 2220 1511 391 1257 601 465 28 1497 513 80 20 25 20 28 40
internal_value=0 0.02341 0.0238234 0.0242261 0.0183605 0.0221083 0.0327146 0.0211154 0.0496076 -0.0658126 -0.101472 -0.101274 -0.104424 -0.101383 -0.100902 -0.101929 -0.101568 -0.101224 -0.101185 -0.101096 -0.106702 -0.10163 -0.101077 -0.101484 -0.10097 -0.101826 -0.10206 -0.1034 -0.10111 -0.101089 -0.103289 -0.101106 -0.10078 -0.100902 -0.100973 -0.100817 -0.101155 -0.101464 -0.100905 -0.101249 -0.101242 -0.101272 -0.101249 -0.101071 -0.10148 -0.101505 -0.101118 -0.101435 -0.101296 -0.101576 -0.101218 -0.101424 -0.100934 -0.100834
internal_weight=0 99261.7 98934.2 98616.8 58318.9 55833 40297.9 23892.5 16405.3 2485.97 327.552 317.394 9.55063 318.002 202.443 114.951 147.387 170.615 160.245 339.999 2.96117 129.539 322.599 26.2693 76.2203 10.3699 88.6819 6.58946 246.379 212.651 5.89775 194.004 149.605 55.6356 30.1982 25.4374 20.5847 17.3997 18.6466 52.8383 33.7281 8.58137 33.1638 12.0033 16.8694 14.8877 17.8479 7.51451 1.98172 7.37316 1.23174 0.749974 0.530356 0.564266
internal_count=268644 235682 209598 179031 110550 101960 68481 45169 23312 8590 26084 30567 274 25810 23971 6596 10158 15652 14986 32962 53 8510 31717 1940 8422 666 4656 221 23295 20458 203 18284 19584 6530 3262 3268 1892 1245 2174 4387 2837 708 2768 1184 1186 1026 1648 541 160 485 105 55 59 69
is_linear=0
shrinkage=0.1


Tree=18
num_leaves=62
num_cat=0
split_feature=108 32 136 59 39 77 111 73 36 94 49 30 60 77 31 133 30 52 95 52 53 43 81 109 130 90 74 113 103 99 74 109 130 5 135 73 72 128 33 22 27 49 34 112 16 35 31 29 94 99 31 33 114 69 112 121 31 30 102 43 76
split_gain=546.24 953.532 768.831 813.312 849.252 719.116 2971.01 683.814 933.378 796.31 704.383 677.195 662.596 643.329 665.634 642.347 2470.17 1311.36 550.03 503.613 439.889 666.399 415.579 472.308 417.173 398.364 397.419 375.091 847.568 368.666 364.89 349.493 299.804 295.142 292.716 290.72 255.049 248.25 211.593 211.173 178.385 170.902 163.376 145.267 143.279 122.403 118.248 117.599 110.296 180.405 149.199 108.557 98.2058 84.0001 79.018 183.785 47.9859 4.58664 1.04515 0.305049 0.119073
threshold=-0.89156869053840626 0.95412787795066845 1.0000000180025095e-35 0.80390658974647533 0.99594709277153026 -1.224305987358093 -0.92788493633270253 -0.84758570790290821 0.85219341516494762 -1.091038644313812 1.16353315114975 1.0153554677963259 0.78662291169166576 -1.2087866663932798 1.0088446736335757 1.0000000180025095e-35 1.0947939753532412 0.93253338336944591 -1.0196191072463987 0.95509573817253124 0.9645485281944276 0.96720680594444286 -1.1555874347686765 -0.92502650618553151 1.0000000180025095e-35 -1.1815183162689207 -0.96346288919448841 -0.9340243637561797 -0.87975549697875965 -0.83863434195518483 -0.98834291100502003 -0.90095555782318104 1.0000000180025095e-35 0.73406741023063671 1.0000000180025095e-35 -0.87840843200683583 -0.82410979270935047 1.0000000180025095e-35 0.91514679789543163 1.2923126816749575 1.2747089862823489 1.0727289319038393 0.79357346892356884 -0.90718546509742726 1.0876237750053408 0.67806336283683788 1.0057975053787234 1.1566349267959597 -1.0300306081771848 -0.92127802968025196 0.98323056101799022 0.79966387152671825 -0.9567008614540099 -0.25378867983818049 -0.94269070029258717 -1.1326971054077146 1.0010123848915102 1.0605195164680483 -0.90487626194953907 0.94936481118202221 -1.172962963581085
decision_type=2 2 2 2 2 2 2 2 2 2 2 2 2 2 2 2 2 2 2 2 2 2 2 2 2 2 2 2 2 2 2 2 2 2 2 2 2 2 2 2 2 2 2 2 2 2 2 2 2 2 2 2 2 2 2 2 2 2 2 2 2
left_child=1 13 22 38 29 6 35 8 19 -10 18 36 -6 20 15 16 -15 -17 -9 -8 31 42 23 37 34 57 -23 28 -27 -5 -29 51 47 -33 -24 53 43 -3 44 -26 -34 -25 -22 45 -4 -7 -40 -16 49 -38 -50 -1 -12 60 56 -56 -37 59 -59 -13 -2
right_child=5 2 3 4 12 11 7 10 9 -11 52 25 -14 14 32 17 -18 -19 -20 -21 21 26 24 41 39 27 -28 30 -30 -31 -32 33 40 -35 -36 54 48 -39 46 -41 -42 -43 -44 -45 -46 -47 -48 -49 50 -51 -52 -53 -54 -55 55 -57 -58 58 -60 -61 -62
leaf_value=0.058420107967060333 -0.16296513021563352 -0.078269453407770376 0.12479767533407898 0.061057379953421975 -0.15284031979099905 -0.12314255242264392 -0.11943302024316521 0.060795263421331347 0.014436920520977945 -0.087166001680635166 -0.15362142474615659 -0.14022929988788341 0.023668146403783594 0.037464031578006707 0.027895014442160356 0.083693789170305719 -0.10175493166226762 -0.0096928097388383032 0.025950580117113375 0.045033534795770248 0.16423257181259884 -0.12411018543920425 0.058851319821618321 -0.21060458043073835 -0.18316152119959669 -0.056593101373075695 0.034573184115174842 0.093508486874708849 0.050490670316806055 -0.1403379656467042 -0.23081555804451828 0.029981039475628263 0.042229801457844607 -0.15649497565505391 -0.15610537932426005 -0.16132988349579433 -0.13835950986577938 0.00086248483029903943 -0.26708161759779819 0.0094860496170317415 -0.16422481354736806 0.01835545213533496 0.04516339532938414 0.49944742005050147 -0.25320097412435222 0.1584239655858366 -0.16095050775634967 0.090359739948743467 -0.14771320241823835 0.22403578320957421 -0.001844080529107249 -0.19349044293009043 -0.051186741638961031 0.21748534443021694 0.09256422449387261 -0.19190771642968976 -0.21233214577991216 -0.19113730310088112 -0.23172341969743437 -0.15864208041880742 -0.13783829582180082
leaf_weight=18.161157358437777 4.9989729924127442 1301.0153494030237 35.945335268974304 771.2636304795742 682.87750126421452 24.3624277561903 199.15862340480089 5869.1033275118098 1357.8335136859678 1786.013424362056 193.91197322146036 16.830781498923898 308.87065871059895 21675.751380755566 354.14125924836844 1718.2551291435957 1354.087047398556 12040.768248848617 19857.324072164018 2857.8641284434125 160.87231510598212 442.31203794758767 1890.1240197164007 33.118163709528744 119.28180515766144 785.83625806961209 245.39007924310863 2202.2439016969875 12438.932456091978 103.036716401577 35.245163455605507 241.72715648077428 86.79721762239933 130.80457356013358 65.546522028744221 442.00061206705868 28.295842497143894 570.19875834882259 159.95044820010662 108.79896907508373 80.821001186966896 2086.8119438388385 406.2265035463497 8.2806409271433932 13.907482311129568 42.154318190179765 305.4689514040947 2023.4984184119385 300.36548657226376 26.69746372080408 91.474293604493141 294.63467785622925 180.9107862431556 25.470193601213396 35.977061829064041 61.589325333014131 316.61787769710645 33.952899778261781 7.8030876964330664 19.333119033835828 3.0285985027439892
leaf_count=28 51 10494 14 732 2695 604 4426 7680 6189 10708 987 124 759 81685 683 1815 5356 27390 36787 6549 53 3639 4281 566 558 2710 963 1661 20065 326 148 426 115 570 318 2707 503 1203 707 184 282 7774 1000 67 60 270 1048 2113 3175 42 234 1445 696 15 56 507 2038 154 32 122 55
internal_value=0 0.0134155 -0.0169666 -0.065237 -0.0345272 0.0282656 0.0198601 0.0248253 -0.0050256 -0.0432835 0.031917 0.0456355 -0.0978684 0.0197138 0.0224865 0.0190649 0.0292784 0.0019695 0.0338999 0.0343189 -0.0365004 -0.00131054 0.0016486 -0.0175409 0.0367205 0.0493975 -0.0674878 0.050534 0.0441276 0.0373228 0.0883997 -0.100931 0.0719433 -0.035495 0.0516468 -0.160415 -0.0664388 -0.0541563 -0.176452 -0.0912649 -0.0573171 0.0147786 0.0789405 0.104468 0.0193471 0.0552974 -0.197425 0.0810558 -0.0950477 0.0375716 -0.11366 -0.178864 -0.104181 0.128584 -0.171721 -0.0870103 -0.182616 -0.176143 -0.198722 -0.150073 -0.153485
internal_weight=0 49830.5 8556.22 2381.32 1866.05 49253.6 33191.8 32302.1 6200.87 3143.85 26101.3 16061.8 991.748 41274.2 39334.1 36788.9 23029.8 13759 25726.4 3057.02 1940.13 1254.8 6174.9 3991.14 2183.75 15540.2 687.702 15462.3 13224.8 874.3 2237.49 685.328 2545.26 372.532 1955.67 889.683 521.63 1871.21 515.272 228.081 167.618 2119.93 567.099 74.7974 49.8528 66.5167 465.419 2377.64 446.833 54.9933 391.84 312.796 374.823 33.4978 856.185 97.5664 758.618 77.9199 41.756 36.1639 8.02757
internal_count=268644 159282 31719 6341 4512 109362 79451 74022 27872 16897 46150 29911 3454 127563 119439 116246 87041 29205 44467 10975 8124 5655 25378 20037 5341 25016 4602 24584 22775 1058 1809 2469 3193 996 4599 5429 4895 11697 1829 742 397 8340 1053 941 74 874 1755 2796 3954 545 3409 1473 1683 121 5308 563 4745 432 186 246 106
is_linear=0
shrinkage=0.1


Tree=19
num_leaves=59
num_cat=0
