tree
version=v4
num_class=1
num_tree_per_iteration=1
label_index=0
max_feature_idx=136
objective=binary sigmoid:1
feature_names=Column_0 Column_1 Column_2 Column_3 Column_4 Column_5 Column_6 Column_7 Column_8 Column_9 Column_10 Column_11 Column_12 Column_13 Column_14 Column_15 Column_16 Column_17 Column_18 Column_19 Column_20 Column_21 Column_22 Column_23 Column_24 Column_25 Column_26 Column_27 Column_28 Column_29 Column_30 Column_31 Column_32 Column_33 Column_34 Column_35 Column_36 Column_37 Column_38 Column_39 Column_40 Column_41 Column_42 Column_43 Column_44 Column_45 Column_46 Column_47 Column_48 Column_49 Column_50 Column_51 Column_52 Column_53 Column_54 Column_55 Column_56 Column_57 Column_58 Column_59 Column_60 Column_61 Column_62 Column_63 Column_64 Column_65 Column_66 Column_67 Column_68 Column_69 Column_70 Column_71 Column_72 Column_73 Column_74 Column_75 Column_76 Column_77 Column_78 Column_79 Column_80 Column_81 Column_82 Column_83 Column_84 Column_85 Column_86 Column_87 Column_88 Column_89 Column_90 Column_91 Column_92 Column_93 Column_94 Column_95 Column_96 Column_97 Column_98 Column_99 Column_100 Column_101 Column_102 Column_103 Column_104 Column_105 Column_106 Column_107 Column_108 Column_109 Column_110 Column_111 Column_112 Column_113 Column_114 Column_115 Column_116 Column_117 Column_118 Column_119 Column_120 Column_121 Column_122 Column_123 Column_124 Column_125 Column_126 Column_127 Column_128 Column_129 Column_130 Column_131 Column_132 Column_133 Column_134 Column_135 Column_136
feature_infos=[-1.7844352722167969:2.1873281002044678] [-1.6962581872940063:2.0962586402893066] [-1.6161398887634277:2.0136351585388184] [-1.5440802574157715:1.9394575357437134] [-1.4800789356231689:1.8737261295318604] [-1.4241359233856201:1.8164401054382324] [-1.3852788209915161:1.7788288593292236] [-1.3575865030288696:1.7939627170562744] [-1.3260828256607056:1.9694005250930786] [-1.2853907346725464:2.0549979209899902] [-1.2320997714996338:1.9997674226760864] [-1.1626077890396118:1.9951491355895996] [-1.0779223442077637:2.0742456912994385] [-0.97803342342376709:2.1771299839019775] [-0.86829191446304321:2.2671928405761719] [-0.75375783443450928:2.4052433967590332] [-0.63882678747177124:2.5269482135772705] [-0.65537858009338379:2.5277442932128906] [-0.65910369157791138:2.5653238296508789] [-0.66488730907440186:2.5221147537231445] [-0.66619455814361572:2.4413206577301025] [-0.67410272359848022:2.3840618133544922] [-0.67701548337936401:2.2409591674804688] [-0.68310725688934326:2.1787192821502686] [-0.68053698539733887:2.1696581840515137] [-0.94777458906173706:2.0883691310882568] [-1.274228572845459:1.9448176622390747] [-1.700652003288269:1.7314887046813965] [-1.9454965591430664:1.5598906278610229] [-2.2033448219299316:1.3473584651947021] [-2.6534385681152344:1.1459542512893677] [-2.9375624656677246:1.0652625560760498] [-2.8964071273803711:1.0182701349258423] [-2.6209216117858887:1.0153312683105469] [-1.9672813415527344:1.0222163200378418] [-1.2877312898635864:1.0987448692321777] [-0.66342759132385254:1.3781088590621948] [-0.66920429468154907:1.4172744750976562] [-0.6713901162147522:1.4165236949920654] [-0.67615479230880737:1.3777114152908325] [-0.67391806840896606:1.3165556192398071] [-0.67713803052902222:1.2273765802383423] [-0.67526406049728394:1.2687077522277832] [-0.67821109294891357:1.5027958154678345] [-0.67593681812286377:1.6759111881256104] [-0.67998087406158447:1.7528411149978638] [-0.67735743522644043:1.7139431238174438] [-0.68056988716125488:1.6720231771469116] [-0.67851173877716064:1.6386531591415405] [-0.68057990074157715:1.6017820835113525] [-0.67868822813034058:1.7598063945770264] [-0.68411111831665039:2.1010029315948486] [-0.6882440447807312:2.2836933135986328] [-0.69760811328887939:2.324758768081665] [-0.68820065259933472:2.0119130611419678] [-0.66555494070053101:1.7058380842208862] [-0.63047897815704346:1.5109990835189819] [-0.79989981651306152:1.3641012907028198] [-0.9627259373664856:1.3483799695968628] [-0.83332031965255737:1.3266682624816895] [-0.62303602695465088:1.2987289428710938] [-0.62908732891082764:1.6912268400192261] [-0.65896600484848022:1.8743280172348022] [-0.67422842979431152:1.7138135433197021] [-0.93073725700378418:1.3433690071105957] [-1.1747497320175171:1.0613176822662354] [-1.3727543354034424:0.98026233911514282] [-1.6713657379150391:0.87500208616256714] [-1.8910553455352783:0.74292320013046265] [-2.0949718952178955:0.59156680107116699] [-1.9126988649368286:0.44254273176193237] [-1.7446892261505127:0.31167539954185486] [-1.674402117729187:0.20973041653633118] [-1.5674382448196411:0.13722024857997894] [-1.4517455101013184:0.2961885929107666] [-1.6804615259170532:0.9557119607925415] [-1.8599822521209717:1.4404212236404419] [-2.0371255874633789:1.2026444673538208] [-2.1728529930114746:1.1271375417709351] [-2.2573421001434326:0.66064220666885376] [-2.3058340549468994:0.36351838707923889] [-2.3315773010253906:0.27734678983688354] [-2.3403120040893555:0.32789856195449829] [-2.3343968391418457:0.37759476900100708] [-2.3124566078186035:0.42312100529670715] [-2.2730567455291748:0.46151745319366455] [-2.2140905857086182:0.49370381236076355] [-2.1362462043762207:0.51996833086013794] [-2.0426793098449707:0.67684948444366455] [-1.9374580383300781:0.55988889932632446] [-1.8240519762039185:0.65060514211654663] [-1.7103197574615479:1.0689502954483032] [-1.6520191431045532:1.4168777465820312] [-1.5958865880966187:1.6290324926376343] [-1.5394163131713867:1.6652539968490601] [-1.4922878742218018:1.6182962656021118] [-1.4547033309936523:1.5608183145523071] [-1.4384253025054932:1.5597559213638306] [-1.4264529943466187:1.5645072460174561] [-1.5388252735137939:1.5648646354675293] [-1.8343979120254517:1.5687597990036011] [-2.2499499320983887:1.5680602788925171] [-2.5584738254547119:1.5700795650482178] [-2.4521515369415283:1.5662518739700317] [-2.0341367721557617:1.5674868822097778] [-1.4475361108779907:1.5623446702957153] [-1.2213733196258545:1.563502311706543] [-1.1215335130691528:1.561995267868042] [-1.168958306312561:1.5723429918289185] [-1.225764274597168:1.5757462978363037] [-1.369315505027771:1.5835809707641602] [-1.6010570526123047:1.5861003398895264] [-2.1400496959686279:1.5903582572937012] [-2.4733853340148926:1.5879421234130859] [-2.4289262294769287:1.5883719921112061] [-1.8389110565185547:1.5865405797958374] [-1.577265739440918:1.5868538618087769] [-1.6321159601211548:1.7016431093215942] [-1.6864286661148071:2.5795986652374268] [-1.7459897994995117:2.8008601665496826] [-1.820858359336853:2.5472877025604248] [-1.9280952215194702:1.7488086223602295] [-2.1567583084106445:1.6308574676513672] [-2.3918964862823486:1.6220458745956421] [-2.6616356372833252:1.8138364553451538] [-2.9761693477630615:2.1341862678527832] [-3.3559722900390625:2.7791450023651123] [-3.8503069877624512:3.7871904373168945] [0:1] [0:1] [0:1] [0:1] [0:1] [0:1] [0:1] [0:1] [0:1]
tree_sizes=2731 5579 5589 6653 6469 5977 5978 5971 6038 6417 7021 5415 6929 6696 6880 6382 6868 6674 7025 6919 6571 6459 7059 6663 5567 6608 6371 6993 5569 6488 6892 6886 7113 6471 6788 5821 6686 6687 6559 5901 6426 5808 6669 6726 6947 6600 7053 6133 6543 5317 6421 6844 6306 6590 6942 6803 6468 6921 6237 7042 6622 6283 6127 6801 6672 6327 6456 6187 6692 6050 6843 6925 6673 6806 6589 7147 6309 5028 6910 6257 7115 6702 6885 6906 5881 6894 6594 6734 6597 6715 6901 5782 5502 6138 6495 5248 6858 6659 6822 6215 5503 6884 6769 5610 7042 6568 6035 5292 6232 6467 5711 6456 6202 6800 6470 6736 6448 5747 6040 6274 5756 5605 6459 6268 6701 6943 6542 5470 6267 6233 5902 6813 6163 6600 6877 5408 6875 6434 5169 5677 5798 6942 6481 6914 6161 6447 6542 6631 6977 6441 5000 6620 6510 5276 6156 6359 5269 6803 6241 6461 5959 7024 6283 6493 5621 6248 6399 6232 6248 6521 5183 6692 5605 5517 6124 6868 7143 6571 5598 6008 5361 5559 6719 5924 6684 6374 6160 6022 4837 6854 6474 5689 6465 6134 6898 5443 6796 6040 6742 4707

Tree=0
num_leaves=24
num_cat=0
split_feature=134 132 131 31 118 2 135 73 102 108 0 0 0 1 4 0 3 28 5 71 1 66 6
split_gain=466542 487009 473643 122240 66147.3 38113.5 36452.7 27571.8 9624.27 1750.28 1.13687e-13 1.13687e-13 1.13687e-13 1.13687e-13 1.42109e-14 3.55271e-15 3.55271e-15 3.55271e-15 1.77636e-15 1.77636e-15 8.88178e-16 2.22045e-16 1.11022e-16
threshold=1.0000000180025095e-35 1.0000000180025095e-35 1.0000000180025095e-35 1.0009298324584963 -0.85452660918235768 0.39924699068069464 1.0000000180025095e-35 -0.80469200015068043 -0.87788721919059742 -0.83982104063034047 0.61982628703117382 0.55515936017036449 0.65999999642372142 0.56477370858192455 0.64103078842163097 0.57055851817131054 0.736218422651291 1.3238755464553835 0.74747490882873546 -0.66935452818870533 0.59746670722961437 -1.0000000180025095e-35 0.80792471766471874
decision_type=2 2 2 2 2 2 2 2 2 2 2 2 2 2 2 2 2 2 2 2 2 2 2
left_child=1 2 3 4 5 -1 7 -5 -8 -6 11 -2 -3 -4 -15 20 22 -18 -17 -19 -13 -12 -14
right_child=10 12 13 6 9 -7 8 -9 -10 -11 21 15 16 14 -16 18 17 19 -20 -21 -22 -23 -24
leaf_value=-1.6277561410904045 -4.0289190040214695 -4.0289190040214695 -4.0289190040214695 -0.69317150228351876 -2.1850481861409312 -0.95674719771999772 -3.3440920317233833 -0.054391779137771934 -1.3289630889782944 -4.0289190040214695 -4.0289190040214695 -4.0289190040214695 -4.0289190040214686 -4.0289190040214695 -4.0289190040214695 -4.0289190040214695 -4.0289190040214695 -4.0289190040214695 -4.0289190040214686 -4.0289190040214695 -4.0289190040214695 -4.0289190040214695 -4.0289190040214686
leaf_weight=1067.3869475163519 609.43784394301474 550.52356090396643 402.77358829043806 1049.8035783041269 5.5049278605729333 4090.3198382314295 44.465432498604059 1896.2391329277307 50.752707861363888 79.417742108926177 1.0422275867313144 4.7563477139920023 0.37899184972048061 1.2127739191055287 92.360313776880503 8.4325686562806332 15.91765768826008 8.432568656280635 0.90958043932914812 0.73903410695493121 2.8613884653896093 0.53058858960866828 0.45479021966457367
leaf_count=31203 32161 29052 21255 21071 191 92667 2048 26186 1335 4191 55 251 20 64 4874 445 840 445 48 39 151 28 24
internal_value=-3.92695 -1.21325 -1.0284 -0.848614 -1.14119 -1.09561 -0.344258 -0.282017 -2.27 -3.90939 -4.02892 -4.02892 -4.02892 -4.02892 -4.02892 -4.02892 -4.02892 -4.02892 -4.02892 -4.02892 -4.02892 -4.02892 -4.02892
internal_weight=0 9356.68 8780.24 8283.89 5242.63 5157.71 3041.26 2946.04 95.2181 84.9227 627.971 626.398 576.447 496.347 93.5731 16.9599 25.923 25.0893 9.34215 9.1716 7.61774 1.57282 0.833782
internal_count=268644 235505 205085 178892 128252 123870 50640 47257 3383 4382 33139 33056 30420 26193 4938 895 1368 1324 493 484 402 83 44
is_linear=0
shrinkage=1


Tree=1
num_leaves=51
num_cat=0
split_feature=72 29 132 64 72 37 38 31 73 95 29 106 36 73 31 31 3 103 72 72 46 15 81 43 30 36 119 124 46 63 107 6 64 33 97 30 76 129 71 82 104 98 103 73 136 79 57 133 0 0
split_gain=7586.14 5768.14 4374.31 3689.08 3224.92 4147.7 3881.36 2185.48 2152.58 3290.64 2022.39 1978.15 3575.68 1567.3 2536.76 1454.02 1361.5 1376.56 1332.38 1331.43 1264.66 1393.6 1263.18 965.459 891.44 856.17 823.415 823.4 691.597 538.78 506.142 498.134 446.082 405.335 372.914 358.364 657.984 274.603 219.998 180.999 173.479 232.279 144.053 43.2446 26.5135 0.0707399 0.0639168 0.000720421 5.68434e-14 5.68434e-14
threshold=-0.55572688579559315 1.1537784934043886 1.0000000180025095e-35 0.60659369826316845 -0.60979306697845448 0.96910721063613903 0.96608003973960888 1.0009298324584963 -0.85335350036621083 -1.0198585987091062 1.2356462478637698 -0.84173402190208424 0.92976865172386181 -0.92101135849952687 0.98238679766654979 1.0069483518600466 0.48159031569957739 -0.87893131375312794 -0.56545007228851307 -0.57794383168220509 1.1773684024810793 0.84387695789337169 -1.0808982849121092 1.1239857673645022 1.0948610901832583 0.93422704935073864 -1.0575624108314512 -2.1867271661758418 1.1537625789642336 0.56732863187789928 -1.0222064852714536 0.79175812005996715 0.62304422259330761 0.87773784995079052 -1.0354905128479002 1.0823888182640078 -1.1090611815452573 1.0000000180025095e-35 -0.69344043731689442 -0.96216598153114308 -0.92018765211105336 -0.71032285690307606 -0.67787790298461903 -0.78684276342391957 1.0000000180025095e-35 -0.9632132053375243 0.73568695783615123 1.0000000180025095e-35 0.44953964650630956 0.31774054467678076
decision_type=2 2 2 2 2 2 2 2 2 2 2 2 2 2 2 2 2 2 2 2 2 2 2 2 2 2 2 2 2 2 2 2 2 2 2 2 2 2 2 2 2 2 2 2 2 2 2 2 2 2
left_child=1 4 3 7 6 11 8 20 15 -10 13 12 -6 14 24 -1 33 -18 29 -13 27 -22 35 -20 -3 26 -8 -2 39 -7 40 47 42 -15 -16 36 -12 -30 -33 -9 41 -5 -32 -27 -42 -34 -37 -24 49 -4
right_child=2 10 48 30 5 18 25 28 9 -11 22 19 -14 16 34 -17 17 -19 23 -21 21 -23 31 -25 -26 43 -28 -29 37 -31 32 38 45 -35 -36 46 -38 -39 -40 -41 44 -43 -44 -45 -46 -47 -48 -49 -50 -51
leaf_value=-0.016621433048817112 -0.1196265968582495 0.27004578859124079 -0.10177934831653918 -0.11945556890572491 0.14812308744416811 -0.12445995684348399 -0.13757134741771637 0.13991634856116492 0.17663002632897723 0.086996508928924146 0.31371605344012454 0.15631452549121894 0.014356185501351674 -0.1121301744230061 0.10548019329602416 0.13675840145274612 0.15136268095237182 0.2155617595386973 0.13322556221404022 0.23262558679441489 0.21549018309618706 0.0039069941183359847 -0.13780266169440944 -0.13965195341024372 0.024925730968047677 -0.15315520333327626 0.036657358804059126 0.25496090258514381 -0.1314878070060376 0.00027486622167401516 0.19581154818004565 0.1278077607450768 -0.13933232225338377 0.090395672228420154 -0.092657505956765307 -0.13826210145912265 -0.13734453174257463 0.085311041667092094 0.31673524794563945 -0.07034839291151368 0.52602829836323373 0.53148528744856438 0.56856322424256489 -0.086880615600939237 0.59479607971893034 -0.11903942278463411 -0.12638687736760662 -0.13867726655384691 -0.10177934831653918 -0.10177934831653918
leaf_weight=2499.1447628736496 59.166133429855108 3244.2288466021419 407.8812976591289 8.4548832010477799 9713.9789807647467 574.66001000627875 348.93878735788167 926.00789484195411 5300.6272065900266 18019.500722773373 56.128088962286711 7620.5449656173587 2515.8472181260586 221.09269638173282 162.75542779825628 821.14267286844552 16018.264538852498 4219.7842601127923 959.99495663866401 3266.3436747621745 1000.0071818735451 452.00562133453786 13.870677087455986 149.90385462343693 155.47620516456664 506.39207400009036 1218.4419151581824 7169.8686621673405 164.43262756988406 871.37015488184988 15.986429249867795 114.47709591686726 1.8887742515653396 178.69211001507938 228.13727643154562 361.87243800610304 76.308789622038603 90.622803822159767 133.52706178836524 42.833178844302893 70.762608304619789 15.589517867192624 29.49832159280777 122.21702156029642 269.94430227577686 18.978580221533775 4.5899233147501937 29.339172929525375 0.37789053097367187 6.0118948109447947
leaf_count=20820 433 3758 23746 66 24724 2732 3165 727 8669 64123 33 9842 9398 1217 773 3644 35355 6703 1997 3091 4482 2884 79 935 555 3191 4183 15970 589 3457 80 309 13 411 1802 1902 487 114 68 130 103 15 16 977 77 167 114 146 22 350
internal_value=0 0.127357 0.216845 0.229616 0.109061 0.13484 0.0861109 0.217152 0.0966442 0.10737 0.166901 0.148205 0.120605 0.171994 0.231097 0.021311 0.161139 0.164749 0.0139593 0.17921 0.234789 0.149625 0.0094392 0.0963705 0.258836 -0.0416732 -0.00213038 0.251895 0.0920508 -0.0492954 0.515979 0.174936 0.26193 -0.021607 -0.0101592 -0.0871632 0.0538195 -0.0544578 0.229528 0.13062 0.562193 0.302591 0.437553 -0.14027 0.580513 -0.120876 -0.138113 -0.138397 -0.101779 -0.101779
internal_weight=0 79727.6 10750.3 10336 54509 25672.6 28836.4 9904.94 26640.4 23320.1 25218.5 23116.7 12229.8 24428.4 3790.6 3320.29 20637.8 20238 2555.93 10886.9 8681.05 1452.01 790.113 1109.9 3399.71 2195.99 1567.38 7229.03 1223.9 1446.03 431.103 291.214 66.3521 399.785 390.893 498.899 132.437 255.055 248.004 968.841 364.751 24.0444 45.4848 628.609 340.707 20.8674 366.462 43.2099 414.271 413.893
internal_count=268644 218660 49984 25866 164948 56176 108772 25329 97256 72792 53712 47055 34122 50574 6888 24464 43686 42058 9121 12933 23769 7366 3138 2932 4313 11516 7348 16403 1560 6189 537 602 276 1628 2575 2536 520 703 377 857 261 81 96 4168 180 180 2016 225 24118 24096
is_linear=0
shrinkage=0.1


Tree=2
num_leaves=51
num_cat=0
split_feature=72 40 132 37 71 37 38 136 70 30 136 72 71 5 49 31 29 61 120 12 72 7 111 69 54 21 18 40 127 56 128 34 60 109 87 43 60 44 113 24 128 73 25 111 31 31 31 109 72 20
split_gain=4338.76 4738.34 2807.02 2755.03 3801.26 2345.37 2342.2 2955.06 2051.98 1957.48 1762.63 1761.38 1399.14 1922.1 1348.73 1462.08 1322.59 1270.72 1174.48 1049.02 944.249 768.779 656.19 650.907 648.067 597.188 499.239 930.633 1012.14 480.692 456.581 403.622 376.416 303.119 298.431 347.012 296.56 269.527 254.962 178.203 169.35 315.712 117.83 430.081 120.296 22.5452 8.28407 0.0212459 0.000121673 6.1621e-09
threshold=-0.56545007228851307 0.95559102296829235 1.0000000180025095e-35 0.96910721063613903 -0.43194364011287684 0.92544573545455944 0.97080886363983165 1.0000000180025095e-35 -0.31221571564674372 1.032314717769623 1.0000000180025095e-35 -0.47217203676700586 -0.48700821399688715 0.55283930897712719 1.1699276566505434 1.0009298324584963 1.2356462478637698 0.68130409717559826 -1.5711397528648374 0.76599586009979259 -0.53428247570991505 0.54428932070732128 -1.1741577982902525 -0.22270065546035764 1.1202638149261477 1.2223900556564333 1.0866751074790957 1.0479694604873659 -1.8702682256698606 0.9207245707511903 1.0000000180025095e-35 0.95056316256523143 0.72976171970367443 -1.0809029936790464 -0.52728861570358265 1.1370587944984438 0.64908447861671459 1.0351236462593081 -1.0508577227592466 1.5980492234230044 1.0000000180025095e-35 -0.74772432446479786 1.6798705458641054 -0.87824204564094532 0.95444181561470043 1.0009298324584963 1.0009298324584963 -1.1244066357612608 -0.55572688579559315 1.2519511580467226
decision_type=2 2 2 2 2 2 2 2 2 2 2 2 2 2 2 2 2 2 2 2 2 2 2 2 2 2 2 2 2 2 2 2 2 2 2 2 2 2 2 2 2 2 2 2 2 2 2 2 2 2
left_child=1 9 11 4 5 8 17 -8 -3 30 -7 14 13 23 15 22 -15 -6 34 33 24 -17 -2 -11 -16 -22 27 28 -5 -21 42 32 -20 -14 35 -13 39 -38 -33 -32 45 -42 44 -44 -1 -28 -29 -36 49 -4
right_child=2 3 48 26 6 10 7 -9 -10 12 -12 18 19 16 20 21 -18 -19 31 29 25 -23 -24 -25 -26 -27 40 46 -30 -31 36 38 -34 -35 47 -37 37 -39 -40 -41 41 -43 43 -45 -46 -47 -48 -49 -50 -51
leaf_value=-0.11404493978218007 0.083122367075817161 0.051235208064409503 -0.10205048534931747 0.209761801810045 0.12537970979014526 0.044241503253852454 0.10598241975296291 -0.10338664200330526 0.12709353054651432 -0.075453564593443934 -0.078456741404316688 -0.12460530395447696 0.064160122636422567 0.13905373605813298 -0.081040399719142994 -0.018351006173609068 0.0078737814222609864 0.19879151072424103 -0.12406213282437953 0.1592743747618498 0.14709159373927477 0.13036779338984283 0.19751066437015616 0.12338031491723932 0.21396361469681993 -0.12876901861621121 -0.13198321521242962 -0.13246370422724774 -0.073112896943593797 0.25273845279726442 -0.12443260650708986 -0.13357215033614417 0.34105889939580059 0.41635857761734113 -0.12407558115696254 0.28906619393686583 0.38775294663705195 -0.13531624279626828 0.30210143803298739 0.32323693998503339 -0.12575410238659973 0.092572730563185046 -0.13767720600009814 0.99055108407394821 0.14458645174682239 -0.18165525352004305 -0.19029283488148652 -0.12052887857551478 -0.101607165452054 -0.10206343406175425
leaf_weight=421.815798538737 530.08530249260366 6851.2268216833472 0.39349647797644038 288.92797166761011 4996.5642904639244 8284.2212613569573 7179.3686850313097 743.98489254713058 7436.2131678108126 586.77524979319423 1363.5044902041554 30.359237968921661 26.957779165357351 31023.669753856026 437.71597644593567 427.54220863711089 788.10823308676481 4464.7937050964683 17.687844768166542 2138.7788767460734 1170.8947513988242 1858.7836458068341 9297.9907724354416 228.85452069155872 89.733045006170869 84.112374179065228 176.8344532744959 263.60044164024293 224.98442943114787 740.8911155834794 45.436159202829003 31.017988311126828 1067.1855794396251 261.2691764421761 27.930538478307426 61.069648219272494 48.447620013728738 12.365397863090037 23.69244372844696 11.055671047419308 210.05266317352653 96.735967935994267 12.669371740892531 4.6075139231979838 18.784991586580873 189.0767848007381 27.340675114654005 42.727586756460369 375.45088137499988 5.5661856420338154
leaf_count=8342 2154 29888 20 456 6912 34754 15408 2708 16268 3026 4282 202 128 70113 3073 1029 3124 3867 123 3013 4688 1372 17165 574 325 540 1203 1585 988 354 1100 206 1402 228 183 143 29 113 49 22 1024 180 142 4 154 1104 120 358 24118 281
internal_value=0 0.108599 0.16633 0.0860458 0.0908437 0.0649943 0.126433 0.0863231 0.0907173 0.135137 0.0269007 0.173054 0.138078 0.131917 0.162635 0.174585 0.135804 0.160023 0.284287 0.201527 0.0814183 0.102557 0.191341 -0.0196635 -0.0308524 0.128603 -0.0481264 0.00501528 0.0859228 0.183321 -0.0478768 0.320111 0.333476 0.383418 0.0324199 0.151705 0.128148 0.281395 0.055097 -0.0368219 -0.111708 -0.0569117 -0.0929729 0.163206 -0.103018 -0.15765 -0.137898 -0.121931 -0.101614 -0.102063
internal_weight=0 79167.9 15579.9 42797.4 41319.9 23935.2 17384.7 7923.35 14287.4 36370.5 9647.73 15198.5 35795.3 32627.4 13896.9 12114.4 31811.8 9461.36 1301.67 3167.9 1782.46 2286.33 9828.08 815.63 527.449 1255.01 1477.55 804.854 513.912 2879.67 575.183 1139.58 1084.87 288.227 162.087 91.4289 117.305 60.813 54.7104 56.4918 672.7 306.789 457.878 17.2769 440.601 365.911 290.941 70.6581 381.411 5.95968
internal_count=268644 211213 57431 120747 114087 85192 28895 18116 46156 90466 39036 33012 80560 76837 30346 21720 73237 10779 2666 3723 8626 2401 19319 3600 3398 5228 6660 3149 1444 3367 9906 1780 1525 356 886 345 1264 142 255 1122 3511 1204 8642 146 8496 2307 1705 541 24419 301
is_linear=0
shrinkage=0.1


Tree=3
num_leaves=60
num_cat=0
split_feature=134 72 38 120 37 71 37 30 70 106 72 53 39 116 102 64 40 125 105 37 117 105 81 3 52 70 31 31 132 132 10 72 71 38 36 72 29 49 72 73 86 36 72 106 54 38 31 38 61 103 46 72 111 54 71 37 41 33 0
split_gain=2850.48 2687.72 2853.23 2232.13 2190.94 2753.58 2821.77 1757.75 1962.46 1384.45 924.783 765.189 583.82 558.802 371.682 248.184 322.654 538.521 227.737 213.482 190.266 121.752 108.798 174.61 142.963 102.968 61.7254 15.6441 2.14299 0.506065 0.181049 0.000636598 0.000195151 0.000371894 0.000354876 0.000198282 0.000168747 0.000113162 0.000117357 6.30116e-05 5.27446e-05 5.25831e-05 5.2371e-05 3.63131e-05 3.18949e-05 2.44738e-05 1.91411e-05 1.1676e-05 3.6821e-05 1.01362e-05 8.79821e-06 8.53053e-06 5.11078e-06 3.81994e-06 2.69051e-06 2.46228e-06 5.24099e-07 1.71361e-07 5.68434e-14
threshold=1.0000000180025095e-35 -0.54903647303581227 1.0013607740402224 -1.5858485102653501 0.86997562646865856 -0.42350547015666956 0.93985086679458629 1.0302665233612063 -0.35985283553600306 -0.84598228335380543 -0.45123757421970362 1.116508483886719 0.97039636969566356 -1.1768798828124998 -0.77486392855644215 0.49526962637901312 1.0548833012580874 -1.5737118721008299 -0.87563607096672047 0.97235107421875011 -0.91485282778739918 -0.85093230009078968 -0.60359448194503773 0.17581773549318316 1.1302950382232668 -0.23372857272624967 0.97211977839469921 1.0009298324584963 1.0000000180025095e-35 1.0000000180025095e-35 0.56855997443199169 -0.55572688579559315 -0.43194364011287684 0.96608003973960888 0.92976865172386181 -0.60979306697845448 1.1537784934043886 1.1699276566505434 -0.53428247570991505 -0.85335350036621083 -0.53126648068428028 0.92976865172386181 -0.47217203676700586 -0.84173402190208424 1.1202638149261477 0.99801191687583934 1.0009298324584963 0.97080886363983165 0.68130409717559826 -0.87893131375312794 1.1773684024810793 -0.47217203676700586 -1.1741577982902525 1.0648058056831362 -0.39336673915386194 0.96910721063613903 1.0760723352432253 0.943609118461609 0.11502923443913461
decision_type=2 2 2 2 2 2 2 2 2 2 2 2 2 2 2 2 2 2 2 2 2 2 2 2 2 2 2 2 2 2 2 2 2 2 2 2 2 2 2 2 2 2 2 2 2 2 2 2 2 2 2 2 2 2 2 2 2 2 2
left_child=1 2 4 22 7 6 -6 20 -9 -7 11 12 -5 -13 26 21 17 -17 -16 -18 -1 25 23 24 -3 -4 -12 -23 30 -25 -24 32 33 36 47 55 39 46 44 -2 42 -37 -40 45 50 -36 51 48 -34 -38 -39 52 -33 -45 -49 -35 -42 -48 -30
right_child=31 3 15 10 5 9 -8 8 -10 -11 14 13 -14 -15 18 16 19 -19 -20 -21 -22 27 28 29 -26 -27 -28 -29 58 -31 -32 37 34 35 43 41 49 38 40 -41 56 -43 -44 53 -46 -47 57 54 -50 -51 -52 -53 -54 -55 -56 -57 -58 -59 -60
leaf_value=-0.12862106775815899 -0.10199705243781342 0.35963332658945135 -0.14391836960862933 0.23160726119016065 0.084429925238058909 0.070316978730193241 0.0072205544212281831 0.11781238887264085 0.2129475638560161 0.13399221363012079 0.26919601162028584 0.12986704486136105 0.15020424389706846 -0.032032018532626445 -0.12805383834626513 0.10024124305058582 0.32412747659244445 -0.14404369998108721 0.17571919814563586 -0.11998655633331588 0.00016918264822035248 -0.13781615489457869 -0.12017901840489216 -0.12613921646610801 -0.11894136683449047 0.13467221931539328 0.33862625319189554 -0.18483297968726126 -0.10145189193050573 -0.10145189193050573 -0.14834637954467705 -0.10249123225104631 -0.10234325468411627 -0.10162969961254914 -0.10202488342542365 -0.10215741989913391 -0.10236012531964189 -0.10211150195750918 -0.10250914467992436 -0.10212227712505624 -0.102083935278551 -0.10184323498101083 -0.10302358092035652 -0.10247665733786093 -0.10269174040655993 -0.10161261759400345 -0.10236458298172618 -0.10230692608889608 -0.10251938713134595 -0.102534316357282 -0.10182321740383074 -0.10315058185348878 -0.10279708484158678 -0.10220201586357092 -0.10213908673122818 -0.1013603094189925 -0.10194561055540217 -0.10227634101813593 -0.10145189193050573
leaf_weight=255.05940304789692 44.650506282225251 20.648632637225095 24.48053440824151 1002.2328611984849 31222.141742148437 4432.9845788609236 5579.3546740794554 26514.878202016465 2361.4099735869095 14863.200907583348 633.56570679135621 506.32375861238688 7286.3102298611775 368.24268744233996 28.220141469500959 302.12725357804447 11.210039706900714 128.6763391206041 196.70090404339135 313.98112808447331 208.45955386944115 172.71121743600816 68.205619436688721 20.542065620422363 8.9465028028935176 28.962874451652169 160.47991846688092 119.89832783862948 256.70625602267683 13.937014009803532 2.3609284907579413 0.56915072910487374 43.687426559627056 23.551410531625155 47.63282276596874 14.098546398803594 18.09252806939185 1.6180515680462111 6.104702417738733 401.5953463409096 0.39840097725391277 8.5618890961632115 2.9280951730906972 1.8323174081742757 0.60985866375267495 1.4848374212160695 0.45023433305323202 15.773331662639977 16.296546414494514 4.0970937032252541 3.0620907414704561 0.66764856129884798 13.631667029112577 0.69987566769123066 1.0166543293744315 0.34425204060971637 0.87661736086010933 0.43049116246402264 0.84637736901640792
leaf_count=2265 2328 20 273 2485 74972 8858 18134 54310 2274 18328 421 1786 16468 1921 384 674 17 680 873 1866 6681 993 505 132 257 25 100 546 18198 988 11 24 1953 1493 2456 682 808 80 257 19771 20 486 104 78 24 97 20 717 680 170 176 23 515 34 50 26 47 20 60
internal_value=0 0.104101 0.098286 0.151693 0.100348 0.0887672 0.0727245 0.122491 0.125592 0.119364 0.16071 0.15066 0.160047 0.0616982 0.251084 -0.0615905 -0.0294836 0.027276 0.137606 -0.104677 -0.0706999 -0.131732 -0.0824073 0.0367813 0.214962 0.00705973 0.283228 -0.157082 -0.105682 -0.11616 -0.121121 -0.102145 -0.102124 -0.102096 -0.102234 -0.101827 -0.102123 -0.102585 -0.102394 -0.10211 -0.102591 -0.102039 -0.102676 -0.102031 -0.102012 -0.102012 -0.102774 -0.10237 -0.102391 -0.102392 -0.101923 -0.102801 -0.102785 -0.102401 -0.102297 -0.101626 -0.101989 -0.102321 -0.101452
internal_weight=0 97113.8 86539.5 10574.3 85437.5 56097.7 36801.5 29339.8 28876.3 19296.2 10182.1 9163.11 8288.54 874.566 1018.97 1102.05 755.995 430.804 224.921 325.191 463.519 346.053 392.193 64.0742 29.5951 53.4434 794.046 292.61 328.119 34.4791 70.5665 674.762 643.415 514.992 128.424 46.5561 468.435 31.347 15.5978 446.246 10.3078 22.6604 9.0328 51.6499 5.29 49.1177 15.7492 76.774 59.984 22.1896 4.68014 14.8685 14.2008 2.53219 16.79 23.8957 1.27502 0.880725 257.553
internal_count=268644 235505 190896 44609 185822 120292 93106 65530 56584 27186 24438 22660 18953 3707 1778 5074 3237 1354 1257 1883 8946 1837 20171 1397 277 298 521 1539 18774 1120 516 33139 31829 25764 6065 2687 23077 1310 708 22099 428 1168 361 2665 280 2553 602 3400 2633 978 256 562 539 112 767 1519 67 40 18258
is_linear=0
shrinkage=0.1


Tree=4
num_leaves=58
num_cat=0
split_feature=134 70 38 72 71 38 72 36 105 115 131 37 104 32 72 60 41 57 37 35 105 106 102 136 132 119 20 87 72 71 38 36 72 29 49 72 73 86 36 72 106 54 38 31 120 38 61 103 46 72 111 54 71 37 41 47 24
split_gain=2273.51 2104.74 2966.52 2935.85 2144.3 3317.66 2057.47 1769.98 1959.07 1490.08 1269.06 1061.56 849.558 887.185 718.805 697.036 1023.29 569.362 531.54 509.892 355.434 256.476 110.11 68.9569 1.42071 0.17037 0.102628 0.0188912 0.000468285 0.00014359 0.000273821 0.000261083 0.000146071 0.000124186 8.31443e-05 8.63226e-05 4.63864e-05 3.87916e-05 3.87012e-05 3.84859e-05 2.6732e-05 2.34665e-05 1.80169e-05 1.40626e-05 8.86783e-06 8.58262e-06 2.70757e-05 7.44707e-06 6.47562e-06 6.2698e-06 3.75465e-06 2.80649e-06 1.97781e-06 1.81549e-06 3.8599e-07 1.26507e-07 9.43452e-08
threshold=1.0000000180025095e-35 -0.20265588909387586 0.97609949111938488 -0.58601945638656605 -0.42446090281009669 0.9313066601753236 -0.65369138121604908 0.95421269536018383 -0.82148027420043934 -1.3878089189529417 1.0000000180025095e-35 0.95945459604263317 -0.86563387513160694 0.96398717164993297 -0.60314157605171193 0.74287036061286937 1.0198720097541811 0.96674004197120678 0.97614082694053661 0.94313117861747753 -0.83450078964233387 -0.91025400161743153 -0.88681975007057179 1.0000000180025095e-35 1.0000000180025095e-35 -1.4897840023040769 1.124440670013428 -0.52728861570358265 -0.55572688579559315 -0.43194364011287684 0.96608003973960888 0.92976865172386181 -0.60979306697845448 1.1537784934043886 1.1699276566505434 -0.53428247570991505 -0.85335350036621083 -0.53126648068428028 0.92976865172386181 -0.47217203676700586 -0.84173402190208424 1.1202638149261477 0.99801191687583934 1.0009298324584963 -1.5858485102653501 0.97080886363983165 0.68130409717559826 -0.87893131375312794 1.1773684024810793 -0.47217203676700586 -1.1741577982902525 1.0648058056831362 -0.39336673915386194 0.96910721063613903 1.0760723352432253 1.1314508914947512 1.2266616225242617
decision_type=2 2 2 2 2 2 2 2 2 2 2 2 2 2 2 2 2 2 2 2 2 2 2 2 2 2 2 2 2 2 2 2 2 2 2 2 2 2 2 2 2 2 2 2 2 2 2 2 2 2 2 2 2 2 2 2 2
left_child=1 2 4 11 5 10 -7 8 -5 24 -1 14 22 18 -4 16 -6 -17 -14 -15 -9 -13 26 -24 25 27 -11 -3 29 30 33 45 53 36 43 41 -2 39 -34 -37 42 48 -33 49 56 46 -31 -35 -36 50 -30 -42 -47 -32 -39 -45 -26
right_child=28 9 3 7 15 6 -8 20 -10 12 -12 21 13 19 -16 17 -18 -19 -20 -21 -22 -23 23 -25 44 -27 -28 -29 34 31 32 40 38 47 35 37 -38 54 -40 -41 51 -43 -44 55 -46 52 -48 -49 -50 -51 -52 -53 -54 -55 -56 -57 -58
leaf_value=0.10183489283511858 -0.1018034139732778 -0.12381159787751289 -0.078345373383119407 0.014922431310850935 0.14807108413842984 -0.033422951605712965 0.063815340098025419 0.036445264735287308 0.1314102127595885 -0.12482486051024665 -0.10229673651741147 0.19331051876169639 0.12468859850986724 0.1884394243630268 0.059006043697274205 0.15048914200030877 0.040486129669562831 -0.083224681398563094 0.044140697019773634 0.13022155685396544 -0.097233333162962593 -0.11225187469829948 0.18532760729700104 0.25392501581512417 -0.101311711905608 -0.14292582001907286 -0.14900787501756227 -0.11868957517934837 -0.10224855499176951 -0.10211530185363345 -0.10147221428819145 -0.10182849657709923 -0.10194790988036606 -0.1021305546733063 -0.10190654317839763 -0.10226472453911346 -0.10191626237575202 -0.10188172317373234 -0.1016648002742592 -0.10272773632018901 -0.10223547472475021 -0.10242908756760807 -0.1014569079307798 -0.10213462772153664 -0.10177893351056642 -0.10208260208460432 -0.10227390486629949 -0.10228733956105979 -0.10164677549841877 -0.10284198361382153 -0.10252383657598424 -0.10198825233632325 -0.10193146793448533 -0.10122918601714335 -0.10175704358728761 -0.10205500509373916 -0.10137317583113924
leaf_weight=46275.698080165312 40.47438326664269 11.43979185819626 591.61087359581143 2234.6622839542106 1781.6669292915612 2493.9126536771655 17069.969915869646 285.28751887008548 4079.1607521390542 2.6913827843964091 306.56859281845391 28.001058905385435 1824.3053914671764 2422.8535583019257 1070.3749078027904 8337.9833646649495 1754.8982638642192 105.55602443218231 1487.1143844146281 3968.6162582468241 656.85386140178889 1446.4802181050181 189.236896507442 649.51913464069366 222.85144364554435 3.838774435222148 5.0432238429784775 19.432336990721524 0.51614892110228261 39.613767519593239 21.341588270850483 43.178850867785513 12.781773852184417 16.405721447430555 1.4668682720512141 5.5362928053364131 364.07564621791244 0.3611671682447184 7.7600226001813999 2.6566913817077884 1.6616614032536738 0.55316588282585133 1.3454934936016787 0.40827681124210435 0.40709065832197566 14.302067035809158 14.779315652325748 3.7156990412622681 2.7752588810399175 0.60583380889147598 12.365641633048654 0.63453343603759993 0.92168519832193752 0.31187508068978687 0.79459117539227009 0.39030884578824043 0.2500151377171268
leaf_count=88831 2328 76 2858 7580 2845 12674 36488 809 5279 23 14393 62 5442 1675 2076 8240 5830 589 5006 6670 3040 6948 219 169 17438 25 28 149 24 1953 1493 2456 682 808 80 257 19771 20 486 104 78 24 97 20 24 717 680 170 176 23 515 34 50 26 47 20 19
internal_value=0 0.0914379 0.0863514 0.0361581 0.0930282 0.0859777 0.0514199 0.0711028 0.0901815 0.133098 0.100491 -0.0446836 0.138907 0.130525 0.0101136 0.131957 0.0946858 0.147567 0.0885156 0.152291 -0.0567544 -0.106449 0.234985 0.238448 -0.104236 -0.123058 -0.140593 -0.120588 -0.101937 -0.101918 -0.101893 -0.102017 -0.10165 -0.101917 -0.102333 -0.102161 -0.101905 -0.102338 -0.101841 -0.102415 -0.101834 -0.101816 -0.101817 -0.102503 -0.101313 -0.10214 -0.102158 -0.10216 -0.101737 -0.102528 -0.102513 -0.102167 -0.102073 -0.101469 -0.101796 -0.102096 -0.101312
internal_weight=0 99326.3 88518.7 10392.4 78126.3 66146.1 19563.9 7255.96 6313.82 10807.6 46582.3 3136.47 10549.4 9702.89 1661.99 11980.1 3536.57 8443.54 3311.42 6391.47 942.141 1474.48 846.491 838.756 258.219 34.7109 7.73461 30.8721 611.734 583.304 466.867 116.437 42.1953 424.671 28.4302 14.144 404.55 9.34874 20.5418 8.19298 46.8205 4.79529 44.5243 14.2862 223.509 69.6168 54.3931 20.1214 4.24213 13.4876 12.8818 2.29619 15.2238 21.6535 1.15576 0.798586 223.101
internal_count=268644 235505 198542 28652 169890 152386 49162 16708 12859 36963 103224 11944 19232 18793 4934 17504 8675 8829 10448 8345 3849 7010 439 388 17731 250 51 225 33139 31829 25764 6065 2687 23077 1310 708 22099 428 1168 361 2665 280 2553 602 17481 3400 2633 978 256 562 539 112 767 1519 67 40 17457
is_linear=0
shrinkage=0.1


Tree=5
num_leaves=53
num_cat=0
split_feature=134 131 132 71 38 73 71 105 31 66 30 107 120 31 72 29 72 72 29 71 38 36 72 115 40 101 29 49 72 30 73 72 73 86 36 72 72 106 54 38 31 38 61 103 46 72 111 54 71 37 41 101
split_gain=1843.31 1742.79 1591.38 1861.72 2650.57 2247.81 1666.12 706.904 629.677 109.155 0.0176375 0.00370319 0.00309288 0.00170343 0.000622937 0.000460516 0.000409604 0.00034471 0.000202729 0.000105735 0.000201736 0.000192197 0.000107667 0.000105647 0.000103602 9.28261e-05 9.14415e-05 6.11358e-05 6.35409e-05 5.72802e-05 4.78602e-05 3.65481e-05 3.4174e-05 2.85483e-05 2.8503e-05 2.83054e-05 2.01849e-05 1.96892e-05 1.72769e-05 1.32722e-05 1.03397e-05 6.31531e-06 1.99229e-05 5.47725e-06 4.76898e-06 4.61189e-06 2.76074e-06 2.0637e-06 1.45474e-06 1.33913e-06 2.84364e-07 9.32136e-08
threshold=1.0000000180025095e-35 1.0000000180025095e-35 1.0000000180025095e-35 -0.3800452053546905 0.97609949111938488 -0.77461567521095265 -0.43194364011287684 -0.92001652717590321 0.99048462510108959 0.26842996478080755 1.0243940949440005 -1.0222064852714536 -1.5858485102653501 0.89573729038238536 -0.55572688579559315 1.1537784934043886 -0.56545007228851307 -0.55572688579559315 1.2356462478637698 -0.43194364011287684 0.96608003973960888 0.92976865172386181 -0.60979306697845448 -1.3878089189529417 0.9976366162300111 -0.776973396539688 1.1537784934043886 1.1699276566505434 -0.53428247570991505 1.0308129787445071 -0.56478720903396595 -0.56009867787361134 -0.85335350036621083 -0.53126648068428028 0.92976865172386181 -0.47217203676700586 -0.55572688579559315 -0.84173402190208424 1.1202638149261477 0.99801191687583934 1.0009298324584963 0.97080886363983165 0.68130409717559826 -0.87893131375312794 1.1773684024810793 -0.47217203676700586 -1.1741577982902525 1.0648058056831362 -0.39336673915386194 0.96910721063613903 1.0760723352432253 -0.80512797832489003
decision_type=2 2 2 2 2 2 2 2 2 2 2 2 2 2 2 2 2 2 2 2 2 2 2 2 2 2 2 2 2 2 2 2 2 2 2 2 2 2 2 2 2 2 2 2 2 2 2 2 2 2 2 2
left_child=1 2 3 4 6 -6 -1 9 -9 -5 12 25 23 29 15 -15 18 19 -12 20 26 41 49 -4 -14 -3 32 40 38 31 -16 -13 -2 35 -24 -30 -18 39 44 -23 45 42 -21 -28 -29 46 -19 -39 -43 -22 -35 -42
right_child=17 11 10 7 5 -7 -8 8 -10 -11 16 13 24 14 30 -17 36 27 -20 21 22 37 34 -25 -26 -27 43 28 33 -31 -32 -33 -34 50 -36 -37 -38 47 -40 -41 51 48 -44 -45 -46 -47 -48 -49 -50 -51 -52 -53
leaf_value=0.076716308670915556 -0.10162885723006997 -0.10516876643296356 -0.10120124066447687 0.018760310397784568 -0.077220544926025481 0.050393130741799734 0.11410018477857714 0.07429901638991103 0.12664591404920167 0.20741220794352846 -0.10282396085064323 -0.10149902193625833 -0.10202306530079136 -0.10210383738212077 -0.10300467538424639 -0.10234570479917221 -0.10223927002352436 -0.10203000094656647 -0.1020719645843557 -0.10190996507868469 -0.10133015245309039 -0.10165149161357073 -0.10175911187635618 -0.10148024456670315 -0.10181021186202661 -0.10644705679671791 -0.10192373418709982 -0.10172182742618958 -0.1020446111466953 -0.10253917762398278 -0.10377809918390009 -0.10249124129786764 -0.10173060078223191 -0.10169948251259042 -0.10150389762636891 -0.10246156189333029 -0.10192045963156432 -0.10201826068715243 -0.10219263441761572 -0.10131643316141946 -0.10192742978700367 -0.10188050420135802 -0.10205284625130229 -0.10206494392805632 -0.10148766573154218 -0.10256438727517746 -0.10227790091886145 -0.10179560155817442 -0.10174436060698114 -0.10111084930949371 -0.10158707433325126 -0.10185564651942143
leaf_weight=63222.835652819835 36.682437061332166 0.88285131752491031 216.07235631998628 31.711248492822051 1683.3113301023841 7667.0993875628337 14692.111344465986 3177.39703717269 8302.0444520935416 934.46326393634081 127.89416310191154 43.148782247677445 36.087975175119936 362.41647463478148 6.0858960123732686 100.56466469541192 3.6554040722548962 0.46798029169439992 3.6883519226685157 35.912563914433122 19.336362228728834 39.134409572929144 11.585792204365136 14.48138533066958 62.416723339818418 1.5933343721553672 14.873097935691478 1.3295647976920002 5.0197001891210666 0.54496693052351375 0.92119782976806064 0.37445672228932281 329.99987096525729 0.32735336199402698 7.0321228066459289 2.4098005294799805 4.3482700213789922 1.5065716821700328 0.5016243141144513 1.2190549764782179 0.37014354206621647 12.965408837422727 13.400370166637002 3.3690563198178998 2.5148946242406964 0.54958920180797655 11.214428989216685 0.57518086861819018 0.83543085865676303 0.28250971250235934 0.72011758387088776 0.35381541214883405
leaf_count=117924 2328 21 18465 120 6564 16722 17073 9449 10584 456 4842 2981 1909 18321 225 4549 171 24 188 1953 1493 2456 682 1010 3598 29 808 80 257 23 28 16 19771 20 486 104 237 78 24 97 20 717 680 170 176 23 515 34 50 26 47 20
internal_value=0 0.0810797 0.0820244 0.0828885 0.0777282 0.0274194 0.0837656 0.119071 0.112157 0.20122 -0.101819 -0.102133 -0.101419 -0.102115 -0.102171 -0.102156 -0.102761 -0.101749 -0.102803 -0.101732 -0.10171 -0.101821 -0.10149 -0.101219 -0.101888 -0.105991 -0.101731 -0.102106 -0.101952 -0.10152 -0.103106 -0.101508 -0.10172 -0.102111 -0.101663 -0.10218 -0.102066 -0.101657 -0.101641 -0.101641 -0.10226 -0.101932 -0.101949 -0.10195 -0.101569 -0.102281 -0.102268 -0.101957 -0.101872 -0.101327 -0.101622 -0.101892
internal_weight=0 100696 100180 99711 87265.4 9350.41 77914.9 12445.6 11479.4 966.175 468.645 516.533 329.058 514.056 469.988 462.981 139.586 554.489 131.583 528.71 423.161 105.549 38.2368 230.554 98.5047 2.47619 384.924 25.779 12.8231 44.0682 7.00709 43.5232 366.682 8.47697 18.6179 7.4295 8.00367 42.4352 4.34608 40.3535 12.956 63.1138 49.3129 18.2422 3.84446 12.232 11.6824 2.08175 13.8008 19.6189 1.04747 0.723959
internal_count=268644 235505 209312 178892 158283 23286 134997 20609 20033 576 30420 26193 24982 26143 23123 22870 5438 33139 5030 31829 25764 6065 2687 19475 5507 50 23077 1310 708 3020 253 2997 22099 428 1168 361 408 2665 280 2553 602 3400 2633 978 256 562 539 112 767 1519 67 40
is_linear=0
shrinkage=0.1


Tree=6
num_leaves=53
num_cat=0
split_feature=134 131 132 71 38 72 71 105 37 116 30 107 120 31 72 29 30 72 29 115 71 38 36 72 40 29 103 32 49 72 30 73 72 73 86 36 72 106 54 38 31 38 61 103 46 72 111 54 71 37 41 47
split_gain=1511.86 1428.06 1302.55 1439.3 2627.39 1608.1 1296 587.91 668.467 88.8315 0.0129868 0.00271668 0.00228142 0.00125492 0.000458497 0.000338725 0.000301574 0.000253909 0.000154151 7.79569e-05 7.79081e-05 0.000148697 0.000141584 7.93932e-05 7.64766e-05 6.73801e-05 6.72828e-05 6.22088e-05 4.49881e-05 4.68008e-05 4.22014e-05 3.51455e-05 2.69271e-05 2.51877e-05 2.10243e-05 2.10025e-05 2.08315e-05 1.45109e-05 1.27276e-05 9.78184e-06 7.60819e-06 4.6498e-06 1.46685e-05 4.03065e-06 3.51437e-06 3.39433e-06 2.03144e-06 1.5186e-06 1.07093e-06 9.88332e-07 2.09633e-07 6.86654e-08
threshold=1.0000000180025095e-35 1.0000000180025095e-35 1.0000000180025095e-35 -0.38634084165096277 0.97706282138824474 -0.59344539046287526 -0.42350547015666956 -0.92001652717590321 0.97926807403564464 -1.3950893282890318 1.0243940949440005 -1.0222064852714536 -1.5858485102653501 0.89573729038238536 -0.55572688579559315 1.1537784934043886 1.032314717769623 -0.55572688579559315 1.2356462478637698 -1.3878089189529417 -0.43194364011287684 0.96608003973960888 0.92976865172386181 -0.60979306697845448 0.9976366162300111 1.1537784934043886 -0.85741314291954029 0.89049386978149425 1.1699276566505434 -0.53428247570991505 1.0308129787445071 -0.56478720903396595 -0.56009867787361134 -0.85335350036621083 -0.53126648068428028 0.92976865172386181 -0.47217203676700586 -0.84173402190208424 1.1202638149261477 0.99801191687583934 1.0009298324584963 0.97080886363983165 0.68130409717559826 -0.87893131375312794 1.1773684024810793 -0.47217203676700586 -1.1741577982902525 1.0648058056831362 -0.39336673915386194 0.96910721063613903 1.0760723352432253 1.1314508914947512
decision_type=2 2 2 2 2 2 2 2 2 2 2 2 2 2 2 2 2 2 2 2 2 2 2 2 2 2 2 2 2 2 2 2 2 2 2 2 2 2 2 2 2 2 2 2 2 2 2 2 2 2 2 2
left_child=1 2 3 4 6 -6 -1 9 -9 -5 12 26 19 30 15 -15 27 20 -18 -4 21 25 41 49 -14 33 -3 -12 40 38 32 -16 -13 -2 36 -25 -31 39 44 -24 45 42 -22 -27 -30 46 -19 -39 -43 -23 -36 -42
right_child=17 11 10 7 5 -7 -8 8 -10 -11 16 13 24 14 31 -17 18 28 -20 -21 22 23 37 35 -26 43 -28 -29 29 34 -32 -33 -34 -35 50 -37 -38 47 -40 -41 51 48 -44 -45 -46 -47 -48 -49 -50 -51 -52 -53
leaf_value=0.069059349489810365 -0.10147145328709324 -0.10465606878053382 -0.10108562532333998 0.044763816090451311 -0.073268091751871697 0.037528363012166804 0.10633275434064429 0.11416930466086606 0.068583054031920151 0.1824104727122734 -0.10172563610329709 -0.10135436326767089 -0.10182710928914106 -0.10189977126893549 -0.10271119328335819 -0.10211761434084861 -0.10256840711658939 -0.10183309566440216 -0.10187423787548305 -0.1013374141757806 -0.10172491758933658 -0.10120197819987649 -0.10149187546900063 -0.10158890789870829 -0.10163502381611329 -0.10173735934560744 -0.10579729355407533 -0.10219072141687235 -0.10155529737912905 -0.10184629624544916 -0.1022918872845171 -0.10340679590996252 -0.10224869377568274 -0.10156321179986671 -0.10153516164108062 -0.1013587660424798 -0.10222193365556993 -0.10182254657498967 -0.10197966078220669 -0.10118966167801291 -0.10174068802654364 -0.10169836489466283 -0.10185368655705884 -0.10186458825469369 -0.101344133601293 -0.10231452470119312 -0.10205644289249766 -0.10162191908153305 -0.10157566181462852 -0.10100401680534379 -0.10143377529457293 -0.10167597426591508
leaf_weight=67827.866511682048 33.240507907234132 0.80248564481735263 195.72258797567338 49.25624617934227 1718.5619290759787 5509.7767202025279 10815.875272443518 8651.1697183325887 5120.7177185490727 973.97882882878184 3.8687049765139809 39.09552151337266 32.713390614837408 328.55126230791211 5.5216794731095433 91.187568607740104 108.24490791372955 0.42422318644821366 3.2964242231100789 13.120828056707976 32.551135909743607 17.517296079546217 35.463131531141698 10.499928088858725 56.569380707107484 13.481134245172145 1.4501749929040659 11.207939247600732 1.2049123030155904 4.5504066608846188 0.49423786252736945 0.83637465722858806 0.33958524651825328 299.06330431718379 0.29665652289986422 6.3715750034898511 2.1853287536650896 1.3656892273575056 0.4547880720347165 1.1043581459671248 0.33550646342337209 11.751528410241006 12.147658268921075 3.0541388820856801 2.2786296093836427 0.4984414195641883 10.168133268132806 0.52128937561064947 0.75712065398692985 0.25588197447359462 0.65252397768199444 0.32067906856536865
leaf_count=123454 2328 21 18465 134 6667 12581 11938 12123 11500 495 237 2981 1909 18321 225 4549 4468 24 185 1010 1953 1493 2456 682 3598 808 29 548 80 257 23 28 16 19771 20 486 104 78 24 97 20 717 680 170 176 23 515 34 50 26 47 20
internal_value=0 0.0723014 0.0731085 0.0738458 0.0688825 0.0111861 0.0741856 0.102653 0.0972192 0.175784 -0.101643 -0.101926 -0.101282 -0.10191 -0.10196 -0.101947 -0.102491 -0.10158 -0.102548 -0.101101 -0.101564 -0.101544 -0.101645 -0.101347 -0.101705 -0.101564 -0.105391 -0.102071 -0.101902 -0.101762 -0.101374 -0.102803 -0.101362 -0.101554 -0.101906 -0.101502 -0.101968 -0.101497 -0.101482 -0.101483 -0.10204 -0.101745 -0.10176 -0.101761 -0.101417 -0.102059 -0.102047 -0.101767 -0.101691 -0.101199 -0.101465 -0.101709
internal_weight=0 101560 101092 100667 85872.1 7228.34 78643.7 14795.1 13771.9 1023.24 424.744 468.279 298.126 466.026 426.097 419.739 126.618 502.516 111.541 208.843 479.146 383.484 95.6619 34.6447 89.2828 348.839 2.25266 15.0766 23.3702 11.6232 39.9293 6.35805 39.4351 332.304 7.68492 16.8715 6.73574 38.4545 3.93833 36.5675 11.747 57.2074 44.6988 16.5353 3.48354 11.0908 10.5924 1.88698 12.5086 17.7732 0.949181 0.656186
internal_count=268644 235505 209312 178892 154640 19248 135392 24252 23623 629 30420 26193 24982 26143 23123 22870 5438 33139 4653 19475 31829 25764 6065 2687 5507 23077 50 785 1310 708 3020 253 2997 22099 428 1168 361 2665 280 2553 602 3400 2633 978 256 562 539 112 767 1519 67 40
is_linear=0
shrinkage=0.1


Tree=7
num_leaves=53
num_cat=0
split_feature=134 131 132 71 38 30 107 42 35 35 30 107 120 31 72 29 72 72 29 115 71 38 36 72 40 29 103 49 72 30 73 72 73 86 36 72 72 106 54 38 31 38 61 103 46 72 111 54 71 37 41 33
split_gain=1251.24 1180.88 1076.08 1156.4 2069.68 1332.14 553.844 513.826 388.168 236.503 0.00956783 0.0019949 0.00168346 0.000925015 0.000337679 0.000249328 0.00022205 0.000187132 0.000109608 5.75372e-05 5.74322e-05 0.00010966 0.00010435 5.85766e-05 5.64745e-05 4.96728e-05 4.88039e-05 3.31265e-05 3.44913e-05 3.11083e-05 2.58313e-05 1.98496e-05 1.85744e-05 1.54923e-05 1.54854e-05 1.53409e-05 1.0958e-05 1.06993e-05 9.38142e-06 7.21327e-06 5.60194e-06 3.4251e-06 1.08056e-05 2.96787e-06 2.59099e-06 2.50001e-06 1.49584e-06 1.11806e-06 7.88798e-07 7.29514e-07 1.54607e-07 5.06997e-08
threshold=1.0000000180025095e-35 1.0000000180025095e-35 1.0000000180025095e-35 -0.37464897334575648 0.99649325013160717 1.0659784674644472 -0.7945161461830138 1.1010205745697024 0.85806635022163402 0.93682333827018749 1.0243940949440005 -1.0222064852714536 -1.5858485102653501 0.89573729038238536 -0.55572688579559315 1.1537784934043886 -0.56545007228851307 -0.55572688579559315 1.2356462478637698 -1.3878089189529417 -0.43194364011287684 0.96608003973960888 0.92976865172386181 -0.60979306697845448 0.9976366162300111 1.1537784934043886 -0.85741314291954029 1.1699276566505434 -0.53428247570991505 1.0308129787445071 -0.56478720903396595 -0.56009867787361134 -0.85335350036621083 -0.53126648068428028 0.92976865172386181 -0.47217203676700586 -0.55572688579559315 -0.84173402190208424 1.1202638149261477 0.99801191687583934 1.0009298324584963 0.97080886363983165 0.68130409717559826 -0.87893131375312794 1.1773684024810793 -0.47217203676700586 -1.1741577982902525 1.0648058056831362 -0.39336673915386194 0.96910721063613903 1.0760723352432253 0.943609118461609
decision_type=2 2 2 2 2 2 2 2 2 2 2 2 2 2 2 2 2 2 2 2 2 2 2 2 2 2 2 2 2 2 2 2 2 2 2 2 2 2 2 2 2 2 2 2 2 2 2 2 2 2 2 2
left_child=1 2 3 4 5 -1 8 -6 -5 -8 12 26 19 29 15 -15 18 20 -12 -4 21 25 41 49 -14 32 -3 40 38 31 -16 -13 -2 35 -25 -30 -18 39 44 -24 45 42 -22 -27 -29 46 -19 -39 -43 -23 -35 -42
right_child=17 11 10 6 7 -7 9 -9 -10 -11 16 13 24 14 30 -17 36 27 -20 -21 22 23 37 34 -26 43 -28 28 33 -31 -32 -33 -34 50 -36 -37 -38 47 -40 -41 51 48 -44 -45 -46 -47 -48 -49 -50 -51 -52 -53
leaf_value=0.053480406519456104 -0.10132946869450823 -0.10419658439142898 -0.1009812653774752 -0.13346932842485734 -0.011415927790470034 0.078192943975636378 0.053211404277809064 -0.13193513585481687 0.10152411245347491 -0.1353562670491677 -0.10229991131616104 -0.10122383686946777 -0.10165043372420624 -0.10171583681590411 -0.102447042847054 -0.10191213425670104 -0.10182500201976129 -0.10165561309137044 -0.10168991599767158 -0.1012085338892353 -0.10155808245074321 -0.10108628408490963 -0.10134790386971071 -0.10143542590433419 -0.1014770425282235 -0.10156932607995635 -0.10521605026670111 -0.10140510284560081 -0.10166754981500901 -0.10206917027663745 -0.10307302994012718 -0.10203024540422995 -0.1014122503287218 -0.10138695685028941 -0.10122781381571461 -0.10200611086144595 -0.10156580890450013 -0.10164612417856869 -0.10178775579831828 -0.10107522604891866 -0.10157235565632915 -0.10153414466447966 -0.10167417399742036 -0.10168400258012443 -0.10121462117828883 -0.10208953061163495 -0.10185692701407889 -0.10146528732074163 -0.10142351728240931 -0.10090756812847355 -0.10129548582289337 -0.101513942521071
leaf_weight=49417.142984990031 30.117255376651883 0.72915776073932681 177.27084192447364 70.754198312759399 1197.5465321308002 39049.583776917309 126.58684483356774 502.06656414922327 10768.164117954671 140.15264769643545 105.22282580751926 35.418384604156017 29.649128160439432 297.79569471301511 5.0084483027458191 82.667815723456442 3.0034091509878635 0.38448906317352971 3.0305310115218154 11.886565323919056 29.499407504685223 15.867522652260963 32.131632274948061 9.514371997676788 51.26172364410013 12.217388031072913 1.3190512685105193 1.0917823184281594 4.1242487272247672 0.44813102670013805 0.75910878553986449 0.30789380706846614 270.98598113469779 0.26879833079874327 5.7723181042820206 1.9813379161059854 3.5698848506435743 1.2377623077481974 0.41224561166018237 1.0003383420407761 0.3040635399520405 10.649545162916182 11.010074283927677 2.768157164566218 2.0642932467162609 0.45195181109011251 9.2176116500049829 0.47237321082502592 0.686046470887958 0.23174163512885648 0.59119314607232809 0.2905947482213378
leaf_count=94950 2328 21 18465 408 3737 59494 406 2863 16467 567 4842 2981 1909 18321 225 4549 171 24 188 1010 1953 1493 2456 682 3598 808 29 80 257 23 28 16 19771 20 486 104 237 78 24 97 20 717 680 170 176 23 515 34 50 26 47 20
internal_value=0 0.0647096 0.0654046 0.0660389 0.0622886 0.0643886 0.0964869 -0.0470174 0.0999901 -0.0458675 -0.101484 -0.10174 -0.101159 -0.101725 -0.10177 -0.101758 -0.102249 -0.101427 -0.102283 -0.100996 -0.101413 -0.101395 -0.101486 -0.101217 -0.101541 -0.101413 -0.104853 -0.101718 -0.101592 -0.101241 -0.102529 -0.101231 -0.101404 -0.101721 -0.101357 -0.101777 -0.101684 -0.101352 -0.101339 -0.10134 -0.101842 -0.101576 -0.10159 -0.101591 -0.101281 -0.10186 -0.101849 -0.101596 -0.101527 -0.101084 -0.101324 -0.101544
internal_weight=0 102081 101657 101272 90166.3 88466.7 11105.7 1699.61 10838.9 266.739 384.895 424.454 270.068 422.405 386.231 380.464 114.827 455.345 108.253 189.157 434.162 347.475 86.6872 31.386 80.9109 316.089 2.04821 21.1826 10.5339 36.1744 5.76756 35.7263 301.103 6.96558 15.2867 6.10559 6.57329 34.8421 3.56832 33.132 10.6487 51.8451 40.5095 14.9855 3.15608 10.0541 9.6021 1.71014 11.3356 16.0993 0.859991 0.594658
internal_count=268644 235505 209312 178892 161044 154444 17848 6600 16875 973 30420 26193 24982 26143 23123 22870 5438 33139 5030 19475 31829 25764 6065 2687 5507 23077 50 1310 708 3020 253 2997 22099 428 1168 361 408 2665 280 2553 602 3400 2633 978 256 562 539 112 767 1519 67 40
is_linear=0
shrinkage=0.1


Tree=8
num_leaves=55
num_cat=0
split_feature=72 38 30 71 3 36 71 136 29 75 116 73 37 16 41 133 41 72 69 37 61 103 61 73 105 82 93 127 31 15 107 126 82 23 34 40 31 48 37 73 68 107 40 48 108 28 31 48 132 31 99 132 72 120
split_gain=1045.38 3245.02 1604.08 2623.37 1485.29 1349.69 1917.7 1388.58 1020.83 868.346 778.301 777.323 719.433 1422.58 651.508 921.864 978.292 1568.83 924.418 740.911 1606.92 857.936 629.828 437.579 377.7 339.886 339.231 611.235 328.049 342.03 270.59 256.833 235.463 192.453 183.784 151.504 141.229 98.0545 67.0252 117.154 52.254 46.7962 45.8787 121.763 115.6 31.2058 26.5142 9.32776 7.07644 2.62593 1.54693 1.49088 0.602999 0.000192149
threshold=-0.58419066667556752 0.97994771599769603 1.0659784674644472 -0.43454803526401514 0.48159031569957739 0.91527733206748974 -0.47666862607002253 1.0000000180025095e-35 1.2356462478637698 -1.0172135829925535 -1.3950893282890318 -0.92101135849952687 0.94481724500656139 1.0245110988616946 0.99171459674835216 1.0000000180025095e-35 1.019273638725281 -0.53428247570991505 -0.15544394403696057 0.96910721063613903 0.71890750527381908 -0.79172027111053456 0.66058626770973217 -0.76182585954666127 -0.92840191721916188 -1.1136730313301084 -0.99848040938377369 -1.8737605214118955 0.95018258690834057 0.97991520166397106 -1.0355484485626218 -1.620760381221771 -0.76010799407958973 1.2629934549331667 0.93588075041770946 1.0302737951278689 1.0051086544990542 1.1474648118019106 0.96117869019508373 -0.75911623239517201 -0.047125279903411858 -0.92518505454063404 1.0609048604965212 1.1987578272819521 -1.0619424581527708 1.1558299064636233 1.0009298324584963 1.1467248201370241 1.0000000180025095e-35 1.0012375712394717 -0.69140309095382679 1.0000000180025095e-35 -0.55421414971351612 -1.5858485102653501
decision_type=2 2 2 2 2 2 2 2 2 2 2 2 2 2 2 2 2 2 2 2 2 2 2 2 2 2 2 2 2 2 2 2 2 2 2 2 2 2 2 2 2 2 2 2 2 2 2 2 2 2 2 2 2 2
left_child=1 2 3 5 23 6 -1 -7 11 -10 34 -6 22 -14 28 19 18 -18 -17 21 -21 -16 -5 36 -25 26 27 35 30 40 -12 -29 -31 41 42 -3 -4 47 39 -28 -30 -27 48 44 -44 -43 -40 -35 50 -39 -2 -45 -32 -50
right_child=10 25 4 12 8 7 -8 -9 9 -11 14 -13 13 -15 15 16 17 -19 -20 20 -22 -23 -24 24 -26 33 38 31 29 32 52 -33 -34 37 -36 -37 -38 49 46 -41 -42 45 43 51 -46 -47 -48 -49 53 -51 -52 -53 -54 -55
leaf_value=0.0012753860942165567 -0.15765937186465864 0.14330424230359259 -0.08532878126184737 0.00024095445650484774 0.11429154161835434 -0.0087056819162104043 0.064505916910354011 -0.18689858551491551 -0.11055334589507151 0.091606403563976965 0.24795946345187289 0.069487028367310466 0.062725347452715102 -0.20870854912432923 0.070139691567375137 -0.037889799099025963 -0.13330222181036483 0.046328603069099916 0.13268836818511556 -0.0093821601728722465 0.083025525622560339 0.12639424990466211 0.11344122817395746 -0.12919475268655711 0.047446237505743234 0.31976004856020257 -0.16768019279982072 -0.045497391086379943 0.13494168342881269 0.13592021717996602 -0.12997365048277928 -0.14014624313686541 -0.16791420830865961 0.066767461653407398 0.17798739317225459 -0.013046842690245031 -0.21027418167531389 -0.11984142838826035 -0.14039830215320084 -0.027297162006898169 0.26449939127066863 -0.13079639576599708 -0.1248563957645434 -0.13028726780552774 0.22814104488046733 0.19038987738352783 -0.19359873631622992 0.1794937556042524 -0.10091038091125532 -0.18285879161246221 -0.12961735431800944 -0.10088494381018842 -0.14869847573766945 -0.10134206439045464
leaf_weight=9684.954159732908 27.005785331130028 168.94855395611376 331.96666890289634 539.97453174833208 4394.3434632914141 4204.1881981678307 9502.8505439115688 488.08144592493773 554.21062811091542 344.57589046284556 24.518914108164608 32588.267247885466 4520.8232279354706 201.70017424877733 5287.3967844964936 438.19728395342827 757.20224759727716 1358.4703140482306 1155.3804174512625 2440.8038669778034 8216.9832120584324 5563.9022264843807 5475.5271012624726 156.99915420264006 528.649986570701 32.597800428979099 119.77756026573479 761.81313233543187 35.232942340895534 954.07112444471568 36.765773869119585 459.69130572024733 26.207005362026393 17.73900352511555 27.727288734167814 97.881704964675009 124.35423785541207 21.92818114254624 195.7430763002485 118.02163266763091 267.39623124152422 3.9751084363088021 14.463630404323338 23.887396124191582 25.871348737739027 12.655642509460449 179.66679513407871 12.522367477416994 105.60587617568672 9.46735677635297 72.442744693718851 62.024093092419207 32.313693983480334 11.42682392708957
leaf_count=45588 123 136 1271 2270 6553 17620 25004 1927 2412 597 14 63162 7519 1122 12282 1529 3332 3353 1469 6204 15022 8806 5315 624 1067 18 871 2773 63 1277 344 2608 134 60 20 320 598 472 1263 553 123 121 374 156 145 1 1158 1 11890 193 517 7153 231 886
internal_value=0 0.0513785 0.0549635 0.0392937 0.0688643 0.0208341 0.0325906 -0.027241 0.0722517 -0.0330495 0.074302 0.0748108 0.0803457 0.0511323 0.0763071 0.0726504 0.0266096 -0.0179615 0.0857833 0.0805902 0.0618627 0.0989837 0.10328 -0.0435001 0.00699919 -0.0679505 -0.0769538 -0.0511649 0.1433 0.156486 -0.0374353 -0.0811168 0.127797 0.102683 -0.0696448 0.0859498 -0.119378 -0.0150351 -0.139547 -0.098007 0.249416 0.25012 -0.0896787 -0.0417681 0.10156 0.113619 -0.165859 0.113414 -0.117619 -0.138844 -0.137232 -0.10906 -0.138733 -0.100953
internal_weight=0 75853.9 73641.5 34618.1 39023.4 23880.1 19187.8 4692.27 37881.4 898.787 26965.3 36982.6 10738 4722.52 26594.8 25218.3 3709.25 2115.67 1593.58 21509.1 10657.8 10851.3 6015.5 1141.97 685.649 2212.43 2101.54 1488.33 1376.51 1282.91 93.5984 1221.5 980.278 110.885 370.455 266.83 456.321 61.6569 613.209 237.799 302.629 49.2286 342.728 126.246 40.335 16.6308 375.41 30.2614 216.481 31.3955 99.4485 85.9115 69.0795 117.033
internal_count=268644 193197 182649 106365 76284 90139 70592 19547 72724 3009 75447 69715 16226 8641 54183 51997 9683 6685 2998 42314 21226 21088 7585 3560 1691 10548 9682 5837 2186 1597 589 5381 1411 866 21264 456 1869 726 3845 1424 186 140 21244 7828 519 122 2421 61 13416 665 640 7309 575 12776
is_linear=0
shrinkage=0.1


Tree=9
num_leaves=57
num_cat=0
split_feature=134 131 132 71 38 38 136 42 17 0 116 107 30 31 72 29 71 120 38 29 72 36 37 29 101 72 115 49 74 72 87 30 36 71 61 36 72 106 72 54 37 31 72 41 37 72 37 38 103 38 71 31 37 33 36 0
split_gain=1009.84 943.992 811.641 838.54 2787.94 1013.96 732.823 627.617 1170.16 442.146 0.00916534 0.00194737 0.00160006 0.000903646 0.000370366 0.00042285 0.000256201 0.000171411 0.000169544 0.000106427 0.000102813 0.00010451 8.12837e-05 6.81906e-05 4.59621e-05 4.32742e-05 3.29145e-05 3.24141e-05 2.57246e-05 2.52865e-05 2.96331e-05 2.31411e-05 2.09157e-05 3.93818e-05 1.88965e-05 1.87202e-05 1.64977e-05 1.4528e-05 1.11144e-05 1.00439e-05 9.84686e-06 7.15633e-06 6.63257e-06 5.33138e-06 4.34911e-06 3.52153e-06 3.45579e-06 3.0399e-06 2.4808e-06 1.88607e-06 1.7114e-06 1.56056e-06 4.38266e-07 2.32457e-07 1.93636e-07 1.10841e-08
threshold=1.0000000180025095e-35 1.0000000180025095e-35 1.0000000180025095e-35 -0.40725125372409815 0.97418206930160534 0.91956773400306713 1.0000000180025095e-35 1.0682520270347597 1.0561317205429079 0.4383522123098374 -1.3950893282890318 -1.0222064852714536 1.0302665233612063 0.89573729038238536 -0.55572688579559315 1.1537784934043886 -0.43194364011287684 -1.5858485102653501 0.96608003973960888 1.2356462478637698 -0.55572688579559315 0.92976865172386181 0.86997562646865856 1.1537784934043886 -0.776973396539688 -0.60979306697845448 -1.3878089189529417 1.1699276566505434 -0.68901804089546193 -0.53428247570991505 -0.52728861570358265 1.0308129787445071 0.91527733206748974 -0.47666862607002253 0.66058626770973217 0.92976865172386181 -0.56009867787361134 -0.84173402190208424 -0.58419066667556752 1.1202638149261477 0.94481724500656139 1.0009298324584963 -0.60979306697845448 1.0198720097541811 0.96910721063613903 -0.58419066667556752 0.96910721063613903 0.97994771599769603 -0.87893131375312794 0.97994771599769603 -0.40611092746257776 0.98238679766654979 0.96910721063613903 0.943609118461609 0.91527733206748974 0.4408386498689652
decision_type=2 2 2 2 2 2 2 2 2 2 2 2 2 2 2 2 2 2 2 2 2 2 2 2 2 2 2 2 2 2 2 2 2 2 2 2 2 2 2 2 2 2 2 2 2 2 2 2 2 2 2 2 2 2 2 2
left_child=1 2 3 4 5 -1 -6 9 -9 -5 17 24 22 31 15 -15 18 26 23 -14 21 34 -12 32 -3 47 -4 41 -16 39 -31 36 33 -2 45 49 -13 38 -23 -29 -36 46 -34 -19 -37 -18 -22 54 51 -27 -39 -25 -49 -43 -20 -50
right_child=16 11 10 7 6 -7 -8 8 -10 -11 12 13 19 14 28 -17 20 43 25 -21 27 37 -24 48 -26 35 -28 29 -30 30 -32 -33 42 -35 40 44 -38 50 -40 -41 -42 53 -44 -45 -46 -47 -48 52 55 -51 -52 -53 -54 -55 -56 -57
leaf_value=0.062555272415135005 -0.10129547125057176 -0.10410652818561186 -0.10080407951822196 0.10405160719606321 -0.022022466641720854 0.038845481025730579 -0.18304161329943366 0.066746681421443424 -0.057898987417220354 -0.21192983627726802 -0.10128211442509627 -0.10110772409675882 -0.10216358296860809 -0.10160033876949377 -0.10237645577658766 -0.10186093077138708 -0.10138133451981751 -0.10139827007521909 -0.10101910886028541 -0.10152063050125766 -0.1018576827286279 -0.10120365166173423 -0.10157672817568711 -0.10158070631898407 -0.10510619869835956 -0.1013051764198286 -0.10099676761663062 -0.10128846911867849 -0.10293284910243664 -0.10175096736380085 -0.10107006725172281 -0.10187245599619942 -0.10121068685669675 -0.10137530371643518 -0.10160459944018162 -0.10107223630376216 -0.10187376942195668 -0.10144553883951302 -0.10132971366437232 -0.10181879172959596 -0.10150347196483644 -0.10152817376601281 -0.10130338857422316 -0.10119567166451596 -0.10071822069355858 -0.10152421279577845 -0.10169069528948887 -0.10086347241095728 -0.10161206627750059 -0.1011410447914599 -0.10165968421595509 -0.10150043188319589 -0.1007012052766489 -0.10139965330704777 -0.10096863518493895 -0.10163217549688075
leaf_weight=43436.581117866561 139.45027075521648 0.71433708816766772 145.65274149691686 4995.4967566262931 3500.0617261212319 30845.962120594457 307.47711874777451 17686.959938473068 786.66220912337303 44.679600683972239 10.968605756759642 32.12593247089535 96.060964867472649 275.91717942105606 4.6166860852390528 80.415934093296528 8.1684068161994201 1.5030386745929707 0.81816182471812027 2.6454131137579671 8.4401579438708705 10.423351153265687 64.04604687448591 3.3886553421616545 1.2913710037246335 7.7680736714974028 9.4395064953714591 3.1667014518752699 1.0133661208674301 5.9630014728754759 0.71589652588590791 0.4077962227165689 20.325953150168061 110.96107840910554 23.49122965708375 4.5154843069612971 0.2836167560890307 0.55640637967735518 21.256499316077679 0.40252305194735516 16.316120638512075 0.29575465992093164 12.442656483501194 9.562204738147555 0.37591016059741367 2.1868700869381419 1.45260004606098 2.4075435120612378 0.30994313769042436 0.76947184652090062 1.1333725545555342 8.4871532665565592 0.17880940111353982 0.26849767100065947 10.705558811314402 2.3702692240476608
leaf_count=73591 11092 21 18465 4829 10538 55059 1344 30768 2177 586 898 2981 4688 18321 214 4549 610 111 82 185 473 896 4272 223 29 613 971 256 39 359 69 23 1720 8306 1514 433 16 40 1657 23 1128 20 981 830 54 148 89 284 20 69 72 585 26 20 1127 150
internal_value=0 0.0523017 0.0529009 0.053417 0.0484319 0.0527097 -0.0350255 0.0699725 0.0614389 0.101251 -0.101374 -0.101642 -0.101882 -0.101626 -0.101672 -0.101659 -0.101354 -0.100843 -0.10131 -0.102146 -0.10149 -0.101441 -0.101534 -0.101332 -0.10475 -0.101073 -0.100816 -0.10169 -0.102477 -0.101563 -0.101678 -0.101124 -0.101321 -0.101331 -0.101532 -0.101201 -0.101114 -0.101303 -0.101288 -0.101348 -0.101563 -0.101813 -0.101246 -0.101223 -0.101045 -0.101412 -0.101833 -0.10095 -0.101543 -0.10129 -0.101589 -0.101523 -0.100852 -0.101467 -0.100972 -0.10163
internal_weight=0 102341 101944 101604 78090.1 74282.5 3807.54 23513.8 18473.6 5040.18 339.879 396.786 173.721 394.781 361.963 356.333 429.512 166.157 325.275 98.7064 104.237 83.5323 75.0147 297.736 2.00571 27.539 155.092 20.7051 5.63005 10.2481 6.6789 32.8173 283.18 250.411 50.1626 13.4289 32.4095 33.3696 31.6799 3.56922 39.8074 10.457 32.7686 11.0652 4.89139 10.3553 9.89276 14.1101 14.556 8.53755 1.68978 11.8758 2.58635 0.564252 11.5237 2.68021
internal_count=268644 235505 209312 178892 140532 128650 11882 38360 32945 5415 30420 26193 10043 26143 23123 22870 33139 20377 25765 4873 7374 6065 5170 23077 50 2688 19436 1309 253 707 428 3020 22099 19398 3400 1169 2997 2665 2553 279 2642 602 2701 941 487 758 562 1519 978 682 112 808 310 40 1209 170
is_linear=0
shrinkage=0.1


Tree=10
num_leaves=63
num_cat=0
split_feature=134 74 73 30 72 30 3 136 41 59 60 31 112 128 122 100 4 130 131 118 0 115 131 31 29 31 31 34 128 71 38 72 36 71 29 72 49 72 87 36 71 61 36 106 72 54 37 31 72 30 37 72 37 38 103 38 71 31 37 37 36 24
split_gain=852.522 833.223 915.936 1586.18 1088.32 2585.99 1528.6 1325.05 793.637 1353.71 879.158 565.583 433.289 419.616 259.409 230.97 395.148 318.529 118.676 26.1037 17.5194 5.27377 4.03472 2.99815 1.67803 1.40882 0.335834 0.198377 0.0740367 0.00018902 0.000125126 7.58178e-05 7.70764e-05 6.97388e-05 5.03031e-05 3.19534e-05 2.3877e-05 1.86509e-05 2.18565e-05 1.54372e-05 2.90452e-05 1.39358e-05 1.38173e-05 1.07187e-05 8.20131e-06 7.40553e-06 7.25569e-06 5.27355e-06 4.89474e-06 4.43098e-06 3.21247e-06 2.59714e-06 2.54626e-06 2.24562e-06 1.82852e-06 1.39211e-06 1.26229e-06 1.1511e-06 3.23859e-07 1.71387e-07 1.43e-07 8.18031e-09
threshold=1.0000000180025095e-35 -1.0524590015411375 -0.92101135849952687 1.0948610901832583 -0.60979306697845448 1.0565367937088015 0.48159031569957739 1.0000000180025095e-35 1.0364685058593752 0.82283505797386181 0.74287036061286937 0.98238679766654979 -0.92379367351531971 1.0000000180025095e-35 -1.0364007949829099 -0.9310304820537566 0.7178063988685609 1.0000000180025095e-35 1.0000000180025095e-35 -0.85452660918235768 0.61503690481185924 -0.82791373133659352 1.0000000180025095e-35 1.0009298324584963 1.2356462478637698 1.0009298324584963 1.0012375712394717 0.84757578372955333 1.0000000180025095e-35 -0.43194364011287684 0.96608003973960888 -0.55572688579559315 0.92976865172386181 -0.40725125372409815 1.1537784934043886 -0.60979306697845448 1.1699276566505434 -0.53428247570991505 -0.52728861570358265 0.91527733206748974 -0.47666862607002253 0.66058626770973217 0.92976865172386181 -0.84173402190208424 -0.58419066667556752 1.1202638149261477 0.94481724500656139 1.0009298324584963 -0.60979306697845448 1.0659784674644472 0.96910721063613903 -0.58419066667556752 0.96910721063613903 0.97994771599769603 -0.87893131375312794 0.97994771599769603 -0.40611092746257776 0.98238679766654979 0.96910721063613903 0.96229743957519542 0.91527733206748974 1.3833526968955996
decision_type=2 2 2 2 2 2 2 2 2 2 2 2 2 2 2 2 2 2 2 2 2 2 2 2 2 2 2 2 2 2 2 2 2 2 2 2 2 2 2 2 2 2 2 2 2 2 2 2 2 2 2 2 2 2 2 2 2 2 2 2 2 2
left_child=1 15 3 11 5 7 -7 -4 10 -10 -6 12 -3 14 -5 16 17 18 -1 24 -15 22 23 -17 -18 -19 33 -21 -13 30 34 32 41 -23 39 53 47 45 -39 40 -2 51 55 44 -34 -38 -43 52 -41 -24 -44 -31 -33 60 57 -37 -45 -36 -55 -49 -32 -56
right_child=29 2 4 13 8 6 -8 -9 9 -11 -12 28 -14 20 -16 21 19 25 -20 27 -22 26 49 -25 -26 -27 -28 -29 -30 31 35 36 43 -35 54 42 37 38 -40 48 -42 46 50 56 -46 -47 -48 59 -50 -51 -52 -53 -54 58 61 -57 -58 -59 -60 -61 -62 -63
leaf_value=0.11712464393433256 -0.10117068704378168 0.059416821955666055 0.0064422403096735933 -0.0035290768033560509 0.05854479488214074 -0.045841472687665953 0.050726042047911771 -0.095211393505534481 0.0071372919113096003 0.060152953033462034 0.10936813940818556 -0.17357924633069038 0.13359845437166862 0.081749271387317524 -0.15383665477613848 -0.16245951790556376 -0.19004279562785897 -0.17069279295702355 -0.10151884145115285 -0.10238310221876629 0.17291518888409679 -0.10251767783127215 -0.10127329226953347 -0.19130719464425852 -0.15059500587157806 -0.2041879314266975 -0.17128802110721941 -0.1714011626319818 -0.18811523562557442 -0.10124816782044546 -0.10092118971350708 -0.10167780038071612 -0.10108782156005068 -0.10205878491949645 -0.10142805426802448 -0.1011794416039412 -0.10116439466312993 -0.10158166823076231 -0.10096723419200811 -0.10109414546299944 -0.10124271828601401 -0.10144958254069399 -0.10096917225675116 -0.10130611637248217 -0.10120159850078508 -0.10164273374096414 -0.10135838742964585 -0.10138065372210706 -0.10117781698962057 -0.10145133060949668 -0.10064942270645821 -0.10137707289046421 -0.10152722987621798 -0.10078062954026723 -0.10145630766778393 -0.10103127914054096 -0.10149932604599828 -0.10135562704115196 -0.10063403606944742 -0.10126471776940925 -0.10087561161373199 -0.10147445577371857
leaf_weight=205.53624503267929 126.32753589469939 1042.8491374976002 9186.3631224413402 179.14711873233318 9747.7576441187412 1704.2799301100895 42927.891188992187 1490.3224009396508 6327.6700784652494 20165.178579285741 5229.6472405735403 64.725885901600122 3214.1696160594001 34.894962966442108 319.77970548160374 99.109698963817209 88.454783516936004 26.721726696938276 28.235411003697664 61.790633621625602 53.240541905164719 5.84432304278016 6.4999373415485007 56.602995470166206 12.280491121113299 23.689411401748657 0.74362423270940858 0.41927908547222514 3.7044958472251883 7.4003063384443521 0.74098517559469002 7.6497937999665737 9.4416953301988595 7.6421628724783632 3.070561971049754 7.0371340494602901 2.8686853959225123 5.4040815513581038 0.64839616976678183 18.411805956624452 100.52652606740594 21.286569899879396 4.0897375484928489 0.50411493238061655 19.256785506848246 0.36481668055057515 14.783493644557891 0.26798024028539735 11.271843041293321 1.7808926794677971 0.34035824798047531 1.98148780595511 1.3163754120469091 2.1801350540481503 0.28085140045732204 0.69696487113833416 1.0270556630566705 7.6899071549996734 0.16189593076705922 0.24325322266668081 9.695268602576105 2.1478775134310126
leaf_count=236 11092 2790 31762 691 19388 5781 81321 4948 17770 54206 4187 380 2403 42 1384 464 512 153 1966 3407 16 250 525 228 57 95 4 3 15 610 82 473 896 394 223 613 256 359 69 1720 8306 1514 433 40 1657 23 1128 20 981 127 54 148 89 284 20 69 72 585 26 20 1127 150
internal_value=0 0.0470759 0.0477836 0.0899075 0.0456453 0.0364629 0.0470386 -0.00774725 0.057892 0.0474905 0.0762907 0.110841 0.115426 -0.0643327 -0.0998665 -0.0680008 -0.0296316 0.041553 0.0907164 -0.15378 0.13682 -0.164262 -0.169329 -0.172946 -0.185234 -0.186433 -0.105865 -0.102848 -0.174366 -0.101223 -0.101184 -0.101346 -0.101302 -0.102258 -0.101204 -0.100969 -0.101526 -0.101412 -0.101516 -0.101194 -0.101203 -0.101384 -0.101085 -0.101178 -0.101164 -0.101218 -0.101412 -0.101638 -0.101126 -0.101312 -0.100945 -0.101275 -0.101656 -0.100859 -0.101394 -0.101166 -0.101436 -0.101376 -0.10077 -0.101325 -0.100879 -0.101472
internal_weight=0 102317 101692 4912.51 96779.1 55308.9 44632.2 10676.7 41470.3 26492.8 14977.4 4325.45 4257.02 587.062 498.927 625.352 447.128 284.183 233.772 162.945 88.1355 178.224 163.994 155.713 100.735 50.4111 14.2301 62.2099 68.4304 389.114 294.669 94.4449 75.6815 13.4865 269.727 24.9425 18.7634 9.28598 6.05248 256.538 226.854 45.4519 12.1642 30.2297 28.6985 3.2335 36.0701 9.4774 29.6836 8.28083 4.4301 9.38179 8.96617 12.7783 13.1892 7.7341 1.53117 10.7605 2.34203 0.511233 10.4363 2.42873
internal_count=268644 235505 227084 7721 219363 123812 87102 36710 95551 71976 23575 5588 5193 2133 2075 8421 6429 2450 2202 3979 58 1992 1344 692 569 248 648 3410 395 33139 25765 7374 6065 644 23077 2688 1309 707 428 22099 19398 3400 1169 2665 2553 279 2642 602 2701 652 487 758 562 1519 978 682 112 808 310 40 1209 170
is_linear=0
shrinkage=0.1


Tree=11
num_leaves=48
num_cat=0
split_feature=131 134 136 73 32 106 108 52 77 31 90 21 77 29 103 59 37 107 31 71 30 38 71 74 38 72 36 71 103 29 37 74 72 30 75 49 72 72 36 61 36 106 31 38 103 26 64
split_gain=756.006 729.283 685.15 1992.12 1961.95 1358.55 1070.43 1213.61 861.495 852.945 916.524 901.606 772.042 744.73 489.987 375.969 97.4126 0.00176507 0.000811328 0.000365667 0.000364117 0.000168683 0.000139503 0.000131373 9.23819e-05 5.59354e-05 5.68686e-05 5.45034e-05 4.00178e-05 3.71207e-05 3.3159e-05 2.96762e-05 2.36045e-05 1.85773e-05 1.83889e-05 1.7598e-05 1.5461e-05 1.37622e-05 1.13979e-05 1.02827e-05 1.02023e-05 7.91149e-06 3.88804e-06 1.65908e-06 1.34849e-06 3.79479e-07 2.75078e-07
threshold=1.0000000180025095e-35 1.0000000180025095e-35 1.0000000180025095e-35 -0.8479885160923003 0.95133098959922802 -0.84931179881095875 -0.89844417572021473 1.1302950382232668 -1.2080431580543516 1.0135249495506289 -1.1539410352706907 1.3043079376220705 -1.2819329500198362 1.1537784934043886 -0.88246002793312062 0.88660344481468212 0.85875853896141063 -1.0222064852714536 0.89573729038238536 -0.39863583445549006 1.0659784674644472 0.97609949111938488 -0.43194364011287684 -1.0524590015411375 0.96608003973960888 -0.55572688579559315 0.92976865172386181 -0.36651177704334253 -0.85741314291954029 1.1537784934043886 0.96910721063613903 -1.0524590015411375 -0.60979306697845448 1.0308129787445071 -0.78066217899322499 1.1699276566505434 -0.60979306697845448 -0.53428247570991505 0.91527733206748974 0.66058626770973217 0.92976865172386181 -0.84173402190208424 1.0009298324584963 0.97994771599769603 -0.87893131375312794 1.437476694583893 0.26187652349472051
decision_type=2 2 2 2 2 2 2 2 2 2 2 2 2 2 2 2 2 2 2 2 2 2 2 2 2 2 2 2 2 2 2 2 2 2 2 2 2 2 2 2 2 2 2 2 2 2 2
left_child=1 2 6 13 12 -6 9 8 -8 10 -1 -11 -5 16 -15 -9 -4 28 31 20 21 -20 24 -22 29 26 39 30 -2 38 -21 45 43 36 -29 42 -33 -37 -3 -24 -34 -28 -27 -26 -31 46 -19
right_child=17 22 3 4 5 -7 7 15 -10 11 -12 -13 -14 14 -16 -17 -18 18 19 27 23 -23 25 -25 32 35 41 34 -30 44 -32 33 40 -35 -36 37 -38 -39 -40 -41 -42 -43 -44 -45 -46 -47 -48
leaf_value=-0.11944783087403599 -0.10393103757748566 -0.10108686489407209 -0.10610777375673018 -0.14287795949415003 -0.034571466303576812 0.041701106435130426 0.051539306024929538 -0.060581594783246866 0.083056487500687337 -0.18591624367855844 0.032532473788921989 0.10981055371573607 0.083471672652766227 -0.065753660844245221 0.086857928283074634 0.075842319548742113 -0.18292970356596627 -0.10085125135992717 -0.10147097624720756 -0.10227119525603745 -0.1014216742879718 -0.10117981532610586 -0.10115255413675234 -0.10167667370074268 -0.1007945088981682 -0.10149566764891167 -0.10105217150552384 -0.1024040125999397 -0.10488300731329375 -0.10124362250008397 -0.10175704859514972 -0.10104890299784333 -0.10105390417518866 -0.10178943358905367 -0.10295925832875362 -0.10110110547169666 -0.10178768455813832 -0.10136958433919639 -0.10101762630358165 -0.10127602700449119 -0.10085392133021583 -0.10129726986987041 -0.10119778305609016 -0.1006966362671194 -0.10133029031117524 -0.10100866380303619 -0.10089993832664722
leaf_weight=401.22245221957564 0.68593225441873062 205.48910998925567 259.48720981925726 154.31662218458951 4292.2049494385719 5122.0270945653319 32201.986125742085 1114.2739300807007 11869.528108377941 108.47294065356255 35981.115929386579 2079.1970898248255 6409.8984368722886 733.73413318395615 294.95421819388866 246.74124138848856 453.59504136024043 8.3924760981462878 138.54715883079916 2.5362900234758854 23.568788844160736 23.234728023409843 8.4987827204167825 141.50122456764802 9.45061206771061 8.1250658240169287 25.994774344842885 2.1939572347328071 1.2395576210692514 9.7485845866613072 2.4818034786731005 18.471512314397849 7.0054758265614492 0.35600159876048465 0.81917030550539305 2.929014268796891 0.28768587671220203 5.4840077888220531 26.886204831302166 32.679195512086153 4.0119374743662775 1.3872576183639456 0.46313721965998489 2.120632558129727 2.2005291562527409 0.17005644552409727 1.3466702755540616
leaf_count=1459 21 19398 2031 603 9608 6845 52209 5095 15435 408 101645 1393 7754 2021 339 604 1863 1003 9936 120 1727 2196 758 8851 1209 562 2553 99 29 808 163 1808 682 21 31 279 17 428 2701 2642 487 112 40 310 170 18 153
internal_value=0 0.0424876 0.0429851 0.0251163 0.0361864 0.00692636 0.0467545 0.0571555 0.0600276 0.034503 0.0308564 0.0951473 0.0781505 -0.0764373 -0.0219956 -0.035849 -0.154975 -0.101524 -0.101508 -0.101552 -0.101536 -0.101429 -0.101105 -0.10164 -0.10107 -0.101217 -0.101176 -0.102219 -0.104544 -0.101088 -0.102017 -0.101001 -0.100876 -0.101074 -0.102555 -0.101379 -0.10106 -0.101276 -0.101079 -0.101251 -0.100981 -0.101065 -0.10148 -0.100777 -0.10126 -0.100861 -0.100858
internal_weight=0 102075 101723 17720.2 15978.4 9414.23 84002.5 45432.5 44071.5 38570 36382.3 2187.67 6564.22 1741.77 1028.69 1361.02 713.082 365.833 363.908 334.883 326.852 161.782 352.474 165.07 266.913 85.5612 68.56 8.03122 1.92549 244.324 5.01809 29.0244 22.5887 19.1152 3.01313 17.0012 18.7592 8.41302 232.375 41.178 11.0174 27.382 8.5882 11.5712 11.9491 9.9092 9.73915
internal_count=268644 242451 209312 31064 24810 16453 178248 73343 67644 104905 103104 1801 8357 6254 2360 5699 3894 26193 26143 23123 22710 12132 33139 10578 25765 7374 6065 413 50 23077 283 3020 2688 1846 130 1309 1825 707 22099 3400 1169 2665 602 1519 978 1174 1156
is_linear=0
shrinkage=0.1


Tree=12
num_leaves=63
num_cat=0
split_feature=71 38 136 39 70 136 72 30 36 133 36 36 31 106 90 133 31 59 42 136 133 71 53 71 40 104 128 105 37 73 103 30 32 56 133 107 31 29 39 122 69 72 103 102 0 38 15 104 98 72 115 30 35 39 36 39 14 56 50 105 60 24
split_gain=685.841 3385 1669.7 1325.2 1422.94 1342.22 1271.01 1211.74 1114.75 1024.39 1226.89 954.538 893.302 1046.47 1063.97 869.732 834.664 697.271 785.252 875.664 710.913 692.78 587.428 554.147 815.777 980.475 692.451 475.63 639.468 1560.79 633.195 463.77 446.173 434.743 417.769 595.302 411.763 408.146 404.419 381.69 352.569 323.233 296.699 462.544 288.786 280.283 600.851 246.827 186.02 149.005 132.77 125.066 125.036 122.034 105.04 98.9656 200.718 58.4955 174.453 58.1721 24.6621 3.65323
threshold=-0.43809923529624933 0.94223406910896312 1.0000000180025095e-35 0.98968976736068737 -0.22406451404094693 1.0000000180025095e-35 -0.65369138121604908 1.054990351200104 0.92976865172386181 1.0000000180025095e-35 0.92088666558265697 0.94059187173843395 1.0088524222373965 -0.90098950266838063 -1.139126121997833 1.0000000180025095e-35 0.99069854617118847 0.80308228731155407 1.043279826641083 1.0000000180025095e-35 1.0000000180025095e-35 -0.40725125372409815 1.1137008070945742 -0.48700821399688715 0.94980803132057201 -0.86047935485839833 1.0000000180025095e-35 -0.92001652717590321 0.97614082694053661 -0.72915297746658314 -0.7892010211944579 1.0457907319068911 0.89049386978149425 0.95730862021446239 1.0000000180025095e-35 -0.87121096253395069 1.0075246095657351 1.1905830502510073 0.97096508741378795 -1.6626661419868467 -0.092991419136524187 -0.62414711713790882 -0.84544384479522694 -0.86121901869773854 0.26801460981369024 0.9591626524925233 0.95957857370376598 -0.79936265945434559 -0.59190264344215382 -0.61059862375259388 -1.3236831426620481 1.0948610901832583 0.85972031950950634 0.9645906686782838 0.89552521705627453 0.9645906686782838 0.92913439869880687 1.0101805329322817 1.1242061257362368 -0.97459402680397023 0.73198342323303234 1.2475455999374392
decision_type=2 2 2 2 2 2 2 2 2 2 2 2 2 2 2 2 2 2 2 2 2 2 2 2 2 2 2 2 2 2 2 2 2 2 2 2 2 2 2 2 2 2 2 2 2 2 2 2 2 2 2 2 2 2 2 2 2 2 2 2 2 2
left_child=1 7 6 17 5 11 42 23 40 10 -8 15 13 14 -9 -5 -15 18 32 20 -20 -13 45 26 39 -26 37 57 30 -30 -29 -28 61 55 35 -14 -21 -1 41 -25 -7 -35 43 -3 -34 48 -47 -10 -19 -40 52 -11 -24 -44 -36 56 -4 58 -6 -59 -57 -2
right_child=3 2 33 4 27 8 9 12 47 51 -12 21 34 16 -16 -17 -18 22 19 36 -22 -23 50 24 25 -27 31 28 29 -31 -32 -33 44 38 54 -37 -38 -39 49 -41 -42 -43 53 -45 -46 46 -48 -49 -50 -51 -52 -53 -54 -55 -56 60 -58 59 -60 -61 -62 -63
leaf_value=-0.077500496586156584 -0.10528906680362063 -0.13494578847647762 0.023190190296785641 0.051141477329916335 0.20078774195568744 -0.12095606970863604 0.043088972128845188 -0.11342541463780263 -0.18312401748063295 -0.17709984795643613 -0.048255690448487487 -0.10056066064282876 0.02738053807706228 0.072583841847908934 0.025851633791234077 -0.090906375791233729 0.036437975297153612 0.12554764352173878 0.07978293195178765 -0.25792062138549016 -0.061773918619617278 0.014322240675995211 -0.13326521972791505 -0.14364378764883848 -0.12522558559724226 0.038095671501223415 0.12000535388738753 0.01675106407991013 -0.06822353075469198 0.049894210521569914 0.078762368286931728 -0.16431455175111745 0.14223332991278778 -0.20391978942905095 0.11478839454319918 0.10786979487119092 0.050721171049559789 0.067499478250076947 -0.17998092550404557 0.13334974996999002 0.069465588061070713 0.14588169511290125 -0.048507560042234804 0.083629017199887107 0.067387405340009393 0.09640295328762824 -0.039305933631735686 -0.0089422763900868455 -0.13662932622351817 0.036405533983389804 -0.14754936532937918 0.1560744789739448 0.19294319578233432 -0.16090181824004979 -0.026562914807790883 -0.20455407566291944 -0.20843673350513267 0.020939738052679638 -0.17337292298906395 0.14207404306683388 -0.15818517888867378 -0.15751020726121545
leaf_weight=1869.5738367871381 16.516069027595222 213.57602479076013 68.136078536510468 5598.2006744965911 26.305450094863772 127.96207490563393 4889.3992825085297 568.34235423570499 706.02402534335852 316.21861299872398 2102.7918353928253 960.44560688454658 2277.2296118033119 12041.723281929269 15703.970113159157 466.99544169008732 13607.603834097274 3131.4824316021986 865.11966211721301 182.25347405672073 601.40669211000204 1157.5343203218654 20.858741408213973 53.484295799396932 518.46571482997388 1263.0537977823988 369.81516157463193 2088.5100299250335 1402.014058791101 5535.9743996085599 7782.6495529846288 67.904611203819513 631.12698766682297 33.314335666596889 2540.8049610853195 1540.4890382159501 56.664506196975708 216.61625809734687 165.51555899530649 712.04364323383197 404.88929854333401 127.57966907322407 114.21758069470525 177.09905676171184 2814.1516500134021 3086.2944304579869 364.81427673716098 91.951131500303745 27.298642819747329 39.397785164415836 116.19773296266794 11.682978630065916 26.908115983009338 626.40494766319171 53.683069795370102 497.99358845967799 82.966170699335635 42.001191303133965 23.677795663941652 706.48617724515498 149.02940850518644 70.919495390728116
leaf_count=14699 724 1963 102 15075 9 407 16389 2267 2982 1427 11075 4691 7458 17481 32583 1761 40564 2660 3986 789 2041 3049 164 315 2938 3809 893 4500 4640 10430 29323 318 874 140 1205 2268 60 462 718 1628 441 48 489 646 4580 2905 821 220 290 65 572 1 13 4649 97 2070 346 95 116 251 587 475
internal_value=0 0.0314271 -0.0231925 0.0482819 0.0360353 0.00487478 -0.00772796 0.0412611 -0.088264 0.00751748 0.0156185 0.0200219 0.0461401 0.0408232 0.0209871 0.0402044 0.0534076 0.0759331 0.048535 -0.00719009 0.021732 -0.037774 0.0971199 -0.00524348 0.0276633 -0.00943481 -0.038452 0.0528724 0.0492903 0.0260252 0.0656422 0.0758981 0.0754367 -0.135481 0.0809008 0.0598588 -0.18472 -0.0624447 -0.0452076 0.113997 0.0237366 0.0734526 -0.106374 -0.0358624 0.0810981 0.101758 0.0820573 -0.163053 0.123282 -0.138377 -0.0898542 -0.165229 0.0504951 -0.143569 0.111864 -0.176857 -0.10399 0.128282 0.0235424 0.135277 -0.193874 -0.147646
internal_weight=0 63020.1 9615.32 39133.6 27121.6 9514 8451.39 53404.8 1330.83 7320.09 6992.19 8183.18 48333.8 41921.6 16272.3 6065.2 25649.3 12012 5238.16 1705.44 1466.53 2117.98 6773.85 5070.96 2547.05 1781.52 2523.91 17607.6 16809.1 6937.99 9871.16 437.72 3532.71 1163.93 6412.21 3817.72 238.918 2086.19 365.807 765.528 532.851 160.894 1131.3 390.675 3445.28 6609.89 3451.11 797.975 3158.78 204.913 163.965 327.902 47.7669 740.623 2594.49 798.125 151.102 798.471 49.9832 748.487 647.023 87.4356
internal_count=268644 169700 40715 98944 77990 28626 36639 128985 4050 28892 27464 24576 103923 92895 34850 16836 58045 20954 13529 6876 6027 7740 7425 25062 8690 6747 16372 49364 48893 15070 33823 1211 6653 4076 11028 9726 849 15161 971 1943 848 188 7747 2609 5454 6676 3726 3202 2950 783 749 1428 177 5138 1302 3105 448 471 125 346 2657 1199
is_linear=0
shrinkage=0.1


Tree=13
num_leaves=61
num_cat=0
split_feature=74 73 30 72 38 136 1 114 127 96 127 40 105 112 121 38 0 58 71 29 130 4 100 72 29 107 58 94 97 77 74 112 131 129 73 25 2 118 118 30 131 118 108 31 31 30 29 74 29 60 74 74 29 31 108 74 108 107 29 71
split_gain=645.186 729.505 1104.73 830.183 2029.64 1449.36 1279.07 1232.65 1121.3 751.422 1434.37 693.669 566.748 334.657 884.185 333.429 319.874 312.147 300.265 294.623 293.572 413.564 368.081 269.599 258.757 242.912 199.143 167.606 153.17 152.617 138.243 137.077 109.217 73.8863 57.9633 111.903 45.1418 16.7401 12.0099 9.88843 3.86966 2.99482 1.93955 1.82218 0.677957 0.532611 0.518515 0.395224 0.23531 0.190766 0.0942793 0.0923653 0.085619 0.0654445 0.0222957 0.0215287 0.0191884 0.00821245 5.01664e-05 4.83913e-05
threshold=-1.0486711263656614 -0.92101135849952687 1.0922546386718752 -0.61306679248809803 0.94223406910896312 1.0000000180025095e-35 0.39547236263751989 -0.99831929802894581 -1.4973867535591123 -0.93761053681373585 -1.7749383449554441 0.94980803132057201 -0.90647730231285084 -0.92379367351531971 -0.97573328018188465 0.98543992638587963 0.64372381567955028 0.90341511368751537 -0.44579897820949549 1.2071702480316164 1.0000000180025095e-35 0.7178063988685609 -0.9310304820537566 -0.81103530526161183 1.2418293952941897 -0.89848232269287098 0.85795584321022045 -1.0868455171585081 -0.92874494194984425 -1.1442628502845762 -1.0274183750152586 -0.90808278322219838 1.0000000180025095e-35 1.0000000180025095e-35 -0.88343825936317433 1.2876572012901308 0.68906694650650036 -0.85452660918235768 -0.85452660918235768 1.0554410219192507 1.0000000180025095e-35 -0.85452660918235768 -0.89761120080947865 1.0012375712394717 0.98238679766654979 1.0673980712890627 1.2356462478637698 -1.0524590015411375 1.1335846781730654 0.61912399530410778 -1.0524590015411375 -1.0570929646492002 1.1138245463371279 1.0006129145622256 -0.83845537900924672 -1.0524590015411375 -0.83845537900924672 -0.83404254913330067 1.1308742761611941 -0.48700821399688715
decision_type=2 2 2 2 2 2 2 2 2 2 2 2 2 2 2 2 2 2 2 2 2 2 2 2 2 2 2 2 2 2 2 2 2 2 2 2 2 2 2 2 2 2 2 2 2 2 2 2 2 2 2 2 2 2 2 2 2 2 2 2
left_child=20 2 13 4 6 7 12 -6 -8 15 11 -11 -3 14 19 26 23 -17 -7 -2 21 22 32 29 27 -25 -5 -15 36 -4 -26 -12 33 -1 40 -36 -18 42 -16 41 -24 52 46 48 -44 50 -23 -47 53 54 -45 -50 55 -41 -39 -22 -43 -54 -34 -58
right_child=1 3 16 9 5 18 8 -9 -10 10 31 -13 -14 24 38 17 28 -19 -20 -21 39 37 34 25 30 -27 -28 -29 -30 -31 -32 -33 58 -35 35 -37 -38 49 -40 43 -42 56 44 45 -46 47 -48 -49 51 -51 -52 -53 57 -55 -56 -57 59 -59 -60 -61
leaf_value=0.12561804292812029 -0.022231999181946169 -0.12377074066713732 0.085150090303694664 0.045746357688794134 -0.10455918512800783 -0.16516651285589226 0.046929671949097418 0.01159446059720275 0.0092018511848360688 0.09900890815851722 -0.19151507149147362 0.036948894678363563 -0.0041466100274239019 -0.18913623891810177 -0.1946961732088538 -0.15589344591950105 -0.030256710479378775 0.081661234931378016 -0.060921585167663522 0.11971096936859447 -0.14628971360122753 -0.16601107346460675 -0.17038755753666979 -0.1748364778241126 0.20487059236367058 0.036973310109626387 0.087872331898980915 0.11781229012505288 0.21117836090729766 -0.17003458805759764 -0.16502305748839385 -0.08637758044668023 -0.10098199719661843 -0.012795727423232662 -0.15441814971964371 0.2279232163630904 -0.15967660424636979 -0.11624053246163715 -0.11484815174818266 -0.16230807045719731 -0.10115541041377814 -0.11456238200976183 -0.20227833086571817 -0.17715437396919054 -0.17948783038166416 -0.19551240158100658 -0.14334512063167543 -0.21699413136910364 -0.17301216913419659 -0.18332840787920296 -0.19211931414428862 -0.18495627462137898 -0.16136245643180044 -0.17498508671034985 -0.10172767488930234 -0.15395717260563141 -0.10200213621083228 -0.15547631116892197 -0.10137258237035518 -0.102320474003643
leaf_weight=243.40949477348477 193.66849952982739 663.98132879519835 310.65089867031202 1445.2280513942242 1038.2615466867574 671.32499399408698 31394.836146503221 7611.7060763430782 10516.452101978473 1903.3776520420797 191.51991758076474 33504.899000386707 981.49501800024882 17.898745383135974 124.20931679755449 119.61889042425901 30.871820546220988 102.89276614133269 469.58476896584034 596.99936637375504 24.565736636519432 50.300124232657254 77.984509037341923 117.13989911228418 12.680798530578612 100.68248874973506 5020.4891266333871 2907.5530969770625 12.837842896580694 25.348988203331828 49.721902385354042 351.79250553995371 3.7919909330084947 45.826927238143981 19.755154586397111 12.497534751892088 212.21474391361699 1.0849378942511965 22.204407754354179 24.826556179672483 9.005730099976061 1.3293638005852724 18.752387132495642 14.227891087532045 42.942416505888104 32.396079540252686 12.626332409214227 11.642464324831961 19.083020906895403 0.29087044578045507 5.9789370149373999 9.7990073561668378 4.6855263710021973 4.8713350892066947 43.53469315636903 4.3034736216068294 10.82050090003759 4.7971494495868665 24.759826357010752 8.5471058208495343
leaf_count=281 660 2989 463 1748 11462 2726 70054 22062 26230 2654 933 98968 4508 102 731 501 82 119 1296 506 114 280 446 638 1 191 4236 1963 2 121 209 1159 410 116 135 1 999 20 750 107 813 13 114 58 306 130 62 47 80 4 24 40 20 20 3039 19 568 21 1897 396
internal_value=0 0.0350242 0.0733432 0.0331341 0.0248197 -0.0163207 0.0340675 -0.00234754 0.0374629 0.0435364 0.0378107 0.0402849 -0.0524172 0.0952834 0.043143 0.0743142 -0.0330038 -0.0460446 -0.122261 0.084943 -0.0557896 -0.0223762 0.0290522 0.0097215 0.111636 -0.0769332 0.0784563 0.115934 -0.125462 0.0658981 -0.0898573 -0.123439 0.0852686 0.103688 -0.120767 -0.0062654 -0.14324 -0.154952 -0.182587 -0.167226 -0.16322 -0.133597 -0.173816 -0.183393 -0.186415 -0.195024 -0.161463 -0.201192 -0.170638 -0.102607 -0.181582 -0.177065 -0.150141 -0.164387 -0.102081 -0.147433 -0.10294 -0.158385 -0.101321 -0.102143
internal_weight=0 100722 4734.68 95987.5 53347.6 9790.88 43556.8 8649.97 41911.3 42639.8 35951.6 35408.3 1645.48 3924.94 937.082 6688.23 809.747 222.512 1140.91 790.668 788.437 606.563 437.031 553.822 2987.85 217.822 6465.72 2925.45 255.924 336 62.4027 543.312 317.788 289.236 119.243 32.2527 243.087 169.532 146.414 181.874 86.9902 59.0489 124.621 122.825 61.6948 64.2454 62.9265 44.0385 58.5799 44.9105 20.2068 28.882 38.3519 29.6979 44.6196 28.8692 20.697 9.48268 28.5518 19.3676
internal_count=268644 259063 7418 251645 141327 37546 103781 33524 96284 110318 103714 101622 7497 4922 2647 6604 2496 620 4022 1166 9581 7924 4099 1413 2275 829 5984 2065 1083 584 210 2092 2704 397 1395 136 1081 3825 1481 1657 1259 1151 762 506 420 259 342 177 247 3063 82 120 174 127 3059 133 977 41 2307 964
is_linear=0
shrinkage=0.1


Tree=14
num_leaves=62
num_cat=0
split_feature=132 71 39 136 127 39 31 105 53 62 38 72 102 135 30 7 73 127 136 54 90 39 122 93 104 117 71 31 28 105 101 87 116 30 37 120 29 30 71 72 111 0 115 39 105 81 70 72 75 39 105 72 33 39 59 60 41 42 72 35 102
split_gain=633.6 605.854 1315.41 639.29 1531.88 1438.59 879.886 1187.79 496.808 375.67 397.032 361.317 352.83 316.332 315.044 260.597 462.49 243.916 160.675 350.417 136.871 124.762 102.583 168.858 92.7615 56.8943 32.1436 16.8502 2.51665 1.25127 0.970281 0.484703 0.00925386 0.00146865 0.00019731 0.000182967 0.000135531 0.00017523 0.000207493 0.000126045 7.49879e-05 5.30605e-05 4.18559e-05 3.13654e-05 2.27296e-05 2.03034e-05 1.56708e-05 6.71121e-06 5.39744e-06 3.9515e-06 5.33359e-06 5.28078e-06 2.38758e-06 1.98005e-06 1.55083e-06 1.28252e-06 1.10198e-06 8.74217e-07 8.44726e-07 5.72089e-07 1.7019e-07
threshold=1.0000000180025095e-35 -0.34529274702072138 1.0334126353263857 1.0000000180025095e-35 -1.4872089624404905 0.99651244282722484 1.0071324706077578 -0.90780732035636891 0.99301636219024669 0.66158175468444835 1.0171951055526736 -0.54120609164237965 -0.72685098648071278 1.0000000180025095e-35 1.0744622945785525 0.47056280076503759 -0.68234288692474354 -1.8595848679542539 1.0000000180025095e-35 1.0663905739784243 -0.67691347002983082 1.0117495656013491 -1.4188818931579588 -0.88994529843330372 -0.92018765211105336 -1.3999257683753965 -0.37464897334575648 1.0016639828681948 1.0898662805557253 -0.76623621582984913 -0.76766633987426747 -0.52728861570358265 -1.3950893282890318 1.0302665233612063 0.86997562646865856 -1.5858485102653501 1.2356462478637698 1.0659784674644472 -0.48700821399688715 -0.55572688579559315 -0.88427218794822682 0.35098628699779516 -1.3878089189529417 0.97039636969566356 -0.90448191761970509 -1.0808982849121092 -0.20265588909387586 -0.61226943135261525 -1.0158712863922117 0.97039636969566356 -0.87563607096672047 -0.45123757421970362 0.860956370830536 0.98968976736068737 0.82283505797386181 0.74287036061286937 1.0198720097541811 1.0445673465728762 -0.45123757421970362 0.90861108899116527 -0.75152188539504994
decision_type=2 2 2 2 2 2 2 2 2 2 2 2 2 2 2 2 2 2 2 2 2 2 2 2 2 2 2 2 2 2 2 2 2 2 2 2 2 2 2 2 2 2 2 2 2 2 2 2 2 2 2 2 2 2 2 2 2 2 2 2 2
left_child=1 2 3 6 5 -5 7 -1 -8 22 11 -11 17 15 -6 20 -17 18 19 -3 -14 31 23 -4 -20 -23 -24 -12 30 -30 -19 -15 35 34 40 42 37 38 -35 44 47 -39 46 -41 -36 48 55 -34 -38 52 51 -51 57 -48 60 -2 -54 -37 -52 -56 -44
right_child=32 12 9 4 14 -7 8 -9 -10 10 27 -13 13 21 -16 16 -18 28 24 -21 -22 25 26 -25 -26 -27 -28 -29 29 -31 -32 -33 33 36 39 49 45 41 -40 43 -42 -43 54 -45 -46 -47 53 -49 -50 50 58 -53 56 -55 59 -57 -58 -59 -60 -61 -62
leaf_value=0.0041186590432428106 -0.10097168866361428 0.10054480128352045 0.079453190975795174 0.032093247601178501 -0.14798335181853564 -0.068793309438704653 0.096721507128619627 0.037344604850736061 0.048459019331125952 -0.10088889399611747 -0.1556120970258717 0.048401622335053525 -0.15863774796553903 -0.16546036171127088 -0.043736703307009704 -0.16441312824796991 0.15290311215924543 -0.11073853275950746 -0.014152673895123058 0.034097404034713182 -0.025386907284005805 0.017126167402868282 -0.1521845185096431 -0.16141997625509344 0.13347411667983242 0.18068252218462974 -0.23041916484470779 -0.062100951131700333 -0.26021635996687847 -0.21189561853819844 -0.19506518637585793 -0.12997772677631056 -0.10113229222030262 -0.10199997407347093 -0.10185871291510301 -0.10126746495169484 -0.10118274502434686 -0.10119154280836279 -0.10236187722413599 -0.10175669167627469 -0.10288959311076612 -0.10244359917918854 -0.10093743668657061 -0.10157652173894438 -0.10214173651750627 -0.10198633344457289 -0.10077276533707216 -0.10140452948984142 -0.10153132880246052 -0.1012837931715642 -0.101336717576683 -0.10107898286217594 -0.10162603392708525 -0.10088150736725106 -0.10110642928616381 -0.10104375842523448 -0.10140563347362537 -0.1014548003911105 -0.10145227208047192 -0.10118448922402901 -0.10103338247986343
leaf_weight=13443.899098724127 4.6386481458321196 1783.9676743783057 41.59507859731093 13719.505078498274 598.18315574387088 1575.7549633868039 2908.0507711051032 53881.011688022874 8001.6679052547552 240.29146106448025 222.02945120818913 498.29858616553247 163.92886229790747 6.8016782999038687 562.51142002642155 68.388729889877141 139.88192222081125 2.2739451862871647 45.526145935058594 1429.6907597579993 145.50878347922117 25.871397852897644 87.631476641166955 96.909102239180356 654.0670381039381 119.53898428380489 131.05843189824373 21.10122483689338 10.770810156129304 10.665730640292164 3.4116378277540234 8.8709254786372167 8.8236335953697544 43.949582607485354 6.748166368342936 0.72176446020603113 1.2050800230354071 0.34270392078906553 24.771715542301536 12.395663672126828 0.25729877967387338 27.41278079058975 0.20191384013742242 43.820934031158686 4.8965389123186451 0.58112453017383714 1.6935030631721009 1.0090955672785629 0.70351068675518047 5.4559856560081235 1.0871121296659114 1.6365177533589301 0.62834433093667019 149.11143070133403 6.8590743560343981 5.2795753134414554 0.35503502003848553 0.38038633763790131 1.5131747778505076 1.0877685593441127 2.1910555148497206
leaf_count=30843 488 1800 47 20641 3522 4724 3450 142626 18462 1178 1198 987 746 29 1374 332 143 71 90 3147 668 70 479 547 249 34 558 50 48 43 14 54 807 2320 386 59 106 31 1151 745 15 1186 22 2896 245 31 225 76 48 439 84 158 40 17232 636 520 26 27 108 96 217
internal_value=0 0.0315204 0.0298188 0.0312105 0.0132948 0.0216997 0.0349789 0.0307098 0.0613237 -0.0686062 -0.0366552 -0.000168266 0.0668957 0.000306876 -0.0974619 -0.0377721 0.0487077 0.0783667 0.080438 0.0709837 -0.0959784 0.12269 -0.156421 -0.0890818 0.123867 0.151583 -0.19907 -0.147496 -0.220487 -0.236174 -0.161339 -0.145377 -0.101426 -0.101942 -0.101617 -0.100927 -0.102197 -0.102216 -0.10213 -0.101678 -0.101204 -0.102428 -0.100901 -0.101616 -0.101978 -0.101469 -0.100888 -0.10116 -0.101311 -0.101308 -0.101281 -0.101237 -0.101433 -0.10088 -0.101096 -0.10101 -0.101546 -0.101332 -0.101404 -0.101117 -0.101025
internal_weight=0 100649 96029.5 94690.6 16456 15295.3 78234.6 67324.9 10909.7 1338.91 981.721 738.59 4619.17 678.791 1160.69 517.708 208.271 3940.37 3913.25 3213.66 309.438 161.083 357.194 138.504 699.593 145.41 218.69 243.131 27.1221 21.4365 5.68558 15.6726 359.759 176.918 77.9513 182.841 98.9665 96.4768 68.7213 67.8613 10.09 27.7555 171.063 56.2166 11.6447 2.48972 160.723 9.83273 1.90859 11.7783 9.69279 7.0925 2.08553 150.805 10.3398 9.91822 0.983379 1.10215 2.60029 7.94684 2.39297
internal_count=268644 238224 230686 225642 30261 25365 195381 173469 21912 5044 3413 2165 7538 2076 4896 1889 475 5462 5286 4947 1414 187 1631 594 339 104 1037 1248 176 91 85 83 30420 10043 5170 20377 4873 4688 3471 4272 898 1217 19436 3641 631 185 18465 883 154 941 789 597 152 17457 971 1008 66 86 192 732 239
is_linear=0
shrinkage=0.1


Tree=15
num_leaves=57
num_cat=0
split_feature=134 131 29 72 3 105 72 81 30 29 6 4 73 71 103 30 74 107 118 30 71 74 71 40 30 72 101 35 72 38 29 36 74 29 70 30 49 86 73 36 38 72 72 106 36 61 72 116 31 98 37 103 38 6 38 111
split_gain=584.659 585.521 559.252 691.613 1004.39 2827.54 901.365 647.676 564.889 324.735 314.877 312.826 238.45 131.569 128.932 56.5957 0.0266751 0.00269608 0.0010683 0.000448114 0.000506867 0.000277583 0.000256453 0.000169171 0.000136758 6.91354e-05 5.90229e-05 5.24684e-05 6.5442e-05 5.0728e-05 2.9733e-05 2.66519e-05 2.07632e-05 1.59323e-05 1.58425e-05 2.74446e-05 1.52482e-05 1.43091e-05 1.42285e-05 1.32328e-05 1.22234e-05 1.14592e-05 1.06378e-05 9.63163e-06 9.52712e-06 9.1263e-06 4.18305e-06 3.74924e-06 3.60081e-06 3.32476e-06 3.12459e-06 1.67251e-06 9.9263e-07 8.36072e-07 2.09235e-08 3.23741e-13
threshold=1.0000000180025095e-35 1.0000000180025095e-35 1.2356462478637698 -0.80749166011810292 0.6824743151664735 -0.94177156686782826 -0.78627645969390858 -1.0808982849121092 1.0958606004714968 1.2009814977645876 0.79175812005996715 0.72899875044822704 -0.95383808016777027 -0.69344043731689442 -0.94610443711280812 1.0786426067352297 -0.96762692928314198 -1.0222064852714536 -0.88261210918426503 1.0659784674644472 -0.40118728578090662 -1.0486711263656614 -0.43194364011287684 0.9886414408683778 1.033286511898041 -0.61306679248809803 -0.776973396539688 0.91464173793792736 -0.55572688579559315 0.96608003973960888 1.1537784934043886 0.92976865172386181 -1.0524590015411375 1.1537784934043886 -0.31221571564674372 1.0659784674644472 1.1699276566505434 -0.53126648068428028 -0.6797480285167693 0.92976865172386181 0.94223406910896312 -0.65369138121604908 -0.53428247570991505 -0.84173402190208424 0.92088666558265697 0.66058626770973217 -0.58419066667556752 -1.3950893282890318 1.0009298324584963 -0.99478390812873829 0.96910721063613903 -0.87893131375312794 0.97994771599769603 0.76736029982566845 0.96315425634384166 -1.2186621427536009
decision_type=2 2 2 2 2 2 2 2 2 2 2 2 2 2 2 2 2 2 2 2 2 2 2 2 2 2 2 2 2 2 2 2 2 2 2 2 2 2 2 2 2 2 2 2 2 2 2 2 2 2 2 2 2 2 2 2
left_child=1 2 3 8 6 -6 -5 12 9 -1 16 -10 14 -12 -4 -14 -9 26 19 20 -19 -21 23 30 32 29 -3 37 39 41 34 44 -20 -26 35 -2 48 38 45 46 -36 -25 -38 -41 -27 -24 -29 -40 -30 53 -33 -51 -31 -32 -39 -56
right_child=22 17 7 4 5 -7 -8 10 11 -11 13 -13 15 -15 -16 -17 -18 18 24 21 -22 -23 27 25 33 31 -28 28 36 52 49 50 -34 -35 40 -37 42 54 47 43 -42 -43 -44 -45 -46 -47 -48 -49 -50 51 -52 -53 -54 -55 55 -57
leaf_value=-0.029435409855689706 -0.10103725035327232 -0.10433581844014016 -0.13862008122683908 0.092708365050639452 0.11185409826647484 -0.10420431509807071 0.028339179239652752 -0.16254815215540608 0.045939021431318061 0.096305437754598669 0.02448270812098155 -0.16571096708077931 -0.066595262138445577 0.15617121464843298 0.18094752727035257 -0.15381128685118689 -0.17147143427207395 -0.10135645667205095 -0.10069485971387365 -0.10129626489345907 -0.10214331025134454 -0.10169581628216857 -0.10122027863378032 -0.10077306146825632 -0.10114933971836802 -0.10112327938090598 -0.10544643986517721 -0.10116445825093848 -0.10152452866297264 -0.10065711326259388 -0.10118488154772996 -0.10084106498346031 -0.10088919618896811 -0.10138919971299259 -0.10117729932126032 -0.10113970506398336 -0.10108032587196752 -0.10079265198768 -0.10122463626884839 -0.10106657266285216 -0.10107319117965788 -0.10093293918786256 -0.10139391667184863 -0.1013435199622021 -0.10101021544355381 -0.10134444658311231 -0.10132061522144159 -0.10153819323116078 -0.1012170195091948 -0.10126419653086782 -0.10049988884620172 -0.101361015748201 -0.10056630911018519 -0.10099313009882377 -0.1008356883743951 -0.10083550169526762
leaf_weight=221.56560602923855 59.174068157095462 0.73684099502861533 18.716517304070294 2228.885515332222 911.08883034065366 1807.1332266377285 90702.386310113128 3.5987991131842128 137.61173066869378 2813.1124863233417 141.27387241087854 141.78587515279651 90.839569442905486 163.87022723257542 38.791929945349693 411.20186857227236 48.47478833515197 140.02210266143084 8.4287446513771993 19.926648819353431 8.6950255017727596 136.48048619506881 7.2849486051127306 5.0924712857231489 9.9487542686983925 20.456279972568154 1.3648342913947988 3.7758132973685861 5.5631509562954289 6.6151857296936196 0.43679198063909908 4.0701593831181517 15.810105995275082 3.837400152347981 40.415509711951017 46.841444422490895 1.9064568709582088 0.16198780201375385 0.42061231844127167 25.423604313284159 15.642824030481277 37.464584028813988 2.5006571933627129 1.3210056410171116 11.724035901017485 31.578090928029269 3.1436199853196731 4.0839729327708474 0.4087678757496177 8.8073816741816682 0.28738677455112327 2.2374869966879478 1.4716828297823665 0.47430161945521832 0.21369163319468498 0.16434226371347904
leaf_count=1722 5843 21 131 2314 1037 9326 188638 17 233 2425 299 658 349 66 7 1888 202 11305 1241 1618 471 8484 613 676 907 1871 29 337 378 1023 38 499 1824 293 3516 4222 186 21 36 2474 1498 4113 188 103 1204 2434 245 278 35 720 59 169 264 50 26 20
internal_value=0 0.028517 0.0289664 0.0296866 0.0281305 -0.0317862 0.029883 -0.0487786 0.0745977 0.0871249 0.0564181 -0.061467 -0.115936 0.0952028 0.0769421 -0.13803 -0.170855 -0.101486 -0.101464 -0.101527 -0.101402 -0.101645 -0.101109 -0.10106 -0.100965 -0.100946 -0.105057 -0.101257 -0.10118 -0.10087 -0.101116 -0.101051 -0.100822 -0.101216 -0.101105 -0.101083 -0.101399 -0.101334 -0.101341 -0.101112 -0.101148 -0.100914 -0.101258 -0.10108 -0.101082 -0.101321 -0.101235 -0.101509 -0.101503 -0.101269 -0.100819 -0.101284 -0.100641 -0.101085 -0.100823 -0.100836
internal_weight=0 100226 99880.3 98963.6 95649.5 2718.22 92931.3 916.768 3314.08 3034.68 357.218 279.398 559.55 305.144 57.5084 502.041 52.0736 345.251 343.149 305.124 148.717 156.407 349.162 261.212 38.025 87.1818 2.10168 87.9507 44.0431 50.6439 174.03 36.5379 24.2389 13.7862 162.074 106.016 10.379 43.9076 43.3676 33.664 56.0583 42.5571 4.40711 26.7446 32.1803 38.863 6.91943 4.50459 5.97192 11.956 4.35755 11.0449 8.08687 0.911094 0.540022 0.378034
internal_count=268644 235505 209312 206353 201315 10363 190952 2959 5038 4147 584 891 2375 365 138 2237 219 26193 26143 21878 11776 10102 33139 25765 4265 9709 50 7374 3946 6076 16056 3633 3065 1200 15079 10065 787 3428 3361 3159 5014 4789 374 2577 3075 3047 582 314 413 977 558 889 1287 88 67 46
is_linear=0
shrinkage=0.1


Tree=16
num_leaves=63
num_cat=0
split_feature=108 32 75 135 73 30 31 93 74 38 31 94 13 52 95 30 36 108 133 3 53 7 128 83 59 102 72 122 29 30 86 31 0 72 45 72 95 109 88 79 74 52 31 130 32 104 31 69 78 3 85 83 31 30 4 120 30 74 29 75 133 72
split_gain=558.688 1135.24 1044.94 968.669 1691.01 1443.15 804.941 769.025 1298.84 846.43 724.804 709.4 769.606 691.006 687.289 635.815 624.914 664.475 524.365 1527.2 1325.06 507.368 466.401 368.719 356.963 341.822 332.145 294.289 283.562 281.56 298.544 274.097 418.635 270.931 248.484 301.838 342.72 242.845 322.505 202.019 198.162 186.733 152.657 137.83 258.831 88.3068 77.1434 62.5949 57.9579 55.9967 33.5271 77.4752 12.574 11.3171 5.36409 2.95076 1.97776 1.55654 1.45609 1.19352 0.988525 0.309717
threshold=-0.89232957363128651 0.95370927453041088 -0.95843824744224537 1.0000000180025095e-35 -0.84245216846466053 1.0711873769760134 0.98694691061973583 -1.1117585301399229 -0.98779711127281178 0.93328875303268444 1.0088524222373965 -1.0913192033767698 0.9163789451122285 1.1302950382232668 -1.0449864864349363 1.035914480686188 0.8917851746082307 -0.89844417572021473 1.0000000180025095e-35 0.66730758547782909 0.92852574586868297 0.66323521733284008 1.0000000180025095e-35 -1.2169421315193174 0.74119630455970775 -0.9465523064136504 -0.68587183952331532 -1.104519724845886 1.0728816986083987 1.0828756690025332 -1.2318809032440183 0.97736901044845592 0.6253097951412202 -0.69758814573287953 1.203393340110779 -0.48061391711235041 -0.80066576600074757 -0.88216969370841969 -1.1967542171478269 -1.2272024154663084 -1.0072686672210691 0.74483808875083934 1.0039743781089785 1.0000000180025095e-35 0.95201674103736889 -0.87866482138633717 1.0127905011177065 0.013527220115065576 -1.2487552165985105 0.63180905580520641 -1.2924344539642332 -1.3124676346778867 1.0009298324584963 1.0773289799690249 0.51649427413940441 -0.95222884416580189 1.0317984819412234 -1.0132158398628233 1.2356462478637698 -0.82553967833518971 1.0000000180025095e-35 -0.54120609164237965
decision_type=2 2 2 2 2 2 2 2 2 2 2 2 2 2 2 2 2 2 2 2 2 2 2 2 2 2 2 2 2 2 2 2 2 2 2 2 2 2 2 2 2 2 2 2 2 2 2 2 2 2 2 2 2 2 2 2 2 2 2 2 2 2
left_child=1 10 16 4 5 11 25 24 9 -9 14 12 -2 -10 31 -13 33 22 19 -16 -20 54 -18 39 55 56 -23 -26 -19 41 -31 32 -1 57 35 36 -4 38 49 40 -12 -27 -33 46 -45 -35 -25 -37 -40 -8 51 -39 61 -52 -7 -6 -5 -3 -58 -54 -41 -36
right_child=3 2 34 6 7 21 37 8 13 -11 23 15 -14 -15 18 -17 17 28 20 -21 -22 26 -24 43 27 29 -28 -29 -30 30 -32 42 -34 45 52 47 -38 50 48 60 -42 -43 -44 44 -46 -47 -48 -49 -50 -51 53 -53 59 -55 -56 -57 58 -59 -60 -61 -62 -63
leaf_value=0.079775958971598393 0.0535322426626752 -0.1527654581489708 0.045874535947159074 -0.15157628595282172 -0.23006215202527183 -0.16770256586433038 -0.10335394986768198 0.051774951039315092 0.039504574648286737 -0.11964643503373158 -0.14834396003185837 0.020610534137756816 -0.13285507146014305 -0.038277182250313513 0.043745867784909645 -0.09992334542980319 -0.089667933867456973 -0.18955847455346375 0.074464037758678922 -0.024025057147997186 -0.0071605894478852412 0.02962020580876934 0.009140367367949433 0.075572173219705982 -0.24431226020484589 -0.16698590401189617 0.12404362531723293 0.10195558999102311 0.0066275500580349382 -0.11070626989649124 0.070466705182069198 -0.13637941910045814 -0.19069802688147139 0.10170435756585179 -0.12154158710185477 0.15132000032993415 -0.084858053838213265 -0.20291316657035763 0.1598500028843195 -0.23653720794065089 0.037585237463733281 0.10670149347644527 0.0066170307891019828 -0.26808990542026295 0.12345425649059286 0.020090525127433149 0.11251680474799156 0.044158787962035644 -0.030503676443843358 -0.20503468269775055 0.17893748803671317 0.14721623152096436 -0.242910266122906 0.090651851661222166 -0.21678194006691728 -0.13212895954676368 -0.20816708924429983 -0.23131515196161462 -0.15299918523707864 -0.31463221989432433 -0.28011226160009406 -0.15235133346355442
leaf_weight=216.16549266315997 960.87758711026981 2.7594057554379097 1714.3771240490023 13.16237924620509 32.267160132527351 38.398249414749444 92.365723550319672 425.70872822124511 34514.847570061684 890.74865080183372 65.124413698446006 529.8598953790497 287.90944210696034 1181.2476160223596 19327.507822548505 2514.3634838564321 2980.3578933994286 76.697904606815428 2419.7603049725294 4016.0583740468137 11166.812819242477 2650.5609818263911 568.90971861034632 1091.1322885570116 24.818431765772402 25.114437848329544 433.45905999373645 2221.5880539231002 1868.3380348035134 124.76946176588535 335.5941915512085 441.14504636311904 77.827970718964934 383.31138451769948 3.5481761605478814 286.92494615912437 227.08870245050639 11.381865609437229 41.478656604886055 24.774613581597809 478.49242949299514 3382.8004241883755 89.864373096264899 30.212642058730125 38.267495825886726 202.67642616480589 1172.5641403542832 67.29226001817733 26.034912914037704 130.94147270545363 25.386203020811081 14.209997579455374 4.7560048550367355 33.920323684811592 53.01407110132277 3.4008967732079318 25.402876079082493 29.412680291570723 5.8943651169538489 4.5302667170762998 6.5911412239074698 40.5656349202618
leaf_count=247 2819 125 3294 66 132 188 277 735 60529 3849 638 3359 6122 4632 77077 13359 18967 348 2779 11682 26389 8206 1088 1401 131 107 304 2127 5533 369 348 1994 372 313 31 205 914 52 17 161 954 2586 333 130 18 542 797 143 56 563 3 9 20 40 405 91 103 287 27 21 29 201
internal_value=0 0.0177492 -0.0155757 0.032688 0.0285166 -0.0151021 0.0781747 0.0368069 0.0333332 -0.0642131 0.0246839 -0.0529081 0.0105604 0.0369306 0.0209792 -0.0789439 -0.037361 -0.0480859 0.0229958 0.0320865 0.00737671 0.0360096 -0.07383 0.0727975 0.0931464 0.0915999 0.0428914 0.09813 -0.00110858 0.0947687 0.0213645 -0.069291 0.00817423 0.0579642 0.0411109 0.0460712 0.0305831 -0.061636 -0.105074 0.00107318 0.0153112 0.104685 -0.11218 0.0904807 -0.0492905 0.0734765 0.094709 0.130962 0.0864449 -0.162977 0.0871618 -0.00850224 -0.172137 0.128443 -0.196166 -0.220724 -0.184099 -0.224578 -0.197777 -0.2779 -0.245694 -0.149873
internal_weight=0 49123.8 8461.55 51051.5 46763.1 7468.44 4288.46 39294.6 37012.6 1316.46 40662.3 4293.01 1248.79 35696.1 37755.1 3044.22 6112.46 5494.3 36930.1 23343.6 13586.6 3175.43 3549.27 2907.16 2282.07 3912.74 3084.02 2246.41 1945.04 3868.28 460.364 825.003 293.993 618.16 2349.08 2295.68 1941.47 375.719 290.821 574.983 543.617 3407.91 531.009 2332.18 68.4801 585.988 2263.7 354.217 67.5136 223.307 84.8984 25.5919 53.4001 59.3065 91.4123 35.6681 44.4596 32.1721 31.2972 9.28627 31.3658 44.1138
internal_count=268644 157033 32032 111611 106988 34762 4623 72226 69745 4584 125001 25659 8941 65161 120873 16718 27203 25936 117927 88759 29168 9103 20055 4128 2481 3606 8510 2258 5881 3410 717 2946 619 1267 4829 4556 4208 1017 913 1782 1592 2693 2327 2346 148 855 2198 348 73 840 104 61 273 43 593 223 196 412 130 41 190 232
is_linear=0
shrinkage=0.1


Tree=17
num_leaves=61
num_cat=0
split_feature=72 38 30 60 136 74 68 36 19 69 46 57 73 46 127 105 136 127 37 59 43 72 103 40 105 130 60 5 53 68 71 31 30 38 45 70 73 48 32 102 123 93 56 101 59 59 26 33 102 37 31 32 31 47 29 71 27 38 71 118
split_gain=581.329 1871.44 994.68 1178.54 1047.46 626.566 612.806 1523.43 650.759 572.019 513.819 812.055 638.316 865.523 737.595 543.439 573.495 624.242 502.439 464.848 462.089 875.03 394.117 413.238 547.147 382.923 355.614 477.141 291.735 248.734 219.363 202.78 193.546 191.97 185.754 155.299 150.937 172.561 139.444 358.709 148.797 172.482 132.712 94.4839 94.0437 256.442 85.1542 46.7219 104.558 34.0494 15.7115 6.15683 2.59545 1.30619 1.28357 0.854272 0.801439 0.268748 0.169399 0.0382346
threshold=-0.59156760573387135 0.97994771599769603 1.0533505082130434 0.74646741151809703 1.0000000180025095e-35 -1.0122078061103819 0.025412802584469322 0.91527733206748974 1.2032538652420046 -0.12730590254068372 1.1347180008888247 0.93571898341178905 -0.75542378425598133 1.1612118482589724 -2.0151066780090328 -0.88409695029258717 1.0000000180025095e-35 -1.8186897635459898 0.9682733714580537 0.82283505797386181 1.0659998059272768 -0.6303853690624236 -0.76410239934921254 0.96592414379119884 -0.92979207634925831 1.0000000180025095e-35 0.73050263524055492 0.6103937327861787 0.90966862440109264 -0.055337946861982339 -0.46553090214729304 0.98283472657203685 1.0367406010627749 0.96315425634384166 1.1266326904296877 -0.18305075168609616 -0.66385439038276661 1.1554750204086306 0.93417015671730053 -0.80569925904273976 -1.4720715284347532 -0.92631921172142018 0.95835366845130932 -0.86988812685012806 0.83002090454101574 0.83082810044288646 1.2211073040962221 0.91723212599754345 -0.80293929576873768 0.95838472247123729 1.0009298324584963 0.93467393517494213 1.0012375712394717 1.1302625536918642 1.0728816986083987 -0.3800452053546905 1.1388338804244997 0.99505904316902172 -0.43809923529624933 -0.85452660918235768
decision_type=2 2 2 2 2 2 2 2 2 2 2 2 2 2 2 2 2 2 2 2 2 2 2 2 2 2 2 2 2 2 2 2 2 2 2 2 2 2 2 2 2 2 2 2 2 2 2 2 2 2 2 2 2 2 2 2 2 2 2 2
left_child=1 2 3 4 5 -1 7 8 -4 -9 19 15 18 25 -15 36 17 -17 32 22 30 -22 23 29 -25 -14 27 -8 -6 -2 -5 -20 -13 -28 -18 43 50 -38 39 57 41 -40 -37 53 49 -46 -45 48 -41 -42 -12 56 -43 -21 -44 -53 -24 58 -3 -59
right_child=10 38 6 20 28 -7 26 9 -10 -11 11 12 13 14 -16 16 34 -19 31 35 21 -23 51 24 -26 -27 33 -29 -30 -31 -32 -33 -34 -35 -36 42 37 -39 40 47 44 52 54 46 45 -47 -48 -49 -50 -51 -52 55 -54 -55 -56 -57 -58 59 -60 -61
leaf_value=-0.11030812851141472 0.036561106060257927 -0.12463645871772099 0.090824763223243343 -0.14488179888081493 0.14911554444403147 -0.006283027486775331 -0.23895445612489741 -0.12421286002873254 0.02482880048110284 -0.015098608382911377 -0.1432344715649306 -0.043858581018701576 0.057130531543453204 0.034361676583770422 -0.054267501686211465 0.023461929778066562 0.029427820885619755 -0.17071948903395634 0.05416024482681904 -0.27584840494780427 -0.13256449284223293 0.031417508055349652 -0.12136083518080061 -0.10622330497086607 0.038293313836182175 0.11536798895943977 0.10133702271329637 0.057026134388893458 -0.1420682779985922 0.1178418100720335 0.11535747693598918 -0.13181119050694198 0.061304699539465525 0.038980541800853023 -0.14411356416704249 0.14382938184142441 -0.014228166101702952 -0.12786936616298536 0.16024187649672531 0.29786109216708945 -0.091410298723965763 -0.12151670851523094 -0.25028104087394076 0.085455752113006753 0.093737835149309501 -0.11900714943508042 0.13209635209516526 0.4531236359778551 -0.13171309162794972 -0.15655917941769756 -0.21437429175655009 -0.20160175899241498 -0.17795421837655259 -0.19819996143760371 -0.30101770232653369 -0.24958859021242652 -0.15560820774678791 -0.1172364280321818 -0.13715397623544492 -0.10105262924023668
leaf_weight=645.67368839494884 588.87512539420277 32.629190585110337 1540.8403472146019 33.934178824070841 35.786837834864855 5608.5796914040111 82.182293744757771 860.24279074463993 49276.958418486174 1088.2318750242703 182.46452969871461 280.72758818231523 4496.5065232980996 5625.7603888688609 1127.1274275309406 4082.8161945482716 76.521976932883263 172.55000819219276 67.59933339478448 4.0805957019329053 353.15779109764844 4141.6105680214241 7.5690925968810907 272.70414342079312 6662.0051567591727 1507.5731006264687 1763.1059189573862 161.49327427428216 892.73903058934957 1043.9251481117681 712.0298952255398 441.97978388099 464.70750822778791 685.72547395341098 317.96104206517339 12.172785326838492 349.28491111332551 216.40743466932327 41.314869630150497 22.664199657738209 94.132155932020396 19.698061806149781 14.180299140512945 1805.6940991915762 66.726207636296749 375.54473522980697 499.80207168031484 8.7286176681518537 7.5547635438852039 542.89332175347954 37.410138437990099 8.798971161246298 13.897406837902961 4.6182517874985933 7.6904917340725651 6.4141308367252341 70.269868290051818 25.081681795883927 16.168412122409791 1.5500209575984616
leaf_count=6764 1328 289 1893 211 1135 24757 435 5420 115920 3074 949 683 6374 29646 3471 12973 126 717 155 21 2232 8900 161 1135 13697 1125 1087 170 3599 1218 577 1804 616 995 1205 3 1877 2251 44 5 499 530 62 1500 107 1863 189 1 90 3293 178 37 305 20 37 27 332 222 88 222
internal_value=0 0.017899 0.0201479 -0.00542769 -0.0317364 -0.0170223 0.0258772 0.0235027 0.0268299 -0.0632721 0.0344804 0.0247078 0.0374349 0.0441294 0.0195685 -0.00810133 0.00489531 0.0155881 -0.0306134 0.0517438 0.0306302 0.0185333 0.0410438 0.043267 0.0326103 0.0717535 0.0724118 -0.0427966 -0.130846 0.0885276 0.103519 -0.107141 0.0217007 0.0838759 -0.11045 0.0912066 -0.0850297 -0.057702 -0.10244 0.00287992 -0.112877 0.0234097 -0.120823 0.0943257 -0.122336 -0.0869099 0.0955668 0.249332 0.190467 -0.146932 -0.155338 -0.16365 -0.144863 -0.234625 -0.268122 -0.221834 -0.152278 -0.124374 -0.128784 -0.116294
internal_weight=0 69150.9 67882.3 12423.5 7182.78 6254.25 55458.8 52766.3 50817.8 1948.47 30456.2 19447.4 14012 12757 6752.89 5435.42 4649.85 4255.37 1255.01 11008.8 5240.73 4494.77 8660.56 8567.51 6934.71 6004.08 2692.51 243.676 928.526 1632.8 745.964 509.579 745.435 2448.83 394.483 2348.24 785.567 565.692 1268.58 114.377 1154.21 74.9103 34.0436 2314.2 1079.3 442.271 2305.5 38.9476 30.219 637.025 219.875 93.0521 33.5955 8.69885 21.8708 15.2131 77.839 75.4293 48.7976 26.6317
internal_count=268644 184727 177169 48175 36255 31521 128994 126307 117813 8494 83917 64150 43874 40616 33117 20276 15021 13690 3258 19767 11920 11132 17935 17378 14832 7499 2687 605 4734 2546 788 1959 1299 2082 1331 1832 5255 4128 7558 917 6641 879 102 1730 5762 1970 1689 96 95 3792 1127 557 835 41 99 64 493 821 377 444
is_linear=0
shrinkage=0.1


Tree=18
num_leaves=63
num_cat=0
split_feature=132 72 30 4 36 128 59 37 69 45 59 59 136 31 36 73 40 46 76 111 135 72 104 100 104 107 71 37 73 96 29 31 116 30 72 40 30 71 115 29 40 111 105 71 71 107 32 120 120 105 39 76 70 105 105 59 40 69 32 2 107 35
split_gain=524.27 564.174 1730.16 1206.41 844.961 1056.46 943.968 646.283 654.24 631.426 926.895 592.297 553.319 548.735 622.245 495.714 961.019 532.649 475.852 458.339 433.446 560.003 334.283 316.025 225.261 199.749 85.4894 73.9074 73.385 156.814 48.087 19.6911 0.00768158 0.000979298 0.000231013 0.00037052 0.000299988 0.000202453 0.000145225 0.000141936 9.70477e-05 8.71675e-05 6.44446e-05 6.10754e-05 4.75837e-05 3.16276e-05 2.62595e-05 1.97108e-05 1.55494e-05 6.76281e-06 9.68621e-06 5.71602e-06 5.62659e-06 4.19844e-06 3.12722e-06 2.50246e-06 1.26175e-06 1.05743e-06 7.2234e-07 6.25437e-07 5.95345e-07 5.34834e-07
