tree
version=v4
num_class=1
num_tree_per_iteration=1
label_index=0
max_feature_idx=136
objective=binary sigmoid:1
feature_names=Column_0 Column_1 Column_2 Column_3 Column_4 Column_5 Column_6 Column_7 Column_8 Column_9 Column_10 Column_11 Column_12 Column_13 Column_14 Column_15 Column_16 Column_17 Column_18 Column_19 Column_20 Column_21 Column_22 Column_23 Column_24 Column_25 Column_26 Column_27 Column_28 Column_29 Column_30 Column_31 Column_32 Column_33 Column_34 Column_35 Column_36 Column_37 Column_38 Column_39 Column_40 Column_41 Column_42 Column_43 Column_44 Column_45 Column_46 Column_47 Column_48 Column_49 Column_50 Column_51 Column_52 Column_53 Column_54 Column_55 Column_56 Column_57 Column_58 Column_59 Column_60 Column_61 Column_62 Column_63 Column_64 Column_65 Column_66 Column_67 Column_68 Column_69 Column_70 Column_71 Column_72 Column_73 Column_74 Column_75 Column_76 Column_77 Column_78 Column_79 Column_80 Column_81 Column_82 Column_83 Column_84 Column_85 Column_86 Column_87 Column_88 Column_89 Column_90 Column_91 Column_92 Column_93 Column_94 Column_95 Column_96 Column_97 Column_98 Column_99 Column_100 Column_101 Column_102 Column_103 Column_104 Column_105 Column_106 Column_107 Column_108 Column_109 Column_110 Column_111 Column_112 Column_113 Column_114 Column_115 Column_116 Column_117 Column_118 Column_119 Column_120 Column_121 Column_122 Column_123 Column_124 Column_125 Column_126 Column_127 Column_128 Column_129 Column_130 Column_131 Column_132 Column_133 Column_134 Column_135 Column_136
feature_infos=[-1.8014661073684692:2.1873281002044678] [-1.7160434722900391:2.0962586402893066] [-1.6382262706756592:2.0136351585388184] [-1.5680137872695923:1.9394575357437134] [-1.5054070949554443:1.8737261295318604] [-1.4504051208496094:1.8164401054382324] [-1.4123568534851074:1.7937201261520386] [-1.3844102621078491:1.9274762868881226] [-1.3517893552780151:2.0758624076843262] [-1.3099035024642944:2.0974209308624268] [-1.2559221982955933:2.0165181159973145] [-1.1870334148406982:2.073509693145752] [-1.1039742231369019:2.1457490921020508] [-1.0067610740661621:2.2142360210418701] [-0.90047705173492432:2.2759943008422852] [-0.78966546058654785:2.4052433967590332] [-0.67814630270004272:2.5269482135772705] [-0.65620064735412598:2.5277442932128906] [-0.66012513637542725:2.5653238296508789] [-0.66667592525482178:2.5221147537231445] [-0.8555336594581604:2.4413206577301025] [-0.86833834648132324:2.3840618133544922] [-0.86565589904785156:2.2409591674804688] [-0.7797551155090332:2.1797337532043457] [-1.0841877460479736:2.1614029407501221] [-1.4308524131774902:2.0620582103729248] [-1.6366665363311768:1.9191513061523438] [-1.8254417181015015:1.7314887046813965] [-1.9454965591430664:1.5598906278610229] [-2.2033448219299316:1.3473584651947021] [-2.6534385681152344:1.1459542512893677] [-2.9375624656677246:1.0691677331924438] [-2.8964071273803711:1.0156075954437256] [-2.6209216117858887:0.99270999431610107] [-1.9672813415527344:0.99457055330276489] [-1.2877312898635864:1.0085221529006958] [-0.66328972578048706:1.2123075723648071] [-0.67049169540405273:1.4357191324234009] [-0.67192721366882324:1.5244829654693604] [-0.67710685729980469:1.237102746963501] [-0.67391806840896606:1.2342766523361206] [-0.77278417348861694:1.2273765802383423] [-0.78214722871780396:1.2647323608398438] [-0.67822211980819702:1.3808037042617798] [-0.67593681812286377:1.5838102102279663] [-0.67998087406158447:1.7493973970413208] [-0.67735743522644043:1.7343066930770874] [-0.68056988716125488:1.8940913677215576] [-0.67851173877716064:2.0411467552185059] [-0.68057990074157715:2.1347439289093018] [-0.67672491073608398:2.3221406936645508] [-0.68208664655685425:2.3866791725158691] [-0.6882440447807312:2.2922041416168213] [-0.69760811328887939:2.324758768081665] [-0.68820065259933472:2.0119130611419678] [-0.66555494070053101:1.663224458694458] [-0.62731093168258667:1.3776267766952515] [-0.79989981651306152:1.3641012907028198] [-0.9627259373664856:1.3483799695968628] [-0.83332031965255737:1.3266682624816895] [-0.58480948209762573:1.2987289428710938] [-0.60374623537063599:1.5017008781433105] [-0.63139909505844116:1.6471337080001831] [-0.66095739603042603:1.5962808132171631] [-0.79600465297698975:1.2496439218521118] [-1.0305129289627075:1.0751444101333618] [-1.2528316974639893:0.99085426330566406] [-1.6713657379150391:0.88485002517700195] [-1.8910553455352783:0.75389385223388672] [-2.0949718952178955:0.60495084524154663] [-1.9126988649368286:0.45876148343086243] [-1.7446892261505127:0.33052113652229309] [-1.674402117729187:0.23037496209144592] [-1.5101885795593262:0.15855956077575684] [-1.3374539613723755:0.30397361516952515] [-1.5611182451248169:0.84510332345962524] [-1.741243839263916:1.4404212236404419] [-1.902489185333252:1.2026444673538208] [-2.032371997833252:1.1285310983657837] [-2.1171634197235107:0.92254304885864258] [-2.1664650440216064:0.73609095811843872] [-2.193009614944458:0.28676301240921021] [-2.2026488780975342:0.33890664577484131] [-2.1982688903808594:0.39074629545211792] [-2.1793761253356934:0.5232703685760498] [-2.1451029777526855:0.47703936696052551] [-2.0946900844573975:0.50853937864303589] [-2.0287144184112549:0.53271615505218506] [-1.9487637281417847:0.67684948444366455] [-1.8579472303390503:0.56802195310592651] [-1.767259955406189:0.65060514211654663] [-1.8478662967681885:1.0689502954483032] [-1.6520191431045532:1.4172115325927734] [-1.5958865880966187:1.6280827522277832] [-1.5394163131713867:1.6645923852920532] [-1.4922878742218018:1.6165035963058472] [-1.4547033309936523:1.5594440698623657] [-1.4384253025054932:1.5584532022476196] [-1.4264529943466187:1.5636097192764282] [-1.5819015502929688:1.563044548034668] [-1.8758529424667358:1.5685317516326904] [-2.4619696140289307:1.5680602788925171] [-2.648137092590332:1.5700795650482178] [-2.4631106853485107:1.5662518739700317] [-2.0338072776794434:1.5674868822097778] [-1.4475361108779907:1.5623446702957153] [-1.1201972961425781:1.563502311706543] [-1.117332935333252:1.561995267868042] [-1.168958306312561:1.5723429918289185] [-1.225186824798584:1.5757462978363037] [-1.3164699077606201:1.5835809707641602] [-1.5990560054779053:1.5860384702682495] [-2.1418814659118652:1.5904401540756226] [-2.4733853340148926:1.5896482467651367] [-2.5047738552093506:1.5896980762481689] [-2.0072333812713623:1.5816894769668579] [-1.6131480932235718:1.5827864408493042] [-1.6321159601211548:1.7016431093215942] [-1.6864286661148071:2.5795986652374268] [-1.7459897994995117:2.8008601665496826] [-1.820858359336853:2.5472877025604248] [-1.9280952215194702:1.7488086223602295] [-2.1567583084106445:1.5763181447982788] [-2.3918964862823486:1.5743108987808228] [-2.6616356372833252:1.5721074342727661] [-2.9659750461578369:2.1645474433898926] [-3.3559722900390625:3.0688047409057617] [-3.8503069877624512:4.2020993232727051] [0:1] [0:1] [0:1] [0:1] [0:1] [0:1] [0:1] [0:1] [0:1]
tree_sizes=2081 6219 6577 6433 6572 6349 5403 5415 5067 5460 5421 5527 6322 5530 6692 6017 6599 6675 6314 6473 6546 6507 6899 5461 6482 6519 5582 6596 6352 6887 6534 6639 6453 6783 6160 6306 6137 6480 5471 6658 6939 5932 6660 6431 6912 6671 6895 6337 6951 6355 6579 6139 6710 6528 6920 6464 5476 6184 6252 6680 6720 6084 6561 5968 6095 6660 6706 6915 5348 6768 6653 6614 6591 6227 5830 5646 5762 6410 6435 5022 6214 5236 6886 6931 6290 6806 5863 6764 6775 7029 5836 6315 6230 6374 6391 4934 6741 6543 6555 6807 6219 5727 5052 5751 6797 6962 6873 6264 6036 5026 6274 5095 6445 6567 6618 6561 6254 6518 6677 6261 6775 5811 5149 6033 6447 6906 5733 6364 6586 4961 6004 5813 6686 6904 5083 6327 7054 6017 4950 6035 5922 6229 6875 5571 4827 6907 6526 5475 5687 6503 6579 6353 6914 5050 6115 5949 6232 6584 6357 6709 5797 5690 6599 6284 4814 5621 5447 6885 5477 6776 6958 6589 6232 5626 5483 6922 5841 5776 6802 5614 4478 5364 5944 6357 6704 6503 6745 6570 4863 5902 6865 6757 6798 6257 6713 6571 5554 6894 6473 6833

Tree=0
num_leaves=18
num_cat=0
split_feature=134 132 131 31 118 3 135 73 1 110 0 0 20 0 32 4 73
split_gain=460822 486013 472699 116137 68078.6 39758.8 37968.7 23260.9 8938.83 888.464 1.13687e-13 1.13687e-13 1.13687e-13 1.42109e-14 5.32907e-15 4.44089e-16 1.11022e-16
threshold=1.0000000180025095e-35 1.0000000180025095e-35 1.0000000180025095e-35 1.0013387799263003 -0.8541562259197234 0.44394722580909735 1.0000000180025095e-35 -0.80483931303024281 0.51581308245658886 -0.89221960306167591 0.50798833370208751 0.70781931281089794 1.7757301926612856 0.61530503630638134 0.86739060282707225 0.73279279470443737 -0.94003158807754505
decision_type=2 2 2 2 2 2 2 2 2 2 2 2 2 2 2 2 2
left_child=1 2 3 4 5 -1 7 -5 -8 -6 -2 -3 -4 -12 -13 -15 -14
right_child=10 11 12 6 9 -7 8 -9 -10 -11 13 14 16 15 -16 -17 -18
leaf_value=-1.5989862557784527 -4.0289190040214695 -4.0289190040214695 -4.0289190040214695 -0.65534498610456904 -3.0360595562385648 -0.93607325137107367 -1.6235395842524984 -0.058181956701945481 -3.711872414567456 -4.0289190040214695 -4.0289190040214695 -4.0289190040214695 -4.0289190040214686 -4.0289190040214695 -4.0289190040214686 -4.0289190040214695 -4.0289190040214695
leaf_weight=1157.0913264099509 550.22036742419004 562.85974561236799 495.39919636212289 1029.0061868205667 10.223376389592884 4148.3074435666203 56.968174196779728 1781.7377161551267 32.015407748520374 76.120513016358018 68.730171946808696 12.696226965636011 0.45479021966457367 0.39794144220650096 0.64428614452481348 1.4022698439657686 0.37899184972047706
leaf_count=33499 29036 29703 26143 20272 440 93140 1663 24671 1590 4017 3627 670 24 21 34 74 20
internal_value=-3.92695 -1.21542 -1.03095 -0.851521 -1.12598 -1.08065 -0.341186 -0.276802 -2.3749 -3.91136 -4.02892 -4.02892 -4.02892 -4.02892 -4.02892 -4.02892 -4.02892
internal_weight=0 9363.9 8787.7 8291.47 5391.74 5305.4 2899.73 2810.74 88.9836 86.3439 620.751 576.2 496.233 70.5304 13.3405 1.80021 0.833782
internal_count=268644 235886 205479 179292 131096 126639 48196 44943 3253 4457 32758 30407 26187 3722 704 95 44
is_linear=0
shrinkage=1


Tree=1
num_leaves=57
num_cat=0
split_feature=72 120 29 73 72 40 37 107 36 104 73 31 72 29 73 31 103 75 4 41 108 4 109 30 2 36 121 103 6 72 6 2 109 110 108 128 72 81 35 33 104 32 0 61 118 33 33 76 132 88 0 61 133 0 33 0
split_gain=8030.47 4543.98 4508.17 4034.84 3480.95 3968.59 3730.15 2457.9 3671.83 2228.38 1899.96 1835.84 1768.34 1766.97 1623.65 2446.01 1622.13 1444.46 1151.54 1141.86 2178.39 964.077 937.336 849.224 715.901 666.148 661.291 642 565.076 497.237 476.168 360.123 353.629 291.144 288.755 274.612 204.359 165.718 160.241 218.893 140.782 474.953 129.455 118.225 103.595 96.9458 230.075 13.4712 2.18308 0.0756966 0.0734349 0.00559523 0.000753236 0.000520452 4.44219e-05 5.68434e-14
threshold=-0.55382347106933583 -1.5868256688117979 1.1497199535369875 -0.52078387141227711 -0.60966986417770375 1.0111295580863955 0.97610267996788036 -0.86683154106140126 0.92577961087226879 -0.87401506304740895 -0.8438148796558379 1.0013387799263003 -0.57554665207862843 1.2352761626243594 -0.92142990231513966 0.97618910670280468 -0.87900224328041066 -1.017503499984741 0.51750278472900402 1.0193246006965639 -1.0520702600479124 0.53123766183853161 -1.0292083024978635 1.0733912587165835 0.66222119331359874 0.93426552414894115 -1.6187759637832639 -0.94626867771148671 0.79152542352676403 -0.55535465478897084 0.53171589970588695 0.41574442386627203 -0.89588680863380421 -0.89966461062431324 -1.0413490533828733 1.0000000180025095e-35 -0.53679364919662464 -0.97853848338127125 0.94207140803337108 0.92331701517105114 -0.92021831870079029 0.88810309767723095 0.38670475780963903 0.77932661771774303 -0.89573445916175831 0.90596702694892894 0.90693655610084545 -0.95673716068267811 1.0000000180025095e-35 -0.93301281332969654 0.38410875201225286 0.68156704306602489 1.0000000180025095e-35 0.53605657815933239 0.91140913963317882 0.13967801630496982
decision_type=2 2 2 2 2 2 2 2 2 2 2 2 2 2 2 2 2 2 2 2 2 2 2 2 2 2 2 2 2 2 2 2 2 2 2 2 2 2 2 2 2 2 2 2 2 2 2 2 2 2 2 2 2 2 2 2
left_child=2 45 4 11 5 9 7 8 -6 23 -11 19 -9 14 15 27 18 32 -16 26 -21 -18 47 -1 -17 -24 -3 -4 53 35 36 -31 44 -34 40 -8 -13 -30 39 -36 41 -5 -32 -42 -15 48 -47 -7 50 -40 52 -48 -2 -19 -53 -50
right_child=1 3 13 34 6 22 29 12 -10 10 -12 30 -14 17 16 24 21 28 -20 20 -22 -23 25 -25 -26 -27 -28 -29 37 31 42 -33 33 -35 38 -37 -38 -39 49 -41 43 -43 -44 -45 -46 46 51 -49 55 -51 -52 54 -54 -55 -56 -57
leaf_value=-0.020048264117620344 -0.11957669262900104 0.067464767051029412 -0.053680087153276372 0.56098459361032749 0.14529922768486422 0.53691207599607926 -0.13363484387016472 0.14672954600451824 0.010206302605461648 0.040433113889433013 0.11927186089990356 -0.11075248311121866 0.22042850007913925 -0.13892517112707095 -0.15008731290151633 0.12857157044402917 0.080816815830735536 -0.1382609366166313 0.14135166167803867 -0.075813343926629584 0.23278517186379474 0.21263774758349896 -0.02051983016332606 0.11157071954871499 -0.096812764905384111 -0.14708633263168611 0.36680757982525913 0.26869634924066171 0.26893680752804089 -0.13871407836193111 0.15267636059636405 0.24062768691512104 0.23860808931078964 -0.13907304584497346 -0.11589937595472635 -0.023285529598250108 0.051814017886572118 0.023640507253773493 -0.14266093001173688 0.5861773459928068 0.38572297875155304 -0.12003080396909008 -0.046362892549618229 0.56608614337965479 0.076752405312044344 0.56304936487741442 -0.12558769557541824 0.41097991196664974 -0.10177934831653918 -0.11906600969140678 -0.1392164699250997 -0.11966108750759435 -0.120210130215059 -0.13928910264971162 -0.12014746615660132 -0.10177934831653918
leaf_weight=2082.5570124164224 35.484738418832421 80.859383983537555 63.057402903214097 37.254431841894984 6804.3311856854707 15.395117968320845 426.65537748672068 10329.619027653709 2856.6142551172525 3639.4339522328228 19094.011925972998 123.45695813931525 4754.0755846872926 395.09471019729972 136.69545519910753 359.35043978318572 617.43239855766296 5.6067679673433295 16557.970628766343 236.3731742426753 7086.336945489049 5470.0364924557507 1347.9705888386816 641.12833593413234 231.86343295685947 601.36797451786697 845.29156872443855 3036.1332109458745 236.05992559343576 34.456536902114749 556.00589543022215 91.43656743131578 53.74254266358912 32.909106327220798 6.4268901888281169 478.36798528954387 206.94998935423791 31.179259724915028 1.6356170531362284 14.370312761515377 40.135378688573837 14.123203560709952 34.717429900541902 384.55911022238433 23.600861605256796 7.4292968977242735 2.145464524626731 18.950416620820761 333.71169253438711 8.0598240960389358 2.0234258472919455 2.3064335808157912 39.859498143196106 40.386236719787121 10.104121636599301 1.2195558045059431
leaf_count=14011 316 555 650 22 20806 8 2467 14290 12660 21353 55278 422 4855 2151 737 1878 1841 35 37651 2676 21483 8705 7213 1769 1292 4036 2032 3049 303 212 366 91 73 168 118 1766 354 108 11 5 102 108 98 195 98 6 14 34 19428 82 10 20 285 203 74 71
internal_value=0 0.222078 0.127527 0.236281 0.110581 0.0857938 0.13697 0.144735 0.105354 0.0964096 0.10665 0.221104 0.169958 0.160571 0.165046 0.226579 0.155078 0.0158704 0.138965 0.236055 0.222824 0.199268 -0.050441 0.0109335 0.0401799 -0.0595654 0.340673 0.262137 0.184597 -0.0494051 0.0872071 0.136803 -0.0887124 0.09517 0.511019 -0.0753075 -0.00892915 0.240318 0.212697 0.369217 0.530127 0.37378 0.140979 0.549041 -0.126768 -0.0943663 0.110239 0.467428 -0.105277 -0.123046 -0.120417 -0.120872 -0.119912 -0.139164 -0.120057 -0.101779
internal_weight=0 10110.8 80507.5 9676.56 53216.4 27440.8 25775.6 24744.6 9660.95 25457.1 22733.4 9169.99 15083.7 27291.1 26472.5 3690.4 22782.1 818.579 16694.7 8248.86 7322.71 6087.47 1983.68 2723.69 591.214 1949.34 926.151 3099.19 313.232 1030.92 921.13 125.893 505.347 86.6516 506.565 905.023 330.407 267.239 30.4926 20.7972 476.072 51.3776 590.723 424.694 418.696 434.284 21.9853 34.3455 412.299 9.69544 77.3677 14.556 75.3442 45.993 12.4106 334.931
internal_count=268644 48853 219791 28629 160849 103702 57147 52611 33466 92411 76631 27986 19145 58942 55803 6869 48934 3139 38388 26746 24159 10546 11291 15780 3170 11249 2587 3699 649 4536 1240 303 2490 241 643 4233 776 411 216 123 427 130 464 297 2249 20224 114 42 20110 93 611 108 601 238 94 19499
is_linear=0
shrinkage=0.1


Tree=2
num_leaves=60
num_cat=0
split_feature=72 36 132 45 71 36 38 136 71 64 30 61 31 29 136 75 4 72 102 47 16 60 128 28 72 37 62 67 72 111 27 129 72 103 65 28 53 33 31 31 131 3 3 32 102 117 108 41 120 108 41 72 121 73 41 32 72 108 22
split_gain=4491.32 4112.23 2988.17 2924.51 3725.95 3049.17 2459.06 2863.56 2096.33 1608.86 1507.6 1438.63 1320.5 1248.39 1177.68 1137.24 1049.36 1047.46 1024.08 952.615 1410.41 798.365 751.321 712.23 406.71 539.279 527.055 307.17 283.479 220.888 180.437 135.388 112.817 107.472 96.4406 92.1192 154.831 48.9914 29.5194 13.1649 3.41198 1.71562 0.15763 0.13758 0.0157108 0.00227906 0.00015625 0.000201313 9.38439e-05 9.54673e-05 4.02144e-05 7.73503e-05 2.5379e-05 2.00148e-05 1.02391e-05 4.94874e-06 4.23624e-06 2.94762e-06 1.13687e-13
threshold=-0.56636935472488392 0.94965922832489025 1.0000000180025095e-35 1.0606476068496706 -0.42982715368270868 0.92092192173004161 0.97087973356246959 1.0000000180025095e-35 -0.47756335139274592 0.60640242695808422 1.0610010027885439 0.68156704306602489 1.0013387799263003 1.2352761626243594 1.0000000180025095e-35 -1.017503499984741 0.48870721459388738 -0.80774372816085804 -0.84619116783142079 1.1799462437629702 0.91544863581657421 0.78759661316871654 1.0000000180025095e-35 1.1731274127960207 -0.57765355706214894 0.97505137324333202 0.64297935366630565 0.21678183972835544 -0.53679364919662464 -1.1339988112449644 1.1481058597564699 1.0000000180025095e-35 -0.56876343488693226 -0.91636204719543446 0.36788193881511694 1.1005932092666628 1.0885567069053652 0.83289256691932689 1.0013387799263003 1.0013387799263003 1.0000000180025095e-35 0.44394722580909735 0.44394722580909735 0.96041142940521251 -1.0072669982910154 -1.4263577461242674 -1.0520702600479124 1.0193246006965639 -1.5868256688117979 -1.0520702600479124 1.0193246006965639 -0.55382347106933583 -1.6187759637832639 -0.52078387141227711 1.0193246006965639 0.91255304217338573 -0.55065444111824025 -1.0356207489967344 1.2024553418159487
decision_type=2 2 2 2 2 2 2 2 2 2 2 2 2 2 2 2 2 2 2 2 2 2 2 2 2 2 2 2 2 2 2 2 2 2 2 2 2 2 2 2 2 2 2 2 2 2 2 2 2 2 2 2 2 2 2 2 2 2 2
left_child=1 3 9 10 5 8 11 -8 -5 12 18 -6 19 17 -7 -15 28 -12 22 21 -21 -2 -1 -20 35 26 32 -28 -14 33 -18 43 -26 44 -27 36 -3 -35 41 -36 -40 -37 -38 -31 -11 48 47 52 55 54 51 -48 -47 -52 -50 58 -49 -51 -4
right_child=2 24 45 4 6 14 7 -9 -10 29 13 -13 16 15 -16 -17 30 -19 23 20 -22 -23 -24 -25 25 34 27 -29 -30 31 -32 -33 -34 37 39 38 42 -39 40 -41 -42 -43 -44 -45 -46 46 50 56 49 57 53 -53 -54 -55 -56 -57 -58 -59 -60
leaf_value=0.0032112336876513369 0.16982469343542392 0.32302564313733728 -0.101607165452054 0.038670480752895704 0.12573334400280675 0.0052022609813296072 0.10859122945144231 -0.10317818632612892 0.10597128580732361 -0.11523938810829873 0.19998766322080525 0.20780928971156123 -0.097904428573904717 -0.083179708724283499 -0.18815126874637927 0.15776716278213235 -0.20401880863527611 0.13556944955572239 -0.1229352522931845 0.18050680454825152 0.0035937761636016443 0.22599385312419115 0.18889887266937921 0.17819160744618937 -0.1727376216629003 0.093858112906283583 0.18704727674975985 -0.066350990848660696 0.053927026427659147 -0.12295481575834388 0.1360285496988026 0.32371643037536418 0.017519315345692388 -0.11782609940368985 -0.1340813230382262 -0.1195949907737856 -0.11637172574737878 0.35416407803434269 -0.19673813642925672 -0.18887537166141072 -0.1017385420233856 -0.14205002401180111 -0.13581923097046394 -0.14779177825798165 -0.12711996683670287 -0.10190644333367323 -0.10205599180586861 -0.10197100148552272 -0.10195541116730883 -0.10225448053372158 -0.10223495885225825 -0.1025336934133787 -0.10244097650535472 -0.10177180511877311 -0.10165696856067739 -0.10198248634836185 -0.10165811320929 -0.10199456908228975 -0.101607165452054
leaf_weight=1839.4695459818467 6473.7584561873227 10.994371503591536 288.72574412729591 6882.880240323022 4227.0979136880487 3631.358543493785 7081.4738419214264 701.8078303784132 14129.237999238074 1.7530462760478256 2756.8519877623767 4316.1986982580274 277.72543504834175 478.97329965606332 344.92955279164016 331.4390258686617 15.740521261468528 29909.241937091574 86.449417388066649 1227.7855708505958 711.94136188458651 4154.3780681518838 247.182005090639 859.09234933368862 93.952934879809618 18.005790907889605 208.85111454874277 62.050592929124832 220.68080067448318 13.541771014221014 1804.509049420245 11.313047599047424 46.638378366827965 2.2078033657744518 218.6033993922174 38.669312532991171 5.4074654504656818 560.72949061542749 137.77683466207236 54.850030892528594 3.8872859971597782 283.27078249491751 18.180671042762697 2.6700064698234192 3.0489570442587128 1.0462851803749798 4.6574920481070903 0.45136876031756479 1.3088976759463538 4.3474940303713083 49.472796907648444 12.451419497840105 5.8798186313360956 0.95097536966204543 9.4444420840591174 0.35171713214367528 10.470718381926414 0.4850139431655397 14.181762705557047
leaf_count=13180 15493 5 18547 31694 5901 16428 15337 2611 36618 25 3583 3552 916 2456 1438 594 65 65668 2599 4357 3922 6975 860 2467 443 30 270 239 354 106 1203 22 97 18 1248 303 68 327 600 233 234 1450 126 18 26 57 236 24 70 202 2316 519 255 58 590 20 654 26 911
internal_value=0 0.108393 0.166664 0.111227 0.093004 0.0687299 0.130156 0.0894963 0.0839258 0.173672 0.131849 0.167199 0.167226 0.137964 -0.0115705 0.0153617 0.0978858 0.141006 0.0643279 0.180019 0.115574 0.19178 0.0252075 0.15066 -0.0752257 -0.0262389 0.0474754 0.129006 -0.0306776 0.334882 0.133088 0.0582234 -0.109624 0.348295 -0.130311 -0.144347 0.0130963 0.352313 -0.156092 -0.145072 -0.194131 -0.139353 -0.131361 -0.127045 -0.122783 -0.101743 -0.102202 -0.101938 -0.10162 -0.101859 -0.102271 -0.102404 -0.10236 -0.102226 -0.101693 -0.101608 -0.101671 -0.102228 -0.101607
internal_weight=0 79024.8 15886 77823.7 41315 24988.4 16326.6 7783.28 21012.1 15481.8 36508.7 8543.3 14886.5 33476.5 3976.29 810.412 2318.66 32666.1 3032.19 12567.9 1939.73 10628.1 2086.65 945.542 1201.14 702.952 411.493 270.902 498.406 595.264 1820.25 27.5248 140.591 567.739 291.459 498.187 34.5825 562.937 463.604 273.453 141.664 321.94 23.5881 16.2118 4.802 404.226 85.3809 17.8482 318.845 15.5858 67.5327 17.1089 6.9261 50.4238 10.7533 303.259 10.9221 4.83251 302.908
internal_count=268644 210332 58312 204986 113579 86178 27401 17948 68312 33827 91407 9453 33285 72301 17866 3050 2538 69251 19106 30747 8279 22468 14040 5066 5346 2560 1049 509 1270 542 1268 146 540 396 1511 2786 199 345 2587 1481 834 1753 194 124 51 24485 4119 990 20366 888 3129 755 312 2374 660 19478 678 228 19458
is_linear=0
shrinkage=0.1


Tree=3
num_leaves=58
num_cat=0
split_feature=72 134 37 120 131 70 38 72 45 73 106 133 31 31 73 97 113 132 61 130 7 12 42 127 33 33 126 8 31 31 132 31 0 31 114 29 36 30 74 71 71 40 29 29 108 72 72 107 61 38 34 46 72 73 36 117 32
split_gain=2887.02 2604.23 2444.49 2369.34 2062.87 1832.42 5041.4 953.982 1179.18 1051.28 764.37 544.078 511.763 570.272 460.962 506.032 371.545 328.657 324.483 267.953 258.864 182.044 181.551 334.798 68.1238 123.399 45.8158 33.6558 6.67701 6.55336 2.50086 1.11471 0.075084 0.00636368 0.00489419 0.00116372 0.000456525 0.00027288 0.000254307 0.000186323 0.000172736 0.000212775 0.000143602 0.000123753 0.000122134 7.73221e-05 7.20049e-05 4.14004e-05 1.92028e-05 1.70143e-05 1.16666e-05 4.45007e-06 3.18802e-06 2.59086e-06 2.47858e-06 1.50067e-11 3.0127e-12
threshold=-0.55065444111824025 1.0000000180025095e-35 0.97610267996788036 -1.5868256688117979 1.0000000180025095e-35 -0.22370120137929914 0.97675046324729931 -0.47227278351783747 1.1666811108589175 -0.70078343152999867 -0.84886282682418812 1.0000000180025095e-35 1.0013387799263003 0.99333330988883983 -0.74239796400070179 -0.83262878656387318 -1.1271089315414426 1.0000000180025095e-35 0.71757629513740551 1.0000000180025095e-35 0.47447209060192114 0.67390012741088878 1.0900582075119021 -1.8549406528472898 0.90596702694892894 0.90693655610084545 -1.9596981406211851 0.48771585524082189 1.0013387799263003 1.0013387799263003 1.0000000180025095e-35 0.99614647030830394 0.38410875201225286 0.82829475402832042 -1.3516882658004759 1.1497199535369875 0.92577961087226879 1.0589181780815127 -0.50137034058570851 -0.42982715368270868 -0.42982715368270868 1.0111295580863955 1.2352761626243594 1.1497199535369875 -1.0520702600479124 -0.55382347106933583 -0.60966986417770375 -0.86683154106140126 0.68156704306602489 0.97087973356246959 0.92688655853271495 1.1743373274803164 -0.60966986417770375 -0.69862505793571461 0.94965922832489025 -1.4263577461242674 0.91099098324775707
decision_type=2 2 2 2 2 2 2 2 2 2 2 2 2 2 2 2 2 2 2 2 2 2 2 2 2 2 2 2 2 2 2 2 2 2 2 2 2 2 2 2 2 2 2 2 2 2 2 2 2 2 2 2 2 2 2 2 2
left_child=1 2 4 24 5 6 -1 8 12 26 -7 -11 13 -5 22 18 17 19 -16 -9 31 -14 23 -4 30 -26 -10 -22 -17 -24 32 -18 33 -2 38 37 40 -6 -27 50 41 43 -37 -3 -19 47 -43 -41 53 -50 52 -47 -38 -42 -52 56 -32
right_child=3 36 14 7 35 10 -8 16 9 11 -12 -13 21 -15 15 28 20 44 -20 -21 27 -23 29 -25 25 34 -28 -29 -30 -31 55 -33 -34 -35 -36 42 39 -39 -40 45 48 46 -44 -45 -46 51 -48 -49 49 -51 54 -53 -54 -55 -56 -57 -58
leaf_value=0.10293748020775668 -0.11601015604438143 -0.10219260556412449 0.16709368823213677 0.14347154762507414 -0.10189619630393749 -0.024799002502535469 -0.0087560399210967182 0.25962311211264083 -0.021188041018336521 0.12526330991638965 0.1548912913383606 -0.097719177625994191 -0.18680753789312926 0.20014359630991518 -0.041481750124581801 -0.12886591961786403 -0.13003067513733488 -0.10151498804060846 0.12678204018299402 -0.13198022000508747 0.41651653598049809 0.089356411440804848 -0.13391116277204268 -0.13975021987307049 0.31395472420542458 -0.12130175019327727 -0.12941332596370722 0.17784963233616477 -0.17689939733679738 -0.17190301674130451 -0.10145189193050573 -0.1850101736889658 -0.14043538044459039 -0.12121051058839993 -0.12545304659312626 -0.10235204257019448 -0.1017417996624894 -0.10206532755696296 -0.12233631316733129 -0.1020276431822647 -0.10233470115530706 -0.10184563948589509 -0.10159925066091667 -0.1023992883891558 -0.10200963861173673 -0.10265677073048825 -0.10215896499517503 -0.10243354228864382 -0.1025246614805797 -0.10229846102613448 -0.10160233929704846 -0.10236365942859936 -0.10180975390127051 -0.10256756180082632 -0.10134382311740267 -0.10145127529870782 -0.10145159561745404
leaf_weight=72743.965367799625 2.4288463816046706 438.98151635378599 61.803752025589347 3560.2684391271323 195.29048061743379 244.86442652344704 4278.7511806888506 1300.858042630367 47.547160189598799 1269.5730769243091 7126.54146345146 119.74694916605949 24.824177600443363 3542.168763589114 179.97369416896254 118.09150651562959 40.315341025590897 6.6817586906254318 315.54612177237868 17.710847493261099 9.2770363092422503 620.65545615926385 386.20468895044178 83.736838070675731 11.124710312113168 6.5589298233389846 220.60296786949039 16.271977011114359 38.333829161711037 51.451567225158215 274.32501158770174 4.0590171739459029 2.0502577722072592 75.462970368564129 5.1499709375202647 117.43350004591048 11.673453496769076 186.49024632479995 3.7255845069885245 67.266413323581219 29.6493832487613 22.887038940563798 2.5899126399308434 31.016694316640496 19.733360568992794 2.0611744541674848 10.793423380702732 2.6103738564997903 13.540394639596345 4.4077241998165837 0.94293008279055246 0.69181870855391014 16.896679054945707 0.48563166335225005 0.61132076568901539 0.39481369405984779 0.33848410379141469
leaf_count=137063 22 20958 97 11304 10811 786 12600 1553 247 4567 8660 615 109 4185 542 772 242 457 727 106 2 728 2249 566 6 47 1307 53 167 272 19447 21 10 579 36 5260 696 9447 25 3460 1330 1289 174 1361 1027 82 523 113 564 201 61 31 968 20 47 28 24
internal_value=0 0.0965471 0.0980572 0.150491 0.100089 0.101291 0.0967327 0.159127 0.147611 0.0710559 0.148922 0.106044 0.163988 0.171735 -0.0416116 0.0161682 0.235682 0.247367 0.0656683 0.254363 0.0109379 0.0787356 -0.106203 -0.00944908 -0.0944193 0.0600618 -0.110223 0.264511 -0.140637 -0.138378 -0.105977 -0.13506 -0.121546 -0.121048 -0.122937 -0.102064 -0.10217 -0.101979 -0.121677 -0.101977 -0.102206 -0.102189 -0.102336 -0.102206 -0.101885 -0.102063 -0.101946 -0.102043 -0.102387 -0.102469 -0.101767 -0.102583 -0.101782 -0.102338 -0.101501 -0.101452 -0.101452
internal_weight=0 86785.6 86131.1 11201.9 84895.9 84394.1 77022.7 10820.3 9405.39 1657.47 7371.41 1389.32 7747.92 7102.44 1235.14 651.945 1414.91 1344.98 495.52 1318.57 69.9234 645.48 583.197 145.541 381.56 26.5592 268.15 25.549 156.425 437.656 355 44.3744 79.9421 77.8918 15.4345 501.804 654.516 381.781 10.2845 102.754 551.762 503.679 120.023 469.998 26.4151 72.6298 33.6805 69.8768 48.0831 17.9481 30.1244 2.75299 28.5701 30.135 1.55425 275.058 274.663
internal_count=268644 221897 190193 46747 184801 159109 149663 26523 23062 6736 9446 5182 16326 15489 5392 2208 3461 3143 1269 1659 318 837 3184 663 20224 114 1554 55 939 2521 20110 263 611 601 108 25692 31704 20258 72 5458 26246 24131 5434 22319 1484 3686 1812 3573 2115 765 1772 113 1664 1350 108 19499 19471
is_linear=0
shrinkage=0.1


Tree=4
num_leaves=59
num_cat=0
split_feature=134 72 37 30 71 36 132 109 76 31 71 38 39 38 106 104 39 72 37 23 73 108 28 31 3 74 72 120 36 41 108 88 71 71 40 29 72 72 72 108 72 47 16 107 33 31 61 38 47 26 34 4 46 72 73 36 37 41
split_gain=2316.79 2009.98 5350.38 1942.03 2530.24 2207.31 1715.69 1136.36 1011.91 956.871 860.726 1663.97 899.711 846.677 601.492 485.13 390.804 387.682 356.553 258.359 67.1679 74.4585 70.5732 8.60924 1.74566 0.00585668 0.00287983 0.000432703 0.000336015 0.00021885 0.000224149 0.000200587 0.000137212 0.000127036 0.000156611 9.1051e-05 5.68894e-05 5.67174e-05 5.43215e-05 5.30326e-05 5.30195e-05 4.79049e-05 7.31636e-05 3.04685e-05 2.70938e-05 2.09569e-05 1.41235e-05 1.25083e-05 9.25786e-06 1.05588e-05 8.59745e-06 3.65989e-06 3.26906e-06 2.34783e-06 1.90646e-06 1.82784e-06 9.62984e-07 1.14112e-07
threshold=1.0000000180025095e-35 -0.58572459220886219 0.95899248123168956 1.0665680766105654 -0.43077683448791498 0.91497159004211437 1.0000000180025095e-35 -0.89635434746742237 -1.1733610630035398 0.97618910670280468 -0.34534436464309687 1.0098063349723818 0.95198914408683788 0.96991971135139476 -0.77254745364189137 -0.87640109658241261 1.0406254529953005 -0.59317389130592335 0.96757632493972789 1.2580046653747561 -0.7494484782218932 -0.92348796129226673 1.1021127104759219 1.0013387799263003 0.44394722580909735 -0.65223067998886097 -0.55065444111824025 -1.5868256688117979 0.92577961087226879 1.0193246006965639 -1.0520702600479124 -0.51894295215606678 -0.42982715368270868 -0.42982715368270868 1.0111295580863955 1.1497199535369875 -0.55382347106933583 -0.47227278351783747 -0.55382347106933583 -1.0520702600479124 -0.60966986417770375 1.1799462437629702 0.91544863581657421 -0.86683154106140126 0.90347960591316234 1.0013387799263003 0.68156704306602489 0.97087973356246959 1.2098662257194521 1.166528642177582 0.92688655853271495 0.13029708713293078 1.1743373274803164 -0.60966986417770375 -0.69862505793571461 0.94965922832489025 0.92607244849205028 1.0874359607696535
decision_type=2 2 2 2 2 2 2 2 2 2 2 2 2 2 2 2 2 2 2 2 2 2 2 2 2 2 2 2 2 2 2 2 2 2 2 2 2 2 2 2 2 2 2 2 2 2 2 2 2 2 2 2 2 2 2 2 2 2
left_child=1 2 3 4 5 -1 10 8 -5 -9 11 12 -3 -6 15 -12 -13 20 19 -19 22 -22 -4 -20 -16 29 28 44 33 38 -31 37 50 34 35 -2 43 41 -8 -29 -36 45 -43 -34 -27 -28 54 -48 49 -39 53 -50 -38 -30 -35 -52 -33 -58
right_child=26 6 17 7 13 -7 25 9 -10 -11 14 16 -14 -15 24 -17 -18 18 23 -21 21 -23 -24 -25 -26 27 31 39 32 30 -32 56 36 46 40 -37 52 48 -40 -41 -42 42 -44 -45 -46 -47 47 -49 51 -51 55 -53 -54 -55 -56 -57 57 -59
leaf_value=0.069683488306821459 -0.10197962651377945 0.18032513612761916 -0.021009109902168158 -0.0043961442427298807 0.13644554791959354 -0.00085985063753647002 -0.10236860746537224 0.18500198948396845 0.096653657514458993 0.11326182469285546 0.23265584939711631 0.031879451636113686 0.10944697373871995 0.07135680035594591 -0.13227044117738698 0.14702383427694168 -0.097293064931161424 0.033820834266984602 -0.14058502049455698 -0.17790706033919218 -0.161826545134091 0.17877408680199519 -0.15067129082877295 -0.18655465314680025 -0.16623548376005773 -0.1013118146681876 -0.1031381336330115 -0.10157108877104484 -0.1015733193623285 -0.10173936488251736 -0.1022740146680594 -0.10149558600836156 -0.10183098498945752 -0.10210758820676409 -0.10166693638132217 -0.10216579948088461 -0.10239758151520202 -0.10291130483999972 -0.10261190393263378 -0.10185539364532994 -0.1019493224869371 -0.10304149648913051 -0.10252285526249511 -0.1021966487000483 -0.10231115170963651 -0.1025330967926958 -0.10227864945788444 -0.10207497355473566 -0.10374805658553816 -0.10343783831789569 -0.10144755603448895 -0.10344718241200782 -0.10213376779288526 -0.10163457645374499 -0.10231733747575511 -0.10121432497556566 -0.10167527483990041 -0.10175287389745119
leaf_weight=19657.29077407904 397.99421985074878 1975.5469980128109 44.153002433478832 1029.6133810915053 6132.1135165244341 5728.1014118986204 18.644952178001404 2590.3189854491502 26423.70082226675 6587.1957664275542 825.67642117850482 641.2911118818447 19164.027651446871 2964.7433489840478 39.075802575796843 3328.9718480687588 368.97877608425915 424.66793764010072 140.36868698243052 66.682021448388696 12.060340733267369 13.719901034608482 851.83291519992054 57.399676140397787 24.695005794987082 248.99237565882504 12.612029109150175 11.368288190104069 10.579205770045522 9.8736570067703706 38.098801963962615 0.2982812002301205 60.976728647015989 26.884502917528156 20.743596818298105 28.125939120538533 1.8695079842582338 0.57666919380426707 18.071915056556463 15.515832220204173 9.7853538468480092 6.6688962951302511 4.5933948084712029 2.3671601824462405 0.27159311063587566 0.59970492124557573 12.279824478551747 3.9965612180531016 0.78594193980097748 1.1216468550264833 0.85443392861634382 0.83257928863167763 0.62732069194316853 15.313757475465536 0.44043760001659293 0.55381760559976101 0.46994888223707676 0.31755878962576389
leaf_count=56981 20958 2969 337 4391 5499 18264 834 2199 49087 13766 453 1959 33508 5372 218 6452 1951 965 777 324 92 11 4789 294 167 19482 428 763 696 591 1764 21 3460 1330 1289 1361 82 23 734 877 523 233 192 113 16 25 564 201 23 35 61 26 31 968 20 47 29 19
internal_value=0 0.0915503 0.0829316 0.087014 0.0699814 0.0537657 0.115 0.103047 0.0928639 0.13351 0.117964 0.110079 0.116071 0.115233 0.159364 0.164042 -0.015298 -0.0972856 -0.0405482 0.00508685 -0.139703 0.0194366 -0.144282 -0.153927 -0.145423 -0.101577 -0.102007 -0.101354 -0.101959 -0.102305 -0.102164 -0.102982 -0.101785 -0.101992 -0.101976 -0.101992 -0.101863 -0.103034 -0.102488 -0.101735 -0.101757 -0.102981 -0.10283 -0.101845 -0.101313 -0.103111 -0.102155 -0.102229 -0.103422 -0.103259 -0.101596 -0.103593 -0.102331 -0.10161 -0.102111 -0.101356 -0.101649 -0.101707
internal_weight=0 99453.1 72724 71113.1 34482.2 25385.4 26729.1 36630.8 27453.3 9177.51 26368.3 22149.8 21139.6 9096.86 4218.42 4154.65 1010.27 1610.88 689.118 491.35 921.766 25.7802 895.986 197.768 63.7708 360.837 622.269 276.148 593.392 84.6893 47.9725 28.8767 93.1419 500.25 456.649 426.12 65.8407 27.7909 36.7169 26.8841 30.529 24.474 11.2623 63.3439 249.264 13.2117 43.6013 16.2764 3.31684 1.69832 27.3012 1.61852 2.49683 25.893 27.3249 1.40825 1.08579 0.787508
internal_count=268644 235886 163148 155559 86116 75245 72738 69443 53478 15965 47677 40387 36477 10871 7290 6905 3910 7589 2360 1289 5229 103 5126 1071 385 25061 32758 21138 31704 3923 2355 1054 5458 26246 24131 22319 3686 985 1568 1640 1812 878 425 3573 19498 453 2115 765 107 58 1772 49 113 1664 1350 108 69 48
is_linear=0
shrinkage=0.1


Tree=5
num_leaves=57
num_cat=0
split_feature=134 71 37 38 70 72 120 70 30 37 136 71 41 70 38 60 30 106 61 28 107 34 126 75 34 34 31 132 32 64 72 36 88 71 71 40 29 72 72 72 47 16 107 31 61 38 1 108 34 46 32 72 73 36 37 51
split_gain=1876 1676.37 4050.7 1487.77 2826.76 1302.89 1292.27 1260.45 1729.6 992.577 1047.68 1231.67 923.717 1345.43 1679.43 822.815 814.853 656.807 489.689 684.777 480.102 279.893 357.26 271.063 52.4228 92.47 11.286 2.64229 0.0968411 0.00351281 0.00211821 0.000247474 0.000147441 0.000101104 9.35041e-05 0.000115337 6.70351e-05 4.18878e-05 4.16826e-05 3.90626e-05 3.51649e-05 5.37268e-05 2.24385e-05 1.53841e-05 1.03936e-05 9.20328e-06 6.79765e-06 9.09661e-06 6.3386e-06 2.40371e-06 2.16148e-06 1.73001e-06 1.40359e-06 1.34842e-06 7.0951e-07 8.44611e-08
threshold=1.0000000180025095e-35 -0.41772072017192835 0.94358167052268993 0.9313013255596162 -0.27686010301113123 -0.65827712416648854 -1.5868256688117979 -0.31792695820331568 1.0610010027885439 0.95489820837974559 1.0000000180025095e-35 -0.44301752746105189 1.0365633368492129 -0.20270098745822904 0.99648791551589977 0.7364352047443391 1.0196600556373598 -0.78148412704467762 0.6748294234275819 1.1349173188209536 -0.94249156117439259 0.92864885926246654 -1.7125683426856992 -1.0244767069816587 0.910659819841385 0.91105639934539806 1.0013387799263003 1.0000000180025095e-35 0.92107662558555614 0.60640242695808422 -0.55065444111824025 0.92577961087226879 -0.51894295215606678 -0.42982715368270868 -0.42982715368270868 1.0111295580863955 1.1497199535369875 -0.55382347106933583 -0.47227278351783747 -0.60966986417770375 1.1799462437629702 0.91544863581657421 -0.86683154106140126 1.0013387799263003 0.68156704306602489 0.97087973356246959 -0.038475170731544488 -1.0313263535499571 0.92688655853271495 1.1743373274803164 0.91177093982696544 -0.60966986417770375 -0.69862505793571461 0.94965922832489025 0.92607244849205028 1.1915234923362734
decision_type=2 2 2 2 2 2 2 2 2 2 2 2 2 2 2 2 2 2 2 2 2 2 2 2 2 2 2 2 2 2 2 2 2 2 2 2 2 2 2 2 2 2 2 2 2 2 2 2 2 2 2 2 2 2 2 2
left_child=1 2 3 7 5 -5 24 8 -1 10 11 -4 18 14 -14 -6 -9 -15 19 -8 -20 22 -11 -12 27 -26 -23 28 -3 -27 31 34 38 48 35 36 -2 42 40 -37 43 -42 -35 -32 52 -46 -40 -48 51 -39 -29 -33 -36 -50 -34 -56
right_child=30 6 9 4 15 -7 12 16 -10 21 23 -13 13 17 -16 -17 -18 -19 20 -21 -22 26 -24 -25 25 29 -28 50 -30 -31 32 33 54 37 44 39 -38 49 46 -41 41 -43 -44 -45 45 -47 47 -49 53 -51 -52 -53 -54 -55 55 -57
leaf_value=0.027683297592271394 -0.10178771019124787 -0.12175869652841467 -0.083186953331160551 -0.051269431421037716 0.060623001091119115 0.039735810604447926 -0.13640659224857096 -0.099216496157171305 0.090625611838409517 -0.0059422259277630025 -0.18011246201810927 0.062731600298148574 0.086473375950036596 0.12765032559879516 -0.024206168744904916 0.12884875357540901 0.14191616872413812 0.027844380365421497 0.25304759571287455 0.11278321442668093 0.14648978860214354 -0.13393517512715214 -0.12199132984349959 0.022415502561204472 0.23843470984523518 -0.12231152414601772 -0.1795706690360338 -0.10118542419426937 -0.1391116829160278 -0.12596420219143495 -0.10283062113545655 -0.10142137003019969 -0.10135131266748697 -0.10165371988958166 -0.10190301038061284 -0.10150580633529992 -0.10195548146452596 -0.10216425640685652 -0.10338143211783542 -0.10176040515651795 -0.10274370737764332 -0.10227705482137053 -0.10198328382678597 -0.10228628402670681 -0.10205711903291446 -0.10187363051081287 -0.10260703278284077 -0.10310424608175539 -0.10130792306194217 -0.10192667614465836 -0.1014787130555759 -0.10147660946077926 -0.10209201271893958 -0.10109745396267854 -0.10151328065684462 -0.10158340907213481
leaf_weight=4940.5762836709619 360.76448188535869 74.9635299295187 733.4061143733561 1876.569353996776 2809.5386042762548 9730.1381514891982 118.43280107248574 144.10443453676999 37524.496138191782 563.25913862418383 320.30434219539165 2737.999073526822 10731.855163738132 9864.2689148308709 1571.7572490703315 4766.8881972478703 5096.0797285549343 706.5946989916265 482.57280211430043 1601.5726242018864 3415.2538251848891 70.358012724667788 501.44237418845296 83.263503648340702 12.545453942380847 12.925766680389644 235.85072695091367 225.43734882213175 3.3601131737232199 3.3063690215349189 11.444223366677768 9.5860725166276133 0.27026061993092199 55.265339500270784 24.372454864904284 18.797861250117425 25.499226178042591 1.6952674463391297 0.61966697126627002 8.8697552084922773 6.0508650094270688 4.1657554805278778 2.1461481228470793 0.54387809708714563 11.134134758263825 3.6230213306844226 0.45426807552576121 1.9365434683859335 0.77413515560328849 0.56871779169887293 0.25156194437295099 13.876933000050485 0.39935919828713196 0.50166473165154457 0.42586461454629898 0.28780073020607233
leaf_count=23800 20958 519 4023 10309 4172 23570 1723 1734 72148 2156 1302 5231 20410 16072 5943 5331 5968 1776 444 2575 2019 449 2895 160 5 91 1531 19471 18 21 428 696 21 3460 1330 1289 1361 82 20 523 233 192 113 25 564 201 20 67 61 31 20 968 20 47 29 19
internal_value=0 0.0810646 0.072919 0.0795553 0.0560364 0.0250221 0.101449 0.0890126 0.0833026 -0.0116985 0.0141742 0.0319033 0.103737 0.0948142 0.0723343 0.103549 0.135285 0.120979 0.14007 0.095625 0.159682 -0.0848297 -0.0605979 -0.138327 -0.0944667 0.0345344 -0.169085 -0.106678 -0.122503 -0.123056 -0.101812 -0.101769 -0.10269 -0.101612 -0.101799 -0.101785 -0.101799 -0.101683 -0.102737 -0.101587 -0.10269 -0.102553 -0.101666 -0.102806 -0.101946 -0.102012 -0.103086 -0.10301 -0.101442 -0.102105 -0.101186 -0.101454 -0.101906 -0.101225 -0.101489 -0.101542
internal_weight=0 100959 72134.3 66888.4 19183.1 11606.7 28825.1 47705.3 42465.1 5245.88 3874.97 3471.41 28492.3 22874.5 12303.6 7576.43 5240.18 10570.9 5617.83 1720.01 3897.83 1370.91 1064.7 403.568 332.79 28.7776 306.209 304.013 78.3236 16.2321 564.074 537.875 26.1991 84.4143 453.46 413.931 386.264 59.6755 25.2152 27.6676 22.2047 10.2166 57.4115 11.9881 39.529 14.7572 3.01048 2.39081 24.7388 2.26399 225.689 23.463 24.7718 1.2758 0.983926 0.713665
internal_count=268644 235886 164779 147032 43382 33879 71107 103650 95948 17747 10716 9254 50962 44201 26353 9503 7702 17848 6761 4298 2463 7031 5051 1462 20145 117 1980 20028 537 112 32758 31704 1054 5458 26246 24131 22319 3686 985 1812 878 425 3573 453 2115 765 107 87 1772 113 19491 1664 1350 108 69 48
is_linear=0
shrinkage=0.1


Tree=6
num_leaves=48
num_cat=0
split_feature=131 134 132 71 38 71 72 104 37 59 118 107 29 30 72 72 120 37 71 28 32 30 29 29 36 29 88 101 31 71 71 40 45 108 44 72 72 33 47 61 1 34 100 29 73 37 62
split_gain=1551.76 1553.66 1357.88 1445.33 3702.12 1246.88 758.34 734.694 730.21 141.249 0.0194525 0.00908383 0.00293046 0.00210502 0.00195724 0.00155909 0.000800346 0.00052647 0.000465622 0.00037596 0.000298361 0.00026915 0.000240316 0.00018647 0.000182364 0.000122646 0.000108459 7.93948e-05 7.73161e-05 7.4535e-05 6.88707e-05 8.49971e-05 6.79969e-05 6.08926e-05 4.51189e-05 3.08578e-05 3.06579e-05 2.84217e-05 2.58362e-05 7.6529e-06 4.99632e-06 4.67578e-06 4.09264e-06 7.38678e-06 1.03417e-06 5.23036e-07 6.24698e-08
threshold=1.0000000180025095e-35 1.0000000180025095e-35 1.0000000180025095e-35 -0.39955411851406092 0.97675046324729931 -0.42337986826896662 -0.59410062432289112 -0.87868458032608021 0.96987542510032665 0.74222537875175487 -1.4462217092514036 -1.0191498994827268 1.1383447647094729 1.0610010027885439 -0.55065444111824025 -0.55065444111824025 -1.5868256688117979 0.94358167052268993 -0.4262195080518722 1.1349173188209536 0.92431381344795238 1.0610010027885439 1.1497199535369875 1.2352761626243594 0.92577961087226879 1.1497199535369875 -0.51894295215606678 -0.77913492918014515 1.001446068286896 -0.42982715368270868 -0.42982715368270868 1.0111295580863955 1.0606476068496706 -1.0520702600479124 1.1507474780082705 -0.55382347106933583 -0.47227278351783747 0.90347960591316234 1.1799462437629702 0.68156704306602489 -0.038475170731544488 0.92688655853271495 -0.99854153394699086 1.1497199535369875 -0.93309941887855519 0.92607244849205028 0.70910578966140758
decision_type=2 2 2 2 2 2 2 2 2 2 2 2 2 2 2 2 2 2 2 2 2 2 2 2 2 2 2 2 2 2 2 2 2 2 2 2 2 2 2 2 2 2 2 2 2 2 2
left_child=1 2 3 4 5 -1 -6 9 -9 -5 16 27 14 19 17 24 37 20 -19 -12 -13 42 32 -24 30 -15 36 -2 34 41 31 -3 -23 -18 -16 -31 38 -4 -17 -32 -38 -26 44 -44 -14 -28 -47
right_child=11 15 10 7 6 -7 -8 8 -10 -11 13 12 21 25 28 26 33 18 -20 -21 -22 22 23 -25 29 -27 45 -29 -30 35 39 -33 -34 -35 -36 -37 40 -39 -40 -41 -42 -43 43 -45 -46 46 -48
leaf_value=0.06835887488834895 -0.10709946185614877 -0.10162469775802495 -0.1010714111311206 -0.15797717466461333 -0.077358666991221778 0.10875766035104471 0.010243655829872876 0.11320986847440749 0.074034860739546696 0.1804560670371147 -0.10205250235818293 -0.10177905581240154 -0.10170238349518164 -0.1025366871491338 -0.10404284320271173 -0.10253180814174828 -0.10155626661542339 -0.10145441859918325 -0.10203263212464336 -0.10238679540531932 -0.10202979302820536 -0.1023620483200388 -0.10255602822520554 -0.10172346493486453 -0.10131376947791203 -0.10307984008945573 -0.10122113356238489 -0.10818601013913481 -0.10248705726349 -0.10150499626637795 -0.10172139850812562 -0.10143409064722071 -0.10212573626053874 -0.10188414778096265 -0.10348091157961894 -0.10190031674458842 -0.1030498792670205 -0.10216697438987661 -0.10230456062660467 -0.10181694580299723 -0.1027154082392313 -0.10110722891923374 -0.10177247727145822 -0.10200562190705516 -0.10188462608604326 -0.10136719343031889 -0.10143055265649577
leaf_weight=68000.252712924965 1.0818348638713362 350.0740906894207 204.41318929754198 12.471386533230541 1626.631723976694 8606.9056285433471 2517.6085283588618 9328.0043556634337 9711.9705186486244 1104.4265180490911 47.357641562819481 63.675874569453299 1.76063983514905 4.5741382017731658 2.0672511309385291 10.874805379658946 14.067924117669465 42.664075640961528 20.676451469771564 116.16482968907803 186.32568127755076 40.158044707030058 121.20502925477922 2.7512037176638833 21.258103463798765 45.616906663402915 0.2448404235765328 1.7773726638406504 0.61987298447638739 52.026286084204912 22.453082913532853 25.070612334646285 17.474958259612322 9.4816853208467347 4.6270352061837912 2.052435682155191 0.56240991875529323 0.23707085568457742 9.2657233346253616 13.377114467322825 2.1691794451326123 1.1556694637984026 2.5286651123315087 2.9377620052546263 0.378283405676484 0.38586265221238136 0.26078800018876791
leaf_count=123654 19 22319 19490 72 6551 9460 6572 12701 19609 673 2459 3721 107 191 56 453 954 3117 1131 5176 9670 1787 5018 172 1664 1591 21 26 28 3573 1350 1812 863 530 149 113 20 16 425 765 87 108 148 154 21 29 19
internal_value=0 0.0722539 0.073131 0.073897 0.0679176 0.0728977 -0.0241406 0.0978513 0.0932274 0.176677 -0.101778 -0.102154 -0.102123 -0.102464 -0.101938 -0.101637 -0.101136 -0.101901 -0.101643 -0.10229 -0.101966 -0.102435 -0.102459 -0.102538 -0.101598 -0.10303 -0.102428 -0.107775 -0.103556 -0.101456 -0.101625 -0.101612 -0.10229 -0.101688 -0.103654 -0.10152 -0.10247 -0.101073 -0.102427 -0.101757 -0.102784 -0.101303 -0.101852 -0.101898 -0.101735 -0.101346 -0.101393
internal_weight=0 101861 101350 100908 80751.4 76607.2 4144.24 20156.9 19040 1116.9 441.913 512.71 509.851 213.714 320.656 511.231 228.2 313.342 63.3405 163.522 250.002 189.195 181.589 123.956 487.467 50.191 23.7636 2.85921 7.31416 76.4925 410.975 375.145 57.633 23.5496 6.69429 54.0787 22.8721 204.65 20.1405 35.8302 2.73159 22.4138 7.60535 5.46643 2.13892 0.891491 0.646651
internal_count=268644 242457 209699 179292 146237 133114 13123 33055 32310 745 30407 26187 26142 9417 17872 32758 20990 17639 4248 7635 13391 8270 7840 5190 31704 1782 1054 45 233 5458 26246 24131 2650 1484 205 3686 985 19506 878 2115 107 1772 430 302 128 69 48
is_linear=0
shrinkage=0.1


Tree=7
num_leaves=48
num_cat=0
split_feature=131 134 132 71 37 39 42 60 37 30 118 107 29 30 72 72 120 37 71 28 32 30 29 29 36 29 88 104 31 71 71 40 45 108 44 72 72 33 47 61 1 34 100 29 73 37 41
split_gain=1284.31 1284.44 1121.58 1128.94 3321.13 1333 597.967 1077.25 536.471 398.804 0.0143339 0.00664968 0.00215595 0.00154685 0.00143989 0.00114842 0.00059071 0.000387446 0.0003435 0.000276586 0.000219837 0.000198033 0.000176755 0.000137087 0.000134447 9.00815e-05 7.9845e-05 5.73339e-05 5.67165e-05 5.49828e-05 5.07485e-05 6.26519e-05 5.00117e-05 4.48641e-05 3.29776e-05 2.27469e-05 2.25647e-05 2.10856e-05 1.89883e-05 5.64031e-06 3.67384e-06 3.44978e-06 3.01626e-06 5.44285e-06 7.62407e-07 3.85746e-07 4.61998e-08
threshold=1.0000000180025095e-35 1.0000000180025095e-35 1.0000000180025095e-35 -0.40684740245342249 0.95489820837974559 0.95335063338279735 1.0683670043945315 0.76040571928024303 0.96353831887245189 0.99006694555282604 -1.4462217092514036 -1.0191498994827268 1.1383447647094729 1.0610010027885439 -0.55065444111824025 -0.55065444111824025 -1.5868256688117979 0.94358167052268993 -0.4262195080518722 1.1349173188209536 0.92431381344795238 1.0610010027885439 1.1497199535369875 1.2352761626243594 0.92577961087226879 1.1497199535369875 -0.51894295215606678 -0.90622547268867482 1.001446068286896 -0.42982715368270868 -0.42982715368270868 1.0111295580863955 1.0606476068496706 -1.0520702600479124 1.1507474780082705 -0.55382347106933583 -0.47227278351783747 0.90347960591316234 1.1799462437629702 0.68156704306602489 -0.038475170731544488 0.92688655853271495 -0.99854153394699086 1.1497199535369875 -0.93309941887855519 0.92607244849205028 1.0874359607696535
decision_type=2 2 2 2 2 2 2 2 2 2 2 2 2 2 2 2 2 2 2 2 2 2 2 2 2 2 2 2 2 2 2 2 2 2 2 2 2 2 2 2 2 2 2 2 2 2 2
left_child=1 2 3 4 5 -1 9 -8 -6 -5 16 27 14 19 17 24 37 20 -19 -12 -13 42 32 -24 30 -15 36 -2 34 41 31 -3 -23 -18 -16 -31 38 -4 -17 -32 -38 -26 44 -44 -14 -28 -47
right_child=11 15 10 6 8 -7 7 -9 -10 -11 13 12 21 25 28 26 33 18 -20 -21 -22 22 23 -25 29 -27 45 -29 -30 35 39 -33 -34 -35 -36 -37 40 -39 -40 -41 -42 -43 43 -45 -46 46 -48
leaf_value=0.073854331694227338 -0.10638120497305691 -0.1014677123104188 -0.1009684159148294 -0.090359303988608919 -0.023683112576664077 0.045983501506290221 -0.003145027330292407 0.084123545262361613 -0.12653264041739698 0.11912846219865314 -0.10185352557164649 -0.10160691963026967 -0.1015377570899057 -0.10228954231734569 -0.10364372023283763 -0.10228511911615357 -0.10140608945479215 -0.10131421570187325 -0.10183587710894318 -0.1021546630772061 -0.10183299411661582 -0.10213225611836174 -0.10230695314873162 -0.10155708561470358 -0.10118718722662388 -0.10277833088619599 -0.10110363489226347 -0.10734865514397046 -0.10224541633392102 -0.10135974595036429 -0.10155490229303928 -0.10129578885541049 -0.10191941241943923 -0.10170172385715537 -0.10313955786358159 -0.10171625714566718 -0.10275169928468071 -0.10195948060131022 -0.10208053577839285 -0.10164106556741044 -0.10245058985310321 -0.10100077695049546 -0.10160097972054515 -0.10181119150458394 -0.101702118052063 -0.1012353934511373 -0.10129263797513083
leaf_weight=48935.802391679026 0.98489343374967608 317.22526422515512 185.1397833218798 92.53756464831531 1878.280698813498 26428.067379323766 1543.6458374038339 16906.254811526276 694.74399842508137 5056.3952319771051 42.930416109971702 57.708957884460688 1.5955442292615769 4.1483420049771658 1.8773621302098025 9.8624540138989776 12.747076016850771 38.654754668939859 18.743133690673858 105.3369717951864 168.90367863141 36.414093129336834 109.92424988374114 2.4932628646492949 19.257965255528692 41.390801573172212 0.22178514674305816 1.6203965786844481 0.56214232463389624 47.139358151704073 20.348001780919731 22.714224717579782 15.842375874519346 8.5939890537410957 4.1998648308217525 1.8603101419284929 0.51029105298221145 0.21492490451782842 8.4014354944229108 12.123992316424845 1.9675696762278665 1.0467390194535244 2.2916963854804626 2.6630149316042662 0.34286795929074276 0.34957356285303831 0.23627649806439877
leaf_count=84050 19 22319 19490 798 5648 47928 3908 28960 3456 4544 2459 3721 107 191 56 453 954 3117 1131 5176 9670 1787 5018 172 1664 1591 21 26 28 3573 1350 1812 863 530 149 113 20 16 425 765 87 108 148 154 21 29 19
internal_value=0 0.064655 0.06541 0.0660688 0.0602665 0.0640808 0.0852313 0.0768221 -0.0514536 0.115364 -0.101606 -0.101945 -0.101917 -0.102224 -0.101751 -0.101479 -0.101027 -0.101717 -0.101485 -0.102067 -0.101775 -0.102198 -0.10222 -0.10229 -0.101444 -0.102734 -0.102191 -0.106983 -0.103206 -0.101316 -0.101468 -0.101456 -0.102068 -0.101525 -0.103295 -0.101373 -0.102229 -0.10097 -0.102191 -0.101587 -0.102513 -0.101178 -0.101673 -0.101714 -0.101567 -0.101216 -0.101258
internal_weight=0 102399 101936 101536 77936.9 75363.9 23598.8 18449.9 2573.02 5148.93 400.502 464.822 462.217 193.807 290.65 463.265 206.696 284.011 57.3979 148.267 226.613 171.567 164.674 112.418 441.716 45.5391 21.5494 2.60529 6.63937 69.3044 372.411 339.939 52.2565 21.3411 6.07723 48.9997 20.7418 185.355 18.2639 32.472 2.47786 20.3047 6.89312 4.95471 1.93841 0.807635 0.58585
internal_count=268644 242457 209699 179292 141082 131978 38210 32868 9104 5342 30407 26187 26142 9417 17872 32758 20990 17639 4248 7635 13391 8270 7840 5190 31704 1782 1054 45 233 5458 26246 24131 2650 1484 205 3686 985 19506 878 2115 107 1772 430 302 128 69 48
is_linear=0
shrinkage=0.1


Tree=8
num_leaves=45
num_cat=0
split_feature=74 134 132 71 36 136 5 42 73 98 59 95 2 116 96 117 131 112 31 131 129 118 131 30 72 120 28 30 36 29 88 71 71 40 108 72 72 33 47 61 1 34 37 51
split_gain=1073.41 1067.34 934.485 1011.53 2842.8 1551.33 1005.13 864.017 1628.51 635.557 519.408 241.364 225.561 224.339 80.2533 84.5467 15.2551 9.66701 6.22132 1.05683 0.29978 0.0105674 0.00117956 0.00113755 0.000846648 0.000436153 0.000203721 0.00016373 9.89484e-05 6.62169e-05 5.88158e-05 4.05724e-05 3.75041e-05 4.61152e-05 3.30713e-05 1.6775e-05 1.66192e-05 1.56414e-05 1.39658e-05 4.15868e-06 2.70345e-06 2.54639e-06 2.84614e-07 3.41997e-08
threshold=-1.0530547499656675 1.0000000180025095e-35 1.0000000180025095e-35 -0.41872739791870112 0.91931825876235973 1.0000000180025095e-35 0.39781191945075994 1.0698433518409731 -0.75515761971473683 -0.8329777419567107 0.81846976280212413 -1.0933470726013181 0.66222119331359874 -0.98448583483695973 -1.0630493164062498 -0.88097494840621937 1.0000000180025095e-35 -0.84754595160484303 1.0013387799263003 1.0000000180025095e-35 1.0000000180025095e-35 -1.4462217092514036 1.0000000180025095e-35 1.0610010027885439 -0.55065444111824025 -1.5868256688117979 1.1349173188209536 1.0610010027885439 0.92577961087226879 1.1497199535369875 -0.51894295215606678 -0.42982715368270868 -0.42982715368270868 1.0111295580863955 -1.0520702600479124 -0.55382347106933583 -0.47227278351783747 0.90347960591316234 1.1799462437629702 0.68156704306602489 -0.038475170731544488 0.92688655853271495 0.92607244849205028 1.1915234923362734
decision_type=2 2 2 2 2 2 2 2 2 2 2 2 2 2 2 2 2 2 2 2 2 2 2 2 2 2 2 2 2 2 2 2 2 2 2 2 2 2 2 2 2 2 2 2
left_child=9 2 3 4 6 -6 -2 10 -9 11 -5 12 14 -13 15 -1 18 20 -15 -16 -14 25 -19 26 28 37 -23 -18 32 -25 36 41 33 -3 -27 -33 38 -4 -26 -34 -38 -30 -32 -44
right_child=1 24 21 7 5 -7 -8 8 -10 -11 -12 13 17 16 19 -17 27 22 -20 -21 -22 23 -24 29 30 34 -28 -29 31 -31 42 35 39 -35 -36 -37 40 -39 -40 -41 -42 -43 43 -45
leaf_value=-0.16636838166736756 -0.073594788522868479 -0.10132598138163756 -0.10087540497514609 0.07739429443154551 0.01304757757329196 -0.12114474240708886 0.061055008519726353 -0.0068453243488624874 0.074601061468254279 1.1905562041422868 0.12316497497447794 0.28470099187156012 -0.1595991924646144 -0.16258922530349099 -0.18026030899950196 0.1211926804884747 -0.10146839151882303 -0.10245349350953244 -0.19685927676681092 -0.10179249126673812 -0.1794983463248056 -0.10167404322194602 -0.10144373214111298 -0.10206698191078922 -0.10206296644763926 -0.10127058713100578 -0.10194554690148361 -0.10197211391888757 -0.10107294422251881 -0.10250707509096009 -0.10099755259318176 -0.10122868994487653 -0.10140474910897626 -0.10117098455516019 -0.1015372335728892 -0.10155029605797156 -0.10248337577737905 -0.10177197148546775 -0.10187869902628517 -0.10148247173793563 -0.10221216212720269 -0.10090465641073643 -0.10111643623771936 -0.10116818371627234
leaf_weight=11.240528815425931 559.25468152575195 285.94851831439883 167.66800258308649 5285.6950242072344 6932.7274211472832 983.72989276517183 63675.342499226332 2874.291605447419 16828.036595744547 3.9100640928372732 4669.7183551779017 11.580647252500055 18.612542684189975 193.64472139719874 10.760769858956335 113.09963776636869 8.5193596240133029 66.705860359594226 72.920852668583393 2.0421450408175579 12.761336997151377 38.891613218002021 13.995898481458424 3.7613430060446253 8.9423524942249148 11.548678955063226 95.498390479013324 26.600720966234803 17.444021900184456 37.546002766117454 0.20087956264614959 42.705866603646427 18.437509024515752 20.576743910089135 7.7881192639470092 1.6858891211450089 0.46287775970995459 0.1948121665045609 7.6162269590422502 10.986513006500898 1.7842721184715618 0.94798495061695476 0.31665691547095776 0.21404493972659111
leaf_count=228 3625 22205 19490 6709 20566 3257 121903 7696 29769 23 3667 2 178 1092 72 425 599 2895 296 119 52 2458 1003 191 453 954 5176 1418 1664 1591 21 3573 1350 1812 530 113 20 16 425 765 87 108 29 19
internal_value=0 0.0580813 0.058734 0.0593049 0.0529143 -0.00362768 0.0598827 0.074852 0.0627192 -0.0799628 0.0988636 -0.0887947 -0.0153522 -0.147222 0.07065 0.0951967 -0.163802 -0.12059 -0.171964 -0.167744 -0.167693 -0.101451 -0.102278 -0.102008 -0.101336 -0.100928 -0.101867 -0.10185 -0.101304 -0.102467 -0.101979 -0.101189 -0.101326 -0.101316 -0.101378 -0.101241 -0.102013 -0.100876 -0.101978 -0.101434 -0.102268 -0.101064 -0.101099 -0.101137
internal_weight=0 102590 102172 101809 72151.1 7916.46 64234.6 29657.7 19702.3 566.395 9955.41 562.485 249.219 313.266 137.143 124.34 301.686 112.076 266.566 12.8029 31.3739 362.897 80.7018 175.697 418.27 187.2 134.39 35.1201 398.733 41.3073 19.5373 62.7838 335.949 306.525 19.3368 44.3918 18.8057 167.863 16.5586 29.424 2.24715 18.392 0.731581 0.530702
internal_count=268644 260242 227598 197192 149351 23823 125528 47841 37465 8402 10376 8379 4972 3407 844 653 3405 4128 1388 191 230 30406 3898 9416 32644 20990 7634 2017 31590 1782 1054 5458 26132 24017 1484 3686 985 19506 878 2115 107 1772 69 48
is_linear=0
shrinkage=0.1


Tree=9
num_leaves=49
num_cat=0
split_feature=131 108 135 73 30 32 95 74 31 75 31 95 136 58 35 71 5 1 31 130 128 98 30 29 34 76 111 129 136 88 80 94 107 30 72 45 21 71 74 98 29 31 104 38 117 72 44 73
split_gain=1024.02 928.336 1384.25 2170.04 1760.07 1368.25 1051.32 2208.17 929.791 926.471 900.163 1010.4 845.77 838.401 813.484 651.108 598.787 469.893 420.653 413.2 407.622 355.847 354.947 304.55 273.374 254.246 165.969 145.511 129.699 129.112 108.95 0.571206 0.00620046 0.00186536 0.00153715 0.000362667 0.000279746 0.000232324 0.000172551 9.45344e-05 8.74494e-05 6.93118e-05 5.14127e-05 4.34309e-05 4.18755e-05 3.89444e-05 2.19311e-05 1.55411e-05
threshold=1.0000000180025095e-35 -0.89266446232795704 1.0000000180025095e-35 -0.84269034862518299 1.0712250471115115 0.95332989096641552 -1.019186198711395 -0.97120049595832814 0.98756512999534618 -0.96152848005294789 1.0088711977005007 -1.0466564893722532 1.0000000180025095e-35 0.95735532045364391 0.88517823815345775 -0.45795617997646326 0.62506079673767101 0.52730795741081249 0.97952395677566539 1.0000000180025095e-35 1.0000000180025095e-35 -0.93015196919441212 1.0370392799377444 1.2416124343872073 0.90182650089263927 -1.1471989750862119 -0.88777315616607655 1.0000000180025095e-35 1.0000000180025095e-35 -1.2043412923812864 -1.1547179818153379 -0.86487424373626698 -1.0191498994827268 1.0665680766105654 -0.55382347106933583 1.0606476068496706 1.2606713175773623 -0.41772072017192835 -1.0530547499656675 -0.75856077671051014 1.2352761626243594 1.0013387799263003 -0.90622547268867482 0.9313013255596162 -0.88097494840621937 -0.65827712416648854 1.1493152379989626 -0.8438148796558379
decision_type=2 2 2 2 2 2 2 2 2 2 2 2 2 2 2 2 2 2 2 2 2 2 2 2 2 2 2 2 2 2 2 2 2 2 2 2 2 2 2 2 2 2 2 2 2 2 2 2
left_child=1 5 3 4 12 10 17 -8 22 14 11 18 -3 -13 28 -16 -6 -5 -1 27 24 26 31 -24 -11 -21 -10 -12 -7 -23 -22 -4 42 34 36 38 37 -34 44 -38 -40 46 -2 47 -35 -45 -36 -37
right_child=32 2 8 6 16 9 7 -9 21 20 19 13 -14 -15 15 -17 -18 -19 -20 25 30 29 23 -25 -26 -27 -28 -29 -30 -31 -32 -33 33 35 41 43 39 -39 40 -41 -42 -43 -44 45 -46 -47 -48 -49
leaf_value=0.022166856746376244 -0.10618299516747449 -0.012384970096854589 -0.16511226876452745 0.11815869109186508 -0.18694618893306469 0.09542649394973865 -0.015587928304082519 0.067104810358106975 -0.13778328374060975 0.10480493268829033 0.11996860218391342 0.045326009583526353 -0.12118729463919475 0.13504873387639466 -0.10306878856189139 -0.011309390893305203 0.069865027057135709 0.043807479154780504 -0.14037108073871679 0.046704973227358865 0.074096314580266276 -0.17440552432397347 0.13179486374074564 -0.16247021273210521 0.016157889166461391 -0.16910613753705681 0.090201466413168882 0.042296922168112636 -0.091242269696323236 0.16201971140894497 0.16891359193308281 -0.12608476446549852 -0.1013824871379921 -0.10180481780842617 -0.10342294377655731 -0.10181924516240988 -0.10165607787576157 -0.10184512963466189 -0.10217113310095263 -0.1029026897151047 -0.10152061664893977 -0.10210643542717915 -0.10711211191141262 -0.10162377188599166 -0.10206879045389677 -0.10187320833900296 -0.1030308250122321 -0.10197841866112711
leaf_weight=262.92370623815805 0.95766361989080939 3315.7520028930157 38.2897295858711 4737.4227469312027 93.514877160079777 696.62352840043604 3587.7015425069258 32318.143138740677 218.19182490929961 457.01537325233221 2583.0185471791774 35379.393499700818 910.6849003508687 1073.0587625787593 924.53628198755905 4727.5698835751973 3117.3214728394523 1035.8675852511078 403.71481971349567 176.5873579531908 185.4591628164053 13.127621389925478 4197.9158253408968 35.467919565737247 1456.7737518856302 79.015496551990509 37.405204895883799 266.03740981221199 39.322641268372536 87.055956773459911 349.68394432961941 4.1573538091033688 89.29481763811782 19.823411561548713 2.1565635316073886 12.957135014235975 124.19732565945014 12.356295846402643 114.91886698640883 0.61130774393677612 2.1043641362339249 0.68709612358361472 1.5751291252672661 17.772911280393604 8.6239276975393278 9.6621174123138172 4.2124800980091095 11.648216579109429
leaf_count=546 19 13531 166 4383 388 649 10555 50042 837 331 1974 111303 4418 2825 5161 17159 5237 1790 1652 262 290 64 3477 153 3999 276 70 391 111 58 330 29 6893 1148 69 742 7892 739 5557 27 149 37 26 1136 444 540 155 614
internal_value=0 0.052181 0.0612597 0.0563316 0.00657238 0.0422349 0.0652107 0.0588422 0.11352 0.00660584 0.0500625 0.045736 -0.035829 0.0479672 -0.013442 -0.0263188 0.0623855 0.104818 -0.0762658 0.101789 0.0589008 -0.0418065 0.126444 0.129329 0.0373269 -0.0200095 -0.104419 0.112716 0.0854525 0.117936 0.136054 -0.16129 -0.101827 -0.101798 -0.101607 -0.102025 -0.101562 -0.101439 -0.102106 -0.101662 -0.102159 -0.103061 -0.106761 -0.101798 -0.101885 -0.101712 -0.103164 -0.101895
internal_weight=0 102809 53748 49116.4 7437.27 49060.7 41679.1 35905.8 4631.61 8836.98 40223.7 37119.1 4226.44 36452.5 6388.05 5652.11 3210.84 5773.29 666.639 3104.66 2448.93 355.781 4275.83 4233.38 1913.79 255.603 255.597 2849.06 735.946 100.184 535.143 42.4471 433.56 431.027 233.516 197.511 226.46 101.651 145.471 124.809 117.023 7.05614 2.53279 52.0404 28.4473 27.435 6.36904 24.6054
internal_count=268644 242457 95198 90344 23574 147259 66770 60597 4854 28030 119229 116326 17949 114128 23080 22320 5625 6173 2198 2903 4950 1029 3825 3630 4330 538 907 2365 760 122 620 195 26187 26142 15812 10330 15551 7632 7298 7919 5706 261 45 3032 1592 1676 224 1356
is_linear=0
shrinkage=0.1


Tree=10
num_leaves=48
num_cat=0
split_feature=131 134 72 38 136 72 3 29 32 39 133 133 106 64 135 72 133 107 30 72 72 45 21 71 74 36 98 29 31 88 101 71 71 29 38 117 72 72 44 72 73 2 61 47 70 87 109
split_gain=864.976 855.485 767.269 2970.02 2351.47 1786.01 1530.05 837.662 835.298 978.484 1754.82 741.142 386.875 266.208 249.921 241.863 28.0188 0.00454637 0.00137353 0.00113213 0.000777849 0.000267085 0.000206155 0.00017142 0.000126996 9.72225e-05 6.9917e-05 6.43491e-05 5.09109e-05 4.84202e-05 3.7214e-05 3.69666e-05 3.63871e-05 3.9402e-05 3.19953e-05 3.08644e-05 2.87002e-05 2.20474e-05 1.60668e-05 1.50941e-05 1.14449e-05 8.16969e-06 6.54522e-06 5.58193e-06 2.99417e-06 2.8198e-07 1.15516e-07
threshold=1.0000000180025095e-35 1.0000000180025095e-35 -0.61044472455978382 0.94624897837638866 1.0000000180025095e-35 -0.64768201112747181 0.4814943820238114 1.2352761626243594 0.88690975308418285 0.93436565995216381 1.0000000180025095e-35 1.0000000180025095e-35 -0.98658642172813404 0.36944414675235754 1.0000000180025095e-35 -0.61368685960769642 1.0000000180025095e-35 -1.0191498994827268 1.0665680766105654 -0.55382347106933583 -0.55065444111824025 1.0606476068496706 1.2606713175773623 -0.41772072017192835 -1.0530547499656675 0.92577961087226879 -0.75856077671051014 1.2352761626243594 1.0013387799263003 -0.51894295215606678 -0.77913492918014515 -0.42982715368270868 -0.42982715368270868 1.1497199535369875 0.9313013255596162 -0.88097494840621937 -0.65827712416648854 -0.47227278351783747 1.1493152379989626 -0.55382347106933583 -0.8438148796558379 0.018995150923728946 0.68156704306602489 1.1799462437629702 -0.29003982245922083 -0.40050186216831202 -1.0877705216407774
decision_type=2 2 2 2 2 2 2 2 2 2 2 2 2 2 2 2 2 2 2 2 2 2 2 2 2 2 2 2 2 2 2 2 2 2 2 2 2 2 2 2 2 2 2 2 2 2 2
left_child=1 2 3 6 5 -5 11 -8 12 13 -11 -1 16 -10 -14 -6 -4 30 19 22 25 24 23 -19 35 32 -24 -26 38 37 -2 44 33 -3 40 -20 -36 43 -21 -33 -23 -39 -34 -22 -27 46 -31
right_child=17 20 8 4 15 -7 7 -9 9 10 -12 -13 14 -15 -16 -17 -18 18 21 28 29 34 26 -25 27 31 -28 -29 -30 45 -32 39 42 -35 36 -37 -38 41 -40 -41 -42 -43 -44 -45 -46 -47 -48
leaf_value=0.0302314389017007 -0.10556249414922286 -0.10120748652982897 0.086674808524417044 -0.11363660809000203 -0.18599933059746454 0.023503405737979557 0.05513192256016633 -0.039610288974128646 0.10638415954814454 0.064246752829051818 0.00025277959018308026 -0.085623459928546086 -0.099826517151456545 0.19105046325794076 0.048420616274224233 -0.053238284981317656 0.19224166840302614 -0.10124932588533204 -0.10163016525561197 -0.10308709576253333 -0.10191707530141979 -0.10164315741938075 -0.10149609153847571 -0.10166676540606608 -0.10196030720342618 -0.10087307068422043 -0.10262168039650132 -0.10137408025729047 -0.10190257108658074 -0.10105555129244247 -0.10639109011187316 -0.1011250528154528 -0.10129957002743989 -0.10136070972074598 -0.10146688651799046 -0.10186819609395055 -0.10169181488721429 -0.10259040577881527 -0.10273478814589845 -0.10144133097151142 -0.10178663307878799 -0.10210459107889934 -0.10140022975758729 -0.1017971865701882 -0.10098083729595396 -0.10095669958723624 -0.10115296944619129
leaf_weight=1034.5838775029406 0.8711882978677753 266.73797754105181 49.622680845670402 1099.6773846107535 772.2739202901721 6959.7517746239901 48147.803585759364 951.66046244464815 1775.4973884541541 34080.95543685602 4901.2677924782038 1184.1825754586607 557.24489517975599 469.58173939213157 142.87529546022415 166.87534692883492 50.961905285716057 80.898148165084422 17.966220144182447 1.9573726728558529 8.3316419469192642 11.743377630598845 112.546511140652 11.199055445846168 104.18694969452918 3.1937120775692192 0.55457162484526534 1.9067197442054737 0.62289074063301075 0.2894118744879961 1.4345746254548419 39.116379911545664 17.07248175889254 17.909888100810349 16.105194904375825 7.8178358487784854 8.7574462899938208 0.43211753852665546 3.8220334053039551 1.569469679147004 10.558590532280503 1.7399317249655721 10.391556391492484 7.2741588093340406 13.376240674406288 0.20278688985854287 0.21007219888269901
leaf_count=2873 19 22770 104 4396 3048 14176 82900 2961 2605 58769 12693 4408 19673 314 349 420 10 6893 1148 69 453 742 7892 739 5557 377 27 149 37 28 26 3573 1350 1361 1136 444 540 18 155 113 614 89 765 425 1395 22 19
internal_value=0 0.0469988 0.0475605 0.040333 -0.0126589 0.00479119 0.049625 0.0532956 0.0579332 0.0598979 0.0562007 -0.0316017 -0.0432265 0.124093 -0.0695734 -0.162409 0.140161 -0.101651 -0.101625 -0.101452 -0.101237 -0.101828 -0.101411 -0.1013 -0.101901 -0.101206 -0.101502 -0.10195 -0.102762 -0.101871 -0.106078 -0.101086 -0.101228 -0.101217 -0.101624 -0.101702 -0.101546 -0.101903 -0.102854 -0.101137 -0.101711 -0.102201 -0.101338 -0.101861 -0.10096 -0.101056 -0.101097
internal_weight=0 102733 102345 60316.8 8998.58 8059.43 51318.2 49099.5 42028 41227.3 38982.2 2218.77 800.705 2245.08 700.12 939.149 100.585 392.949 390.643 211.601 387.848 179.042 205.198 92.0972 131.878 369.368 113.101 106.094 6.4023 18.4801 2.30576 57.2558 312.112 284.648 47.1646 25.7841 24.8626 17.7779 5.77941 40.6858 22.302 2.17205 27.464 15.6058 16.57 0.702271 0.499484
internal_count=268644 242457 209699 115182 22040 18572 93142 85861 94517 74381 71462 7281 20136 2919 20022 3468 114 26187 26142 15812 32758 10330 15551 7632 7298 31704 7919 5706 261 1054 45 5458 26246 24131 3032 1592 1676 985 224 3686 1356 107 2115 878 1772 69 47
is_linear=0
shrinkage=0.1


Tree=11
num_leaves=50
num_cat=0
split_feature=74 108 32 135 73 30 93 30 74 75 31 94 31 136 35 31 70 5 104 50 98 113 95 128 129 29 53 2 72 73 57 94 88 55 74 1 117 62 131 112 31 118 30 61 135 131 30 98 29
split_gain=795.234 804.002 1151.25 1108.47 1527.75 1387.15 1089.73 904.823 827.8 786.282 781.344 791.653 778.901 743.093 649.407 561.055 526.748 478.853 364.168 339.048 322.126 298.261 250.739 248.757 265.167 234.195 185.148 180.743 136.741 135.587 121.825 118.132 104.843 95.3102 65.9596 100.373 65.2876 34.6131 9.40073 7.61577 4.74151 1.20045 1.04421 0.444521 0.294597 0.00116021 4.84641e-05 4.69458e-05 9.61106e-06
threshold=-1.0530547499656675 -0.89266446232795704 0.95332989096641552 1.0000000180025095e-35 -0.84269034862518299 1.0712250471115115 -1.1288188099861143 1.0155856609344485 -0.91652584075927723 -0.95854312181472767 1.0117015838623049 -1.0636105537414549 0.98756512999534618 1.0000000180025095e-35 0.88517823815345775 0.98368212580680858 -0.2962124496698379 0.62506079673767101 -0.88330662250518788 1.2096319198608401 -0.93015196919441212 -0.97324806451797474 -1.0933470726013181 1.0000000180025095e-35 1.0000000180025095e-35 1.2416124343872073 1.1164655089378359 0.66222119331359874 -0.70091831684112538 -0.88667064905166615 0.92102411389350902 -1.0524998307228086 -1.2043412923812864 0.89227738976478588 -1.0710639357566831 0.63145759701728832 -0.88097494840621937 0.41725216805934912 1.0000000180025095e-35 -0.84754595160484303 1.0013387799263003 -0.8541562259197234 1.0370392799377444 0.58212733268737804 1.0000000180025095e-35 1.0000000180025095e-35 1.0614807009696963 -0.868882656097412 1.1497199535369875
decision_type=2 2 2 2 2 2 2 2 2 2 2 2 2 2 2 2 2 2 2 2 2 2 2 2 2 2 2 2 2 2 2 2 2 2 2 2 2 2 2 2 2 2 2 2 2 2 2 2 2
left_child=19 2 10 4 5 6 -3 26 -9 14 11 15 21 -13 28 -2 -16 -7 29 22 33 42 27 24 -11 -23 -6 34 -4 -12 -25 -20 -22 -14 35 -1 -36 -21 40 44 41 -24 -5 -42 -29 -41 47 -40 -48
right_child=1 3 9 12 7 17 -8 8 -10 23 18 13 20 -15 16 -17 -18 -19 31 37 32 25 38 30 -26 -27 -28 39 -30 -31 -32 -33 -34 -35 36 -37 -38 -39 46 45 43 -43 -44 -45 -46 -47 48 -49 -50
leaf_value=-0.17678078491623447 0.019009547278001637 0.049651609514101414 -0.098591566390402133 -0.15190977124374294 -0.019909922485118275 -0.17270598253372568 -0.066925341444733499 0.046929608232102946 0.078632993868106349 0.013103297582850119 -0.017750722288958128 0.035467485556967389 -0.17794877065838924 0.084263762357586661 -0.099015299762977502 -0.12333874913494391 -0.015578933142209567 0.060960999170700358 0.10935135190671591 0.45927842468376029 -0.16643874842631512 0.11426977977131342 -0.15711202471315941 0.0028121406102274205 0.10302685424176324 -0.15121321220829681 -0.12964659243122911 -0.16995562888468199 0.081994641614132849 0.11876553120801003 0.13621487079427538 -0.21820795135502458 0.13974334714460881 -0.049819538394029445 -0.17412314507809235 0.17340659641839928 0.12474399387193327 0.20360363714149884 -0.10109944710636454 -0.10220888253192484 -0.19393553097922955 -0.10349923688532002 -0.18500109969924786 -0.17825456479172125 -0.14970040531936585 -0.10106515102415981 -0.1013694515740523 -0.10262171511869866 -0.10151378784520858
leaf_weight=24.01801001932472 611.28923253994435 1105.7605105373077 44.628599494695663 22.011089434847236 382.32169356616214 90.336359565611929 2917.4648165735416 29307.162386990152 11455.088218976278 1440.3984637418762 76.045699245296419 33974.659372765571 116.31084530055523 3436.4942995235324 895.76343653770164 506.14781399723142 4871.9320030827075 3006.9441714491695 14.562515240162609 8.6519443737342971 12.825625285506247 4177.3767543826252 181.64580300962552 82.329276069998741 424.58423238992691 33.494488274678588 257.17110456526279 18.417559717781842 693.57795524783432 1680.0892259590328 406.22818882018328 45.132447233423591 87.353097192943096 115.91164859384298 7.9604333238676181 12.416260061785577 89.356100271455944 13.646828190889208 6.5727633675560355 60.15918421279639 35.983350086957216 4.2747454387135795 16.824759900569916 36.329732939600945 11.768860451877119 10.403016780503092 7.6014753598719862 0.20903117489069956 11.736144952476023
leaf_count=454 1252 3349 397 110 2313 534 16066 54829 14385 3779 479 113380 498 4070 6825 2273 19443 7114 13 3 64 3443 906 151 576 153 1379 140 1061 1110 424 292 58 354 166 2 221 45 614 2895 148 174 68 148 90 1003 573 12 808
internal_value=0 0.0425352 0.0333256 0.0510683 0.0466286 0.00384174 -0.0348848 0.0539873 0.055839 0.000683934 0.0404936 0.0374724 0.098083 0.0399498 -0.0172342 -0.0454677 -0.0285372 0.0541458 0.104597 -0.0790088 -0.0493371 0.109614 -0.0954181 0.0502152 0.0335754 0.112158 -0.0640404 -0.0188678 0.0710772 0.112854 0.113735 -0.1383 0.100544 -0.113994 0.0573281 -0.0574421 0.100297 0.302806 -0.158547 -0.120023 -0.16433 -0.155879 -0.166246 -0.186057 -0.162059 -0.10204 -0.101376 -0.101146 -0.101457
internal_weight=0 102308 49203.9 53104.4 48522.2 7120.51 4023.23 41401.7 40762.3 8859.44 40344.4 38528.6 4582.11 37411.2 6505.9 1117.44 5767.7 3097.28 1815.83 541.151 332.401 4249.71 518.852 2353.54 1864.98 4210.87 639.493 234.499 738.207 1756.13 488.557 59.695 100.179 232.222 133.751 36.4343 97.3165 22.2988 284.353 100.749 258.234 185.921 38.8358 72.3131 30.1864 70.5622 26.1194 6.78179 19.3376
internal_count=268644 260242 155525 104717 99969 27063 19415 72906 69214 32656 122869 120975 4748 117450 27726 3525 26268 7648 1894 8402 974 3774 8354 4930 4355 3596 3692 4971 1458 1589 575 305 122 852 843 456 387 48 3383 4128 1376 1080 178 296 230 3898 2007 626 1381
is_linear=0
shrinkage=0.1


Tree=12
num_leaves=56
num_cat=0
split_feature=134 132 131 72 30 4 36 45 59 58 119 107 30 30 72 72 120 29 74 72 32 108 108 29 73 88 32 108 104 71 76 30 36 72 38 71 33 72 73 35 72 71 45 58 2 71 16 47 72 108 36 58 61 78 105
split_gain=689.831 694.487 695.954 618.156 2473.88 1171.27 994.167 828.755 1597.34 722.382 0.0127433 0.00377695 0.00117034 0.00109857 0.000963536 0.000646751 0.000616733 0.000233576 0.00020794 0.000102073 9.86692e-05 0.000146385 7.79737e-05 6.70524e-05 6.74743e-05 3.873e-05 3.55277e-05 3.48704e-05 3.05858e-05 2.8095e-05 2.48469e-05 4.03494e-05 2.34659e-05 1.94581e-05 1.84187e-05 1.77769e-05 1.75403e-05 1.62048e-05 1.36241e-05 1.12341e-05 8.88642e-06 8.44003e-06 6.79225e-06 6.71743e-06 6.7028e-06 5.10003e-06 4.83288e-06 1.8272e-05 4.65485e-06 2.60444e-06 1.83834e-06 1.49758e-06 1.15851e-06 3.12658e-07 8.22495e-08
threshold=1.0000000180025095e-35 1.0000000180025095e-35 1.0000000180025095e-35 -0.61044472455978382 1.0610010027885439 0.53123766183853161 0.93426552414894115 1.1159913539886477 0.8229787051677705 0.86913391947746288 -1.4909263253211973 -1.0191498994827268 1.0610010027885439 1.0712250471115115 -0.55382347106933583 -0.55065444111824025 -1.5868256688117979 1.0736523866653445 -1.0530547499656675 -0.61044472455978382 0.95332989096641552 -0.89266446232795704 -1.0520702600479124 1.1497199535369875 -0.93617337942123402 -0.51894295215606678 0.88690975308418285 -1.0520702600479124 -0.90622547268867482 -0.45795617997646326 -1.1872721910476682 1.0712250471115115 0.92577961087226879 -0.47227278351783747 0.97087973356246959 -0.42982715368270868 0.90347960591316234 -0.47227278351783747 -0.84269034862518299 0.88517823815345775 -0.47227278351783747 -0.42982715368270868 1.0616423487663271 0.95735532045364391 0.018995150923728946 -0.42982715368270868 0.91544863581657421 1.1799462437629702 -0.77587756514549244 -1.0313263535499571 0.92092192173004161 0.95735532045364391 0.68072336912155162 -0.55392348766326893 -0.82211461663246144
decision_type=2 2 2 2 2 2 2 2 2 2 2 2 2 2 2 2 2 2 2 2 2 2 2 2 2 2 2 2 2 2 2 2 2 2 2 2 2 2 2 2 2 2 2 2 2 2 2 2 2 2 2 2 2 2 2
left_child=1 2 3 4 6 -6 -1 9 -9 -5 16 28 17 14 -13 20 26 22 -15 -19 30 29 -12 42 -25 33 43 37 -4 39 31 38 -31 46 35 -32 -28 -18 -2 -22 -29 -36 -14 -3 -35 50 51 -48 -33 -46 -23 -17 -47 54 -27
right_child=15 10 11 7 5 -7 -8 8 -10 -11 12 13 23 18 -16 25 27 19 -20 -21 21 45 -24 24 -26 53 36 40 -30 32 34 48 -34 44 41 -37 -38 -39 -40 -41 -42 -43 -44 -45 49 52 47 -49 -50 -51 -52 -53 -54 -55 -56
leaf_value=0.0035663365093544759 -0.10095629239476803 -0.10077653110293568 -0.1051783497485131 0.055008250800495595 -0.02652751455691332 0.048767498185405843 -0.14029620982774096 -0.0081790818706257342 0.051087675122841451 0.10607104606599077 -0.10141976932527824 -0.10130178263546025 -0.1022164464918318 -0.10139508905757391 -0.1025875645955357 -0.10178800432279178 -0.10139410520223698 -0.10191653819897802 -0.1017568054893566 -0.10212082464572424 -0.10134336631967281 -0.10121851363646067 -0.10179169835484657 -0.10205801858466078 -0.10260554989564155 -0.10098848617207581 -0.10091545451123601 -0.10182897839460399 -0.10595383733683578 -0.10106233836001091 -0.10116806596589725 -0.10098317441607794 -0.10094579791365527 -0.10242249726385495 -0.1009976531015888 -0.10129582710947932 -0.1018492772030377 -0.10114425123164945 -0.10113692705520982 -0.1008685023289337 -0.10152229712392552 -0.10112649632386028 -0.10191996609757528 -0.10084932658450259 -0.10170212451586913 -0.10129196490909038 -0.10177122166866276 -0.10146977335839374 -0.10125693621441828 -0.10202817568019917 -0.10108496108430257 -0.10193336932454136 -0.10139644152780299 -0.10087239968077666 -0.10107416263893509
leaf_weight=15490.285957426764 17.67043192172423 118.38963434938341 0.81696112640202079 11517.750820463523 2173.4507490247488 41778.466513939667 495.7294051242061 5842.6664995141327 20514.7049621935 3647.9912902414799 6.7295448277145615 216.22277652379125 2.8160923160612579 18.594669917598367 5.9896301948465398 3.2269891873002097 6.1672807186841965 51.008697695098817 109.37731287023053 46.990908247418702 0.50976110622287052 23.073940486647196 34.711376134771854 2.4010248938575378 35.952813496813178 0.26169220823794603 20.727650625631217 1.0879971738904712 1.3474142784252752 37.010357356630266 150.31860534660518 0.66505186120048065 32.405696044676006 0.40539154596626881 7.9718905212357667 11.741481337696312 0.20311563275754352 4.4824443375691789 5.4674093881621983 21.956904816441238 7.1800430882722122 14.035534602589903 1.0649304827675221 14.196397244930266 0.3002840355038644 3.9837586972862473 7.6610076297074539 2.7263267561793327 9.3977388199418765 1.3303693365305658 1.0788661139085878 0.90816644486039866 1.4468148127198217 0.18940934585407276 0.1959501663222909
leaf_count=38845 1890 15484 19 16968 5741 63360 2563 14191 35241 2383 501 17876 133 1407 261 187 462 2788 6598 2363 39 1944 2045 127 1464 27 2306 63 26 3572 13245 71 3519 18 821 932 16 404 494 2595 493 1284 58 1700 20 317 450 192 772 69 102 49 107 23 19
internal_value=0 0.038315 0.0388012 0.0392885 0.0327917 0.0450441 -0.000894869 0.0486664 0.03795 0.067291 -0.101486 -0.101497 -0.10207 -0.101471 -0.101336 -0.101141 -0.10087 -0.10193 -0.101704 -0.102014 -0.101111 -0.101039 -0.101731 -0.102531 -0.102571 -0.101739 -0.100803 -0.101409 -0.105661 -0.100976 -0.101151 -0.101072 -0.101008 -0.101769 -0.101166 -0.101177 -0.100925 -0.101289 -0.100999 -0.100879 -0.101563 -0.10108 -0.102135 -0.100784 -0.102059 -0.101232 -0.101728 -0.101692 -0.101239 -0.101968 -0.101213 -0.10182 -0.10132 -0.10098 -0.101025
internal_weight=0 102168 101813 101461 59937.9 43951.9 15986 41523.1 26357.4 15165.7 354.11 352.349 181.675 350.184 222.212 355.94 172.435 139.441 127.972 97.9996 338.734 121.466 41.4409 42.2349 38.3538 17.2056 153.517 18.9178 2.16438 91.8827 217.268 33.2006 69.4161 16.5585 184.068 162.06 20.9308 10.6497 23.1378 22.4667 8.26804 22.0074 3.88102 132.586 2.03604 29.5834 14.5225 10.3873 10.0628 1.63065 24.1528 4.13516 5.43057 0.647052 0.457642
internal_count=268644 235886 205479 179292 110509 69101 41408 68783 49432 19351 30407 26187 9479 26142 18137 32758 20928 7697 8005 5151 31704 12195 2546 1782 1591 1054 19506 1422 45 9725 19509 3227 7091 985 16282 14177 2322 866 2384 2634 556 2105 191 17184 107 2470 878 642 843 89 2046 236 424 69 46
is_linear=0
shrinkage=0.1


Tree=13
num_leaves=50
num_cat=0
split_feature=74 108 73 32 74 37 115 31 130 31 105 57 135 75 38 70 113 124 6 130 50 30 136 72 6 95 76 58 105 43 2 107 99 30 135 98 117 19 131 112 31 30 31 11 125 131 30 97 29
split_gain=643.294 697.898 939.959 909.271 800.497 2065.56 1112.38 804.235 701.922 687.259 778.623 1042.56 869.035 639.076 541.996 547.404 473.792 359.767 334.228 334.132 265.293 237.275 223.931 211.772 626.218 211.54 201.296 201.281 196.145 154.463 152.912 147.227 95.7685 95.129 89.6795 60.9905 57.6187 14.5287 6.12083 5.83676 3.22856 0.92971 0.725308 0.312589 0.219585 0.000950661 2.63832e-05 2.58379e-05 5.24076e-06
threshold=-1.0530547499656675 -0.89266446232795704 -0.91772297024726857 0.95332989096641552 -0.92198193073272694 0.96987542510032665 -1.0078852176666258 0.98953306674957286 1.0000000180025095e-35 1.0088711977005007 -0.89083045721054066 0.95259332656860363 1.0000000180025095e-35 -0.95854312181472767 0.9313013255596162 -0.2962124496698379 -0.93154075741767872 -1.1701530218124387 0.52694314718246471 1.0000000180025095e-35 1.2096319198608401 1.0877193212509157 1.0000000180025095e-35 -0.48088309168815607 0.4804940670728684 -1.0933470726013181 -1.1471989750862119 0.94867733120918285 -0.89479759335517872 1.1117721796035769 0.66222119331359874 -0.90773832798004139 -0.94605010747909535 1.0829873681068423 1.0000000180025095e-35 -0.99549418687820423 -0.88097494840621937 1.5950098037719729 1.0000000180025095e-35 -0.84754595160484303 1.0013387799263003 1.0610010027885439 1.0013387799263003 0.81376168131828319 -1.0468049049377439 1.0000000180025095e-35 1.0614807009696963 -0.81695079803466786 1.1497199535369875
decision_type=2 2 2 2 2 2 2 2 2 2 2 2 2 2 2 2 2 2 2 2 2 2 2 2 2 2 2 2 2 2 2 2 2 2 2 2 2 2 2 2 2 2 2 2 2 2 2 2 2
left_child=20 3 16 9 5 6 -4 18 -9 10 11 -2 -12 14 22 -16 17 32 -6 31 25 34 -5 24 -15 30 -21 -25 -23 -7 35 -11 -3 -19 -18 36 -1 -22 40 44 41 -27 -37 -42 -32 -41 47 -40 -48
right_child=1 2 4 13 7 29 -8 8 -10 19 12 -13 -14 23 15 -17 21 33 -20 26 37 28 -24 27 -26 38 -28 -29 -30 -31 39 -33 -34 -35 -36 42 -38 -39 46 45 43 -43 -44 -45 -46 -47 48 -49 -50
leaf_value=-0.16643179391294372 0.013846959684218511 0.19978194555363865 -0.12155095748143679 0.069535579634718611 -0.041828248732742622 -0.075605385343235215 0.038162916676285588 0.055529221127976036 0.11144437434265471 0.097156519000210648 0.029380275436736766 0.1259898304679459 0.082154644678221922 -0.062736139018919376 -0.10766678817742148 -0.017747175073628121 -0.036995558803019829 -0.17365100777486242 0.052038531597996346 0.029595569101627459 0.17485554148158705 0.060578285613237248 -0.14092631140639283 0.12850754639581585 0.063307849804661948 -0.14115061307608343 -0.16300923769736872 -0.17785576142631077 -0.19736006439453979 -0.15484925967536697 -0.15974606199292607 0.016665157489909828 -0.16569608016850035 0.090940417732351952 0.12956434913851814 -0.1255852413494378 0.091569113048682482 0.32899811971475085 -0.10089800773511425 -0.10200482114975598 -0.1622821665182205 -0.15578067775156493 -0.18356296808691336 -0.17832827910326107 -0.13625529732446179 -0.10087002706452315 -0.10111820723924106 -0.10214268636246591 -0.10123585889417941
leaf_weight=9.4068125663325173 22792.140548918396 53.73181162821129 441.580538936425 782.28040209459141 989.93581916345283 586.36437374353409 35030.540951796342 8967.098148482386 2994.8939308449626 2423.7623211108148 8900.689952022396 860.30056898482144 4804.5748132616282 544.25420473143458 787.41294610081241 4828.8483088598587 32.859462563414127 113.71853590989485 614.98873677570373 172.93293806910515 14.203544404357672 139.68394351191819 54.048220187425613 356.89005818404257 1429.3600083529018 74.997035053092986 79.074498996138573 22.816107443533838 37.367882034741342 423.72801296412945 24.398647722788159 250.75162470154464 8.2736852164380235 15.432169448584316 1991.2103990167379 2.8646372575312844 108.46183841209859 10.73735237121582 5.389851002022624 54.865258306264877 15.532054886221884 103.217975796666 8.7441311385482532 55.59752257168293 4.7548019085079423 8.5300394627265614 6.237654222175478 0.17210528673604386 9.6335712079890055
leaf_count=235 56566 100 2663 1800 4307 1954 74935 11802 2615 2369 54676 582 7168 1966 6343 19408 324 1423 1145 261 47 197 175 367 2485 530 276 112 191 2000 184 971 68 23 970 102 425 1 614 2895 66 550 81 230 46 1003 573 12 808
internal_value=0 0.0347772 0.0427987 0.0262081 0.0398717 0.0321594 0.0361747 0.0606104 0.0695286 0.0325712 0.0289154 0.0179259 0.0478811 -0.00290109 -0.0191702 -0.0303541 0.104035 -0.0469783 -0.00585957 0.0792379 -0.0769738 0.11715 0.0559344 0.0417072 0.0285493 -0.0930774 -0.0308397 0.110099 0.0061388 -0.108848 -0.0207232 0.08961 0.151014 -0.142035 0.12686 0.0494396 0.0709787 0.241216 -0.152405 -0.118882 -0.156813 -0.149624 -0.169256 -0.174824 -0.155915 -0.101852 -0.101124 -0.100937 -0.10119
internal_weight=0 101532 52441.4 49090.1 50049.1 36482.2 35472.1 13566.9 11962 40284.2 37357.7 23652.4 13705.3 8805.91 6452.59 5616.26 2392.28 191.156 1604.92 2926.52 517.745 2201.12 836.329 2353.32 1973.61 492.804 252.007 379.706 177.052 1010.09 222.026 2674.51 62.0055 129.151 2024.07 129.477 117.869 24.9409 270.778 92.5487 249.345 178.215 11.6088 71.1296 29.1534 63.3953 21.4332 5.56196 15.8712
internal_count=268644 260242 104717 155525 101421 81552 77598 19869 14417 122869 118992 57148 61844 32656 27726 25751 3296 1614 5452 3877 8402 1682 1975 4930 4451 8354 537 479 388 3954 4971 3340 168 1446 1294 843 660 48 3383 4128 1376 1080 183 296 230 3898 2007 626 1381
is_linear=0
shrinkage=0.1


Tree=14
num_leaves=61
num_cat=0
split_feature=31 71 40 133 72 34 71 5 38 15 36 31 60 40 71 36 49 136 71 40 29 55 107 130 98 37 108 35 105 105 53 105 133 0 72 32 104 108 57 47 72 101 91 14 97 74 73 31 56 61 129 28 61 26 69 120 42 74 53 76
split_gain=576.46 885.319 2083.8 1617.9 1345.84 1524.21 1179.3 1258.73 1176.32 1203.27 857.577 786.408 782.083 807.205 722.147 1454.81 720.69 617.625 690.015 562.852 520.47 585.454 499.643 759.834 486.569 458.208 337.091 332.482 294.114 365.703 293.176 288.292 269.376 244.284 233.144 220.077 215.705 214.344 202.751 200.547 176.145 174.982 161.451 156.245 141.894 552.537 150.492 117.229 116.583 82.6525 81.1494 73.2902 61.7816 50.5247 11.0441 5.3663 4.57013 2.36626 1.37499 0.261642
threshold=1.007513225078583 -0.43170422315597529 0.96824136376380932 1.0000000180025095e-35 -0.64768201112747181 0.90756562352180492 -0.48604089021682734 0.55271553993225109 0.96699956059455883 0.95640838146209728 0.84392589330673229 0.92893636226654064 0.73856866359710704 0.99301096796989452 -0.40078322589397425 0.94007155299186718 1.1328061223030093 1.0000000180025095e-35 -0.4377301931381225 0.97861582040786754 1.1098368763923647 0.96580511331558239 -0.8694622516632079 1.0000000180025095e-35 -0.92101827263832081 0.96987542510032665 -0.90624976158142079 0.91752111911773693 -0.88807553052902211 -0.87137392163276661 1.1247909665107729 -0.92833256721496571 1.0000000180025095e-35 0.5244431495666505 -0.56636935472488392 0.96731361746788036 -1.0079618096351621 -0.91844138503074635 0.90244877338409435 1.1489489078521731 -0.59848800301551808 -0.83683624863624562 -0.6591903269290923 0.86586686968803417 -0.94034695625305165 -0.96244448423385609 -0.83326023817062367 1.0013387799263003 0.9720868468284608 0.66928881406784069 1.0000000180025095e-35 1.1651008129119875 0.66848254203796398 1.2972450852394106 -0.083639670163393007 -1.5868256688117979 1.0698433518409731 -0.95191344618797291 1.0743293166160586 -1.1149944067001341
decision_type=2 2 2 2 2 2 2 2 2 2 2 2 2 2 2 2 2 2 2 2 2 2 2 2 2 2 2 2 2 2 2 2 2 2 2 2 2 2 2 2 2 2 2 2 2 2 2 2 2 2 2 2 2 2 2 2 2 2 2 2
left_child=1 2 6 4 19 -6 7 31 11 14 -9 36 13 -13 15 -10 17 22 24 -4 34 -22 23 32 33 -16 -25 51 41 -30 -14 -1 -2 -19 -8 47 -3 39 -37 40 58 -5 50 -29 46 -46 -24 -11 -26 52 -41 -20 59 -42 57 -38 -56 -51 -18 -39
right_child=16 8 3 28 5 -7 20 10 9 35 -12 12 30 -15 25 -17 37 18 27 -21 21 -23 44 26 48 -27 -28 43 29 -31 -32 -33 -34 -35 -36 38 55 49 -40 42 53 -43 -44 -45 45 -47 -48 -49 -50 54 -52 -53 -54 -55 56 -57 -58 -59 -60 -61
leaf_value=-0.16132245138446955 0.040789444209283918 0.16717569758314899 -0.0088470225857021391 -0.20029202303460633 0.042728434147730407 -0.035406808973152459 -0.14957808534167999 0.038854315918186638 0.03112251450430837 -0.14419156373339589 0.00060085739796478363 0.083649532256032888 0.10108050387586631 -0.018262765027865179 0.059375166469423417 -0.079147750191926311 -0.16277225255529659 0.01095354421234785 0.12183518209690554 -0.091887806619995974 0.055191676003318459 0.12574057292664942 0.086290509755702724 -0.1057870832439432 -0.18244225820960702 0.028059119816626118 0.010944966040499578 0.17248316837716415 0.028767768877023089 -0.17890049080009163 -0.093318140844127193 -0.045432869497136957 0.08666823321394565 -0.23462253820721216 0.045543394703937305 -0.30926505978259916 -0.11757392822422363 -0.15528655982805606 0.10225973734843481 -0.20937024927684306 0.072573625170394507 -0.11133561547642792 0.13896982845138303 -0.21509854319945787 -0.19677311649950077 0.086613178777316391 0.13664153786120883 -0.28614514733750074 0.12347371997737522 -0.15494083814245971 0.037731370914118545 -0.0087798305386977173 0.14905564784819259 0.23401535012125585 -0.34775369512522447 -0.15313958300500607 -0.23057938584595275 -0.18908632900221778 -0.21594785291153698 -0.18648854706236567
leaf_weight=267.22469025896862 2288.9897932633758 25.128576394170523 1442.8110096696764 310.89465865492821 7475.1539569664747 3748.5855220910162 138.63266084715724 25306.586532398127 4627.8964157872833 115.49088300438598 7626.6258420180529 1669.4172660028562 5647.5952678075992 1454.1961691952311 8339.2284562750719 1613.5865588434972 7.0579241937957731 520.50327397882938 444.02022105455399 1879.4966956360731 2777.5129859987646 2040.3978881509975 1255.1515430305153 334.60910880565643 272.0273721665144 10625.519420132972 948.96283999085426 13.130751818418501 271.41629336774349 123.3306490033865 78.659219088032842 1091.1843303740025 2902.669311568141 43.924520716071129 109.68934655282646 16.15185837354511 59.352511078584939 7.5113288443535566 46.26384545955807 83.128166362177581 101.91232856735587 765.81629967689514 20.420858383178711 50.033030763268471 74.62459495710209 881.85838046437129 1126.2395224040374 117.22616086807102 13.055315390229223 29.073016302194446 15.819437414407728 47.561133712530136 13.223439564928412 23.938787490129471 3.6652186512947074 148.74384106183425 36.244888667948544 67.220980508252978 15.633739295415578 4.1847060183063149
leaf_count=1366 9984 18 5798 1377 23214 15282 1517 52250 11354 611 26822 2819 5670 5770 30052 6462 96 823 131 11251 5565 1838 2660 965 1029 21228 1609 3 643 569 308 4918 1961 181 336 86 2934 42 25 483 137 3118 2 211 446 815 715 664 6 165 21 76 9 3 18 1524 176 366 92 30
internal_value=0 0.0282226 0.0203828 -0.0100252 8.3099e-05 0.0166323 0.032758 0.0261046 0.0407755 0.0297688 0.0299956 0.0716775 0.0764542 0.0362043 0.0321193 0.00261477 0.0518668 0.0567318 -0.00529755 -0.0558249 0.0777926 0.0850693 0.0656082 0.0494075 -0.0619435 0.0418295 -0.0194854 0.0814473 -0.109951 -0.036114 0.0984101 -0.0682305 0.0664404 -0.00815751 -0.0633886 -0.170977 -0.109577 -0.0753304 -0.00423414 -0.0205162 0.0570427 -0.137021 -0.117031 -0.134526 0.0970364 0.0645034 0.110103 -0.215698 -0.168433 -0.166474 -0.169864 0.109198 0.000971938 0.103282 -0.197109 -0.142996 -0.24134 -0.178777 -0.199408 -0.16645
internal_weight=0 89959.8 55375.4 16017.5 14546 11223.7 39357.9 34291.6 34584.5 25501.4 32933.2 9083.09 8849.87 3123.61 25206.2 6241.48 11646.4 11217.4 1404.26 3322.31 5066.23 4817.91 9813.11 6475.23 849.51 18964.7 1283.57 554.745 1471.46 394.747 5726.25 1358.41 5191.66 564.428 248.322 295.133 233.225 429.035 62.4157 267.911 148.543 1076.71 119.368 63.1638 3337.87 956.483 2381.39 232.717 285.083 161.124 98.9476 491.581 24.9195 125.851 136.204 208.096 39.9101 96.294 22.6917 11.696
internal_count=268644 245389 155864 61252 55545 38496 94612 85356 89525 70482 79072 19043 14567 8589 69096 17816 23255 21615 2460 17049 9256 7403 19155 14519 2039 51280 2574 421 5707 1212 5978 6284 11945 1004 1853 1386 4476 1640 111 834 328 4495 506 214 4636 1261 3375 1275 1035 806 504 207 81 140 725 4458 194 531 188 72
is_linear=0
shrinkage=0.1


Tree=15
num_leaves=55
num_cat=0
split_feature=29 81 73 31 127 136 3 38 71 37 38 70 2 108 32 4 71 100 63 44 6 49 29 99 73 130 125 27 16 105 108 99 81 0 116 103 97 93 131 30 97 74 75 75 29 74 133 74 109 39 75 118 31 12
split_gain=571.846 751.427 731.715 1104.54 967.826 1088.24 1280.7 826.765 1349.18 1918.7 1241.16 1145.51 1131.8 686.742 585.232 582.973 944.981 556.9 406.835 406.575 338.751 327.693 325.144 289.248 287.224 197.887 185.448 179.968 400.229 160.049 117.461 114.042 121.802 136.736 91.4735 89.2193 51.8664 11.0455 9.01738 7.42767 3.75191 2.04516 0.868748 0.727175 0.504763 0.277215 0.243424 0.22672 0.129157 0.0410196 0.0373407 0.0141961 0.0064332 0.00428852
threshold=1.2352761626243594 -1.0812115073204038 -0.91772297024726857 0.98102968931198131 -1.4765325188636778 1.0000000180025095e-35 0.66740140318870556 0.88911798596382152 -0.44215823709964747 0.92460694909095775 0.96170040965080272 -0.37200827896594996 0.46631339192390447 -0.89104369282722462 0.88690975308418285 0.71468520164489757 -0.68290644884109486 -0.8987956941127776 0.15404793620109561 0.90887698531150829 0.79152542352676403 1.0218849182128908 1.2070605158805849 -0.98084643483161915 -0.95429131388664235 1.0000000180025095e-35 -1.1969312429428098 1.3061822056770327 1.212182939052582 -0.92209401726722706 -0.89104369282722462 -0.97101691365241993 -0.97853848338127125 0.61019918322563182 -0.91960787773132313 -0.87623506784439076 -0.9361257255077361 -1.0585930347442625 1.0000000180025095e-35 1.0719312429428103 -1.0066963434219358 -1.0530547499656675 -1.017503499984741 -1.017503499984741 1.2416124343872073 -1.0530547499656675 1.0000000180025095e-35 -1.0276193618774412 -0.89588680863380421 0.62917518615722667 -1.0148216485977171 -0.89573445916175831 0.89952519536018383 1.0254844427108767
decision_type=2 2 2 2 2 2 2 2 2 2 2 2 2 2 2 2 2 2 2 2 2 2 2 2 2 2 2 2 2 2 2 2 2 2 2 2 2 2 2 2 2 2 2 2 2 2 2 2 2 2 2 2 2 2
left_child=2 24 3 15 7 6 17 11 9 -9 -10 12 -4 -8 -13 23 22 -6 -18 40 50 26 -17 39 29 -25 -21 35 -29 45 43 42 36 -34 37 -7 -33 -32 -23 -1 41 -5 -22 48 -36 51 -45 -42 -26 -47 -3 -2 -52 -54
right_child=1 20 4 19 5 27 13 8 10 -11 -12 14 -14 -15 -16 16 18 -19 -20 21 31 38 -24 25 30 -27 -28 28 -30 -31 34 32 33 -35 44 -37 -38 -39 -40 -41 47 -43 -44 46 -46 49 -48 -49 -50 -51 52 -53 53 -55
leaf_value=-0.12170205299399667 -0.12820605213488637 -0.16268221531555491 -0.083680772081274793 -0.14331993240949253 0.043016626775818606 -0.18887679415411102 -0.08548244453652698 0.022539432959441733 0.067275110176994779 -0.038800252903295418 0.026587042464058075 -0.10851720074399263 0.042857382420284931 0.03809247143951363 0.10677130288323761 -0.094489587042596773 0.054972685509346343 -0.15952986375768566 -0.16730846149985978 0.095873913161626065 -0.15974995619538268 -0.17936590327974436 0.08396776052396121 0.12660830064291284 -0.15915520710855846 -0.16483193135520158 -0.044583977262928114 0.1006655282487712 -0.11004753287320426 0.20963833560024281 0.17198875794930538 0.083333799853347726 0.21258392021953162 -0.18902640969537748 -0.18312496278187576 -0.088475411703221096 0.17076729276814856 0.053509805249759484 -0.10132654759589513 -0.21305598194317132 -0.18720876725756611 -0.17054115315862625 -0.2100978405363923 -0.17657016978333487 -0.14862083019772462 -0.14336160915336196 -0.21039013886052974 -0.2002096144876247 -0.16702306431409286 -0.15916787399187665 -0.17097485893631958 -0.13600506076584526 -0.17867258900162708 -0.17534822564124009
leaf_weight=20.448824635706842 5.1271517728455365 2.4367435537278643 746.49050731025636 36.551244954578578 4616.276229666546 272.7457949789241 1729.1646374147385 21781.902819871437 9949.182117535267 6658.2285439234693 30418.678045979934 130.97022281866521 13311.744842667598 607.77684281487018 3515.299562455155 107.63694848120213 120.68780104443431 139.85898093972355 259.14319057157263 227.23184312973171 7.0458926167339087 81.934538218192756 1983.0919808447361 2178.0804141266271 434.15334651898593 23.549906199797988 160.32113782223314 111.76970991492271 465.83865068107843 38.395136397331953 12.787197459489105 118.49994064681232 12.643509864807127 25.72926945798099 5.4795531444251564 131.02603464201093 158.72448952496052 20.4570597037673 18.07242211792618 15.759240287356077 23.82828263938427 112.70402015838772 6.6728036142885667 7.4202983491122705 18.739342812914401 2.0870779366232437 2.9840947687625885 30.689913185313344 21.917751129716635 7.6963561335578561 3.1412203609943381 4.2841127561405319 4.2656241692602626 42.983514469116926
leaf_count=848 45 12 2779 206 11450 1206 5785 61432 19366 30560 83803 727 24915 1854 3676 968 508 1969 3629 401 32 405 2040 1684 2030 169 793 104 1521 10 3 139 1 107 26 393 58 44 1476 96 101 510 35 70 91 42 12 131 95 51 13 23 21 179
internal_value=0 -0.0486288 0.0287742 0.064578 0.0267302 -0.00638031 0.00727519 0.0298205 0.0248617 0.00817896 0.0366151 0.0490926 0.0361382 -0.0533439 0.0990384 0.0819085 0.0484194 0.0370605 -0.0966807 -0.0534534 0.0603022 -0.00387568 0.0747802 0.11888 -0.120211 0.123491 0.0377699 -0.105077 -0.0692736 0.0917676 -0.143511 0.0980116 0.110281 -0.0566992 -0.00860712 -0.156296 0.133394 0.099082 -0.165263 -0.161463 -0.172076 -0.163875 -0.184239 -0.16013 -0.156427 -0.144009 -0.18627 -0.194527 -0.159533 -0.155796 -0.174772 -0.131756 -0.175357 -0.175648
internal_weight=0 963.671 99986.7 5399.73 94587 8074.46 7093.08 86512.5 68808 28440.1 40367.9 17704.5 14058.2 2336.94 3646.27 4708.4 2470.56 4756.14 379.831 691.333 382.143 487.56 2090.73 2237.84 581.528 2201.63 387.553 981.38 577.608 57.5898 523.939 329.316 315.597 38.3728 57.4632 403.772 277.224 33.2443 100.007 36.2081 203.773 149.255 13.7187 466.475 24.2189 19.1947 10.4044 54.5182 456.071 9.78343 52.8271 9.41126 50.3904 47.2491
internal_count=268644 3139 265505 13965 251540 24282 21058 227258 195161 91992 103169 32097 27694 7639 4403 9942 7145 13419 4137 4023 597 3075 3008 2797 2542 1853 1194 3224 1625 171 2371 372 305 108 164 1599 197 47 1881 944 948 716 67 2207 117 161 82 232 2125 93 225 68 213 200
is_linear=0
shrinkage=0.1


Tree=16
num_leaves=60
num_cat=0
split_feature=108 77 111 73 36 94 95 74 39 73 133 73 80 70 31 37 5 89 4 132 30 30 39 52 1 110 108 91 113 103 74 13 74 33 78 96 128 109 130 42 75 110 58 31 10 101 86 109 58 135 107 12 69 112 13 105 31 30 118
split_gain=585.86 822.721 3368.52 846.483 1062.65 1240.76 919.993 1728.62 802.456 1078.31 1308.39 1114.78 1098.9 1000.57 718.297 706.256 672.772 655.643 694.17 648.834 605.538 596.251 569.602 559.926 507.571 484.321 473.708 472.285 388.331 533.635 413.124 338.362 330.28 324.591 319.275 285.753 253.661 243.925 223.677 219.045 199.666 189.946 168.513 159.109 142.845 134.714 133.576 135.553 131.773 130.037 124.976 108.035 105.137 94.2243 86.9459 58.933 27.1558 6.90543 0.587067
threshold=-0.89146271347999562 -1.2247687578201292 -0.92752522230148304 -0.84823578596115101 0.85215625166893016 -1.0893000364303587 -1.020108640193939 -0.98454853892326344 0.95198914408683788 -0.78299430012702931 1.0000000180025095e-35 -0.64854902029037464 -1.1035616397857664 -0.30819927155971522 1.0135656595230105 0.94397652149200451 0.72552597522735607 -1.1738492250442503 0.6743268370628358 1.0000000180025095e-35 1.0155856609344485 1.0381987094879153 0.96820253133773815 0.9556947946548463 0.52730795741081249 -1.1375072598457334 -0.90080037713050831 -1.1539339423179624 -0.93154075741767872 -0.89257952570915211 -0.99925699830055226 0.89869362115859996 -1.0056007504463194 0.84110328555107128 -1.2430918812751768 -0.91177588701248158 1.0000000180025095e-35 -0.83778485655784596 1.0000000180025095e-35 1.0298166275024416 -1.0368689298629759 -0.89557155966758717 0.8312768042087556 1.0112203359603884 0.77295213937759411 -0.94253081083297718 -1.2526347041130064 -0.87562078237533558 0.83200621604919445 1.0000000180025095e-35 -0.90232744812965382 0.83595159649848949 -0.25395531952381128 -1.3202462792396543 1.1496258378028872 -0.85315454006195057 1.0013387799263003 1.0629454255104067 -0.8541562259197234
decision_type=2 2 2 2 2 2 2 2 2 2 2 2 2 2 2 2 2 2 2 2 2 2 2 2 2 2 2 2 2 2 2 2 2 2 2 2 2 2 2 2 2 2 2 2 2 2 2 2 2 2 2 2 2 2 2 2 2 2 2
left_child=8 2 16 4 23 -6 24 -8 13 26 12 22 15 14 17 -11 32 18 -1 -14 37 -19 -12 -4 -5 -13 36 41 29 -29 -30 33 52 53 39 -36 55 46 49 -28 -38 57 -35 -34 58 -43 47 -3 56 -16 -48 -40 -2 -15 -46 -10 -33 -22 -39
right_child=1 20 3 6 5 -7 7 -9 9 10 11 25 19 31 38 -17 -18 21 -20 -21 27 -23 -24 -25 -26 -27 34 28 30 -31 -32 48 43 42 35 -37 40 44 51 -41 -42 45 -44 -45 54 -47 50 -49 -50 -51 -52 -53 -54 -55 -56 -57 -58 -59 -60
leaf_value=0.01126820451482873 -0.16079238873240065 0.096478884912120672 -0.12949053254532369 0.085773426876023739 0.019552384283906227 -0.1059866826032176 -0.086867170920108483 0.034335294059804594 -0.19065819295298753 0.038872078571990751 -0.03574085874074228 -0.06379550455006594 0.071243694619116574 0.16019776306441241 0.098937593937808599 -0.024807418362341568 1.097431889081588 -0.07567933748900145 -0.12007668332810136 -0.10111664866322573 -0.158742474718638 0.024656970502471329 -0.13703092692554156 0.049016707325943099 0.012281110259153913 0.054366140893722686 -0.022458145305636557 -0.039784766864581655 0.1046558897021382 0.054794414554699904 -0.14087330482426239 -0.20310478548914834 -0.19243831029397293 0.079293503251581771 0.043694877142408363 -0.18076404822876702 -0.18826167838122929 -0.13247442725755773 0.081940746724443805 -0.19522433966025654 0.048413867754099164 -0.17834665970118735 0.13849688789372455 0.035510664021748975 0.19636252710818225 0.12639882049703396 0.19115318950381033 -0.089842614512278374 0.12941755643521988 -0.15148643928660821 -0.12377962550967325 -0.10849773844919906 0.23789411409995181 -0.14507277474809141 -0.11379792023446807 -0.12492702300037715 -0.40120465388767618 -0.20751279098798339 -0.10181265382661725
leaf_weight=988.95327659789473 8.9742536237463337 75.358571481890976 187.21668506413698 4828.3094648150727 1536.7759842001833 1614.2630143808201 1253.0672724009492 19316.123536092695 370.70950311003253 2887.9287145300768 1067.9590295404196 491.09276750683784 4416.6684556039982 11.916547274217008 1565.2556482385844 4387.9502577700187 4.1937410328537217 605.73316987836733 678.41529420949519 229.76496643107384 60.886520563159138 26627.782835236285 1156.2903200685978 2861.2230537869036 1166.8604190917686 1181.2496601939201 143.15063706412911 624.8484921217896 2051.8297042148188 13176.21050456306 70.896805167198181 12.574802179820837 836.0879173874855 976.36540446383879 492.39388321200386 64.10103753535077 52.047405399382114 10.663013312034311 46.21618327498436 150.58369665965438 113.10630590468645 21.270476893056184 947.1751871057786 31.785199257545173 69.872019352391362 45.610168660990894 13.104089048691092 81.034072576556355 8.913993835449217 21.013857036828995 327.91851109266281 83.808866634964943 25.153958109207451 66.731467697769403 10.380862991325555 215.80451351869851 15.387289287522433 55.492226050235331 15.069239837117491
leaf_count=2468 97 144 4463 5524 6596 10043 5688 32902 4668 10439 3027 1740 10519 2 1864 17299 4 3849 2854 24317 364 57394 4574 6450 2218 2125 1075 1997 1367 20725 250 146 5188 1605 1668 844 222 84 44 1257 179 153 635 59 366 45 10 463 1 137 1959 246 27 364 418 3603 110 255 1510
internal_value=0 0.032976 0.0239734 0.0292337 -0.00403869 -0.0447607 0.0369986 0.0269517 0.0177025 0.000370829 0.00828793 -0.042018 0.0247295 0.0269482 0.022431 0.000468132 -0.166215 0.0186984 -0.0421731 0.0627205 0.0511154 0.0224253 -0.0883972 0.0380539 0.0714694 0.0196673 -0.0778114 0.0547998 0.0566368 0.0505123 0.0964555 0.0947761 -0.17209 0.100304 -0.0266805 0.0178401 -0.135647 -0.0472364 0.0852844 -0.111027 -0.0261733 -0.104819 0.108446 -0.18409 0.0905043 0.0294787 -0.076585 -6.26756e-05 -0.205386 0.0956201 -0.111678 -0.0408082 0.133057 -0.098819 0.156243 -0.166473 -0.312117 -0.181997 -0.114518
internal_weight=0 50380.5 33670 32763.8 6199.48 3151.04 26564.4 20569.2 50077 17420.8 15818.9 3896.59 11922.3 32656.2 30617.2 7275.88 906.195 28900.9 1667.37 4646.43 16710.4 27233.5 2224.25 3048.44 5995.17 1672.34 1601.9 16107 15923.8 13801.1 2122.73 2039.06 902.001 2002.19 850.229 556.495 751.668 603.4 1716.29 293.734 165.154 183.259 1923.54 867.873 105.985 66.8806 497.415 156.393 36.8761 1586.27 341.023 130.025 34.1282 78.648 80.2529 586.514 27.9621 116.379 25.7323
internal_count=268644 109369 79259 73884 27552 16639 46332 38590 159275 87556 74040 11466 62574 71719 68856 27738 5375 66565 5322 34836 30110 61243 7601 10913 7742 3865 13516 25156 24339 22722 1617 2863 5371 2606 4844 2512 8672 4954 2291 2332 401 817 2240 5247 2378 198 2576 607 257 2001 1969 290 124 366 784 8271 256 619 1594
is_linear=0
shrinkage=0.1


Tree=17
num_leaves=61
num_cat=0
split_feature=31 60 36 64 39 44 73 136 105 30 73 15 34 78 52 38 136 103 77 71 52 130 75 105 107 130 38 13 70 35 72 98 108 97 83 70 0 9 14 36 70 57 117 76 44 42 129 74 31 73 104 23 26 73 70 70 125 30 72 52
split_gain=527.296 708.401 2118.97 1026.72 1049.92 1014.29 1184.9 908.864 888.975 847.152 814.966 807.76 792.18 778.725 777.129 621.294 583.53 561.524 510.762 488.982 459.237 441.81 560.833 555.953 429.663 631.163 417.95 498.824 416.839 643.748 399.075 323.327 297.267 274.437 239.633 175.708 166.268 264.147 140.266 137.865 408.564 159.195 125.774 111.437 93.7887 167.733 90.5344 163.929 58.3447 75.7726 56.3893 74.857 21.7054 11.744 3.56841 3.52112 1.18951 1.08032 0.636442 0.450588
threshold=1.007513225078583 0.74301001429557811 0.90567216277122509 0.40812015533447271 0.98006594181060802 1.0970481038093569 -0.78056073188781727 1.0000000180025095e-35 -0.90836083889007557 1.0949249863624575 -0.91772297024726857 0.98470848798751842 0.90182650089263927 -1.1974865198135374 1.0138117671012881 0.97912129759788524 1.0000000180025095e-35 -0.84744858741760243 -1.2039963006973264 -0.46613250672817225 1.1034263968467715 1.0000000180025095e-35 -0.87584742903709401 -0.9210141897201537 -0.8694622516632079 1.0000000180025095e-35 0.95456790924072277 0.82182303071022045 -0.27222184836864466 0.91752111911773693 -0.61289212107658375 -0.92101827263832081 -0.90624976158142079 -0.86684283614158619 -1.1445002555847166 -0.29003982245922083 0.5244431495666505 0.73493435978889476 0.92668399214744579 0.90890491008758556 -0.29447649419307703 0.88307052850723278 -1.0059840679168699 -0.77478912472724903 1.0628228187561037 1.025754511356354 1.0000000180025095e-35 -0.87451237440109242 1.0077154040336611 -0.73174935579299916 -0.8282470405101775 1.2717698216438296 1.2433555722236636 -0.80483931303024281 -0.25170236825942988 -0.22931325435638425 -1.2954404950141905 1.0494673848152163 -0.64854896068572987 1.1291347146034243
decision_type=2 2 2 2 2 2 2 2 2 2 2 2 2 2 2 2 2 2 2 2 2 2 2 2 2 2 2 2 2 2 2 2 2 2 2 2 2 2 2 2 2 2 2 2 2 2 2 2 2 2 2 2 2 2 2 2 2 2 2 2
left_child=1 2 8 12 11 19 15 -6 13 10 -10 -5 17 42 -15 30 20 -4 -11 57 24 23 -23 -8 25 34 35 -28 31 50 -7 36 -27 -17 -2 -21 37 -18 -14 41 -41 -26 -1 46 53 -46 55 -48 49 -31 52 -52 -30 -33 -50 -22 -38 59 -59 -3
right_child=16 5 3 4 7 6 21 -9 9 18 -12 -13 38 14 -16 33 28 -19 -20 26 43 22 -24 -25 39 32 27 -29 29 48 -32 44 -34 -35 -36 -37 56 -39 -40 40 -42 -43 -44 -45 45 -47 47 -49 54 -51 51 -53 -54 -55 -56 -57 -58 58 -60 -61
leaf_value=0.161904999519531 0.033181670592049135 -0.14751242346386575 -0.16873266282651686 0.044822676952370778 -0.034786509856820157 -0.057651298634431539 0.10704827790675538 -0.19101605792930346 0.076000160405952547 0.025323871599691457 0.02697925130521683 -0.074770412361523736 -0.12449584992268486 0.021323172367993741 -0.03125466497652736 -0.14096591557413676 -0.05652947726189661 0.017818857966217565 -0.16010209860185631 -0.16926048289454279 -0.18203410289061747 0.061488080772247891 -0.1693803378125639 0.020293263299462839 0.073472729553481261 -0.10000780131109617 0.097043029271584202 0.024999764548456527 0.11726259013878462 -0.20657499690410527 0.037852514736111086 -0.19587643363175355 0.0072999365676572753 0.059718341930597718 0.0767791062943705 0.1221915550521163 -0.22094830580302821 0.096389171782858718 -0.20061384840573129 -0.10157549266208793 0.079631161989991622 0.1283476713028365 -0.15517702809510506 0.13129150119934116 0.04021506501915971 -0.16814932059319487 -0.17778388018030566 0.11694528814548853 -0.16314571780009079 0.1534364450482836 0.10895729483563672 -0.14857746469752578 0.052796554310809762 -0.28232749801795792 -0.1992123428458589 -0.22508359250092913 -0.18807182348381576 -0.15423294382836278 -0.1836164343949622 -0.12960152292293245
leaf_weight=12.96872305870056 2400.8047496315558 45.650054041296244 214.41191191854887 3015.7755560493097 2810.9888244802132 869.81092997407541 769.76278938865289 429.22762981802225 3824.0497916028835 248.29785734927282 29973.967977827881 694.90355842281133 521.8810892784968 8487.4801829410717 4203.3952469504438 646.62493328819983 310.30182759463787 651.99361997051165 369.78869484178722 20.962692943867296 66.305247356882319 5082.6118930578232 107.44578815670684 18285.608786304016 1098.8373202141374 355.58834508061409 1745.4393522590399 2138.7071599913761 388.29448123276234 10.53765968978405 880.39392442721874 24.247442707419395 942.18451143801212 76.168867345899343 2654.914503225591 1562.2535188023467 20.24594758450985 177.61932429671288 451.56285790028051 142.71131703117862 971.1227035834454 1018.8475403296761 353.48630527500063 18.364737510681152 51.06654404103756 158.69116581976414 42.687689460813999 33.825278103351593 59.160467058420181 13.131781429052353 24.804635316133499 20.709896087646484 60.345172315835953 44.64725686609745 51.150824174284935 26.630508468486369 24.111754164099693 21.765297656878829 11.146533117629586 20.287997524719685
leaf_count=3 9529 257 1370 6351 13058 4197 516 1644 8935 569 78655 2631 3395 18628 13357 3480 689 2882 1554 106 448 7699 468 61186 2029 1045 1242 3598 112 45 1465 99 1619 379 2834 1092 82 126 4082 751 1125 751 2269 2 74 652 198 14 265 4 7 61 57 197 214 127 99 120 52 149
internal_value=0 0.0203996 0.0136243 -0.0314739 -0.0138913 0.0322073 0.0241172 -0.0554821 0.0219752 0.030404 0.0325257 0.0224263 -0.0979006 -0.000241164 0.00390866 -0.0418213 0.0434181 -0.0283476 -0.0856127 0.0710409 0.0521724 0.0308428 0.0567086 0.0237978 0.0552068 0.0401072 0.0750263 0.0573742 -0.0160333 0.0451185 -0.00961065 -0.0634006 -0.0221023 -0.119818 0.056076 0.118333 -0.0177138 -0.000862067 -0.159806 0.0848941 0.0564138 0.0998738 -0.143956 -0.102688 -0.150671 -0.117422 -0.128047 -0.0474884 -0.149302 -0.00684102 0.0978319 -0.00822546 0.108591 -0.251901 -0.17987 -0.19437 -0.203077 -0.149387 -0.164185 -0.142002
internal_weight=0 88548.8 56264.2 8790.75 6950.9 32284.6 26718.4 3240.22 47473.4 34416.1 33798 3710.68 1839.85 13057.3 12690.9 2473 11211.9 866.406 618.087 5566.21 9772.82 24245.4 5190.06 19055.4 9585.01 6353.49 5467.36 3884.15 1439.07 628.135 1750.2 810.931 1297.77 722.794 5055.72 1583.22 532.279 487.921 973.444 3231.52 1113.83 2117.68 366.455 187.813 278.652 209.758 169.449 76.513 133.981 23.6694 494.154 45.5145 448.64 68.8947 110.311 92.9358 44.3577 98.8499 32.9118 65.9381
internal_count=268644 245389 159383 35413 23684 86006 79390 14702 123970 89713 87590 8982 11729 34257 31985 9521 23255 4252 2123 6616 20472 69869 8167 61702 19683 15027 6038 4840 2783 765 5662 2018 2664 3859 12363 1198 996 815 7477 4656 1876 2780 2272 789 1022 726 787 212 528 49 237 68 169 296 479 575 181 578 172 406
is_linear=0
shrinkage=0.1


Tree=18
num_leaves=56
num_cat=0
split_feature=134 132 131 29 75 73 31 127 6 74 120 107 30 72 30 72 120 74 30 32 108 11 29 71 29 101 104 36 71 74 71 88 108 36 72 31 32 35 74 28 36 38 76 2 32 33 72 0 71 45 16 59 74 38 115
split_gain=501.495 498.897 489.818 482.359 629.271 525.642 833.769 704.981 293.353 214.682 0.0121133 0.00890826 0.00211867 0.00159398 0.00143832 0.00107783 0.000696459 0.000451784 0.000339772 0.00022468 0.000258666 0.000118736 0.00011106 8.25233e-05 8.79457e-05 8.13994e-05 7.68055e-05 6.22178e-05 6.16605e-05 5.17998e-05 4.88113e-05 4.7016e-05 4.37468e-05 3.61017e-05 3.21082e-05 3.06322e-05 2.75361e-05 2.70275e-05 2.11133e-05 1.60903e-05 1.59517e-05 1.40885e-05 1.36867e-05 1.2761e-05 1.2507e-05 1.21292e-05 1.09061e-05 9.86285e-06 9.72058e-06 5.62267e-06 5.25083e-06 4.52603e-06 3.11102e-06 1.0971e-06 9.05781e-08
threshold=1.0000000180025095e-35 1.0000000180025095e-35 1.0000000180025095e-35 1.2352761626243594 -1.009316027164459 -0.91952988505363453 0.98239943385124218 -1.4866267442703245 0.79152542352676403 -1.0306288003921507 -1.5402649641036985 -1.0191498994827268 1.0715815424919131 -0.55382347106933583 1.0610010027885439 -0.55065444111824025 -1.5868256688117979 -1.0530547499656675 1.0196600556373598 0.95332989096641552 -0.89266446232795704 0.77107942104339611 1.2352761626243594 -0.44215823709964747 1.1497199535369875 -0.77913492918014515 -0.87947586178779591 0.92245337367057811 -0.44301752746105189 -0.9870140254497527 -0.42982715368270868 -0.51894295215606678 -1.0520702600479124 0.92577961087226879 -0.47227278351783747 0.92893636226654064 0.88690975308418285 0.88517823815345775 -1.0530547499656675 1.1356304287910464 0.90567216277122509 0.96699956059455883 -1.0037982463836668 0.018995150923728946 0.88690975308418285 0.90347960591316234 -0.55382347106933583 0.34815335273742681 -0.42982715368270868 1.1638881564140322 0.91544863581657421 0.80451658368110668 -0.62223687767982472 0.96699956059455883 -1.3977914452552793
decision_type=2 2 2 2 2 2 2 2 2 2 2 2 2 2 2 2 2 2 2 2 2 2 2 2 2 2 2 2 2 2 2 2 2 2 2 2 2 2 2 2 2 2 2 2 2 2 2 2 2 2 2 2 2 2 2
left_child=1 2 3 5 9 6 -1 -7 -6 -5 16 25 13 -13 18 19 36 -14 35 23 28 47 -23 24 29 -4 -20 48 37 -2 40 34 39 -30 42 -12 41 -21 -26 -18 -22 -3 49 -36 -34 -38 -29 -16 -25 -17 -44 -32 -45 -33 -55
right_child=15 10 11 4 8 7 -8 -9 -10 -11 14 12 17 -15 21 31 32 -19 26 20 30 22 -24 27 38 -27 -28 46 33 -31 51 53 44 -35 43 -37 45 -39 -40 -41 -42 -43 50 52 -46 -47 -48 -49 -50 -51 -52 -53 -54 54 -56
leaf_value=0.069797351029166607 -0.10095888759047898 -0.10063082733483825 -0.10653354792199737 0.067145544728793874 -0.16628553421754022 0.023985769483516106 -0.068560084908229721 -0.0052730111348126447 0.095938980315404543 -0.13269820656980411 -0.10149813806109803 -0.1011994846303651 -0.10128377678202601 -0.1028136094400159 -0.10149559301414429 -0.10172497204156959 -0.10115097485548739 -0.10185211874549348 -0.10192591769764058 -0.10146172979922037 -0.10123945644376264 -0.10261610600355292 -0.10192041468106455 -0.10131221019595252 -0.10078543659136233 -0.1076714932539497 -0.10214224816398965 -0.10111786069610225 -0.10105081569822483 -0.10111307068798002 -0.10140684395513211 -0.10084140274514941 -0.10119195726673305 -0.10087013904176922 -0.10273707106024876 -0.10169552535895361 -0.10084109774373476 -0.10075632973606055 -0.10134888749457366 -0.10159815478717119 -0.10107041515092977 -0.10073304213604356 -0.1019846446016322 -0.10221865325022857 -0.10149644610999392 -0.10165881402053925 -0.10146839960215215 -0.10202158244065891 -0.10144371940525597 -0.10136813789737707 -0.1018489082244273 -0.10158507381824267 -0.10191916871772946 -0.10108067482700385 -0.1011686881931595
leaf_weight=4196.6853786990978 26.365221994463354 15.447689349763094 1.0048179160803559 59.843438908457756 49.900404401123524 83394.697521677241 485.99116856046021 9137.316738066962 294.11572558432817 528.31254482641816 9.8794151647016388 187.1505510925781 16.031915077473968 6.3247644440270951 1.0003281868994225 2.606164090335374 10.588387091178447 109.62964228726923 51.904622332192957 0.55225175060331722 11.207275771535938 37.760070724412799 2.4431668156757942 10.852544887922706 0.69325198139995592 1.6789339454844583 24.000640362035483 18.178603615611795 19.2025709557347 125.56269698031247 3.5964500890113404 0.1924281157553186 1.5465425183065225 26.078188703861088 0.44527298770845058 38.503552828449756 19.026079776231203 33.027325699105859 16.337999765761197 0.87080821208655912 11.12271860335022 106.1106638261117 4.4910073429346067 1.2854793714359403 10.560917943716047 0.18314207065850396 0.93312071636319061 0.5538788754492997 11.658574720844625 0.53166447114199389 7.7992500206455588 2.3596243010833859 0.47503864392638173 0.23180397879332304 0.23595292214304209
leaf_count=7098 2856 2484 19 113 210 147653 1638 20128 264 2188 703 18050 1387 261 71 158 962 6444 2861 39 944 1535 147 856 93 26 1220 1684 1896 11849 268 26 137 3111 18 2439 2306 4679 1266 59 1102 14700 236 61 738 16 66 29 839 41 443 156 28 22 21
internal_value=0 0.0212487 0.0216604 0.0220642 -0.0495278 0.0227507 0.0554379 0.0210965 0.0579027 -0.112365 -0.101431 -0.101508 -0.10146 -0.101252 -0.102033 -0.101125 -0.100822 -0.10178 -0.101862 -0.101082 -0.100964 -0.102541 -0.102574 -0.101142 -0.10111 -0.107245 -0.101994 -0.101268 -0.100871 -0.101086 -0.101223 -0.101871 -0.101325 -0.100947 -0.101902 -0.101655 -0.100738 -0.100768 -0.101326 -0.101185 -0.101155 -0.10072 -0.101851 -0.102259 -0.101458 -0.100849 -0.101135 -0.101683 -0.10138 -0.101665 -0.101899 -0.101477 -0.102138 -0.101042 -0.101125
internal_weight=0 98799.1 98468.7 98146.9 932.172 97214.7 4682.68 92532 344.016 588.156 330.38 321.821 319.137 193.475 166.046 336.022 164.334 125.662 124.288 317.728 107.146 41.7574 40.2032 210.582 168.959 2.68375 75.9053 41.6228 78.8603 151.928 28.2861 18.2941 23.5667 45.2808 17.6339 48.383 140.768 33.5796 17.0313 11.4592 22.33 121.558 15.4281 2.20579 12.1075 19.2092 19.1117 1.55421 22.5111 3.13783 12.2903 5.95607 1.76052 0.660185 0.467757
internal_count=268644 235886 205479 179292 2775 176517 8736 167781 474 2301 30407 26187 26142 18311 9005 32758 21402 7831 7223 31704 12195 1782 1682 19509 16064 45 4081 3445 9725 14705 2470 1054 1896 5007 985 3142 19506 4718 1359 1021 2046 17184 878 107 875 2322 1750 100 1695 199 679 424 89 69 43
is_linear=0
shrinkage=0.1


Tree=19
num_leaves=59
num_cat=0
split_feature=128 75 108 105 136 74 30 123 30 64 77 92 3 34 62 78 53 109 78 77 111 109 111 73 31 62 30 116 6 56 107 39 106 127 83 122 95 108 57 30 78 74 31 31 108 74 35 131 31 40 74 73 32 73 106 45 74 96
split_gain=475.744 597.878 606.641 1128.64 822.545 1245.63 815.393 691.901 655.045 542.995 520.041 506.938 495.075 433.811 517.636 421.7 782.258 562.227 599.532 516.189 1201.89 403.115 394.885 384.492 382.807 369.143 303.038 299.919 293.405 279.791 274.945 253.871 282.19 217.251 183.523 125.039 450.649 169.261 84.3745 263.048 79.8349 75.4604 63.099 47.54 11.6735 11.2197 10.8654 6.38712 6.34547 1.92159 1.66723 1.40774 0.916846 0.521037 0.216526 4.59034e-05 6.48009e-05 1.78825e-06
