tree
version=v4
num_class=1
num_tree_per_iteration=1
label_index=0
max_feature_idx=136
objective=binary sigmoid:1
feature_names=Column_0 Column_1 Column_2 Column_3 Column_4 Column_5 Column_6 Column_7 Column_8 Column_9 Column_10 Column_11 Column_12 Column_13 Column_14 Column_15 Column_16 Column_17 Column_18 Column_19 Column_20 Column_21 Column_22 Column_23 Column_24 Column_25 Column_26 Column_27 Column_28 Column_29 Column_30 Column_31 Column_32 Column_33 Column_34 Column_35 Column_36 Column_37 Column_38 Column_39 Column_40 Column_41 Column_42 Column_43 Column_44 Column_45 Column_46 Column_47 Column_48 Column_49 Column_50 Column_51 Column_52 Column_53 Column_54 Column_55 Column_56 Column_57 Column_58 Column_59 Column_60 Column_61 Column_62 Column_63 Column_64 Column_65 Column_66 Column_67 Column_68 Column_69 Column_70 Column_71 Column_72 Column_73 Column_74 Column_75 Column_76 Column_77 Column_78 Column_79 Column_80 Column_81 Column_82 Column_83 Column_84 Column_85 Column_86 Column_87 Column_88 Column_89 Column_90 Column_91 Column_92 Column_93 Column_94 Column_95 Column_96 Column_97 Column_98 Column_99 Column_100 Column_101 Column_102 Column_103 Column_104 Column_105 Column_106 Column_107 Column_108 Column_109 Column_110 Column_111 Column_112 Column_113 Column_114 Column_115 Column_116 Column_117 Column_118 Column_119 Column_120 Column_121 Column_122 Column_123 Column_124 Column_125 Column_126 Column_127 Column_128 Column_129 Column_130 Column_131 Column_132 Column_133 Column_134 Column_135 Column_136
feature_infos=[-1.8014661073684692:2.1873281002044678] [-1.7160434722900391:2.0962586402893066] [-1.6382262706756592:2.0136351585388184] [-1.5680137872695923:1.9394575357437134] [-1.5054070949554443:1.8737261295318604] [-1.4504051208496094:1.8164401054382324] [-1.4123568534851074:1.7788288593292236] [-1.3844102621078491:1.7939627170562744] [-1.3517893552780151:1.8898988962173462] [-1.3099035024642944:1.9376872777938843] [-1.2559221982955933:1.9855276346206665] [-1.1870334148406982:2.073509693145752] [-1.1039742231369019:2.1457490921020508] [-1.0067610740661621:2.2142360210418701] [-0.90047705173492432:2.2759943008422852] [-0.78966546058654785:2.4052433967590332] [-0.67814630270004272:2.5269482135772705] [-0.65620064735412598:2.5277442932128906] [-0.66012513637542725:2.5653238296508789] [-0.66667592525482178:2.5221147537231445] [-0.66619455814361572:2.4413206577301025] [-0.67410272359848022:2.3840618133544922] [-0.78228282928466797:2.2409591674804688] [-0.7797551155090332:2.1787192821502686] [-1.0841877460479736:2.1696581840515137] [-1.4308524131774902:2.0883691310882568] [-1.6366665363311768:1.9448176622390747] [-1.8254417181015015:1.7314887046813965] [-1.9202775955200195:1.5598906278610229] [-2.1342308521270752:1.3473584651947021] [-2.4037775993347168:1.1443074941635132] [-2.6881959438323975:1.0652625560760498] [-2.8964071273803711:1.0182701349258423] [-2.6209216117858887:1.0153312683105469] [-1.9672813415527344:1.0222163200378418] [-1.2877312898635864:1.0489702224731445] [-0.6631239652633667:1.2523990869522095] [-0.6696123480796814:1.4357191324234009] [-0.67192721366882324:1.5244829654693604] [-0.67710685729980469:1.427788257598877] [-0.67375040054321289:1.3506048917770386] [-0.67713803052902222:1.3033223152160645] [-0.67526406049728394:1.4334096908569336] [-0.67822211980819702:1.6771683692932129] [-0.67593681812286377:1.8418123722076416] [-0.67998087406158447:1.9795904159545898] [-0.67735743522644043:1.8671952486038208] [-0.68056988716125488:1.7601110935211182] [-0.67851173877716064:1.8138210773468018] [-0.68057990074157715:2.0951991081237793] [-0.67868822813034058:2.3221406936645508] [-0.68411111831665039:2.3866791725158691] [-0.6882440447807312:2.3278176784515381] [-0.69760811328887939:2.41339111328125] [-0.68820065259933472:2.0181429386138916] [-0.66498374938964844:1.7058380842208862] [-0.63047897815704346:1.5109990835189819] [-0.79989981651306152:1.3641012907028198] [-0.9627259373664856:1.3483799695968628] [-0.83332031965255737:1.3266682624816895] [-0.62303602695465088:1.3006186485290527] [-0.62908732891082764:1.5017008781433105] [-0.65896600484848022:1.6292674541473389] [-0.67422842979431152:1.4128085374832153] [-0.93073725700378418:1.1429597139358521] [-1.1305865049362183:1.0751444101333618] [-1.2528316974639893:0.99085426330566406] [-1.6713657379150391:0.88485002517700195] [-1.706031322479248:0.75389385223388672] [-1.8329139947891235:0.60495084524154663] [-1.7363165616989136:0.45876148343086243] [-1.6730015277862549:0.33052113652229309] [-1.5802557468414307:0.23037496209144592] [-1.5674382448196411:0.15855956077575684] [-1.3374539613723755:0.30397361516952515] [-1.5611182451248169:0.9557119607925415] [-1.741243839263916:1.4404212236404419] [-1.902489185333252:1.2026444673538208] [-2.032371997833252:1.1271375417709351] [-2.1171634197235107:0.66064220666885376] [-2.168381929397583:0.36351838707923889] [-2.1978850364685059:0.28676301240921021] [-2.2107267379760742:0.33890664577484131] [-2.208972692489624:0.39074629545211792] [-2.1915850639343262:0.43792322278022766] [-2.1574652194976807:0.47703936696052551] [-2.1063995361328125:0.50853937864303589] [-2.0390708446502686:0.53271615505218506] [-1.9571486711502075:0.59374678134918213] [-1.8642418384552002:0.56802195310592651] [-1.7650643587112427:0.64887344837188721] [-1.8478662967681885:1.0685811042785645] [-1.6500253677368164:1.4172115325927734] [-1.5946441888809204:1.6290324926376343] [-1.530011773109436:1.6652539968490601] [-1.4861346483230591:1.6182962656021118] [-1.4531639814376831:1.5608183145523071] [-1.4315723180770874:1.5595740079879761] [-1.414076566696167:1.5636097192764282] [-1.5819015502929688:1.563044548034668] [-2.0638625621795654:1.5685317516326904] [-2.4396805763244629:1.5680602788925171] [-2.5584738254547119:1.5700795650482178] [-2.4521515369415283:1.5662518739700317] [-2.0341367721557617:1.5674868822097778] [-1.4475361108779907:1.5623446702957153] [-1.2213733196258545:1.563502311706543] [-1.117332935333252:1.561995267868042] [-1.168958306312561:1.5723429918289185] [-1.2179133892059326:1.5757462978363037] [-1.3317182064056396:1.5835809707641602] [-1.6010570526123047:1.5860384702682495] [-2.1418814659118652:1.5904537439346313] [-2.465855598449707:1.5886306762695312] [-2.5047738552093506:1.5883719921112061] [-2.0072333812713623:1.5865405797958374] [-1.6131480932235718:1.5868538618087769] [-1.6272512674331665:1.7016431093215942] [-1.6816561222076416:2.5795986652374268] [-1.7411720752716064:2.8008601665496826] [-1.8167120218276978:2.5472877025604248] [-1.9280952215194702:1.7180403470993042] [-2.15055251121521:1.6308574676513672] [-2.3795907497406006:1.6220458745956421] [-2.6580204963684082:1.6080794334411621] [-2.9761693477630615:2.1645474433898926] [-3.3559722900390625:3.0688047409057617] [-3.8531808853149414:4.2020993232727051] [0:1] [0:1] [0:1] [0:1] [0:1] [0:1] [0:1] [0:1] [0:1]
tree_sizes=5504 5778 5785 5683 5750 6133 6414 5907 6477 5604 6472 6586 6903 5871 6613 6161 6052 6466 6708 6563 6800 5972 5421 6008 5853 6030 6954 6678 6087 5979 6689 5633 4879 6024 4376 6940 6289 4885 6125 6485 6743 6730 6201 6971 5935 6631 4432 5704 6295 5053 6414 4650 5958 6733 6675 6968 5956 6935 4525 6386 6454 6953 5541 5450 6149 6955 6370 5457 6133 6753 5500 6134 6998 5596 6646 5185 6963 5394 5679 5913 6340 5301 5624 5498 6055 6673 6716 6334 6955 6259 6955 6811 6806 5874 6251 6928 6133 6849 5984 5066 5287 6903 6739 6834 6226 5830 6799 6599 5712 6956 6615 6818 6822 6963 4822 6613 5367 6248 6290 6698 6720 5351 5590 6943 5440 6838 5157 6330 6965 6910 6389 6706 6711 6913 5037 5276 6648 6459 6957 5347 6917 5077 6650 5693 6814 5797 6619 6408 5897 6739 6284 6448 4728 6162 6243 6920 5255 6963 6941 6455 6939 6948 6062 6250 6941 5043 6368 6707 6591 5403 6694 6794 6215 6252 6950 6323 6482 6870 4663 6701 4840 4871 6364 6206 6373 6639 6772 6690 6212 6246 6531 6928 6581 6832 6347 6927 6453 6352 5386 6894

Tree=0
num_leaves=51
num_cat=0
split_feature=106 130 131 129 118 103 55 136 52 35 33 89 34 126 70 31 79 110 30 81 108 32 112 120 29 53 71 1 49 31 101 75 31 129 126 64 5 115 39 102 6 31 26 92 52 40 125 89 116 22
split_gain=29043.2 16324.1 12107.3 9459.12 7768.04 8559.08 4142.82 2745.41 1979.65 1853.4 1392.67 1069.73 1418.63 977.529 944.88 942.074 758.648 573.621 523.835 519.725 613.471 495.12 488.425 445.542 434.422 765.486 752.475 416.302 404.518 396.494 341.379 336.097 297.749 283.905 246.035 214.441 207.331 171.634 166.05 184.22 160.008 159.082 144.426 125.29 116.778 84.0159 48.2803 23.4417 19.6155 1.13687e-13
threshold=-0.83659696578979481 1.0000000180025095e-35 1.0000000180025095e-35 1.0000000180025095e-35 -1.6019913554191587 -0.8288692533969878 0.84445300698280346 1.0000000180025095e-35 1.0680270791053774 0.95353916287422191 0.93922930955886852 -1.1633221507072447 0.93828478455543529 -1.8592697381973264 -0.1801362261176109 1.0128375887870791 -1.1428182721137998 -1.19733589887619 1.0484374761581423 -1.2493969202041624 -0.90214234590530384 0.95510804653167736 -0.99165424704551686 -1.0159010291099546 1.1047587990760805 1.023944675922394 -0.51692435145378102 0.48496051132678991 1.0766691565513613 1.019938111305237 -0.86825770139694203 -0.91067811846733082 0.96889954805374157 1.0000000180025095e-35 -1.5400480628013609 0.42532415688037878 0.62614974379539501 -0.93348637223243702 1.0306375622749331 -0.75519326329231251 0.57132551074028026 0.98687309026718151 1.6101226806640627 -1.1754711866378782 1.0763875842094424 0.98037812113761913 -1.3680879473686216 -1.2254398465156553 -0.93069466948509205 1.2795585393905642
decision_type=2 2 2 2 2 2 2 2 2 2 2 2 2 2 2 2 2 2 2 2 2 2 2 2 2 2 2 2 2 2 2 2 2 2 2 2 2 2 2 2 2 2 2 2 2 2 2 2 2 2
left_child=1 2 3 4 17 -6 42 8 21 14 16 24 18 -11 -10 19 -5 -1 32 20 -4 28 -21 27 37 26 -26 34 -8 -20 45 -12 -13 -23 -9 43 -32 44 40 -40 -14 -27 48 -25 -3 -17 -37 -29 -2 -50
right_child=6 11 15 10 5 -7 7 23 9 13 31 12 38 -15 -16 30 -18 -19 29 22 -22 33 -24 35 25 41 -28 47 -30 -31 36 -33 -34 -35 -36 46 -38 -39 39 -41 -42 -43 -44 -45 -46 -47 -48 -49 49 -51
leaf_value=-1.3122668299329332 -1.7104874396004166 -1.2641770912203238 -1.5066291771117981 -1.7463104013986663 -1.4670166843386534 -1.5692220060232895 -1.5896159873173978 -1.5167897797029772 -1.7645284993044639 -1.7223318851420029 -1.5376001006012607 -1.6413918426550487 -1.7905378607155773 -1.4635268999524469 -1.8934995359841555 -1.9318387047930108 -1.9640124254936304 -1.1784403109417494 -1.8868941934811978 -1.6951715480173275 -1.6818547840312297 -1.5384757288591182 -1.8690027380574623 -2.0073289445727145 -1.6998380333704513 -1.6395816863301276 -1.4292109411320404 -1.2702292230550425 -1.7684658114705778 -1.3851579685130049 -1.7760437101637669 -1.9719275752915351 -1.8014779703320847 -1.7132385716431078 -1.2595687329189365 -2.0073289445727145 -1.4264941793958712 -2.0073289445727145 -1.3739729427064167 -1.9112071354988236 -1.1503528957480595 -1.8284159818146204 -1.275835983838854 -1.5548202964550388 -1.5245283706978603 -1.7684997270957088 -1.5798575732635078 -1.1365448809797938 -2.0073289445727145 -2.0073289445727145
leaf_weight=755.00376978516579 2.2349696457386008 21.425448924303055 222.60153046250343 1240.3513238132 23075.310067266226 12705.09987321496 214.4134749174118 229.91721379756927 4658.7688007354736 290.98184141516685 361.5671700835228 148.6632633805275 24.481883347034458 292.79702484607697 646.94111582636833 246.07272601127625 183.79087719321251 556.26902067661285 1030.1157824099064 405.93452617526054 1950.705354809761 584.39892250299454 268.58379995822906 6.60212618112564 377.57394635677338 50.513195335865021 141.15129637718201 19.80125367641449 308.29757463932037 15.994761377573012 65.974511355161667 18.740285098552704 531.77421036362648 110.53798049688339 44.361263334751129 17.757442831993107 22.844078660011292 6.3744666576385489 84.846392631530762 6.9019898772239676 4.6449262201786032 381.93694591522217 2.7208672761917105 83.568811535835266 87.94445264339447 36.112050622701645 3.1039821505546561 38.855809181928635 479.56478622555733 83.32338559627533
leaf_count=2176 14 53 1009 8147 96832 64343 1123 1062 31321 1852 1734 844 170 1220 5058 2004 1547 971 7996 2490 11745 2807 2044 58 2331 286 547 50 2083 56 450 159 3742 695 108 156 88 56 289 55 7 2775 7 413 412 244 16 54 4213 732
internal_value=-1.89226 -1.53669 -1.52085 -1.50542 -1.49455 -1.50331 -1.74217 -1.72258 -1.73765 -1.76165 -1.72901 -1.76557 -1.81161 -1.59253 -1.78025 -1.70723 -1.77441 -1.25549 -1.8348 -1.68771 -1.66391 -1.62158 -1.76439 -1.48133 -1.68585 -1.70811 -1.6262 -1.42348 -1.6951 -1.87922 -1.85712 -1.559 -1.7665 -1.56627 -1.47519 -1.6548 -1.68614 -1.50292 -1.48043 -1.41439 -1.68845 -1.80636 -2.00266 -1.58795 -1.47353 -1.91094 -1.94373 -1.18167 -2.00615 -2.00733
internal_weight=0 45029.3 42115 38896.1 37091.7 35780.4 8118.95 7551.1 7107.14 5889.49 1804.45 2914.34 1847.42 583.779 5305.71 3218.83 1424.14 1311.27 1726.55 2847.83 2173.31 1217.65 674.518 443.968 1066.92 951.175 518.725 332.936 522.711 1046.11 371.003 380.307 680.437 694.937 274.278 111.032 88.8186 115.744 120.875 91.7484 29.1268 432.45 567.844 90.1709 109.37 282.185 20.8614 58.6571 565.123 562.888
internal_count=268644 215602 195983 175909 164322 161175 53042 48076 46159 39451 11587 19619 13159 3072 36379 20074 9694 3147 12638 17288 12754 6708 4534 1917 6460 5939 2878 1274 3206 8052 2786 1893 4586 3502 1170 643 538 521 521 344 177 3061 4966 471 465 2248 172 104 4959 4945
is_linear=0
shrinkage=1


Tree=1
num_leaves=53
num_cat=0
split_feature=106 130 30 131 128 129 49 113 54 36 134 135 89 35 126 104 30 97 79 30 126 41 30 53 71 61 54 101 129 109 79 31 82 74 31 107 85 21 103 81 73 8 80 105 26 52 113 14 41 115 52 0
split_gain=12534.1 7097.73 6488.97 4672.19 3892.35 4051.41 2709.71 1796.54 1295.45 1086.86 771.125 703.552 688.447 800.838 536.144 487.207 502.334 438.681 444.331 438.015 398.711 398.04 346.113 330.614 368.987 282.367 259.558 249.663 335.027 281.05 595.177 235.04 215.778 205.168 198.471 166.025 149.44 147.334 135.593 131.243 112.982 102.369 101.828 98.8397 94.9643 69.2531 68.6363 62.9482 31.1291 0.00200024 3.97478e-05 1.13687e-13
threshold=-0.83374288678169239 1.0000000180025095e-35 1.0915763974189761 1.0000000180025095e-35 1.0000000180025095e-35 1.0000000180025095e-35 0.94246375560760509 -0.9943772256374358 1.0232343077659609 0.97585234045982372 1.0000000180025095e-35 1.0000000180025095e-35 -1.1651598811149595 0.94212678074836742 -1.6259139180183408 -0.91582030057907093 1.106295704841614 -1.0273239016532896 -1.3188785314559934 1.0982123017311098 -1.9458345770835874 1.0378374457359316 1.0484374761581423 1.024665415287018 -0.53607976436614979 0.77131313085556041 0.90221068263053905 -0.82771658897399891 1.0000000180025095e-35 -0.82486107945442189 -1.4036425948143003 1.0066014528274538 -1.1752249002456663 -0.92109194397926319 1.019938111305237 -0.8546815514564513 -1.428886830806732 1.2480646371841433 -0.79603949189186085 -1.3175287842750547 -0.93332666158676136 0.73739910125732433 -1.234047472476959 -0.81219610571861256 1.6101226806640627 1.0256913304328921 -0.9540315270423888 0.88166028261184703 1.0750880241394045 -1.0316123962402342 0.93632304668426525 1.068479120731354
decision_type=2 2 2 2 2 2 2 2 2 2 2 2 2 2 2 2 2 2 2 2 2 2 2 2 2 2 2 2 2 2 2 2 2 2 2 2 2 2 2 2 2 2 2 2 2 2 2 2 2 2 2 2
left_child=1 2 3 4 5 -1 44 15 27 10 11 -10 21 22 -6 16 -4 45 -19 26 35 23 33 24 -3 -22 -9 29 37 30 -8 -25 -12 -14 -24 -11 -31 -29 48 46 -21 -17 -40 -30 49 -5 -23 -41 -15 -2 51 -51
right_child=6 12 7 17 14 -7 8 19 9 20 32 -13 13 38 -16 41 -18 18 -20 40 25 39 34 31 -26 -27 -28 28 43 36 -32 -33 -34 -35 -36 -37 -38 -39 42 47 -42 -43 -44 -45 -46 -47 -48 -49 -50 50 -52 -53
leaf_value=0.28120746132547259 -0.11641226703441131 0.12243914051089953 0.26954712693163541 0.04032497472663979 0.069068497846999866 0.13856562015627419 0.34019498651819741 0.11486767125180203 0.086876300203281825 0.23571229053228737 -0.034765433805361366 0.4749023452974438 0.18537862287453813 0.22837905998610047 0.17543987088035051 -0.0032865994732235201 0.06387810462687786 0.21995299219878822 0.13792772906333725 0.040977718841165668 0.38249530356600087 0.30146307568363606 0.0067051128209183021 0.13147462952493122 0.27362698213517256 0.01998542178792851 0.0066406178912887283 0.32640144733384968 0.27643547830101428 0.20447133559490993 0.16091508818753886 -0.011768546077029353 0.52061566064711895 0.069433766358509494 0.30133443453221148 -0.041352264775828207 0.02542127458538225 0.20120695074352071 0.29296177872784074 -0.12010515198758576 -0.052136288314872027 0.14880124139978188 0.1075217886084387 -0.079094958320818476 0.38139907880893337 -0.095701715993700087 0.5102152863634043 0.37655137408028599 0.41092213189982396 -0.11343470331860371 -0.11386769189589237 -0.11343470331860371
leaf_weight=44828.504935100675 2.2689481526613227 330.66972058266401 723.45091435313225 100.42549226433039 822.76335049420595 2083.7433735504746 236.56044156849384 664.00833962857723 5433.8849679976702 43.155865252017975 8.057998910546301 47.132990971207619 205.81161737442017 11.218315675854681 1117.3199814558029 111.6647691950202 142.07830283790827 887.93773839622736 2577.2202043235302 179.64669804275036 218.82072581350803 25.151522845029831 1082.1826063469052 414.61926406621933 315.40037316828966 23.826587647199631 332.59058102965355 310.9767095297575 10.105055622756479 65.672697767615318 852.48900679498911 158.27835074067116 53.059907808899879 590.49873202294111 23.357066228985786 43.355587616562843 160.62451438605785 134.72540007531643 60.676994174718857 7.0314550921320897 474.50003049522638 73.314014039933681 57.837245807051659 34.571690149605274 3.9077590405941001 59.663399502635002 42.138213537633419 4.0057706832885742 55.851840972900391 426.30028107762337 2.1290398538112631 79.663755685091019
leaf_count=145960 19 1854 2363 639 4385 11700 806 3042 33933 206 59 156 1093 38 4613 649 714 4201 14121 1007 618 89 8301 2367 1114 150 2001 1123 46 317 4179 1167 139 3821 63 309 1003 651 200 51 2962 320 293 262 6 455 87 12 114 4083 20 763
internal_value=0 0.2446 0.253223 0.261003 0.269131 0.274872 0.112532 0.102074 0.127418 0.104637 0.094152 0.0902131 0.104038 0.0684839 0.130329 0.204303 0.235786 0.15147 0.158946 0.0370163 0.281182 0.161246 0.0491354 0.147205 0.196246 0.346899 0.0787495 0.20149 0.262389 0.178787 0.199858 0.0918999 0.447392 0.0994005 0.0129298 0.0968602 0.0773826 0.288558 0.266766 0.379763 -0.0265646 0.0569915 0.202463 0.00131947 -0.10969 -0.0103707 0.432188 0.0601478 0.38039 -0.11345 -0.113437 -0.113435
internal_weight=0 58563.6 55178.8 52477.6 48852.3 46912.2 8191.29 2701.25 7677.02 5871.29 5542.14 5481.02 3384.73 2087.43 1940.08 1050.51 865.529 3625.25 3465.16 1650.75 329.159 1297.29 1901.85 1218.97 646.07 242.647 996.599 1805.73 490.379 1315.35 1089.05 572.898 61.1179 796.31 1105.54 86.5115 226.297 445.702 185.584 78.327 654.147 184.979 118.514 44.6767 514.27 160.089 67.2897 11.0372 67.0702 510.362 508.093 505.964
internal_count=268644 219796 199132 186074 166658 157660 48848 13058 43957 35570 34287 34089 20664 13923 8998 4046 3077 19416 18322 9012 1283 6741 13278 6502 2968 768 5043 8387 2082 6305 4985 3534 198 4914 8364 515 1320 1774 645 239 3969 969 493 308 4891 1094 176 63 152 4885 4866 4846
is_linear=0
shrinkage=0.1


Tree=2
num_leaves=53
num_cat=0
split_feature=106 130 30 103 118 10 134 115 49 115 103 54 38 127 36 30 54 29 0 56 22 135 89 39 26 104 79 102 53 84 30 51 31 36 62 6 129 109 108 7 74 0 131 74 57 31 105 60 26 115 105 54
split_gain=7399.6 4055.07 3499.64 3470.69 4011.17 3649.4 2964.71 2668.86 1745.61 1448.28 766.888 685.917 978.176 1167.32 691.082 545.426 667.469 537.768 566.245 534.588 550.614 522.852 504.791 750.579 489.511 453.882 430.303 309.756 277.727 347.806 264.278 204.295 170.409 194.195 166.958 288.054 267.511 256.424 150.043 143.693 143.447 140.715 135.329 112.435 112.03 100.295 87.0141 83.3862 44.8273 0.001087 2.90606e-05 9.86574e-10
threshold=-0.82615292072296131 1.0000000180025095e-35 1.0865611433982851 -0.850196212530136 -1.5895973443984983 0.17252171039581302 1.0000000180025095e-35 -0.9316243827342986 0.94246375560760509 -0.95737692713737477 -0.60077103972434986 1.0232343077659609 1.0040414929389956 -1.9444257020950315 0.97585234045982372 1.0982123017311098 0.91954806447029125 1.2304626703262331 0.57135456800460827 0.96704480051994335 1.2343922257423403 1.0000000180025095e-35 -1.1651598811149595 1.0235942006111147 1.3998898267745974 -0.75522679090499867 -1.2616423368453977 -0.81494826078414906 1.024665415287018 -1.3603475093841551 1.1107203364372256 1.1142646074295046 0.97605967521667492 0.92374327778816234 0.58754372596740734 0.6479700803756715 1.0000000180025095e-35 -0.82486107945442189 -0.89395809173583973 0.59195032715797435 -1.0454410910606382 0.41876004636287695 1.0000000180025095e-35 -1.024613559246063 0.90806272625923168 0.99973997473716747 -0.8105376362800597 0.719456046819687 1.6101226806640627 -1.0201471447944639 -0.87353140115737904 0.78440603613853466
decision_type=2 2 2 2 2 2 2 2 2 2 2 2 2 2 2 2 2 2 2 2 2 2 2 2 2 2 2 2 2 2 2 2 2 2 2 2 2 2 2 2 2 2 2 2 2 2 2 2 2 2 2 2
left_child=1 2 3 6 10 -6 7 -1 48 15 -5 34 19 14 -14 16 -4 18 -11 20 -13 -21 27 32 -8 -15 45 28 29 -3 -17 -30 39 -34 35 40 42 -37 -28 -24 -10 44 -36 -19 -29 -25 -38 -43 49 -2 -51 -52
right_child=8 22 9 4 5 -7 24 -9 11 17 -12 12 13 25 -16 30 -18 43 -20 21 -22 -23 23 26 -26 -27 38 41 31 -31 -32 -33 33 -35 36 37 46 -39 -40 -41 -42 47 -44 -45 -46 -47 -48 -49 -50 50 51 -53
leaf_value=0.2290418353914741 -0.11442766724627094 0.31302841657225139 0.22622501432827172 0.29616290462509515 -0.081723022706119475 0.17288446077828701 0.33191222543688048 0.1288186186550587 0.41246604007507631 -0.050978743541993034 0.004162386499736606 0.18842716717495925 0.014284783302334453 0.29687234277926161 0.1994432546297043 0.10480605371921528 0.12027438046489332 0.037758152373911724 0.098398021114106865 0.0071066362692130932 0.051502836153704115 0.33207708346569453 0.18544542607029016 0.4349771066225997 -0.06670090863938398 0.056241183025551991 0.15584622236204218 -0.11949476364140166 0.05447882193122814 0.13095695136843799 -0.073970533864572113 0.20042340640131148 -0.0052848372194392911 0.063326516920266834 0.24186571906505377 0.20796847901278259 0.22781979200553529 0.064314590986435702 -0.035473145847308839 0.038560536841033589 0.02528934898120809 0.18410345006619433 0.025402451833495588 -0.099470325096008283 0.22921327774353004 0.1311654512194928 -0.061868302235480378 0.47926083014176807 0.25507145824186245 -0.11238074225595114 -0.11199399719291402 -0.11199177557786036
leaf_weight=20441.30573322624 1.8451748639345158 125.32776738703251 1366.3242878094316 3009.4126794263721 573.51435805857182 30596.729695208371 2636.7297251820564 3053.9463762268424 9.9478579610586149 308.7153375223279 92.713405013084412 429.87991073727608 629.66727247834206 466.1652640402317 296.49597782641649 636.9632730409503 1052.7237901464105 78.09090019762516 1425.794212244451 2104.1317256838083 927.00363667309284 50.702792301774025 128.27307909727097 67.900903716683388 31.17192068696022 94.231273591518402 330.95126961171627 9.9765249639749509 659.39974776655436 644.29277645051479 95.022881552577019 112.24004332721233 993.15898445248604 705.59828041493893 414.47848557680845 423.72525180876255 13.312725007534025 175.81660097837448 46.786843970417976 138.52563980966806 251.34663212299347 13.020813286304472 31.045026935636997 253.59594338387251 120.41827780008316 12.936235114932058 46.888562053442001 36.133674398064613 3.3510441482067099 1.9511272460222233 454.31762309372425 2.0078465268015853
leaf_count=55103 17 309 3732 4778 3250 105098 4354 11865 25 1881 425 2122 3977 1764 1006 2683 4183 410 5958 13678 5625 114 608 155 157 563 1414 74 3934 2778 600 416 7448 4440 1249 1442 54 979 304 860 1381 56 162 1524 456 56 340 40 5 20 4751 21
internal_value=0 0.18709 0.193147 0.19993 0.178992 0.1682 0.227358 0.216015 0.078018 0.114567 0.287436 0.0916618 0.0744966 0.14249 0.0735602 0.157231 0.180117 0.0495019 0.0718113 0.0457141 0.0948824 0.0147531 0.0911623 0.0617597 0.327255 0.25641 0.176961 0.132582 0.118101 0.160606 0.0815981 0.0757074 0.0348826 0.0232137 0.154444 0.127653 0.200047 0.165842 0.132149 0.109181 0.0400297 0.256887 0.226782 -0.0671619 0.202534 0.386359 0.00219242 0.401075 -0.109351 -0.112005 -0.111996 -0.111994
internal_weight=0 69797.7 65652.8 60435.5 34272.4 31170.2 26163.2 23495.3 6828.31 5217.23 3102.13 6364.84 4998.28 1486.56 926.163 3151.03 2419.05 2066.2 1734.51 3511.72 1356.88 2154.83 4144.94 2424.13 2667.9 560.397 458.575 1720.81 1541.26 769.621 731.986 771.64 1965.56 1698.76 1366.56 860.836 505.725 599.542 377.738 266.799 261.294 179.549 445.524 331.687 130.395 80.8371 60.2013 49.1545 463.473 460.122 458.277 456.325
internal_count=268644 229349 206001 185030 113551 108348 71479 66968 39295 20971 5203 34481 28849 7310 4983 11198 7915 9773 7839 21539 7747 13792 23348 15285 4511 2327 1929 8063 7437 3087 3283 4350 13356 11888 5632 3827 1805 2421 1718 1468 1406 626 1411 1934 530 211 394 96 4814 4809 4792 4772
is_linear=0
shrinkage=0.1


Tree=3
num_leaves=52
num_cat=0
split_feature=106 130 131 128 30 129 49 114 83 109 83 78 38 109 56 37 127 125 94 56 31 32 36 41 88 85 31 91 33 31 37 73 57 77 32 108 127 13 53 57 111 100 109 102 114 40 58 28 115 46 105
split_gain=5036.23 2555.59 2451.65 2287.78 2190.3 2042.37 1124.13 856.456 539.861 531.344 460.065 444.171 477.384 423.284 405.39 601.91 851.191 443.384 799.603 464.735 360.818 363.825 307.563 302.649 230.963 205.432 201.687 160.478 209.089 155.479 155.163 155.902 151.386 113.83 111.415 95.6889 119.306 95.2597 91.3902 83.8877 83.4064 78.4387 71.4651 56.4751 52.2604 46.5851 31.5842 17.2353 0.0100308 2.12758e-05 5.81309e-09
threshold=-0.81677159667015065 1.0000000180025095e-35 1.0000000180025095e-35 1.0000000180025095e-35 1.0915763974189761 1.0000000180025095e-35 0.94246375560760509 -0.99891027808189381 -1.3321112394332884 -0.87943089008331288 -1.3897114992141721 -1.2313689589500425 1.0013309121131899 -0.88854375481605519 0.95371469855308544 0.98572704195976268 -1.9774155020713804 -1.5175977349281309 -1.012228727340698 1.0664733052253725 1.0156564116477969 0.9689529836177827 0.97585234045982372 1.0853598117828371 -1.1989187002182005 -1.224964916706085 1.0064271092414858 -1.1044200658798216 0.90967679023742687 1.019938111305237 0.92538920044898998 -0.86727184057235707 0.97189253568649303 -1.3839875459671018 0.97095587849617015 -0.89516159892082203 -2.1905578374862666 0.99657422304153453 0.99152934551239025 0.96230512857437145 -0.84873816370964039 -0.83034589886665333 -0.82818582653999318 -0.86216044425964344 -1.3709036111831663 1.0824653506278994 0.90892124176025402 1.3931574225425722 -1.0316123962402342 0.75616967678070079 -0.86701282858848561
decision_type=2 2 2 2 2 2 2 2 2 2 2 2 2 2 2 2 2 2 2 2 2 2 2 2 2 2 2 2 2 2 2 2 2 2 2 2 2 2 2 2 2 2 2 2 2 2 2 2 2 2 2
left_child=1 2 3 4 5 -1 47 -6 9 -5 37 12 24 -10 30 17 22 19 -19 -16 21 -12 -17 27 26 -26 -3 28 -13 -29 38 44 -18 -33 39 36 -25 40 -8 -14 -4 -40 -39 -22 -32 -37 -36 48 -2 50 -50
right_child=6 11 10 8 7 -7 14 -9 13 -11 20 23 34 -15 15 16 32 18 -20 -21 43 -23 -24 35 25 -27 -28 29 -30 -31 31 33 -34 -35 46 45 -38 42 41 -41 -42 -43 -44 -45 -46 -47 -48 -49 49 -51 -52
leaf_value=0.17293253397400923 -0.11856681129896429 0.13078730287685505 0.25490074975178278 0.25638765628113819 0.13907266898790532 0.095106396523421483 0.37161180431008461 0.028303507518780122 0.068352323476392599 0.09908818923786411 0.080161182807946846 0.088264257016748837 0.30971703049000865 -0.061921589008794756 -0.038740240473690402 -0.054637615344378304 0.22734713094134637 0.012514385338115769 0.16785171687298769 0.23568490715133439 -0.069827951806386526 0.20045068716276015 0.11654562318485358 0.10068457177296608 0.043533531017506316 0.24217547764421671 0.054475925154804476 0.0055810038541971845 0.57015668957892374 0.2548158555247248 -0.0031090602076120034 0.35168503119064126 -0.12018920486885774 0.12077859429865448 -0.12843662186377661 -0.12079528038521591 0.23814737839451505 0.30595485948186396 0.042721711591907963 0.010196633887593304 0.14624683485897697 0.24911177129983311 -0.088419208371852825 0.057607636896115401 0.32056306326147865 0.29231792126540224 0.22016857071119744 0.187078352768906 -0.11071744571786585 -0.11106913089737783 -0.11072322386610965
leaf_weight=58998.958386078477 1.637557990849017 1552.4959152415395 203.10493977367878 275.13437963277102 1273.5536144226789 3576.3623855859041 9.3158274441957456 1544.5905954986811 1922.7356791198254 978.3615111336112 4352.9798873737454 145.18034168332815 145.51126877218485 286.58677054196596 1098.4174993485212 244.31892520189285 425.52263379096985 1138.1921972110868 467.48148996382952 65.383584298193455 174.81522888690233 266.85629615187645 184.00290986895561 184.54554608464241 931.66749130189419 55.144249826669693 445.78569431602955 1279.4040065556765 9.5992265939712507 25.529118061065674 5.4580099135637274 22.092692233622074 12.914308749139307 634.48981462419033 8.545112803578375 19.907649040222172 95.973098665475845 6.154047533869746 329.69830917567015 9.9928785935044271 108.33264715969563 19.50349497795105 18.136534243822098 43.411383047699928 57.978127166628838 3.163415625691413 3.7349505275487891 1.9521824419498433 1.748594045639037 1.7856494858860958 407.42484795302153
leaf_count=148021 15 6478 567 700 4008 16356 18 7463 7994 3991 19527 765 360 1528 7363 1670 1301 7007 2219 186 1262 929 652 819 5755 252 2235 8731 16 49 29 40 95 2442 52 145 218 16 1694 57 377 62 111 203 147 8 10 3 20 20 4658
internal_value=0 0.150781 0.155418 0.160406 0.164601 0.168485 0.0485245 0.0783614 0.0811948 0.133614 0.0890294 0.0809629 0.103442 0.0514536 0.062406 0.0464363 0.119162 0.0236754 0.0577398 -0.0233227 0.0811741 0.0871095 0.018901 0.0407698 0.0942164 0.0546339 0.113763 0.0218761 0.118151 0.0104569 0.116247 0.143012 0.21711 0.128548 0.26757 0.131614 0.147714 0.20223 0.0624954 0.290469 0.217106 0.0542489 0.0114959 -0.0444774 0.292714 -0.0641508 -0.0224092 -0.109353 -0.110756 -0.110725 -0.110723
internal_weight=0 78946.3 74030.1 68856.3 65393.5 62575.3 5129.32 2818.14 3462.82 1253.5 5173.79 4916.18 3152.88 2209.32 4714.77 3636.23 866.759 2769.47 1605.67 1163.8 4838.06 4619.84 428.322 1763.3 2985.09 986.812 1998.28 1459.71 154.78 1304.93 1078.54 720.019 438.437 656.583 167.784 303.59 280.519 335.728 358.518 155.504 311.438 349.202 24.2906 218.227 63.4361 23.0711 12.2801 414.549 412.597 410.959 409.173
internal_count=268644 239003 213053 190061 175848 164377 29641 11471 14213 4691 22992 25950 15199 9522 24925 20493 3718 16775 9226 7549 21921 20456 2322 10751 14720 6007 8713 9561 781 8780 4432 2658 1396 2482 479 1190 1037 1071 1774 417 944 1756 127 1465 176 153 62 4716 4713 4698 4678
is_linear=0
shrinkage=0.1


Tree=4
num_leaves=53
num_cat=0
split_feature=105 120 104 30 133 129 131 122 39 54 107 0 33 121 68 111 118 134 127 135 105 78 34 81 57 35 118 33 103 52 118 127 72 0 72 120 83 69 72 52 118 69 109 126 118 88 24 72 110 110 103 21
split_gain=3688.6 2666.61 2367.61 2829.12 1956.14 1464.9 1251.83 1147.36 1123.11 977.544 892.476 1140.91 758.655 867.989 661.675 577.186 611.594 521.346 453.927 450.027 422.77 418.493 417.836 350.144 337.605 321.182 313.496 251.943 188.299 166.476 121.17 117.698 295.279 99.5305 140.002 91.0437 359.661 72.1814 71.7598 68.9025 64.5359 56.9135 46.8443 46.938 32.9485 22.6271 21.7107 8.17996 7.26112 7.18431 3.6531 1.25496
threshold=-0.78564864397048939 -1.7261661291122434 -0.84786114096641529 1.0810503959655764 1.0000000180025095e-35 1.0000000180025095e-35 1.0000000180025095e-35 -1.0664198994636533 0.99887830018997203 0.92695870995521557 -0.98957455158233631 0.30965466797351843 0.81982260942459118 -1.8760347366333006 0.11781901866197587 -1.2455940842628477 -1.6112935543060301 1.0000000180025095e-35 -3.2654806375503536 1.0000000180025095e-35 -0.86322101950645436 -0.45094947516918177 0.91071033477783214 -1.3329701423645017 0.95588821172714245 0.94875919818878185 -1.622982323169708 0.88245117664337169 -0.7905389368534087 1.14048707485199 -1.595076262950897 -3.231715083122253 -0.32027325034141535 -0.23867756873369214 -0.30738165974616999 -1.758679926395416 -0.155552864074707 -0.073146063834428773 -0.86343103647232045 1.1436133384704592 -1.622982323169708 0.085776507854461684 -1.1103810071945188 -2.9891362190246578 -1.6019913554191587 -0.22024997323751447 1.3067952394485476 -0.32027325034141535 -1.1711120605468748 -1.19733589887619 -0.60077103972434986 0.99534001946449291
decision_type=2 2 2 2 2 2 2 2 2 2 2 2 2 2 2 2 2 2 2 2 2 2 2 2 2 2 2 2 2 2 2 2 2 2 2 2 2 2 2 2 2 2 2 2 2 2 2 2 2 2 2 2
left_child=1 15 3 5 10 6 -3 9 27 -5 14 -12 19 42 -4 16 31 -9 33 26 -10 49 28 -7 -23 -24 -2 -6 -20 44 51 32 -1 41 -35 36 -28 46 -37 -32 -33 -15 43 -14 -17 -44 -21 -46 -47 -18 -39 -31
right_child=12 2 4 7 8 23 -8 17 20 -11 11 -13 13 18 -16 29 21 -19 22 37 -22 24 25 -25 -26 -27 35 -29 -30 30 39 40 -34 34 -36 38 -38 50 -40 -41 -42 -43 45 -45 47 48 -48 -49 -50 -51 -52 -53
leaf_value=-0.11640552737338522 0.25040014517374648 0.16017346115922332 0.084026178029184245 0.14328364815118666 -0.09858557934813876 0.1201313897222909 0.087868057468971431 0.028730160431782087 0.19447126590158148 0.069653963601211538 0.1431307069248387 0.10173862915019766 -0.024099062012995928 -0.12720714880549258 -0.032772798474929997 0.25343967240785342 0.19967226483052475 0.26526755148310238 -0.079047503346433803 -0.14157760131472091 0.010265723308225182 0.14376457336804813 -0.00067502102014356589 -0.018951373749160422 -0.027748512438841577 0.08483653671699283 0.40635222459781711 0.0014691171852709074 0.19024532334106989 0.23550033205638599 0.24366050186110533 0.25534121192950149 0.20124574616451799 -0.13386336344022112 0.37815589381463116 0.10961149070874215 -0.13261853936808607 0.30271105770511275 -0.11805694055315036 -0.099383402762137973 0.21322747394463024 0.03541778297247581 0.34463925002327089 0.24753662072690755 0.28475376204716424 0.23245012725086656 0.1477531282569913 0.34204498559549312 0.28586743789359687 0.25376294287027473 0.24225470767157062 0.25971741637288792
leaf_weight=32.071900427341461 26.290648236870766 31053.046610035002 1555.7458521574736 4245.0728530585766 689.73063169419765 258.30151568353176 2594.4926071539521 2707.9777627512813 298.35814939439297 3134.60053024441 8987.2847545892 25705.520218506455 10.525415822863581 221.61268213391304 704.74225756525993 50.714797973632812 29.790985673666 96.501418098807335 29.101337902247906 5.970760911703108 213.93276663124561 236.15229322016239 1286.2513322532177 604.90576658397913 223.27448761463165 667.01858370751143 16.986679971218109 396.2518824338913 240.9785495698452 31.697757080197334 8.6557431966066378 824.82945221662521 334.2370088249445 11.052884817123415 10.332433909177778 14.164320565760134 45.666571415960789 23.789849907159802 613.03109288960695 18.096101000905037 651.12050203979015 23.834408774971962 43.63625180721283 16.079630881547928 26.526915013790131 52.034014567732811 4.5851102769374847 411.80000528693199 49.803526937961578 139.71004016697407 17.236487448215488 65.859313011169434
leaf_count=127 28 68175 4731 10948 3181 1040 10564 11346 632 11126 26083 89443 38 1201 2829 32 39 109 179 29 797 478 7862 3127 766 2845 17 1487 694 28 15 622 420 59 9 76 281 23 5622 89 707 99 32 11 34 47 11 306 39 93 26 42
internal_value=0 0.125351 0.121968 0.137631 0.10381 0.151298 0.154598 0.091317 -0.00450304 0.112009 0.108494 0.112461 0.0196099 0.0448653 0.0476123 0.216654 0.195103 0.0368694 0.0298553 -0.067969 0.117547 0.109959 0.0446461 0.022667 0.0604118 0.0285262 -0.088517 -0.0620778 0.161229 0.303482 0.200149 0.224171 0.173434 -0.0933877 0.113522 -0.101433 0.0135083 0.217308 -0.112915 0.0116108 0.236763 -0.111415 0.262077 0.140073 0.329749 0.28439 -0.0159022 0.338578 0.258574 0.244256 0.277311 0.251849
internal_weight=0 86331 83246.5 44694.9 38551.6 34510.7 33647.5 10184.2 1598.27 7379.67 36953.3 34692.8 3429.98 2662.26 2260.49 3084.54 2471.19 2804.48 2490.18 767.722 512.291 628.928 2223.35 863.207 459.427 1953.27 716.139 1085.98 270.08 613.351 124.309 1842.26 366.309 266.832 21.3853 689.849 62.6533 51.5822 627.195 26.7518 1475.95 245.447 172.079 26.605 489.042 145.474 10.5559 438.327 101.838 169.501 41.0263 97.5571
internal_count=268644 249416 245618 116435 129183 82906 78739 33529 6097 22074 123086 115526 19228 13115 7560 3798 3252 11455 12948 6113 1429 1376 11580 4167 1244 10707 6024 4668 873 546 174 1876 547 1368 68 5996 298 89 5698 104 1329 1300 167 49 372 118 40 340 86 132 49 70
is_linear=0
shrinkage=0.1


Tree=5
num_leaves=56
num_cat=0
split_feature=107 130 30 5 117 1 30 53 122 127 105 77 56 36 125 35 30 37 89 32 126 88 2 104 29 31 82 108 114 80 4 35 103 136 26 80 60 122 115 1 30 68 21 84 4 103 26 73 106 106 106 106 130 105 106
split_gain=2862.03 1853.18 1511.6 1541.1 1926.52 2219.14 1324.47 1216.68 1050.91 893.952 581.481 489.768 433.183 850.782 560.01 417.46 377.276 317.603 301.317 298.384 289.091 287.741 262.707 243.102 240.292 238.167 227.447 347.524 269.939 243.244 221.937 211.339 213.938 200.182 194.425 165.42 162.813 146.72 142.328 130.941 228.226 212.757 106.655 65.9767 63.6996 61.9688 55.7586 49.5869 46.2865 6.90231 0.157262 0.104947 0.0939503 0.0421916 0.0110063
threshold=-0.84464040398597706 1.0000000180025095e-35 1.0931729674339297 0.62176099419593822 -1.5380398035049436 -0.11127290129661559 1.07124400138855 0.7599225938320161 -1.0471724867820738 -1.7462846040725706 -0.92996138334274281 -0.5088592767715453 0.96437296271324169 0.95732417702674877 -1.6120106577873228 0.89686504006385814 1.1107203364372256 0.99370825290679943 -0.92823949456214894 0.96401166915893566 -1.6496962308883665 -1.1900208592414854 0.48262529075145727 -0.75522679090499867 1.2304626703262331 0.97202411293983471 -1.3789183497428892 -0.8460741639137267 -0.90465369820594776 -1.4027647972106931 0.72584131360054027 0.94212678074836742 -0.83858236670494068 1.0000000180025095e-35 1.2308635115623476 -1.2904193401336668 0.66872331500053417 -1.1958921551704405 -0.95826038718223561 0.56711211800575267 1.0805987119674685 -0.10477259010076521 1.2729877233505251 -1.3669087290763853 0.62022197246551525 -0.79680073261260975 1.5489853024482729 -0.93638816475868214 -0.9868466556072234 -0.83374288678169239 -0.83659696578979481 -0.81677159667015065 1.0000000180025095e-35 -0.78564864397048939 -0.82615292072296131
decision_type=2 2 2 2 2 2 2 2 2 2 2 2 2 2 2 2 2 2 2 2 2 2 2 2 2 2 2 2 2 2 2 2 2 2 2 2 2 2 2 2 2 2 2 2 2 2 2 2 2 2 2 2 2 2 2
left_child=1 2 3 4 11 -6 9 46 -8 -5 16 -1 26 15 17 42 18 -15 -4 21 -17 39 31 -16 30 36 27 44 33 -29 -12 32 -21 -28 35 -24 -23 -36 -27 40 -3 -41 -14 -30 -9 -33 49 -26 -18 50 52 54 -2 -53 -51
right_child=7 19 10 6 5 -7 8 12 -10 -11 24 -13 13 14 23 20 48 -19 -20 22 -22 25 34 -25 47 38 28 29 43 -31 -32 45 -34 -35 37 -37 -38 -39 -40 41 -42 -43 -44 -45 -46 -47 -48 -49 -50 51 -52 53 -54 -55 -56
leaf_value=0.26649121689472133 -0.14767469845816669 0.065441283028123187 0.13435796813661055 0.10037852499823177 -0.052841988360882601 0.10182946745814901 0.12380127420913443 0.15369811564307878 0.049585043108322346 0.16526121012392891 -0.003989251559985787 0.1568649490952852 0.19564231514415287 -0.02543081432678479 0.18309225073296204 -0.059414826789739396 0.18936956514762515 0.098426276302794602 -0.044469390781039321 0.27787774248916736 0.015007839235915994 -0.017741187032589815 0.23881853130659439 0.024549660404206655 0.0093992619501948125 -0.0077817133420166901 0.047487144860898917 0.10567949579977375 0.18521544245279456 0.050596210027594846 0.092181857087559993 0.21627524511132662 0.0079821368651263325 0.17077207545316811 -0.12265567172609432 0.56247879933832312 0.12593143146657357 0.18897503067259258 0.25390245700058744 0.066920646832567821 -0.11156543344438732 0.25623385950842598 -0.025809547587268191 -0.079561627097101115 0.24306077270552909 0.11147538713937225 0.13704812494089721 -0.11330619437497808 -0.090967982465607097 -0.11927727750756088 -0.12855009573138251 -0.11101608419971412 -0.13275905644424288 -0.10855030499754184 -0.11451674522748737
leaf_weight=455.40060870349407 54.60797007381916 1173.4117420315742 890.13084169477224 2554.5848573744297 947.90025220811367 43330.354971475899 11438.062255889177 340.4051201492548 2289.9179822877049 12584.519833534956 1076.8295971155167 3877.0537738278508 123.93591092526913 417.79226594418287 590.85742127895355 886.17200363427401 6.2265326231718054 410.41062299162149 105.37719359993935 31.724723979830742 1269.899035692215 112.45343343913555 69.977211773395538 115.64497861266136 39.708414047956467 1728.4135561734438 1139.5552073940635 1742.1736239418387 9.9280003756284696 1485.0415005832911 308.76659078896046 73.653972327709198 395.60561664402485 148.91741942614317 22.205568864941597 20.392753586173058 264.15411601215601 47.26815277338028 21.037346087396145 172.48587968945503 77.663774490356445 90.516765713691711 26.376823201775551 180.6704773157835 104.17975513637066 241.16985995322466 8.9686380028724653 193.02982886135578 108.86893188208342 9.14576603472233 5.3059073090553275 94.924018584191799 4.576869696378707 258.00599118322134 10.35556500405073
leaf_count=408 252 4842 2222 6145 4711 115581 26569 946 7643 23917 5060 5976 385 2605 1859 5849 18 1398 405 61 7028 646 149 635 214 10780 4808 6319 19 6028 1203 105 2177 311 160 27 939 140 70 702 449 154 141 945 189 725 17 1256 618 68 31 1063 25 3557 94
internal_value=0 0.109518 0.113037 0.115614 0.104745 0.0985183 0.133916 0.0514649 0.111422 0.154313 0.0398889 0.168388 0.0594603 0.0340434 0.091738 -0.00434749 0.0956108 0.0359458 0.115429 0.047379 -0.0155808 0.0346204 0.0988679 0.157141 0.00164903 0.0108942 0.0784141 0.091751 0.0453052 0.0803323 0.0174415 0.0738221 0.028019 0.061736 0.215155 0.311855 0.0830314 0.0893699 -0.00463493 0.0679366 0.0544531 0.132076 0.156782 -0.0657698 0.174639 0.135994 -0.109772 -0.0923709 -0.075802 -0.114838 -0.145043 -0.109608 -0.146521 -0.109214 -0.116749
internal_weight=0 84748.9 80206.7 77477.8 48610.7 44278.3 28867.1 9437.85 13728 15139.1 2728.94 4332.45 8991.96 3841.09 1534.71 2306.38 1110.6 828.203 995.508 4542.13 2156.07 3640.14 901.998 706.502 1618.33 2126.06 5150.87 3671.8 1479.07 3227.22 1385.6 742.154 427.33 1288.47 159.844 90.37 376.608 69.4737 1749.45 1514.08 1251.08 263.003 150.313 190.598 444.585 314.824 445.891 232.738 115.095 436.922 64.4907 372.431 59.1848 352.93 19.5013
internal_count=268644 224072 201946 190950 126676 120292 64274 44572 34212 30062 10996 6384 39465 19900 6497 13403 3263 4003 2627 22126 12877 18582 3544 2494 7733 12435 19565 13482 6083 12347 6263 3068 2238 5119 476 176 1585 300 10850 6147 5291 856 526 964 1135 830 5107 1470 636 5090 308 4782 277 4620 162
is_linear=0
shrinkage=0.1


Tree=6
num_leaves=59
num_cat=0
split_feature=106 136 120 127 30 38 105 118 12 50 134 105 30 115 92 120 3 133 30 61 32 97 30 127 52 94 71 133 110 117 55 120 80 32 56 83 123 45 6 33 29 72 52 37 36 124 26 127 76 93 71 123 16 118 5 72 106 118
split_gain=2261.3 1526.74 1418.76 2025.82 1861.61 1207.96 1063.58 984.797 1283.73 957.599 1052.63 944.803 813.235 716.515 665.241 1125.37 642.161 638.179 576.271 484.893 585.54 466.402 430.749 418.796 356.11 292.664 393.28 249.793 249.498 463.361 231.502 200.125 271.181 229.093 198.2 193.679 176.469 158.247 125.863 117.442 106.809 133.568 97.224 69.201 58.7109 57.4464 51.1044 47.9224 46.9679 42.3612 49.7653 18.9963 18.7499 13.904 6.87671 6.32164 3.18899 1.47345
threshold=-0.8608560562133788 1.0000000180025095e-35 -1.7314307689666746 -2.4459769725799556 1.075759291648865 0.92556694149971019 -0.76627591252326954 -1.3438970446586607 0.84876328706741344 1.1595904231071474 1.0000000180025095e-35 -0.92996138334274281 1.0959455966949465 -0.88742536306381214 -0.31822936236858362 -1.7009835243225095 0.59373271465301525 1.0000000180025095e-35 1.0576578974723818 0.70616123080253612 0.96197596192359935 -1.0273239016532896 1.1107203364372256 -1.7083308696746824 1.2225029468536379 -0.27434554696083063 -0.20821915566921231 1.0000000180025095e-35 -1.1908726096153257 -1.5657137632369993 0.98888221383094799 -1.758679926395416 -0.236300453543663 0.82959881424903881 1.0103099346160891 -1.1599425077438352 -2.1727985143661495 1.2172311544418337 0.10066884383559228 0.82570555806159984 1.0884829163551333 -0.56396424770355214 1.1325346827507021 0.93701431155204784 0.91696321964263927 -1.8858388662338255 0.96287596225738536 -1.969030439853668 -0.44317945837974543 -0.34168262779712671 -0.36195419728755945 -2.2105528116226192 1.0633299350738528 -1.6019913554191587 0.66315555572509777 -0.30738165974616999 -0.83659696578979481 -1.5895973443984983
decision_type=2 2 2 2 2 2 2 2 2 2 2 2 2 2 2 2 2 2 2 2 2 2 2 2 2 2 2 2 2 2 2 2 2 2 2 2 2 2 2 2 2 2 2 2 2 2 2 2 2 2 2 2 2 2 2 2 2 2
left_child=2 6 25 5 7 17 9 27 -9 16 34 22 -13 19 15 -7 18 39 -2 20 23 -18 -6 -3 31 28 55 -5 29 37 -22 32 -8 -33 -11 -12 -31 -1 -16 -4 41 -21 53 46 -45 -19 -28 -42 -44 50 -26 -51 -15 -30 -54 57 -56 -27
right_child=1 13 3 4 11 14 24 8 -10 10 35 12 -14 52 38 -17 21 45 -20 40 30 -23 -24 -25 49 26 43 -29 42 36 -32 33 -34 -35 -36 -37 -38 -39 -40 -41 47 -43 48 44 -46 -47 -48 -49 -50 51 -52 -53 54 -55 56 -57 -58 -59
leaf_value=0.18383375490470868 0.053418684623357172 0.062093158207856707 -0.15106881114287329 0.1265603096380101 0.12722817917342824 0.14702875352730535 0.25469807515806253 0.098363415297218454 0.13682738396097782 0.10810909124676199 0.048900637897695859 0.070674134522699203 -0.020362522652977541 0.18122767213778068 -0.085732361210537969 0.054265463387513549 -0.084515621361225535 -0.10485235364085277 0.0054050408659899992 0.12861145058153997 0.21627508644212773 0.10136721700164429 -0.072297663718512969 0.12204967221662999 0.0812190852158029 -0.15961082792405712 -0.15584273863797646 0.22193735191307029 0.20491702101030296 -0.03824280265890681 0.14044401103018075 -0.11049089293390622 -0.081940909696134712 -0.014963696780792429 0.044565734184512373 0.24748555779280262 0.15293832165787835 0.082427411477841536 0.098648646877714102 0.13019465056633209 -0.14922742148807255 0.0023675036764238557 0.20187853483615137 0.17908245887183211 -0.0067715210668815601 0.039262302901750673 0.14490532083593763 -0.017939917345176991 0.13593389560026178 0.13437852474017462 0.26339251762948018 -0.13768879723569016 -0.0041243155450337307 0.25099021238246216 -0.14527438306538148 -0.044689714950884418 -0.11341859688344853 -0.12671531279725529
leaf_weight=1358.1196555793285 13491.885101892054 1784.8876543045044 16.213914394378662 368.37895315885544 3477.334666736424 1618.7559183239937 47.825502142310143 22003.774006046355 14326.26820461452 1173.7971667200327 53.757635213434696 11164.470354020596 1075.8125314638019 2.0804580822587004 328.17623679339886 6808.2927926629782 141.14701748639345 680.63563658297062 3068.2329108789563 122.78265649080276 639.62505546212196 3091.2944291010499 111.67451795190573 3354.5483166724443 22.92230411618948 42.531722128391266 13.029658451676369 1078.6001796871424 76.63599967956543 159.28325067460537 1086.3493456542492 527.79088246077299 47.891723923385143 478.79072026908398 843.68032167106867 568.34350501000881 69.281696617603302 173.55284982919693 41.730342239141464 175.91423068940639 43.539133831858635 264.01489162445068 403.58341147005558 157.15345969796181 19.058387458324432 28.831305891275406 9.975898489356041 76.926180317997932 147.46931019425392 4.620202511548996 43.36194808781147 5.7730848193168622 4.8395575731992713 450.77292151749134 50.539674952626228 6.3940770030021659 83.08903931081295 20.02850042283535
leaf_count=1199 53481 4931 73 720 7117 2876 33 54692 26285 3785 156 31943 5569 7 1514 19498 1181 2991 12212 281 876 8258 648 6834 63 184 60 1180 48 495 2311 5318 269 2770 3437 655 85 307 93 358 197 866 268 153 49 91 13 270 235 12 52 33 19 299 237 26 910 121
internal_value=0 0.067654 0.100319 0.0970815 0.10469 0.0550247 0.0551604 0.116753 0.113531 0.060026 0.116603 0.075902 0.0626728 0.106916 0.066323 0.0720844 0.0524808 -0.0552139 0.0445228 0.11118 0.118151 0.0932505 0.12102 0.101227 -0.037418 0.166296 0.0664394 0.197656 0.175729 0.152524 0.168546 -0.0519131 0.0862621 -0.0650524 0.0815362 0.230325 0.0197073 0.172343 -0.0649318 0.106459 0.0168335 0.0424416 0.213605 0.137686 0.158981 -0.0989958 -0.0254294 -0.0653905 0.184231 0.170962 0.200394 -0.0167448 -0.116749 0.244295 -0.121226 -0.139399 -0.125467 -0.149079
internal_weight=0 31124.3 66411.7 63304.9 53606.3 9698.55 23611.1 37777 36330 22432.1 2639.58 15829.3 12240.3 7513.22 8796.96 8427.05 19792.6 901.595 16560.1 7372.67 6865.41 3232.44 3589.01 5139.44 1178.98 3106.87 268.172 1446.98 2838.7 1760.24 1725.97 1102.3 95.7172 1006.58 2017.48 622.101 228.565 1531.67 369.907 192.128 507.263 386.798 1078.46 199.217 176.212 709.467 23.0056 120.465 551.053 76.6775 66.2843 10.3933 140.549 527.409 138.468 68.9543 133.629 62.5602
internal_count=268644 109454 159190 155648 128154 27494 91715 82877 80977 83165 8033 45277 37512 17739 23981 22374 75132 3513 65693 16566 14952 9439 7765 11765 8550 3542 606 1900 2936 2086 3187 8390 302 8088 7222 811 580 1506 1607 431 1614 1147 850 275 202 3082 73 467 503 160 115 45 1173 347 1166 331 1147 305
is_linear=0
shrinkage=0.1


Tree=7
num_leaves=54
num_cat=0
split_feature=106 118 0 134 32 105 122 56 105 55 32 29 110 54 120 86 112 50 38 125 125 38 118 110 82 39 40 61 80 69 104 115 125 120 53 125 106 54 40 129 27 50 65 26 111 56 84 106 49 105 110 98 53
split_gain=1841.36 1210.38 1503.19 1251.13 1773.94 1563.59 1319.05 758.361 637.182 539.827 531.762 263.865 249.932 597.052 309.469 251.114 200.306 203.828 197.506 463.462 372.811 447.841 315.565 215.014 227.825 191.379 175.784 144.559 121.677 113.81 110.296 109.421 106.891 313.479 98.3077 78.0442 77.809 74.8937 64.1079 62.6324 62.139 34.0806 31.031 25.8807 25.112 18.1065 14.4115 0.322916 0.222019 0.0267395 0.00323878 0.00266257 0.00234198
threshold=-0.81677159667015065 -1.595076262950897 -0.23867756873369214 1.0000000180025095e-35 0.94965630769729625 -0.92118158936500538 -2.0241466760635372 0.99737390875816356 -0.83993849158287037 0.84832996129989635 0.91461864113807689 0.9169423282146455 -1.2008821964263914 1.0902091264724734 -1.7427226305007932 -0.11859172955155371 -1.3359230756759641 1.1682959198951723 1.0130596160888674 -1.676663815975189 -1.5229482650756834 0.99650093913078319 -1.0007439851760862 -0.89012387394905079 -1.348919630050659 1.0281065106391909 1.0769990682601931 0.75905227661132824 -1.2819231152534483 0.085776507854461684 -0.75522679090499867 -1.4882531166076658 -2.6190400123596187 -1.7427226305007932 1.1393247246742251 -2.5688143968582149 -0.88751971721649159 1.0802738070487978 1.0716940164566042 1.0000000180025095e-35 1.0124158263206484 1.2173222303390505 0.52220797538757335 1.4171410202980044 -0.94198432564735401 1.0235212445259096 -0.33691003918647761 -0.83659696578979481 0.94246375560760509 -0.78564864397048939 -0.65938085317611683 -0.99514883756637562 0.7599225938320161
decision_type=2 2 2 2 2 2 2 2 2 2 2 2 2 2 2 2 2 2 2 2 2 2 2 2 2 2 2 2 2 2 2 2 2 2 2 2 2 2 2 2 2 2 2 2 2 2 2 2 2 2 2 2 2
left_child=1 12 11 5 7 10 -7 -5 -6 43 -4 29 13 16 36 32 37 -18 20 26 23 22 -22 24 -11 -25 44 39 -28 35 -23 -17 33 -14 -31 -3 -15 -1 -29 -21 -16 45 -43 48 -20 -13 -34 -33 49 51 -50 -2 -51
right_child=9 2 3 4 8 6 -8 -9 -10 18 -12 41 15 14 40 31 17 -19 19 27 21 30 -24 25 -26 -27 28 38 -30 34 -32 47 46 -35 -36 -37 -38 -39 -40 -41 -42 42 -44 -45 -46 -47 -48 -49 50 52 -52 -53 -54
leaf_value=0.18849401300897581 -0.10894398884982395 -0.10993085880904517 0.08568943839554026 0.12468780923207286 0.092227460871334918 0.20481030520058208 0.067477310529172288 0.20836764747091069 0.031156281318395249 0.10815057833538735 0.12777977457647746 0.12053953052589093 0.17066395396254663 0.10068650440353517 -0.11591877606651207 0.23815313282865641 -0.14135525756641795 0.10957644261332594 -0.048047951770563042 0.12628870895314265 0.17774228710000659 0.19653354169352927 0.023376993147139855 -0.097338850937481486 -0.017858697181538829 0.01787414587567332 0.12430128810817678 -0.084771690580971948 -0.046355134160387369 0.15190197974886036 -0.034350177127042143 -0.14287164932207072 0.20904699070899652 0.009021079247235152 -0.10206957595674121 0.16838494135410179 -0.051875615484598792 0.10835254282772754 0.098487526250647425 0.20338560424607932 0.13972545828229793 0.23459830260988676 0.039136692371789225 0.1333354662244097 -0.12460461027308456 -0.14170729158424114 0.18369002985679439 -0.11906101724981442 -0.12819300718305909 -0.1068834571514346 -0.12378113652782717 -0.11226205031310384 -0.10926979741054968
leaf_weight=664.65852802991867 79.779188461601734 529.88216158002615 5570.9491046071053 7402.2385755777359 4768.907484382391 707.43965742737055 61348.363405689597 1268.6260192990303 2662.0568822324276 199.64795304089785 6508.1476028934121 5.0104856416583043 749.94948782026768 213.53571709990501 152.49734561145306 9.6687636375427228 36.561636164784431 282.40464499592781 83.463256269693375 281.06634274125099 139.11418482661247 212.91726376116276 2756.6720065623522 461.64483568072319 510.02096194773912 209.65133848786354 103.48404029011726 38.380407683551311 70.068243943154812 34.202627316117287 22.917751133441925 31.14081750810146 345.44379508495331 142.82557240128517 27.491863422095776 10.270758658647535 39.635024040937424 141.4195040166378 37.977170377969742 168.56866843998432 10.140297785401343 31.160396121442318 10.985686928033827 4.5122619792819014 88.044980190694332 5.5479779690504074 638.27092854678631 6.9706541746854809 3.3065255209803581 214.19742045924067 3.3494940921664229 2.4940244704484931 4.1931204646825782
leaf_count=480 1060 3197 12572 12915 10692 737 173463 1521 7775 779 11481 13 647 323 579 6 139 461 477 709 413 638 12566 3288 2960 1078 268 203 345 120 144 152 214 374 176 18 131 201 108 316 13 46 38 13 596 27 440 52 20 3557 22 26 55
internal_value=0 0.082054 0.0798426 0.0809379 0.106204 0.0754502 0.0690429 0.136931 0.0703494 0.0235033 0.108367 -0.0711536 0.140061 0.110048 0.00765647 0.164093 0.147891 0.0808133 0.0309128 0.0745084 0.0224976 0.0415846 0.0307927 -0.0207861 0.0175909 -0.0613569 -0.0155505 0.133589 0.0554022 -0.0899424 0.174097 -0.0622941 0.169857 0.144804 0.038729 -0.104639 0.0768022 0.174434 0.00637403 0.155192 -0.0999796 0.143401 0.18365 -0.104417 -0.0873489 -0.0172589 0.192594 -0.138517 -0.107908 -0.107508 -0.125973 -0.109045 -0.106929
internal_weight=0 94356.4 90891.3 90236.7 16101.8 74134.9 62055.8 8670.86 7430.96 5695.47 12079.1 654.552 3465.12 1540.85 415.808 1924.27 1125.04 318.966 5383.64 871.053 4512.59 3131.62 2895.79 1380.97 709.669 671.296 345.061 525.993 173.552 601.847 235.835 47.7802 1876.49 892.775 61.6945 540.153 253.171 806.078 76.3576 449.635 162.638 52.7045 42.1461 311.832 171.508 10.5585 983.715 38.1115 307.32 300.664 6.65602 82.2732 218.391
internal_count=268644 239003 234791 231156 32903 198253 174200 14436 18467 29641 24053 3635 4212 2327 1046 1885 1281 600 24888 3022 21866 13761 12979 8105 3739 4366 1686 1336 613 3511 782 210 1675 1021 296 3215 454 681 311 1025 592 124 84 4753 1073 40 654 204 4740 4698 42 1086 3612
is_linear=0
shrinkage=0.1


Tree=8
num_leaves=59
num_cat=0
split_feature=106 136 129 131 29 103 119 132 30 134 31 74 29 82 110 110 84 81 115 110 30 5 32 35 33 79 80 15 115 76 114 130 33 81 0 124 74 83 54 76 83 109 96 77 32 37 103 29 31 105 52 105 106 1 79 106 107 0
split_gain=1466.96 1158.94 1154.49 1097.4 988.929 1262.73 1582.69 1175.82 875.961 688.035 1162.12 685.925 653.881 557.429 1123.16 637.588 726.889 579.36 521.479 368.657 358.087 395.058 386.47 383.099 322.793 312.354 253.097 353.924 197.14 494.949 286.737 171.473 166.413 161.005 127.93 117.815 105.066 100.742 91.6662 85.8096 77.3449 132.688 64.42 63.7683 56.9067 50.1484 46.0662 43.3906 39.7029 33.3798 16.7959 13.9759 34.0525 9.80626 9.56983 2.67495 0.245574 0.117618
threshold=-0.86050209403038014 1.0000000180025095e-35 1.0000000180025095e-35 1.0000000180025095e-35 1.2033888101577761 -0.84546312689781178 -1.6433085203170774 1.0000000180025095e-35 1.0734300613403323 1.0000000180025095e-35 0.99254870414733898 -0.94647607207298268 1.2357580661773684 -1.3114641308784483 -0.9029744267463683 -0.91907516121864308 -1.2737267613410947 -1.3464006185531614 -0.88742536306381214 -0.93245330452918995 1.0689148306846621 0.61761024594306957 0.96197596192359935 0.8997112810611726 0.89722442626953136 -1.312349200248718 -1.1401035785675047 0.94995012879371654 -0.96264353394508351 -1.1647135615348814 -0.97632119059562672 1.0000000180025095e-35 0.92668232321739208 -1.3316863179206846 0.51418974995613109 -1.3130601644515989 -1.0122036337852476 -1.147317051887512 0.93977779150009166 -1.1852969527244566 -1.2333827018737791 -0.92008498311042775 -1.0212141275405882 -1.2654762268066404 0.96287608146667492 0.94615045189857494 -0.84809091687202443 1.0641091465950014 0.99896544218063366 -0.85308331251144398 1.0508069992065432 -0.85260421037673939 -0.88442176580429066 0.62077200412750255 -1.0495535135269163 -0.83659696578979481 -0.7944587469100951 0.76452895998954784
decision_type=2 2 2 2 2 2 2 2 2 2 2 2 2 2 2 2 2 2 2 2 2 2 2 2 2 2 2 2 2 2 2 2 2 2 2 2 2 2 2 2 2 2 2 2 2 2 2 2 2 2 2 2 2 2 2 2 2 2
left_child=2 9 3 4 5 8 -7 12 -1 13 32 24 -6 14 25 16 -15 -16 20 -13 21 22 -3 -23 -12 -2 27 46 29 35 -31 -17 45 38 49 -5 -9 -34 -30 -35 41 -29 -42 -36 51 -11 -4 -48 -46 -22 55 53 -53 -28 -50 57 -57 -20
right_child=1 18 26 28 7 6 -8 36 -10 10 11 19 -14 15 17 31 -18 -19 50 -21 34 23 -24 -25 -26 -27 44 40 33 30 -32 -33 37 39 43 -37 -38 -39 -40 -41 42 -43 -44 -45 48 -47 47 -49 54 -51 -52 52 -54 -55 -56 56 -58 -59
leaf_value=0.11139031036328811 0.16759339741494908 0.055914351017591714 -0.14005899568964505 0.072833749830901698 0.036427762951489757 0.12735661897750877 0.058952678775860495 -0.010326546589268092 0.07833843366549828 0.1455879603409603 -0.05263521965397161 0.029317237053253078 -0.078007232604987278 0.13216091719277309 0.041211166310455093 -0.083659887558763524 0.010329641420249672 -0.021716831648000125 -0.14916729931425152 -0.07014297448403907 -0.035452432830444081 0.10058006553701225 0.11317526611048928 0.19019308636726018 0.096774238198813159 0.084425002139871252 -0.12306440155237114 0.10670363927261228 0.23733063160854928 0.031751113878911989 -0.11768485098221754 -0.011553079317907103 -0.080234754936907904 -0.0062102512137537993 -0.04972063183491543 0.17573989343829488 0.1914567331078815 0.13750943963238701 0.042702600109498536 -0.072103749738690312 0.16373627152516446 -0.01146108305148129 -0.057365469619797084 0.17093871965018029 0.14286126236712718 0.18690999083782325 -0.13538085249391557 0.17185225002600596 -0.13938306701182601 -0.14300127881064081 0.026089208547214682 0.0814962899109829 -0.11202260159934865 0.035571302108334986 0.048105374154949865 -0.12451040704685344 -0.10902318323536463 -0.13870335731493197
leaf_weight=20783.404659494758 674.06035355478525 3281.611892990768 5.226274609565734 182.16223751008511 3572.4176447242498 3991.2166900187731 22176.526724547148 27.248803049325943 13055.430808849633 586.01166471466422 155.77583657205105 1534.702956750989 580.45354173332453 553.38917741179466 8990.0193076990545 784.49985214695334 4256.6798413619399 1747.4378335848451 15.881285548210142 492.18574112653732 44.433059602975845 1679.4489180594683 1839.342111364007 666.32937806844711 2015.5427385419607 1368.1292834952474 209.30530862510204 114.96561507880688 26.691863909363747 1833.7707199603319 138.07052353024483 568.99386674910784 45.400207825005054 719.73529347777367 22.503904163837433 285.81574882566929 486.8002395927906 39.940653115510941 259.11307537555695 272.43627546727657 13.707244142889975 547.99017752707005 341.04409529268742 31.329651653766632 16.125397980213169 588.76733408868313 4.7488866150379172 143.57718543708324 10.014666557312013 82.330362930893898 7.9341974481940261 12.501926898956297 33.346343964338303 3.9706645533442488 3.7387856990098909 12.405814118683336 58.60419300198555 33.193887293338776
leaf_count=35428 1586 8280 26 549 10482 5038 56917 88 29269 919 464 4424 2695 1584 37381 4727 17898 7652 72 1843 133 3130 3631 737 4133 4502 1191 365 55 6352 712 2917 174 3102 71 614 502 69 918 1352 51 2263 1569 40 37 636 25 309 51 326 32 47 177 17 16 81 820 165
internal_value=0 0.0517124 0.0775178 0.0793964 0.0824335 0.085882 0.0693859 0.0380927 0.0986385 0.0409995 0.0722814 0.0470018 0.020433 0.0319858 0.0438989 0.00728501 0.0243461 0.0309701 0.0853332 0.00516549 0.088684 0.0920493 0.0764813 0.126035 0.0860552 0.111876 -0.0104637 0.0102164 0.0265637 0.0432295 0.0212874 -0.053347 0.156503 -0.00525347 -0.0504552 0.135683 0.180761 0.0216724 0.0608793 -0.0243037 -0.0111359 0.0090303 -0.0488223 0.0786971 -0.0942751 0.166297 0.151734 0.162016 0.0364029 -0.105303 -0.114826 -0.109343 -0.0592538 -0.120111 -0.0884156 -0.124136 -0.111729 -0.14209
internal_weight=0 32176.9 69851.6 68391.3 64673.5 60006.6 26167.7 4666.92 33838.8 24401.5 5458.33 4198.21 4152.87 18943.2 12779.6 6163.56 4810.07 10737.5 7775.35 2026.89 7647.33 7466.73 5120.95 2345.78 2171.32 2042.19 1460.26 1171.26 3717.8 2439.82 1971.84 1353.49 1260.12 1277.98 180.597 467.978 514.049 85.3409 285.805 992.172 1017.71 662.956 354.751 53.8336 289.003 1174.78 153.552 148.326 29.8789 126.763 128.019 259.124 45.8483 213.276 13.7535 120.085 71.01 49.0752
internal_count=268644 108427 160217 154073 140419 126652 61955 13767 64697 90909 12662 10864 13177 78247 51121 27126 19482 45033 17518 6267 16348 15778 11911 3867 4597 6088 6144 4608 13654 8227 7064 7644 1798 5427 570 1163 590 243 973 4454 4248 2628 1620 111 1536 1555 360 334 104 459 1170 1432 224 1208 67 1138 901 237
is_linear=0
shrinkage=0.1


Tree=9
num_leaves=51
num_cat=0
split_feature=106 130 128 131 118 127 49 84 109 83 78 80 39 31 109 84 79 58 54 34 58 125 39 32 74 38 124 53 62 30 52 31 112 28 36 59 110 6 92 45 111 31 60 52 105 105 26 104 112 43
split_gain=1253.51 982.657 989.045 1113.14 745.11 1477.84 426.94 412.675 375.305 424.06 309.196 269.826 248.288 212.739 202.565 273.446 185.173 213.442 176.833 174.408 367.017 316.184 281.911 240.788 143.417 130.336 129.747 128.658 318.446 283.117 121.241 113.433 139.78 105.118 99.1455 95.0993 94.6054 93.2474 92.4848 65.6717 62.2308 50.5382 52.8954 48.5578 38.6667 10.1619 0.304304 0.0151923 0.00542224 0.00251518
threshold=-0.81677159667015065 1.0000000180025095e-35 1.0000000180025095e-35 1.0000000180025095e-35 -1.6112935543060301 -2.5099352598190303 0.94246375560760509 -1.2911257743835447 -0.89074230194091786 -1.3366919755935667 -1.2313689589500425 -1.396271765232086 1.0235942006111147 1.0116488337516787 -0.90036484599113453 -1.2646017074584959 -1.4615341424942014 0.91431477665901195 1.0611416101455691 0.94003939628601085 0.88065221905708324 -1.676663815975189 1.0012650489807131 0.94103729724884044 -0.93152689933776844 1.0265205502510073 -1.4134376049041746 1.024665415287018 0.5281837284564973 1.0561330914497378 1.1128330826759341 1.0103578567504885 -0.94624584913253773 1.2279743552207949 0.87332177162170421 0.82540765404701244 -1.2008821964263914 0.64565327763557445 -1.0082430243492124 1.1598972678184511 -0.84873816370964039 0.99973997473716747 0.79975837469100963 1.1094556450843813 -0.81396192312240589 -0.96453332901000965 1.4989737272262575 -0.82872745394706715 -0.97304168343543995 1.0000000180025095e-35
decision_type=2 2 2 2 2 2 2 2 2 2 2 2 2 2 2 2 2 2 2 2 2 2 2 2 2 2 2 2 2 2 2 2 2 2 2 2 2 2 2 2 2 2 2 2 2 2 2 2 2 2
left_child=1 2 3 4 36 -6 45 8 33 -10 12 40 27 -13 15 -9 17 35 31 20 22 25 -18 -22 38 -21 -23 28 -3 -29 -26 32 -12 -4 -33 37 -1 -8 -20 -16 -5 42 -14 -37 -43 -2 47 48 -47 -49
right_child=6 10 7 11 5 -7 16 14 9 -11 18 13 41 -15 39 -17 19 -19 24 21 23 26 -24 -25 30 -27 -28 29 -30 -31 -32 34 -34 -35 -36 43 -38 -39 -40 -41 -42 44 -44 -45 -46 46 -48 49 -50 -51
leaf_value=0.11105672851600984 0.10490807940163852 0.037396501455049296 0.11498557414454465 0.15742175809478356 0.035905764519070085 0.076220522788070344 0.18858299012557156 0.090280759719215356 0.057064638980472898 -0.056339682661761981 -0.045535543929263095 0.031783754895561185 0.17365925959221173 -0.024473946606822845 -0.10375620818538528 -0.016732950359695527 0.016096130734015397 0.52029877008450909 0.059076215327108675 -0.079800621336658814 0.059798347328523106 0.063964696812097238 0.09782447451298168 -0.044141105542953751 0.42775578782079188 0.042408771715206885 0.15979524936388356 0.047897297785889512 0.16876616653322629 -0.021730229314365745 0.015743020950686054 -0.1246888287445594 0.10307766558312144 0.25885307016992987 0.084589734180651063 -0.12210621254296748 0.15344341078350984 -0.13815765625357709 0.29357300560772731 0.13482960984415854 0.067741505024048604 0.11163763837465053 0.036867574521575117 0.29607194656533614 -0.13396198759699837 -0.11320965298085468 -0.15813434202306401 -0.10566339764523963 -0.10772879053889393 -0.10644593954033493
leaf_weight=1119.783421933651 2.2841015681624404 926.47218430042267 358.82027208805084 182.62473540008068 10498.745636843145 67900.317871458828 73.382260859012604 283.20702183246613 1398.4132964909077 431.47697921097279 1133.1130691245198 5429.3264608681202 193.01771950721741 767.15451013296843 256.50454414635897 1522.0298265516758 1938.6822964549065 13.433880046010016 35.0654526501894 209.67116878181696 266.34108955413103 802.45139170438051 539.50325206667185 1365.9318585470319 7.2083670645952216 149.48669637739658 171.4730008020997 1658.2803319394588 230.41034443676472 901.44530743360519 777.28696784377098 27.005398795008659 67.033315554261208 59.160103335976601 139.95094718039036 22.493023127317432 993.98725481331348 9.9144153594970685 32.321722626686096 12.080231949687002 134.26355721056461 15.03765180706978 33.118587955832481 3.1678079664707175 11.173411339521406 1.848760001361369 1.1543556302785862 59.247593026608229 76.282316666096449 133.89246740564704
leaf_count=1350 7 3067 797 348 28383 145348 159 720 4217 1823 6505 18685 366 3582 1178 5393 7994 19 104 1376 1107 2765 1918 8414 12 483 475 6542 399 4611 3128 181 235 49 536 153 767 52 50 36 377 36 117 10 61 19 7 1168 1155 2360
internal_value=0 0.0642534 0.0668659 0.0691846 0.0724014 0.0708218 0.0165596 0.0201723 0.0498532 0.0303246 0.0256883 0.0294215 0.0424024 0.0248188 -0.0119996 5.54473e-05 0.0225661 0.144209 -0.00420713 0.0198312 0.00963759 0.0512622 0.0338885 -0.0271811 0.0315543 -0.0289353 0.080837 0.0358851 0.0635607 0.0233769 0.0195288 -0.0264912 -0.0372349 0.135348 0.0507387 0.0978386 0.130989 0.149693 0.171551 -0.0930252 0.119425 0.13839 0.153626 -0.0704825 0.00694194 -0.105139 -0.1069 -0.106682 -0.107858 -0.106206
internal_weight=0 97535.8 91347.9 87026.2 80512.8 78399.1 5840.64 4321.69 2247.87 1829.89 6187.94 6513.37 3968.96 6196.48 2073.82 1805.24 5565.93 122.391 2218.99 5443.54 4110.46 1333.08 2478.19 1632.27 851.883 359.158 973.924 3716.61 1156.88 2559.73 784.495 1367.1 1200.15 417.98 166.956 108.958 2113.77 83.2967 67.3872 268.585 316.888 252.347 226.136 25.6608 26.2111 274.71 272.425 271.271 78.1311 193.14
internal_count=268644 239003 213053 198840 175848 173731 29641 14213 6886 6040 25950 22992 15199 22267 7327 6113 24925 393 10751 24532 19433 5099 9912 9521 3294 1859 3240 14619 3466 11153 3140 7457 6740 846 717 374 2117 211 154 1214 725 580 483 163 97 4716 4709 4702 1174 3528
is_linear=0
shrinkage=0.1


Tree=10
num_leaves=59
num_cat=0
split_feature=106 30 10 119 127 118 136 38 105 45 125 32 118 29 131 105 41 110 116 112 134 124 129 132 61 30 57 112 55 73 29 2 54 102 91 120 80 32 92 29 74 69 115 30 29 72 43 1 79 71 40 94 94 70 25 52 30 106
split_gain=1080.79 1009.83 1056.04 1049.04 1189.14 886.939 764.703 736.578 555.99 614.589 465.169 666.828 467.747 444.232 440.567 435.998 430.522 420.904 562.847 392.971 392.412 454.332 372.831 354.397 348.237 344.772 395.715 339.675 309.949 402.585 286.032 269.762 266.971 195.135 155.828 133.9 187.325 161.665 114.248 116.769 107.528 107.173 106.25 92.1379 88.9049 126.177 80.3542 78.5617 47.6137 31.8383 31.7847 18.339 25.8633 17.1875 6.51882 4.46994 4.4144 2.21636
threshold=-0.8608560562133788 1.0834479928016665 0.78053569793701183 -1.6433085203170774 -2.5099352598190303 -1.3518499732017515 1.0000000180025095e-35 0.93110477924346935 -0.76627591252326954 1.1563056111335757 -1.5864837765693662 0.95245665311813366 -1.0624815225601194 1.2304626703262331 1.0000000180025095e-35 -0.94668585062026966 0.74558785557746898 -1.19733589887619 -1.5224393010139463 -0.8701876401901244 1.0000000180025095e-35 -1.5769184231758115 1.0000000180025095e-35 1.0000000180025095e-35 0.70616123080253612 1.0627343654632571 0.89161106944084179 -0.91561204195022572 0.87723910808563244 -0.90742066502571095 1.1876671910285952 0.56260383129119884 1.1586301326751711 -0.96261849999427784 -0.23242764174938199 -1.758679926395416 -0.236300453543663 0.82959881424903881 -0.85214892029762257 1.1957949399948122 -1.024613559246063 -0.13009161502122876 -0.97120016813278187 1.1107203364372256 1.0925685167312624 -0.56769680976867665 1.0194929242134096 0.51850759983062755 -0.51999616622924794 -0.36872364580631251 0.8929438889026643 -1.0095940828323362 -1.0218025445938108 -0.27597987651824946 0.98791682720184337 1.0508069992065432 1.0449136495590212 -0.83659696578979481
decision_type=2 2 2 2 2 2 2 2 2 2 2 2 2 2 2 2 2 2 2 2 2 2 2 2 2 2 2 2 2 2 2 2 2 2 2 2 2 2 2 2 2 2 2 2 2 2 2 2 2 2 2 2 2 2 2 2 2 2
left_child=1 2 3 17 7 -6 8 -5 9 10 11 -2 -12 15 16 38 27 18 -1 24 21 -11 -18 33 25 26 -8 -4 29 -17 -30 -27 35 43 -19 36 -10 -37 39 -3 -35 -22 47 -15 45 -26 -44 -16 49 -34 -40 52 -25 55 -50 57 -46 -21
right_child=6 13 14 4 5 -7 19 -9 32 20 12 -13 -14 23 42 28 22 34 -20 53 41 -23 -24 51 44 31 -28 -29 30 -31 -32 -33 48 40 -36 37 -38 -39 50 -41 -42 -43 46 -45 56 -47 -48 -49 54 -51 -52 -53 -54 -55 -56 -57 -58 -59
leaf_value=0.10808107780062733 0.062232535064734563 0.12066718156710315 0.061761273571303503 -0.072166362632890016 0.12877375481715625 0.058596209224473478 0.11982053226006889 0.029838794836589768 0.19807343310060987 0.015587555233744062 0.13838434543302258 -0.021106711244623662 0.033538439028040115 0.1366794821283091 -0.068595270262208297 0.007397357680781258 0.10135734199412366 0.1468492126310828 -0.013741102618638363 -0.13978949175680297 -0.045510950884172639 0.095262478697366967 -0.050648736237343256 -0.023690401115162255 0.080233500719223236 -0.019530992605990356 0.066601619190652203 -0.078731719359562399 0.017132666651295991 0.070715112408076999 -0.068692972094892168 0.083235695678739674 0.067356390772181807 0.026192682756528009 0.01485209125404598 -0.10725947509482255 -0.082397917051745914 -0.023858156569648833 -0.17961757083926208 0.060518769863306426 -0.10568608213908276 0.15781570175691509 -0.0075417565492723465 -0.066954464321391155 -0.078714055892715712 -0.028923409323784469 0.23444352653567455 0.092644291133796353 -0.12883908646116921 0.19800504355971627 0.023169888915360561 0.20139286556980701 0.21353673291301584 0.17525446224101246 0.038513832250378008 -0.037475645022685376 -0.1572846612439982 -0.11118890831355982
leaf_weight=1396.0629854649305 1310.6564325615764 747.98440843820572 1439.6080913692713 782.67940975725651 1908.7098571509123 31893.851487085223 2064.5090328380466 7409.672694221139 48.654378652572632 1330.1320666149259 437.54827763140202 3589.5543559193611 15463.620713602751 62.718160301446915 34.527495607733727 1633.9104817435145 12745.786148458719 1898.0030149966478 520.7227561622858 47.813658893108368 27.189383625984192 1549.3529819622636 163.42659424245358 10.004929021000864 152.40318796038628 629.03394040465355 4322.3890516459942 195.45386627316475 2850.787108130753 2605.3903576731682 449.54564989358187 430.07194171845913 28.924381256103516 70.775776065886021 93.859972208738327 444.50948327407241 46.641275271773338 487.10965250059962 18.883363500237468 567.7483969181776 488.94885697215796 556.92756972461939 604.01526635885239 34.410609133541584 8.8965458273887617 347.0159804224968 14.041420280933378 242.11403150856495 7.1050838381051999 52.524306431412697 13.085149377584456 51.337621107697487 8.5003441870212537 2.0210824832320204 3.4615394622087479 6.3772272318601599 36.440145611763 62.529248852282763
leaf_count=1636 3592 1112 2842 3044 2671 72461 3088 20000 33 5021 861 14698 53997 144 139 5398 20483 1712 1408 237 76 4350 681 33 331 1721 9362 674 9012 5989 2003 782 72 320 263 5294 269 2759 77 1283 2568 570 2319 205 34 1092 22 614 45 64 31 39 7 7 14 29 158 898
internal_value=0 0.0617732 0.066496 0.0588867 0.0542747 0.0625589 0.0399786 0.0200934 0.0314381 0.0346162 0.028122 0.00118399 0.0364235 0.0316392 0.0891202 0.0377859 0.0933099 0.108438 0.0749863 0.0667117 0.0736179 0.0584579 0.099433 -0.0435337 0.0693951 0.0750416 0.0838042 0.0449669 0.0284215 0.0463112 0.00544217 0.0221996 -0.0374815 -0.0663054 0.140629 -0.0521031 0.0608002 -0.063652 0.0901743 0.0947127 -0.0890103 0.148351 0.0210112 0.0645364 -0.00778478 0.00438701 -0.00204417 0.0725201 0.125699 0.151609 -0.0966139 0.170628 0.0852792 -0.113871 -0.0740156 -0.118877 -0.141867 -0.123582
internal_weight=0 70956.6 61342.5 45903.6 41994.9 33802.6 33493.4 8192.35 25383.9 24265 20801.4 4900.21 15901.2 9614.03 15439 8887.33 14544.3 3908.65 1916.79 8109.5 3463.6 2879.49 12909.2 726.696 7990.76 7446 6386.9 1635.06 7539.63 4239.3 3300.33 1059.11 1118.93 656.853 1991.86 1026.91 95.2957 931.619 1347.7 1315.73 559.725 584.117 894.698 97.1288 544.756 499.419 618.057 276.642 92.0153 81.4487 31.9685 69.8429 18.5053 118.741 10.5666 116.72 45.3367 110.343
internal_count=268644 159190 130969 103195 98176 75132 109454 23044 91715 83165 73148 18290 54858 28221 27774 24905 24680 5019 3044 17739 10017 9371 21164 3316 16568 14953 12450 3516 22402 11387 11015 2503 8550 3237 1975 8355 302 8053 2503 2395 2888 646 3094 349 1615 1423 2341 753 195 136 108 79 40 1171 59 1164 192 1135
is_linear=0
shrinkage=0.1


Tree=11
num_leaves=60
num_cat=0
split_feature=134 74 55 115 104 118 99 126 34 135 48 30 32 42 73 129 41 4 30 33 110 52 113 25 127 41 81 127 75 104 28 95 56 29 118 59 39 101 30 23 95 52 73 59 33 114 30 75 34 97 124 125 106 13 106 30 106 30 111
split_gain=920.021 1363.57 1376.15 1240.29 1063.42 1325.77 907.845 890.709 965.046 957.859 746.718 734.283 490.618 483.716 884.997 459.729 374.309 365.179 456.768 323.795 458.888 265.253 260.508 252.009 245.817 289.054 223.833 221.378 219.655 207.924 460.94 204.332 187.787 171.666 166.567 159.203 156.032 127.813 113.76 112.467 453.875 93.4802 89.2767 60.5874 54.4772 51.9631 71.1476 86.5925 49.3604 42.9805 28.245 17.7102 13.7881 7.93239 0.952831 0.595605 0.156129 0.039386 0.0551118
threshold=1.0000000180025095e-35 -0.98300260305404652 1.019682824611664 -0.9316243827342986 -0.87656056880950917 -1.5841106176376341 -0.80376631021499623 -1.5953646898269651 0.90178555250167858 1.0000000180025095e-35 0.81331035494804393 1.0931729674339297 0.9537290930747987 1.0504735112190249 -0.78466856479644764 1.0000000180025095e-35 1.0211911797523501 0.5894412398338319 1.0680105090141299 0.81982260942459118 -1.1908726096153257 1.0943272709846499 -1.2464240193367002 1.4681647419929507 -1.5654638409614561 1.0287982225418093 -1.2425320148468015 -1.9730561971664426 -1.0328602790832517 -0.85915672779083241 1.2088882327079775 -0.91616606712341297 0.92762073874473583 1.1354537606239321 -1.622982323169708 0.73622822761535656 1.015962600708008 -0.77685821056365956 1.106295704841614 1.4204953312873843 -1.054626941680908 1.1420630216598513 -0.75620672106742848 0.82933267951011669 0.92668232321739208 -0.91935941576957692 1.0810503959655764 -1.0610082745552061 0.86523845791816723 -0.9805416166782378 -1.1029911041259763 -1.7003740668296812 -0.83659696578979481 0.60814115405082714 -0.8608560562133788 1.0915763974189761 -0.81677159667015065 1.0753582119941714 -0.97729992866516102
decision_type=2 2 2 2 2 2 2 2 2 2 2 2 2 2 2 2 2 2 2 2 2 2 2 2 2 2 2 2 2 2 2 2 2 2 2 2 2 2 2 2 2 2 2 2 2 2 2 2 2 2 2 2 2 2 2 2 2 2 2
left_child=3 23 6 4 11 19 13 9 -9 -7 45 15 22 14 -3 16 -1 24 32 34 -21 51 53 29 36 -26 -17 -15 38 39 33 -30 -19 -31 -6 -20 -12 -23 -13 49 -41 -24 44 -44 -14 46 47 -5 -32 -2 57 -8 54 -4 -47 -48 -54 -25 -59
right_child=1 2 12 10 5 7 21 8 -10 -11 17 28 42 27 -16 26 -18 18 35 20 -22 37 41 50 25 -27 -28 -29 31 30 48 -33 -34 -35 -36 -37 -38 -39 -40 40 -42 -43 43 -45 -46 52 55 -49 -50 -51 -52 -53 56 -55 -56 -57 -58 58 -60
leaf_value=0.067686577704550069 0.17132526283733615 0.053473211179060856 -0.16970367695994112 0.070319492725341312 0.14343006993304339 0.021604040452271583 -0.14519970923363232 0.037834114333428509 0.10168277359422478 0.084165485457901867 -0.041514691453708626 -0.0043836018069238489 0.015046102721382584 0.05541509822463201 -0.028674125584722539 0.032051673129119627 0.11429708109143864 0.070632234854614381 0.012909597362271433 0.072859266859591154 0.14183270604486992 0.023331275146765935 0.11947689755280835 -0.17903395091171137 0.018850327526841203 0.26276593823072986 -0.094983715137913566 0.11658392475427626 0.065386002624188796 0.12924458567179506 -0.18003583194985845 -0.036874441989269792 0.029485288525263328 0.045773970836001876 -0.080314527304196803 -0.042267423170355624 0.073971655592976304 -0.081674197924504602 -0.093671532176549055 0.17654301455175148 -0.10685674312408311 0.15907252606112326 0.11547364225236781 0.0081291304060278329 -0.15412153656650993 -0.15093532381970565 -0.14397133615720217 -0.11869226833249316 0.0052381923654797567 0.14087382520264055 0.080461825300008324 0.00077127147226703084 -0.11477185475325587 -0.032047776549565775 -0.13195589506622921 -0.12303305243536432 -0.10555646110044647 -0.17922353292191173 -0.16748051577975853
leaf_weight=24716.174625184387 897.88643534481525 5614.4387990199029 27.299722373485565 63.298070922493935 42.404263913631439 30027.596436552703 283.40291203558445 6717.1386286094785 3655.5363162010908 2664.4627870619297 1628.1057380661368 1172.2597084790468 32.059025704860687 1172.387215718627 1711.1652785092592 342.45791631937027 1852.0083019733429 2319.7033276595175 3373.3303782343864 2530.1373531371355 1558.9097126275301 281.13555561006069 1306.6435987204313 5.4189292639493969 325.93536460399628 57.095596715807915 233.11326017975807 1194.4685454368591 932.92784073203802 1155.4968268424273 60.489176049828529 247.16694814711809 2125.3808330148458 313.16272568702698 154.50297487527132 618.85262924432755 126.04827642440796 197.24695761501789 162.47048360109329 175.39787827432156 83.373907178640366 1096.6806296110153 70.145298689603806 209.9771820306778 46.862432807683945 100.56116743385792 42.720640733838081 39.279267989099026 18.864149406552315 958.09485031664371 5.1852554827928534 8.5628624111413938 20.01312480866909 4.9443041086196891 35.892585769295692 19.920372441411018 225.93520956486464 4.9136061072349575 21.413517758250237
leaf_count=47699 676 11758 114 133 39 96028 1124 17355 8054 5022 8060 4702 82 2647 5117 1151 2686 5457 10836 4023 1484 703 2017 22 1347 130 1154 2128 2131 1520 232 801 6611 590 848 2326 612 676 972 137 269 1142 123 561 190 479 204 152 42 949 10 27 187 15 197 134 4649 20 90
internal_value=0 0.0703096 0.0553295 0.0448744 0.0493828 0.0400826 0.0386785 0.0348038 0.0603356 0.0267029 0.0136586 0.0642308 0.11767 0.0469829 0.0342847 0.0690202 0.0709357 0.0195551 0.028908 0.0931231 0.0991547 -0.0658068 0.133757 0.123989 -0.0173684 0.055209 -0.0193992 0.0862848 0.0125371 0.12661 0.0987621 0.0439679 0.0509582 0.111446 -0.0321308 0.00435627 -0.0332162 -0.0199646 -0.0152522 0.146995 0.0852342 0.137545 0.00854135 0.0350092 -0.0854032 -0.100202 -0.0533383 -0.00205754 -0.135992 0.155606 -0.135926 -0.140919 -0.12045 -0.148595 -0.145943 -0.137313 -0.106306 -0.17127 -0.169672
internal_weight=0 16957.1 13257.4 88131.3 77009.3 47350.7 10462.8 43064.7 10372.7 32692.1 11122.1 29658.6 2794.61 9692.46 7325.6 27143.8 26568.2 10574.5 8437.27 4285.95 4089.05 770.348 2435.57 3699.7 2137.18 383.031 575.571 2366.86 2514.82 3662.77 1548.01 1180.09 4445.08 1468.66 196.907 3992.18 1754.15 478.383 1334.73 2114.75 258.772 2403.32 359.044 280.122 78.9215 547.62 165.218 102.577 79.3533 1855.98 36.9313 291.966 382.402 32.244 136.454 62.641 245.948 31.7461 26.3271
internal_count=268644 32981 28424 235663 194149 132853 24180 126459 25409 101050 41514 61296 4244 21650 16875 52690 50385 35379 25230 6394 5507 2530 3288 4557 10149 1477 2305 4775 8606 4415 2384 2932 12068 2110 887 13162 8672 1379 5674 2031 406 3159 956 684 272 6135 623 285 274 1625 142 1151 5512 129 676 338 4836 132 110
is_linear=0
shrinkage=0.1


Tree=12
num_leaves=63
num_cat=0
split_feature=128 130 131 129 101 121 32 70 125 34 35 83 93 127 127 32 76 106 105 38 2 75 31 55 52 36 102 40 53 127 34 111 64 64 51 37 108 73 94 57 36 125 0 101 52 126 113 105 40 78 75 1 105 105 38 106 52 9 124 107 35 105
split_gain=829.686 879.246 915.514 716.323 593.565 765.31 549.643 397.535 331.192 479.427 389.817 330.278 312.204 339.141 252.732 246.798 225.369 254.6 224.504 193.203 185.932 218.861 184.576 194.822 166.532 160.691 189.404 153.037 135.619 145.873 232.354 130.875 121.856 119.811 115.808 114.624 117.747 114.149 110.633 103.934 101.925 225.081 152.324 144.909 129.667 101.562 97.2669 91.2895 90.4576 89.3917 76.7809 92.825 75.1548 74.3071 72.4801 69.9262 29.4328 26.5164 22.58 10.345 11.2776 0.565513
threshold=1.0000000180025095e-35 1.0000000180025095e-35 1.0000000180025095e-35 1.0000000180025095e-35 -0.50628927350044239 -1.8509830236434934 0.96793109178543102 -0.056934144347906106 -1.4782731533050535 0.91031265258789074 0.94636073708534252 -1.3113058805465696 -1.0616726875305174 -1.6691017746925352 -1.9816127419471739 0.96421092748641979 -1.1595110297203062 -0.7877340018749236 -0.80012762546539296 0.98651918768882763 0.52398827672004711 -1.0821787118911741 1.0116488337516787 0.99542400240898143 1.1632832884788515 0.83942511677742015 -0.80551165342330922 1.014777719974518 1.1021232604980471 -1.8518531918525694 0.93175244331359874 -0.94700884819030751 0.5265922248363496 0.45892833173274999 1.0553973913192751 0.99977788329124462 -0.91174408793449391 -0.73160123825073231 -1.0433508753776548 0.96843215823173534 0.95732417702674877 -1.676663815975189 0.3218217939138413 -0.7814786136150359 1.08346164226532 -2.0467593669891353 -1.0150943398475645 -0.84527131915092457 1.0381478071212771 -1.2253766059875486 -1.1239176392555235 0.44566956162452703 -0.8131151795387267 -0.82651850581169117 1.0130596160888674 -0.81335520744323719 1.1003912687301638 0.57403141260147106 -1.5085916519165037 -0.88007390499114979 0.93597429990768444 -0.78107228875160206
decision_type=2 2 2 2 2 2 2 2 2 2 2 2 2 2 2 2 2 2 2 2 2 2 2 2 2 2 2 2 2 2 2 2 2 2 2 2 2 2 2 2 2 2 2 2 2 2 2 2 2 2 2 2 2 2 2 2 2 2 2 2 2 2
left_child=1 2 3 4 5 -1 11 -6 10 20 28 -5 13 48 35 16 17 34 22 -8 21 33 23 -4 45 46 -27 -24 29 47 -31 57 54 -10 -3 36 -12 -33 -15 -37 41 56 52 -44 -43 -18 -22 -2 -11 -23 51 -14 -42 -26 -30 -52 -17 -16 -19 -20 -61 -34
right_child=8 15 18 6 7 -7 19 -9 9 12 14 -13 50 38 31 40 24 58 59 -21 25 49 27 -25 53 26 -28 -29 32 30 -32 37 61 -35 -36 39 -38 -39 -40 -41 42 44 43 -45 -46 -47 -48 -49 -50 -51 55 -53 -54 -55 -56 -57 -58 -59 -60 60 -62 -63
leaf_value=0.11349981390360359 -0.024172465472470931 0.058161623737585655 0.03223865183549434 0.032007270985982057 -0.10407560164071444 0.053672286098452107 -0.002968451688580143 0.066823095073729952 -0.10913061661408466 -0.05600058828894186 0.063208859983083857 -0.017300277633160246 -0.014149289931844 0.057537288810085754 0.053188823945011912 -0.025401994911373429 -0.10705311292658029 0.24551296437360359 0.076914195154984322 0.10284847457352275 0.047297448434788371 0.064441215687394804 -0.042383852436027929 -0.011145295829068241 0.0029265156066374054 0.027757599122023476 0.21236625845370921 0.11311553702253013 0.031324260392972716 -0.050393323471399937 0.046787203032779286 0.097889796191905673 -0.14547894207469594 0.11290424096295162 0.016109025715573603 0.078265523348741706 -0.079612963319357216 0.0061341285333611851 0.1461111621107912 -0.12126549519063412 0.10500140096030385 0.11007756440575973 -0.021939765118977481 0.2854473052786895 0.022967409931047858 -0.01989490930887829 -0.086152998153750576 -0.09278467926544523 0.16216543556487042 -0.067695568937692338 0.15712660219050945 0.29695967106597498 0.0054510141727994923 0.098263366078866335 0.18142819298425411 0.067435660496793684 -0.12667581916744683 0.20046829242565167 -0.12058431621589945 -0.11552307198875743 -0.010114914247343471 -0.12146525950784817
leaf_weight=2201.3994577378035 274.90248623490334 906.21412028372288 4861.0770958699286 2676.6674429737031 390.49259100854397 74400.150144696236 211.75553174316883 208.942930534482 337.82455679029226 286.94537547230721 73.261974036693573 2758.4772606790066 11.578411951661108 437.69514507055283 14.14662830531597 44.932567402720451 141.86232976615429 1.7074170857667912 3.0880845040082923 931.85141547769308 75.935714647173882 183.96139253675938 712.42649822682142 1315.1298958063126 162.01676808297634 1230.2874397188425 58.20503394305706 69.461587563157082 228.77519997954369 764.50153199583292 362.782296217978 313.69690056145191 22.49081639945507 26.186487659811974 2361.0804969593883 164.18113352358341 272.18430048972368 238.79093736410141 208.04651299118996 31.041482448577881 180.15413396060467 272.50197677314281 20.008561283349991 65.679055944085121 458.22196404635906 2322.0297407992184 194.53711107373238 658.25464797019958 20.3531628921628 70.940934583544731 268.98083271086216 55.858006939291954 130.96403553336859 165.02669870108366 37.432251989841461 128.42769448459148 79.420384779572487 89.969638958573341 126.80680266022682 141.46964247897267 10.934586882591246 17.388898231089115
leaf_count=2533 908 2515 15429 10537 2464 154471 743 763 1560 1381 214 11066 58 1438 32 232 726 3 10 2377 178 443 3413 4792 540 3393 68 175 811 3250 1385 827 109 80 9499 416 1461 811 507 147 317 742 72 80 1987 11703 1435 3591 69 255 501 64 472 511 59 440 487 139 1409 2364 53 129
internal_value=0 0.0462871 0.0489923 0.0519167 0.054616 0.0553916 0.0202411 -0.0445061 0.0110277 0.0324397 -0.0105763 0.00698241 0.0776943 0.0449227 0.0359215 0.0132329 0.00503928 0.0223422 0.01455 0.0832549 0.00297725 -0.0433956 0.0172057 0.0230007 -0.0160137 0.0213874 0.0360969 -0.0285696 -0.0341005 -0.0433272 -0.0191187 0.077613 0.0280096 -0.0931577 0.0277727 -0.0147098 -0.0493234 0.0582321 0.0860742 0.046539 0.0537253 0.0342876 0.0956116 0.213671 0.0554526 -0.0249132 -0.0486866 -0.0725719 -0.0415509 0.0276667 0.144884 0.243544 0.063096 0.0510337 0.0524308 0.128142 -0.0900825 0.180457 -0.11572 -0.104289 -0.10796 -0.135008
internal_weight=0 98332 90893.3 83779.7 77201 76601.5 6578.75 599.436 7159.56 3595.76 3563.8 5435.14 1417.89 953.04 1197.27 7438.63 6186.74 3395.81 7113.59 1143.61 2177.88 618.913 6958.1 6176.21 2790.94 1558.97 1288.49 781.888 2366.53 2060.44 1127.28 656.604 306.087 364.011 3267.29 540.669 345.446 552.488 645.742 195.223 1251.88 855.077 396.806 85.6876 730.724 2463.89 270.473 933.157 307.299 254.902 464.845 67.4364 311.118 327.043 266.207 397.409 124.353 104.116 128.514 155.492 152.404 39.8797
internal_count=268644 242485 211190 184954 160231 157004 24723 3227 26159 11870 14289 21603 4458 3395 4047 31295 26906 13426 26236 3120 7412 2338 23809 20221 13480 5074 3461 3588 10242 9134 4635 1809 1108 1640 12014 2238 1675 1638 1945 563 4389 3448 941 152 2729 12429 1613 4499 1450 698 1063 122 789 1051 870 941 719 171 1412 2427 2417 238
is_linear=0
shrinkage=0.1


Tree=13
num_leaves=54
num_cat=0
split_feature=118 10 122 104 134 115 133 33 11 26 109 110 47 120 88 81 70 0 103 70 116 122 27 70 41 47 102 112 126 120 112 105 105 88 51 100 62 110 124 108 115 111 70 120 84 32 118 119 106 118 6 98 110
split_gain=748.639 949.872 848.626 851.8 1188.99 1038.35 931.69 639.91 617.898 320.563 256.091 231.547 492.101 311.098 218.505 154.493 143.754 152.366 121.405 106.68 88.5295 172.206 83.8501 70.5851 68.1116 65.8974 61.1816 55.3925 55.3228 160.88 205.949 48.7672 43.2405 39.4025 54.5772 34.3684 31.4676 26.5536 24.0525 22.1408 22.0983 18.953 14.6643 5.7108 4.59238 6.17063 4.14299 0.328719 0.287281 0.183462 0.117212 0.0521434 0.000685872
threshold=-1.595076262950897 0.17252171039581302 -2.0241466760635372 -0.85496097803115834 1.0000000180025095e-35 -0.93548327684402455 1.0000000180025095e-35 0.88245117664337169 0.27993680536746984 1.4097382426261904 -1.1249340772628782 -1.19733589887619 1.2245682477951052 -1.7427226305007932 -0.39641872048377985 -0.20675680786371228 -0.056934144347906106 -0.28074531257152552 -0.66009414196014393 -0.11263489723205565 -1.5224393010139463 -2.0128296613693233 0.98925799131393444 -0.10761590301990508 1.1199417710304262 1.2127364277839663 -0.60173159837722767 -1.3201996088027952 -2.8860372304916377 -1.7427226305007932 -1.3106359243392942 -0.78836625814437855 -0.8105376362800597 -0.30049180984497065 1.1601445078849795 -0.40877544879913325 0.71824896335601818 -1.1631993651390073 -2.4490058422088619 -1.0552663803100584 -1.4482809305191038 -1.2455940842628477 -0.11824263259768485 -1.7261661291122434 -0.33691003918647761 0.8531622886657716 -1.6019913554191587 -1.6433085203170774 -0.83659696578979481 -1.6019913554191587 0.10066884383559228 -0.45937703549861902 -1.1734492182731626
decision_type=2 2 2 2 2 2 2 2 2 2 2 2 2 2 2 2 2 2 2 2 2 2 2 2 2 2 2 2 2 2 2 2 2 2 2 2 2 2 2 2 2 2 2 2 2 2 2 2 2 2 2 2 2
left_child=11 14 10 4 5 -4 8 -8 -5 -6 47 12 18 19 42 28 22 35 20 26 38 -22 40 39 36 -25 -14 -17 29 41 -31 -21 -24 43 -35 -18 -15 -19 -1 -20 -16 -13 -2 -12 46 -46 -30 51 49 -29 -49 -3 -50
right_child=1 2 3 6 9 -7 7 -9 -10 -11 33 15 13 24 16 27 17 37 23 31 21 -23 32 25 -26 -27 -28 48 44 30 -32 -33 -34 34 -36 -37 -38 -39 -40 -41 -42 -43 -44 -45 45 -47 -48 50 52 -51 -52 -53 -54
leaf_value=0.022142052272759935 0.084393913994271874 -0.20502400672026369 0.049328450299609639 -0.06877508542604531 0.10914562465090781 0.0039947598561268002 -0.095670020257991414 0.011195012231078163 0.033384848641865007 -0.12030842954701366 0.17491666788371019 0.10852982860762946 0.13522483669895935 -0.0059993623708077858 -0.072164885524628714 0.1873744142871305 0.012055398048555177 0.096923581551430563 -0.23159421422467674 0.072345571824258922 -0.14558119487172885 0.086180363079790878 0.14620112377502886 -0.17998126255673005 0.075465837548005843 0.097939668120935769 -0.22136710994004447 -0.14212744929160137 0.14051851287067388 -0.17904415111856348 0.092893373272607618 -0.079557533964479163 -0.091825229137774328 0.15684387792496338 0.00097955207007184813 -0.11606305626622374 -0.15919673772778273 0.25086090239577225 0.12030041421676613 -0.0017014039686674188 -0.1155600967439769 0.14502152051895789 0.20496129395729132 0.21073976547262752 0.14033482643899672 0.095100126813796565 0.16606663142884037 -0.1613467265198324 -0.11675360692354382 -0.12336318657885233 -0.18313968784523602 -0.19147696384328083 -0.11487478160809997
leaf_weight=25.670169517397881 17.039581760764122 5.2330114990472794 38646.339153181762 599.08273911476135 3316.9857681691647 5812.2926806658506 950.49048486351967 1365.0768765360117 50405.163663126528 62.025152504444122 62.475711584091187 306.15457908809185 6.1336867511272457 14.716045826673506 154.11570351570845 6.604196071624755 36.514797352254391 25.255637943744659 17.20787397027016 243.9443875849247 38.054978027939796 203.51808372139931 20.747104555368423 10.928749486804007 15.221667140722273 38.894059374928474 22.320129126310349 15.513390630483626 121.63440597057343 42.37025249004364 81.265000216662884 23.139359652996063 12.073354899883268 369.18041482567787 23.921248778700829 49.082468532025814 150.83475266396999 20.142629697918892 906.80945210158825 5.5374088734388343 491.87893695384264 265.97885964810848 24.727197751402855 154.67582929134369 395.83167310059071 32.643846437335014 132.74703299999237 4.7027452886104566 2.6787888929247856 7.8457306921482113 5.1934969425201416 6.2164940088987368 7.0737340599298459
leaf_count=46 32 21 81911 1960 3972 18765 3848 3548 144011 230 39 329 5 38 591 4 143 42 72 338 137 320 36 41 29 48 93 77 90 163 114 79 56 274 56 443 586 16 859 13 4204 213 31 98 297 38 85 20 22 52 21 25 63
internal_value=0 0.0379018 0.0387817 0.0380602 0.0477481 0.0434018 0.0293684 -0.0326708 0.0321849 0.104934 0.154336 0.0874615 0.0628282 -0.0236319 -0.067273 0.117385 -0.0787768 0.0171334 0.095863 0.0395749 0.103622 0.049671 -0.0972853 -0.0296599 -0.126966 0.0369771 -0.144498 -0.0770636 0.122987 0.103141 -0.000300609 0.0591851 0.0586406 0.166245 0.147359 -0.0614092 -0.145579 0.165224 0.117598 -0.175626 -0.105207 0.125494 0.155773 0.200433 0.143207 0.136889 0.153851 -0.186132 -0.129806 -0.135825 -0.172784 -0.197669 -0.115391
internal_weight=0 102641 101789 101157 47837.6 44458.6 53319.8 2315.57 51004.2 3379.01 631.599 3141.27 1722.93 476.31 851.577 1418.34 809.811 130.996 1246.62 295.538 1174.05 241.573 678.815 72.5681 180.772 49.8228 28.4538 39.7158 1378.63 695.769 123.635 267.084 32.8205 610.253 393.102 85.5973 165.551 45.3983 932.48 22.7453 645.995 572.133 41.7668 217.152 682.857 428.476 254.381 21.3457 33.1116 23.3591 9.89624 11.4495 9.75252
internal_count=268644 264393 258799 258245 104878 100676 153367 7396 145971 4202 554 4251 2704 1168 5594 1547 5531 644 1536 515 1362 457 4887 174 653 89 98 218 1329 819 277 417 92 467 330 586 624 58 905 85 4795 542 63 137 510 335 175 87 214 129 41 46 85
is_linear=0
shrinkage=0.1


Tree=14
num_leaves=61
num_cat=0
split_feature=118 106 134 74 55 98 136 135 30 105 133 32 32 127 30 32 39 92 25 70 127 104 111 56 120 55 135 31 118 110 75 14 107 27 106 112 54 40 132 127 109 51 35 53 8 117 37 78 120 41 126 123 127 34 103 102 80 66 110 116
split_gain=676.539 711.754 884.82 1063.43 1139.78 759.787 633.832 923.333 1135.42 700.946 546.904 458.747 392.822 387.158 461.236 304.568 302.146 218.789 176.903 176.709 170.567 160.831 103.794 215.711 119.413 96.5816 86.1583 88.2699 78.8196 78.7606 164.2 74.9264 67.8414 59.63 53.0031 49.6564 162.528 34.8434 30.5114 30.4296 61.3774 42.8664 29.7123 28.1002 73.0787 27.3401 23.1152 24.2455 19.9403 12.6898 11.7858 6.11737 3.14254 6.55909 2.25623 0.837476 0.570452 0.959149 0.914969 0.0927305
threshold=-1.6112935543060301 -0.96649476885795582 1.0000000180025095e-35 -0.98300260305404652 1.0178731083869936 -0.8171129822731017 1.0000000180025095e-35 1.0000000180025095e-35 1.075759291648865 -0.91066095232963551 1.0000000180025095e-35 0.88783416152000438 0.9537290930747987 -2.0587995052337642 1.0601351857185366 0.91684800386428844 0.97202634811401378 -0.94025918841361988 1.4681647419929507 -0.22375131398439405 -2.3560256958007808 -0.85915672779083241 -1.2640068531036375 1.007341265678406 -1.7427226305007932 0.93776312470436107 1.0000000180025095e-35 0.9636533558368684 -1.2561114430427549 -1.2049277424812315 -0.42392580211162562 0.50611761212348949 -1.0358792543411253 1.4389138221740725 -0.88690906763076771 -1.3359230756759641 1.0706161260604861 1.0241463184356692 1.0000000180025095e-35 -3.231715083122253 -1.1204586029052732 1.1859968304634096 0.96232125163078319 1.1149478554725649 0.099230710417032256 -0.90417894721031178 0.93302717804908764 -0.29802204668521876 -1.758679926395416 1.0885578393936159 -2.8671325445175166 -2.1836998462676998 -3.2052433490753169 0.85077303647995006 -0.63708704710006703 -0.60173159837722767 -0.37910102307796473 0.40388008952140814 -1.19733589887619 -1.5330569744110105
decision_type=2 2 2 2 2 2 2 2 2 2 2 2 2 2 2 2 2 2 2 2 2 2 2 2 2 2 2 2 2 2 2 2 2 2 2 2 2 2 2 2 2 2 2 2 2 2 2 2 2 2 2 2 2 2 2 2 2 2 2 2
left_child=22 10 6 18 5 -5 7 9 -9 -3 15 17 -6 19 -15 26 20 33 21 -8 -13 -4 23 35 29 -19 28 -28 -2 30 -25 51 42 -12 -31 43 55 -18 -34 40 41 -24 -17 49 -45 -20 47 -42 -43 -1 -38 -26 53 59 -48 -37 58 -58 -54 -41
right_child=1 2 3 4 12 -7 13 8 -10 -11 11 16 -14 14 -16 32 37 25 45 -21 -22 -23 39 24 31 -27 27 -29 -30 34 -32 -33 38 -35 -36 36 50 -39 -40 52 46 48 -44 44 -46 -47 54 -49 -50 -51 -52 -53 56 -55 -56 -57 57 -59 -60 -61
leaf_value=0.068116335004573328 0.026166704021863808 0.042633357875372008 0.12196439437667993 0.031987985919629446 0.10963473913283495 -0.072435926139631665 -0.10409462590455182 0.074183386723354741 0.019647263745303983 0.011762448917601406 0.10509905162527194 0.017119427921986126 0.0057008606937349517 0.064121930584138981 0.027168259254827784 -0.18591108715039317 0.12676689854397236 -0.13425471554398927 -0.15629153589371667 0.0073619305374265989 0.084630085067135943 0.079095067546084363 -0.25992264876800575 -0.15445842663485304 -0.11728014346259874 0.080896943592222326 -0.14512388577964183 0.025114278338133685 0.099698916319561695 0.13312043776339741 0.049777287064613443 0.14795293400269974 -0.086931301252549414 -0.066399483000844736 -0.035753149485162651 -0.27057002157712606 0.060456844831978197 0.1682762730344215 -0.0011984177458162848 0.13829711357642283 0.10617354523846512 0.11719472990390595 -0.010659333517778181 0.11214192715440484 -0.1162903105628508 0.10199819890608364 0.1024056315220695 -0.13846321706869219 -0.083175758449333392 0.13308448355477831 0.13967080315494085 -0.22463507422868478 0.14467889509343299 0.071135259596282668 0.13814296262873679 -0.22125086054013729 0.11260255075927963 0.13493576091958623 0.13438097915193306 0.12987213442361625
leaf_weight=32.175252556800842 538.35757026076317 8922.8512128591537 2023.4670401662588 9695.4400184005499 2539.0011867433786 750.72571112960577 212.08855552971363 7180.227990783751 8151.6890630871058 41859.802390448749 93.179629296064377 419.71287281811237 424.43871378898621 8789.2398599758744 5485.6751639544964 74.407441675662994 504.23932380974293 159.94106017053127 30.539018929004669 431.97693449258804 3454.3002925366163 1542.0779383033514 7.3218651264905956 53.310631155967712 6.5103745162487021 23.994432345032692 50.847733810544014 75.954760164022446 199.90223137289286 93.214906468987465 150.48034125566483 7.2616003751754752 110.21100907027721 25.912268161773682 23.214210614562035 10.422533750534056 36.916691020131111 337.62300379574299 66.594374790787697 24.875835776329041 9.6593733727931994 10.565128758549694 11.119886502623556 72.433853134512901 17.361546948552132 4.733308494091033 22.502324283123016 6.9777750596404067 9.3728238940238917 458.26514032483101 38.237113624811172 28.737026154994965 114.41811585426331 24.437857657670975 82.197291672229767 5.1415049880743018 27.362296223640442 64.704342901706696 350.83274447917938 27.514065712690353
leaf_count=44 1178 18474 2031 21391 3460 2473 730 11891 20846 141088 133 887 1092 17303 11607 302 565 573 134 1099 5232 2384 33 188 21 41 186 181 314 76 239 5 368 94 61 45 54 279 150 19 10 11 31 72 51 8 24 40 30 368 29 117 81 33 67 21 27 51 279 23
internal_value=0 0.0343032 0.0322338 0.0529682 0.0400117 0.0244834 0.0278813 0.0236801 0.0451876 0.0171867 0.067314 0.0814518 0.0947488 0.0464993 0.0499211 0.00437567 0.0891155 -0.0378158 0.101219 -0.0293403 0.0773159 0.103424 0.0958621 0.0750607 0.0129313 -0.106188 0.0329981 -0.0431511 0.0460774 0.0338363 -0.00364969 -0.144546 -0.090009 0.067784 0.0994496 0.108649 0.0398476 0.143414 -0.0546397 0.123332 0.0826009 -0.0529913 -0.163126 0.119406 0.0679756 -0.121631 0.113063 0.00357061 0.0230006 0.128822 0.10076 -0.204806 0.132877 0.113917 0.130462 -0.254278 0.13549 0.128298 0.136914 0.133872
internal_weight=0 104190 98044 17010.4 13409.6 10446.2 81033.6 66114.6 15331.9 50782.7 6146.3 5018.9 2963.44 14919 14274.9 1127.4 4715.88 303.027 3600.82 644.065 3874.01 3565.54 1816.42 1033.68 362.729 183.935 865.062 126.802 738.26 320.22 203.791 42.509 262.333 119.092 116.429 670.954 90.7178 841.862 176.805 782.742 148.597 27.2598 85.5273 580.236 89.7954 35.2723 121.337 16.6371 19.938 490.44 75.1538 35.2474 634.145 76.8278 104.7 15.564 557.317 92.0666 465.251 52.3899
internal_count=268644 266525 256011 32973 28416 23864 223038 192299 32737 159562 10514 7804 4552 30739 28910 2710 6963 841 4557 1829 6119 4415 2119 1391 707 614 1859 367 1492 564 427 143 851 227 137 684 149 844 518 728 215 74 333 535 123 142 141 50 41 412 83 138 513 75 91 66 438 78 360 42
is_linear=0
shrinkage=0.1


Tree=15
num_leaves=57
num_cat=0
split_feature=118 1 122 5 30 96 106 41 37 109 29 110 47 121 95 81 49 90 110 52 122 53 23 127 120 111 76 110 71 102 110 26 24 53 34 112 111 44 51 91 104 19 119 61 95 83 121 59 38 0 99 119 119 114 49 106
split_gain=648.992 823.347 957.028 670.733 738.884 826.091 600.938 688.105 639.581 329.283 289.536 284.805 452.372 302.91 271.595 215.154 146.3 198.848 143.219 355.035 144.002 109.44 111.225 102.867 181.995 118.014 102.688 94.4828 88.2475 115.977 73.3293 62.0695 62.0648 58.172 92.637 45.6845 39.2586 37.1419 52.1615 34.7865 34.7438 33.1285 32.296 27.8821 51.3917 32.488 13.7678 16.861 11.5109 5.51865 2.76787 0.863977 0.168909 0.16677 0.0594816 0.0557308
threshold=-1.5895973443984983 -0.11127290129661559 -2.0031036138534541 0.61657732725143444 1.085480868816376 -1.0627654194831846 -0.95624244213104237 1.0314107537269595 0.85524323582649242 -1.1249340772628782 1.2304626703262331 -1.19733589887619 1.2245682477951052 -1.8509830236434934 -0.43402411043643946 -0.20675680786371228 1.1945976018905642 -0.2495121359825134 -1.2185600996017454 1.1350398659706118 -1.976321756839752 1.1149478554725649 1.0487634539604189 -3.1614627838134761 -1.7370804548263548 -1.2516035437583921 -0.5653223693370818 -1.1805290579795835 -0.22005572170019147 -0.59003752470016468 -1.2049277424812315 1.0657095909118655 1.1213802099227907 1.1098421812057497 0.86221396923065197 -1.3201996088027952 -1.2455940842628477 1.1956607699394228 1.1729535460472109 -0.34200729429721827 -0.75290042161941517 0.93625780940055858 -1.6669827103614805 0.77936473488807689 -0.55768755078315724 -0.53786802291870106 -1.8137193918228147 0.86781182885169994 0.97285726666450512 -0.2579368501901626 -0.42300179600715632 -1.6433085203170774 -1.6433085203170774 -1.4079966545104978 1.1968418359756472 -0.83374288678169239
decision_type=2 2 2 2 2 2 2 2 2 2 2 2 2 2 2 2 2 2 2 2 2 2 2 2 2 2 2 2 2 2 2 2 2 2 2 2 2 2 2 2 2 2 2 2 2 2 2 2 2 2 2 2 2 2 2 2
left_child=11 14 9 6 5 -5 8 -8 -4 32 -6 12 18 28 43 23 17 27 21 20 -20 48 -23 24 36 -26 41 -16 29 -14 -21 -28 52 39 -35 -17 -13 42 -39 -11 -30 -18 -15 -2 49 -46 47 -25 -1 -45 -19 -48 -3 54 -37 -55
right_child=1 2 3 4 10 -7 7 -9 -10 33 -12 15 13 37 16 35 26 50 19 30 -22 22 -24 46 25 -27 31 -29 40 -31 -32 -33 -34 34 -36 53 -38 38 -40 -41 -42 -43 -44 44 45 -47 51 -49 -50 -51 -52 -53 -54 55 -56 -57
leaf_value=0.046450015430754804 0.22766799789081091 -0.18526373898837392 -0.035944413383443355 -0.097688203289998832 0.018134342949072194 0.048099283683856395 0.0071751306600105775 0.030354165857577414 0.062029088524730096 0.20862331801371897 -0.050553221016640816 0.088921569769131042 0.12159414743055004 0.076764016247996905 -0.12554813010460952 0.16309774540662592 0.1231310689468645 -0.15563806752594644 -0.1858085781618507 0.033031697387686111 0.11428711210493335 0.072498200159935564 -0.16859693713605642 0.048630967734838756 -0.11390209775738741 0.05747864052914408 -0.098195066024268918 0.15162165675393335 -0.041208706608600126 -0.17741021361547291 0.11169048427431622 0.090306736186393261 0.19269376337919511 -0.17267424120693109 0.19246374585860473 -0.14361391309976429 0.13252879354871169 0.089412899943975804 -0.15445348827205752 0.15839024077056704 0.078863048350420573 -0.087164337629007743 -0.10403761373100778 -0.015121791053404233 0.16498609603148739 -0.01294379636753654 0.16790949345180028 0.13900884980204176 0.12851981885004624 -0.15357697460267231 -0.10727210787543051 0.18700062338731893 -0.1684588913184133 -0.12251490766166456 -0.12858551796354425 -0.11423814765227727
leaf_weight=17.623648047447205 17.140069186687469 7.6683198511600486 747.41144452989101 393.16169329360127 6990.124970510602 34064.326741062105 23222.588111177087 28556.89226411283 6140.8517782837152 235.16408848762512 672.74859460443258 418.66205717623234 19.722150057554245 15.590436413884161 14.508378952741621 6.2946877479553214 29.838782295584679 15.760191679000853 82.401878446340561 209.33125238120556 19.840021938085556 81.130496174097061 25.040705397725105 21.552631184458733 60.873145565390587 118.19594757258892 799.28793525695801 80.753474660217762 27.532323226332664 37.902962848544121 273.19121150672436 17.858453176915646 5.3825330138206473 12.392480388283731 15.815590769052504 3.5203515440225592 407.30024520307779 9.2514062374830228 168.88802918791771 333.16617839038372 193.23899739980698 10.00206410884857 26.971768453717232 4.6418899595737457 45.113383755087852 13.283372059464453 82.393079996109009 488.76265195012093 564.45893014967442 7.5794769674539548 47.47436654753983 33.279721841216087 27.184295907616615 21.90508164465427 10.455973304808138 12.941765993833544
leaf_count=29 18 31 1918 4652 19324 70926 63742 82005 10633 155 3123 537 18 21 56 4 46 73 326 412 25 109 89 34 210 204 4647 85 64 162 298 37 5 52 14 18 384 15 672 255 273 42 95 15 53 42 52 385 499 35 1255 21 113 151 64 121
internal_value=0 0.0303997 0.0313343 0.0305622 0.0401899 0.0464358 0.02365 0.0199586 0.0513985 0.153543 0.012104 0.0744445 0.0464517 -0.0342395 -0.0555228 0.103865 -0.0701087 0.0181513 0.0780874 0.0416987 -0.127575 0.109005 0.0156354 0.110431 0.0906114 -0.000780909 -0.086432 0.109409 0.0351246 -0.0750762 0.0775662 -0.0940754 -0.123348 0.172219 0.0320499 -0.0904526 0.110425 -0.121736 -0.141789 0.179176 0.0638889 0.0703363 -0.0378104 0.113256 0.0854868 0.124513 0.142252 0.135192 0.126035 -0.100989 -0.119327 0.173402 -0.172156 -0.123142 -0.132371 -0.119441
internal_weight=0 102528 101425 100788 42120.4 34457.5 58667.7 51779.5 6888.26 636.773 7662.87 3458.25 1772.12 499.098 1103.24 1686.14 1015.48 158.496 1273.02 584.764 102.242 688.254 106.171 1631.02 1005.03 179.069 856.987 95.2619 278.396 57.6251 482.522 817.146 40.2351 596.538 28.2081 55.1179 825.962 220.702 178.139 568.33 220.771 39.8408 42.5622 87.7582 70.6181 58.3968 625.988 510.315 582.083 12.2214 63.2346 115.673 34.8526 48.8232 13.9763 34.8468
internal_count=268644 263352 256948 256323 98025 75578 158298 145747 12551 625 22447 5292 3107 1320 6404 2185 6241 1469 1787 1061 351 726 198 1827 1335 414 4772 141 517 180 710 4684 149 476 66 358 921 803 687 410 337 88 116 163 145 95 492 419 528 50 1328 73 144 354 82 272
is_linear=0
shrinkage=0.1


Tree=16
num_leaves=56
num_cat=0
split_feature=118 10 122 134 74 54 56 39 33 110 54 110 88 95 120 125 120 112 110 52 70 55 84 89 29 77 123 57 20 115 123 122 54 104 106 111 2 58 68 72 92 53 79 77 70 85 119 110 35 44 120 122 109 117 37
split_gain=586.184 623.65 658.836 619.005 865.446 948.728 757.345 842.756 448.091 195.176 375.736 175.354 153.05 152.638 152.204 141.391 201.034 180.358 131.256 192.529 120.128 124.954 118.985 106.231 73.477 72.8698 72.1499 60.3606 59.7505 52.7603 52.2168 50.3779 46.9586 70.8372 44.2083 28.2977 27.7878 26.2431 25.0788 23.9821 63.4073 19.6623 12.0303 11.8236 11.411 8.42168 43.3983 76.2127 8.00044 7.97829 2.49876 0.629077 0.280494 0.211243 0.202222
threshold=-1.595076262950897 0.17252171039581302 -2.0241466760635372 1.0000000180025095e-35 -0.98300260305404652 1.0706161260604861 0.96382999420166027 0.99149951338768016 0.94628500938415538 -1.2008821964263914 1.0871309041976931 -1.1881695389747617 -0.39641872048377985 -1.0449343323707578 -1.7427226305007932 -2.6190400123596187 -1.7427226305007932 -1.3106359243392942 -1.2185600996017454 1.1350398659706118 -0.056934144347906106 1.0730415582656863 -0.13743539154529569 -0.12845134735107419 0.9169423282146455 -0.42786766588687891 -2.138721108436584 0.97841069102287304 1.0039788484573366 -1.4882531166076658 -2.1965571641921993 -2.0657156705856319 1.0802738070487978 -0.76908111572265614 -0.91784095764160145 -1.2455940842628477 -0.018524694256484505 0.91579973697662365 0.16418273746967318 -0.33294619619846338 -0.33229894936084742 1.1692672371864321 -0.43271546065807337 -0.45481656491756434 -0.11824263259768485 -0.30682115256786341 -1.6590834856033323 -1.1908726096153257 0.89326289296150219 1.1619780063629153 -1.7261661291122434 -1.976321756839752 -1.1299753189086912 -1.5380398035049436 0.95630571246147167
decision_type=2 2 2 2 2 2 2 2 2 2 2 2 2 2 2 2 2 2 2 2 2 2 2 2 2 2 2 2 2 2 2 2 2 2 2 2 2 2 2 2 2 2 2 2 2 2 2 2 2 2 2 2 2 2 2
left_child=9 12 11 6 13 -6 7 -4 -8 10 18 36 44 -5 27 16 23 48 32 26 24 22 -22 35 41 -19 -20 34 30 -25 -16 -29 49 -34 -12 -11 53 -21 -26 40 -13 -14 -23 -41 -2 50 54 -48 -18 -1 52 -52 -17 -3 -47
right_child=1 2 3 4 5 -7 8 -9 -10 15 14 39 20 -15 28 45 17 25 19 37 21 42 -24 29 38 -27 -28 31 -30 -31 -32 -33 33 -35 -36 -37 -38 -39 -40 43 -42 -43 -44 -45 -46 46 47 -49 -50 -51 51 -53 -54 -55 -56
leaf_value=0.06843770516126027 0.058929529483555398 -0.17666383292103197 0.025629902610708018 0.12995743856416733 0.022860140447908763 0.10050607499015712 -0.00011269699266185435 0.065323974432083279 0.039046605831321468 0.084703628314350521 -0.051018566747592725 0.17435233870759814 -0.10266915262598196 0.078533269268273531 0.048045800819864426 0.1371228534039261 -0.17546898586896853 0.11069901816066463 -0.17635474700136633 0.11116671246788352 0.17073388932099987 0.11339084510738487 -0.1144270945992228 0.15166963847027187 0.13359865251706565 -0.14814427553537926 0.13673563244946432 0.14513045592898524 0.090623470865680511 -0.12483187875692553 -0.12711333046269643 -0.076080236868989778 -0.13518887385858264 0.087563737584706217 0.074820992647209553 0.12973384037099464 0.040902915534865816 0.025379878060832722 -0.048752937725076058 0.16964749602570728 -0.13036368805084561 -0.014963110926809046 -0.12264786570380759 0.13895521597984145 0.16461002354659324 0.1299471967130976 -0.16746252901838476 0.14568097605243674 -0.041994068717852898 0.12237198865586296 0.13401843195350305 0.14875764262114882 0.12909743674480295 -0.15647476757018536 0.12034748199850537
leaf_weight=28.96415388584137 16.998744465410709 9.7320573627948779 59168.100483350456 729.30491560697556 11592.644005268812 1820.7997530549765 16299.763795591891 5880.3017828762531 3560.3890975639224 342.2935051843524 33.743645876646042 17.713093638420109 554.16176435165107 2767.5500358343124 19.013118371367455 57.590779140591621 58.626118123531342 60.845575213432312 52.318714484572411 93.208895966410637 56.383775793015957 2.2698173969984046 19.760246373713017 8.8257608413696271 18.418179079890255 13.243352264165877 8.5652957856655103 11.890189275145529 16.391086056828499 31.6437793597579 162.308618247509 76.73821610212326 18.237924829125404 65.723300352692604 161.67672882974148 235.61543565988541 9.4435719549655897 57.754853621125221 12.771979719400404 201.34144049882889 11.113350823521612 26.796887308359146 44.344047479331493 333.27328926324844 25.610733479261398 252.45109128952026 14.10542479157448 17.310033544898033 4.8632252663373938 516.83929216861725 35.031217873096466 167.00538989901543 178.62772344052792 11.086542010307314 24.032813742756844
leaf_count=42 32 40 147403 647 26010 2394 53230 13757 10894 448 81 11 4660 3910 52 45 242 65 211 107 64 5 194 6 32 53 8 9 20 230 620 232 60 79 221 211 18 110 49 129 41 146 381 266 31 218 53 13 15 475 29 117 156 49 23
internal_value=0 0.0274144 0.0280918 0.0274793 0.044951 0.0334001 0.0239997 0.0292182 0.00690751 0.0735819 0.0455807 0.133129 -0.0618079 0.0892583 -0.0248464 0.0982513 0.0677705 -0.0415594 0.0858951 0.0178055 -0.072491 0.0177926 0.0967313 0.0920945 -0.0905961 0.0644309 -0.132309 0.0220477 -0.092218 -0.0645313 -0.108746 -0.0464031 0.1088 0.0391778 0.053092 0.103063 -0.101374 0.0783469 0.058928 0.145724 0.0568763 -0.0986237 -0.111154 0.150514 0.12245 0.129132 0.116458 0.0050807 -0.165245 0.11951 0.138037 0.146202 0.131054 -0.165913 0.129113
internal_weight=0 103190 102413 101819 16910.3 13413.4 84908.6 65048.4 19860.2 2825.49 1323.37 593.703 777.516 3496.85 481.762 1502.11 755.957 137.578 841.612 211.848 734.907 122.758 76.144 618.378 612.149 74.0889 60.884 284.049 197.713 40.4695 181.322 88.6284 629.765 83.9612 195.42 577.909 30.2622 150.964 31.1902 563.441 28.8264 580.959 46.6139 534.615 42.6095 746.154 307.899 31.4155 63.4893 545.803 438.255 202.037 236.219 20.8186 276.484
internal_count=268644 264393 258799 258245 32961 28404 225284 161160 64124 4251 2327 554 5594 4557 1235 1924 1270 375 1092 436 5531 644 258 895 4887 118 219 543 692 236 672 241 656 139 302 659 107 217 81 447 52 4806 386 395 63 654 307 66 257 517 347 146 201 89 241
is_linear=0
shrinkage=0.1


Tree=17
num_leaves=59
num_cat=0
split_feature=115 125 134 30 118 106 48 1 122 133 32 79 52 72 76 132 70 120 77 53 118 92 127 30 94 32 118 119 25 58 109 1 31 0 101 30 16 128 34 30 89 108 29 106 114 51 58 114 107 77 64 93 37 119 74 119 106 83
split_gain=574.624 836.225 763.778 658.285 627.111 686.654 553.306 502.859 812.831 478.728 481.008 435.841 349.239 493.408 332.777 326.154 312.303 311.883 311.154 430.627 380.176 303.222 277.601 429.008 254.031 236.978 215.68 196.472 172.718 167.654 158.389 157.686 120.238 116.222 210.931 141.084 100.758 95.4677 128.293 92.9103 76.8648 59.9857 67.2468 56.2015 39.3015 38.9047 38.1295 27.3203 60.7632 23.2101 22.5929 22.2293 70.2587 18.9321 16.9351 14.3663 12.1025 3.12162
threshold=-0.93548327684402455 -1.4211972355842588 1.0000000180025095e-35 1.0796837210655215 -1.579751133918762 -0.96649476885795582 0.81331035494804393 -0.093616604804992662 -1.9944755434989927 1.0000000180025095e-35 0.88783416152000438 -0.47999136149883265 0.95851024985313427 -0.78397318720817555 -0.5653223693370818 1.0000000180025095e-35 -0.44983705878257746 -1.7261661291122434 -1.268037676811218 1.005375921726227 -0.98874473571777333 -1.1262539029121397 -1.5912812352180479 1.0689148306846621 -0.27434554696083063 0.91684800386428844 -0.95870882272720326 -1.0364181399345396 1.433815121650696 0.80471664667129528 -1.1562455892562864 0.62809962034225475 1.0006036758422854 0.47318431735038763 -0.85320222377777089 1.0677061080932619 1.1736944913864138 1.0000000180025095e-35 0.91511717438697826 1.0639693140983584 -1.2057378888130186 -0.87324589490890492 1.1444954276084902 -0.85938534140586842 -0.94931054115295399 1.1505094170570376 0.78548794984817516 -0.91935941576957692 -0.89695006608963002 -1.2542076110839842 0.5214061737060548 -1.109790503978729 0.84102958440780651 -1.6433085203170774 -1.0062962174415586 -0.97104346752166737 -0.83659696578979481 -1.2831217050552366
decision_type=2 2 2 2 2 2 2 2 2 2 2 2 2 2 2 2 2 2 2 2 2 2 2 2 2 2 2 2 2 2 2 2 2 2 2 2 2 2 2 2 2 2 2 2 2 2 2 2 2 2 2 2 2 2 2 2 2 2
left_child=1 4 6 18 11 9 44 14 -9 25 -11 45 13 15 -7 -5 36 24 37 31 -21 41 33 26 -13 -6 -24 -18 -15 -25 -19 -20 39 34 -8 -35 -14 40 -39 55 -3 51 46 -44 -2 50 -43 48 -46 -34 -1 57 -53 -47 -41 -23 -49 -4
right_child=2 3 21 12 5 7 22 8 -10 10 -12 17 16 28 -16 -17 27 30 19 20 -22 32 23 29 -26 -27 -28 -29 -30 -31 -32 -33 49 35 -36 -37 -38 38 -40 54 -42 42 43 -45 47 53 -48 56 -50 -51 -52 52 -54 -55 -56 -57 -58 -59
leaf_value=-0.07165857916719108 0.11110024827905376 0.1197488405825457 0.13511135394288751 -0.030983121904800123 0.02020553064989054 0.081136057456863947 -0.1124796281258468 0.15507294776006608 0.018348350878191234 -0.078456698546993706 0.074271737879888569 0.077635863904830099 0.13879489867287167 -0.12914963857125811 -0.085304787423568951 0.11285647607898551 0.090242353452192392 0.10895490511259534 0.075760338688678999 0.080770297462859159 0.015274366774363796 -0.040088474222430281 0.13107114535568737 -0.0034314882731949548 -0.006405367013781982 -0.089521803935561139 0.02810587062772732 0.0017098839662853971 0.073490708864056523 -0.067657974631429321 -0.028968754847224772 0.04060897270316266 -0.020833915109760529 0.062188910618234353 -0.020211126187791573 -0.1402766019938298 -0.061504942036842175 -0.035728897545459874 0.15881526068228954 -0.21618851921566612 -0.0062737305390378646 0.11918758131632241 0.037266515873090302 -0.16409241409428213 -0.13620065258080438 0.14650271837198367 8.7951266027185549e-05 -0.14441694970282531 -0.021156948063290191 0.13288252776521733 0.12664714291056214 -0.078357911986056794 0.11748245729752163 0.19097805543992397 -0.044019300614971633 0.118081941164061 -0.10539526288724975 0.15599557643662604
leaf_weight=10.760813221335413 8.6520497016608697 1124.8966606706381 298.35371915996075 1058.882533043623 801.6817541718483 144.20238959789276 279.85223975777626 437.95736880600452 60653.009164273739 215.88995473086834 4599.8074182122946 2472.3782947808504 25.859145939350128 42.913048774003983 719.44486092031002 185.21333257853985 300.56697025895119 96.928738072514534 6157.1674536913633 1158.8074547201395 3767.9778258390725 11.281852081418039 212.24458521604538 4134.9407423213124 420.8972715139389 260.87200991809368 4902.0968859568238 1509.8278957754374 2119.992973677814 450.73170293867588 590.51994694024324 1609.8327408134937 15.336122304201124 259.04722103476524 2160.6598125472665 39.690380051732063 871.69643980264664 100.34161533415318 51.190857112407684 51.645898729562759 50.574317708611488 171.80665303766727 62.113808244466782 17.843283697962761 83.669188559055328 199.11905980110168 31.866441160440445 132.55820725858212 101.73433290421963 27.323806315660477 12.325881019234656 19.875557616353035 233.87320220470428 184.29701772332191 6.4237677454948416 11.695217713713644 198.49977059289813 94.160057067871094
leaf_count=32 19 1593 238 3700 1714 284 1115 430 157242 676 6879 3560 70 167 4064 239 584 130 9394 2051 9474 31 290 12790 1703 849 13154 4253 3956 1875 1712 2946 35 530 9458 155 3181 338 81 215 128 171 102 63 416 148 69 676 284 24 16 53 223 137 16 12 4836 63
internal_value=0 0.0286713 0.0069363 0.0466812 0.0236219 0.0213564 0.000281996 0.0182573 0.0193285 0.0540199 0.0674249 0.0621639 0.0193025 0.0406083 -0.0575143 -0.00956917 -0.00750347 0.0510242 0.058622 0.0538053 0.0306794 0.0888165 0.00452659 0.0124652 0.06541 -0.00673409 0.0323789 0.0164083 0.0694702 -0.00974439 -0.00952183 0.0684747 -0.0582665 -0.0235849 -0.0307915 0.0352893 -0.0557342 0.104696 0.0299922 -0.129793 0.114327 0.108383 0.0700449 -0.00766889 -0.100267 0.160289 0.100553 -0.103808 -0.073074 0.0776219 0.0342159 0.125209 0.102143 0.167881 -0.197143 0.0404195 -0.12102 0.140121
internal_weight=0 91955.8 14018 20135.7 71820.1 67832.9 12964.4 61954.6 61091 5878.25 4815.7 3987.23 6114.95 3407 863.647 1244.1 2707.95 3580.72 14020.8 12693.8 4926.79 1053.6 12439.3 9700.01 2893.28 1062.55 5114.34 1810.39 2162.91 4585.67 687.449 7767 123.707 2739.25 2440.51 298.738 897.556 1327 151.532 81.0467 1175.47 929.893 283.63 79.9571 525.114 406.503 203.673 516.461 185.404 42.6599 23.0867 646.263 253.749 383.416 58.0697 22.9771 331.058 392.514
internal_count=268644 221731 46913 42155 179576 172138 45598 162020 157672 10118 7555 7438 16150 8062 4348 3939 8088 7105 26005 23865 11525 1315 39367 28109 5263 2563 13444 4837 4123 14665 1842 12340 333 11258 10573 685 3251 2140 419 274 1721 982 405 165 6231 333 240 6212 700 59 48 577 276 285 231 43 5512 301
is_linear=0
shrinkage=0.1


Tree=18
num_leaves=61
num_cat=0
split_feature=128 130 131 30 129 73 34 84 109 82 109 82 109 84 32 108 81 76 106 78 111 111 55 103 110 105 52 37 82 110 92 31 126 2 36 106 86 111 3 126 34 36 110 77 105 78 28 84 109 76 27 80 115 32 76 109 31 52 73 1
split_gain=530.172 523.645 580.584 430.572 450.095 510.502 439.484 260.859 307.502 343.826 308.497 291.416 199.827 193.888 181.591 181.53 186.263 175.769 187.827 160.472 266.598 233.234 204.906 158.664 135.437 131.677 131.026 124.409 118.68 113.19 104.327 95.7738 91.2817 142.573 148.742 94.1693 89.688 104.087 89.3782 81.9568 81.647 70.3944 67.5475 65.7268 57.5505 51.1268 49.0697 70.2323 44.8593 34.0792 31.3418 29.8365 29.5932 24.5611 21.1857 21.0925 1.23084 0.365527 0.0771254 0.0109886
