tree
version=v4
num_class=1
num_tree_per_iteration=1
label_index=0
max_feature_idx=136
objective=binary sigmoid:1
feature_names=Column_0 Column_1 Column_2 Column_3 Column_4 Column_5 Column_6 Column_7 Column_8 Column_9 Column_10 Column_11 Column_12 Column_13 Column_14 Column_15 Column_16 Column_17 Column_18 Column_19 Column_20 Column_21 Column_22 Column_23 Column_24 Column_25 Column_26 Column_27 Column_28 Column_29 Column_30 Column_31 Column_32 Column_33 Column_34 Column_35 Column_36 Column_37 Column_38 Column_39 Column_40 Column_41 Column_42 Column_43 Column_44 Column_45 Column_46 Column_47 Column_48 Column_49 Column_50 Column_51 Column_52 Column_53 Column_54 Column_55 Column_56 Column_57 Column_58 Column_59 Column_60 Column_61 Column_62 Column_63 Column_64 Column_65 Column_66 Column_67 Column_68 Column_69 Column_70 Column_71 Column_72 Column_73 Column_74 Column_75 Column_76 Column_77 Column_78 Column_79 Column_80 Column_81 Column_82 Column_83 Column_84 Column_85 Column_86 Column_87 Column_88 Column_89 Column_90 Column_91 Column_92 Column_93 Column_94 Column_95 Column_96 Column_97 Column_98 Column_99 Column_100 Column_101 Column_102 Column_103 Column_104 Column_105 Column_106 Column_107 Column_108 Column_109 Column_110 Column_111 Column_112 Column_113 Column_114 Column_115 Column_116 Column_117 Column_118 Column_119 Column_120 Column_121 Column_122 Column_123 Column_124 Column_125 Column_126 Column_127 Column_128 Column_129 Column_130 Column_131 Column_132 Column_133 Column_134 Column_135 Column_136
feature_infos=[-1.8014661073684692:2.1873281002044678] [-1.7160434722900391:2.0962586402893066] [-1.6382262706756592:2.0136351585388184] [-1.5680137872695923:1.9394575357437134] [-1.5054070949554443:1.8737261295318604] [-1.4504051208496094:1.8164401054382324] [-1.4123568534851074:1.7937201261520386] [-1.3844102621078491:1.9274762868881226] [-1.3517893552780151:2.0758624076843262] [-1.3099035024642944:2.0974209308624268] [-1.2559221982955933:2.0165181159973145] [-1.1870334148406982:2.073509693145752] [-1.1039742231369019:2.1457490921020508] [-1.0067610740661621:2.2142360210418701] [-0.90047705173492432:2.2825961112976074] [-0.78966546058654785:2.4052433967590332] [-0.67814630270004272:2.5269482135772705] [-0.65620064735412598:2.5277442932128906] [-0.66012513637542725:2.5653238296508789] [-0.66667592525482178:2.5221147537231445] [-0.66619455814361572:2.4413206577301025] [-0.67410272359848022:2.3840618133544922] [-0.6766434907913208:2.2409591674804688] [-0.6824079155921936:2.1030042171478271] [-0.6794590950012207:2.0889520645141602] [-0.94777458906173706:1.9925726652145386] [-1.274228572845459:1.8694267272949219] [-1.700652003288269:1.7314887046813965] [-1.9202775955200195:1.5598906278610229] [-2.1342308521270752:1.3473584651947021] [-2.4022552967071533:1.1458766460418701] [-2.6850478649139404:1.0691677331924438] [-2.8964071273803711:1.0182701349258423] [-2.6209216117858887:1.0153312683105469] [-1.9672813415527344:1.0222163200378418] [-1.2877312898635864:1.0559519529342651] [-0.66409575939178467:1.2162210941314697] [-0.67050886154174805:1.2322072982788086] [-0.67336314916610718:1.3607214689254761] [-0.67729061841964722:1.3697364330291748] [-0.67391806840896606:1.309401273727417] [-0.67623704671859741:1.2273765802383423] [-0.67480045557022095:1.26226806640625] [-0.67822211980819702:1.3808037042617798] [-0.67542338371276855:1.5838102102279663] [-0.67939788103103638:1.7493973970413208] [-0.67687302827835083:1.7343066930770874] [-0.68031680583953857:1.6915385723114014] [-0.67687547206878662:1.7336448431015015] [-0.6802976131439209:1.7715651988983154] [-0.67868822813034058:1.8198304176330566] [-0.68411111831665039:2.1010029315948486] [-0.68785721063613892:2.3278176784515381] [-0.6967010498046875:2.41339111328125] [-0.68777680397033691:2.0181429386138916] [-0.66555494070053101:1.7058380842208862] [-0.63047897815704346:1.5109990835189819] [-0.79989981651306152:1.3641012907028198] [-0.9627259373664856:1.3483799695968628] [-0.83332031965255737:1.3266682624816895] [-0.62303602695465088:1.2987289428710938] [-0.62908732891082764:1.4134206771850586] [-0.65896600484848022:1.6471337080001831] [-0.67422842979431152:1.5433529615402222] [-0.93073725700378418:1.1429597139358521] [-1.1305865049362183:1.0751444101333618] [-1.2290370464324951:0.99085426330566406] [-1.6538451910018921:0.88485002517700195] [-1.8910553455352783:0.75389385223388672] [-2.0949718952178955:0.60495084524154663] [-1.9126988649368286:0.45876148343086243] [-1.7446892261505127:0.33052113652229309] [-1.674402117729187:0.23037496209144592] [-1.5674382448196411:0.15855956077575684] [-1.3374539613723755:0.2961885929107666] [-1.5821062326431274:0.9557119607925415] [-1.8401819467544556:1.4404212236404419] [-2.0371255874633789:1.2026444673538208] [-2.1728529930114746:1.1271375417709351] [-2.2573421001434326:0.66064220666885376] [-2.3058340549468994:0.36351838707923889] [-2.3315773010253906:0.28676301240921021] [-2.3403120040893555:0.33890664577484131] [-2.3343968391418457:0.39074629545211792] [-2.3124566078186035:0.43792322278022766] [-2.2730567455291748:0.47703936696052551] [-2.2140905857086182:0.50853937864303589] [-2.1362462043762207:0.53271615505218506] [-2.0426793098449707:0.59374678134918213] [-1.9374580383300781:0.56802195310592651] [-1.8240519762039185:0.65060514211654663] [-1.8478662967681885:1.0689502954483032] [-1.6520191431045532:1.4168777465820312] [-1.5958865880966187:1.6287872791290283] [-1.5394163131713867:1.664950966835022] [-1.4922878742218018:1.6182941198348999] [-1.4547033309936523:1.5608183145523071] [-1.4384253025054932:1.5595740079879761] [-1.4264529943466187:1.5645072460174561] [-1.5388252735137939:1.5648646354675293] [-2.0638625621795654:1.5687597990036011] [-2.4619696140289307:1.5680602788925171] [-2.648137092590332:1.5700795650482178] [-2.4631106853485107:1.5659784078598022] [-2.0341367721557617:1.5674868822097778] [-1.4165751934051514:1.5623446702957153] [-1.2213733196258545:1.563502311706543] [-1.1215335130691528:1.561995267868042] [-1.168958306312561:1.5723429918289185] [-1.225764274597168:1.5757462978363037] [-1.3317182064056396:1.5825309753417969] [-1.6010570526123047:1.5861003398895264] [-2.1418814659118652:1.5904537439346313] [-2.4733853340148926:1.5896482467651367] [-2.5047738552093506:1.5896980762481689] [-2.0072333812713623:1.5865405797958374] [-1.577265739440918:1.5868538618087769] [-1.6321159601211548:1.7016431093215942] [-1.6862318515777588:2.5795986652374268] [-1.7458088397979736:2.8008601665496826] [-1.820858359336853:2.5472877025604248] [-1.9268163442611694:1.7180403470993042] [-2.1462221145629883:1.6308574676513672] [-2.3790585994720459:1.6220458745956421] [-2.6580204963684082:1.6080794334411621] [-2.9761693477630615:1.9929251670837402] [-3.3559722900390625:2.7791450023651123] [-3.8750591278076172:3.7871904373168945] [0:1] [0:1] [0:1] [0:1] [0:1] [0:1] [0:1] [0:1] [0:1]
tree_sizes=5594 5766 5771 5815 5845 6225 5828 6394 6065 6483 5969 6623 5662 6932 6533 6235 5826 6384 6483 6928 6463 6598 6777 5510 5755 5648 6890 6574 6208 6389 6278 6827 5937 6800 5561 5663 6063 6387 6620 5930 6723 6874 5047 6686 5863 6194 6292 6721 6895 6906 6614 5672 6147 6631 6985 5892 6569 6929 5379 5430 6274 5432 5723 6923 6648 4895 6487 6533 5315 6748 4638 5201 6882 6966 5667 6951 5563 6189 6937 5421 6941 6959 6958 5949 5989 5988 6785 6902 5879 6048 6144 6375 6410 5964 6634 6918 6041 6923 6937 5806 5951 6111 5545 5674 6911 5603 5062 6068 6866 6566 6968 6831 5012 5840 6023 5812 6156 6491 6279 4983 6943 6803 5971 6743 5629 6149 5875 6694 6856 5252 5520 6934 6730 6958 5729 6581 5947 6655 5155 6526 6611 5227 5343 6783 6947 6397 6335 6819 6041 6703 6894 4317 5611 6443 6921 6257 6392 6407 5566 6922 6933 5849 6956 6476 4449 6079 6768 6284 6034 6663 6146 5566 6750 5858 6293 4851 6926 4338 6471 6807 6452 6387 6468 5922 6617 5958 6897 6028 5300 5936 6483 5435 6331 6805 6332 6128 5866 6681 5840 6772

Tree=0
num_leaves=52
num_cat=0
split_feature=106 130 131 129 118 103 36 54 36 136 89 35 34 126 71 31 79 36 110 136 30 53 69 29 120 97 81 76 35 80 115 36 32 31 31 81 61 101 5 53 33 102 49 132 9 103 1 30 24 33 61
split_gain=29440.4 16257.9 12579 9775.95 7731.25 9407.95 4070.38 2299.98 1852.15 1382.68 1273.65 1349.19 1239.69 1202.01 1015.22 1004.66 910.235 880.477 553.604 550.499 485.937 451.452 929.28 870.346 423.451 421.937 482.614 409.552 390.17 444.131 366.417 305.581 305.494 280.097 244.071 243.315 226.012 212.784 234.307 149.472 148.302 141.799 172.775 139.148 110.773 85.4233 80.7051 61.5151 60.6128 35.2959 10.776
threshold=-0.83520874381065358 1.0000000180025095e-35 1.0000000180025095e-35 1.0000000180025095e-35 -1.6012602448463438 -0.82880768179893483 0.73697215318679821 1.0257641673088076 0.96645230054855358 1.0000000180025095e-35 -1.1631841659545896 0.94297379255294811 0.93651708960533153 -1.8585446476936338 -0.36188115179538721 1.0135081410408022 -1.1423435807228086 0.97596135735511791 -1.1970225572586057 1.0000000180025095e-35 1.0486772656440737 1.015059292316437 -0.23178541660308835 1.1047376394271853 -1.0161577463150022 -1.027261435985565 -1.3129751086235044 -1.0024856925010679 0.94195854663848888 -1.4061771631240843 -0.93531379103660572 0.97596135735511791 0.91765940189361583 1.0197316408157351 0.97045087814331066 -1.2752169966697691 0.60447445511817943 -0.86899337172508229 0.6259906291961671 1.0589671134948733 0.9211985468864442 -0.79492077231407154 1.1614400744438174 1.0000000180025095e-35 0.79481807351112377 -0.77665817737579335 0.48471680283546453 1.0772522091865542 1.6490369439125063 0.95720434188842785 0.83365198969841015
decision_type=2 2 2 2 2 2 2 2 2 2 2 2 2 2 2 2 2 2 2 2 2 2 2 2 2 2 2 2 2 2 2 2 2 2 2 2 2 2 2 2 2 2 2 2 2 2 2 2 2 2 2
left_child=1 2 3 4 18 -6 43 19 9 14 21 20 16 17 -9 25 -5 -10 -1 28 34 22 32 39 46 44 -27 -14 29 -8 -11 -15 -3 -22 -12 -25 -24 47 -39 -23 -26 49 -43 48 -4 -30 -21 -17 50 -13 -2
right_child=6 10 15 12 5 -7 7 8 13 30 11 41 27 31 -16 37 -18 -19 -20 24 33 23 36 35 40 26 -28 -29 45 -31 -32 -33 -34 -35 -36 -37 -38 38 -40 -41 -42 42 -44 -45 -46 -47 -48 -49 -50 -51 -52
leaf_value=-1.3128950168509539 -2.0073289445727145 -1.6199669518824056 -1.9633034860965082 -1.7313838516949911 -1.4654070300710931 -1.5722433849082362 -1.5940360903899498 -1.7783500371305982 -1.914276437230308 -1.4584714932941045 -1.6617655747226772 -1.3709236564749061 -1.4623901217415156 -1.5551256164248122 -1.9200494165253577 -1.8383981023175129 -1.9625819687364829 -1.6013195489900749 -1.1819884458594019 -1.376459165497947 -1.8850553541649095 -1.3237566541695176 -1.487562355875256 -1.7966010326643103 -1.7792249977629766 -1.633553077745395 -1.7185938692311886 -1.9400544458659856 -1.656952058154695 -1.698527521866418 -1.8256423717498589 -1.3561712790547489 -1.8486994221236637 -1.4322255449658685 -1.8031894950388541 -1.4404514895657858 -1.1976678700771648 -1.8375400334421355 -1.4176796894056818 -1.5630559803201209 -1.4566764873938223 -1.900650934116773 -1.4999385190300278 -1.4718538967375721 -1.7855288305787493 -1.2874198303217597 -1.1747377979727371 -1.9560391546254434 -1.5460234241382256 -1.1288240273268109 -1.8437708713151422
leaf_weight=755.68674835562706 583.37752893567085 116.46305024623871 60.277101129293442 1461.763649225235 23211.21494486928 12781.129669487476 696.67156830430031 3714.401108443737 178.24123501777649 157.13757318258286 157.4281550347805 21.891814976930618 199.66059118509293 340.36938068270683 585.29469785094261 58.908581554889679 192.7418027818203 181.37739029526711 564.28721415996552 50.47749188542366 1030.9015437364578 35.909844815731049 169.76162973046303 535.20863479375839 34.901548832654953 1116.4406528174877 1658.9523293972015 19.723127365112305 7.5739214420318595 977.52609124779701 32.863660126924515 99.847264736890793 117.10360595583916 13.843042910099028 542.73244607448578 19.895551860332489 31.956381738185883 50.796089887619019 18.002071499824524 95.571046680212021 24.096206039190292 12.438022613525389 79.759756803512573 4.9558369219303122 83.751485764980316 35.940423399209976 32.669938892126083 181.08954149484634 2.876322627067565 8.3070101737976092 4.0562458336353293
leaf_count=2182 5125 640 507 9416 97085 65056 3675 25408 1425 648 921 74 830 1683 4708 433 1620 968 1002 173 7986 107 742 3744 239 6264 10506 162 44 6024 238 325 871 54 3827 79 61 373 68 479 99 98 357 21 578 96 56 1512 14 11 30
internal_value=-1.89226 -1.53734 -1.52145 -1.50582 -1.49463 -1.50335 -1.74828 -1.72736 -1.761 -1.78597 -1.76275 -1.81334 -1.7287 -1.6208 -1.79764 -1.71119 -1.75832 -1.75643 -1.25693 -1.63171 -1.83585 -1.67853 -1.59886 -1.72904 -1.44259 -1.69305 -1.68439 -1.50533 -1.64736 -1.65505 -1.52198 -1.51 -1.73465 -1.87906 -1.77139 -1.78384 -1.44164 -1.88272 -1.72768 -1.4977 -1.64749 -1.4924 -1.554 -1.99953 -1.85993 -1.35174 -1.2972 -1.92716 -2.00396 -1.30433 -2.0062
internal_weight=0 45403.6 42414.4 39186.2 37312.3 35992.3 7744.66 7149.39 5289.53 4489.7 2989.17 1867.3 1873.89 799.835 4299.7 3228.22 1654.51 359.619 1319.97 1859.86 1744.91 1121.87 435.285 686.585 142.145 2919.42 2775.39 219.384 1717.71 1674.2 190.001 440.217 233.567 1044.74 700.161 555.104 201.718 308.796 68.7982 131.481 58.9978 122.397 92.1978 595.266 144.029 43.5143 83.1474 239.998 590.31 30.1988 587.434
internal_count=268644 217645 197594 177353 165325 162141 50999 45809 35403 31002 20051 13328 12028 4401 30116 20241 11036 2393 3184 10406 12788 6723 2314 4409 567 17855 16770 992 9839 9699 886 2008 1511 8040 4748 3823 803 2386 441 586 338 540 455 5190 1085 140 229 1945 5169 85 5155
is_linear=0
shrinkage=1


Tree=1
num_leaves=53
num_cat=0
split_feature=106 130 30 131 128 129 45 75 54 37 85 40 126 126 55 71 29 55 30 100 31 27 51 71 31 74 125 97 33 53 87 38 60 36 91 122 129 6 135 64 123 36 38 116 0 44 47 26 116 24 112 33
split_gain=12808.6 7176.65 6302.09 4842.15 4356.45 4347.33 2583.72 1969.25 1229.07 1030.96 734.972 798.438 728.135 677.133 676.756 844.557 516.286 514.11 419.282 531.055 380.657 358.351 448.648 451.805 352.326 283.47 495.191 278.122 262.473 296.867 348.032 255.232 244.612 226.732 218.567 207.308 206.284 463.72 203.412 201.192 182.624 204.428 174.25 160.624 136.21 196.434 97.3677 73.3908 60.6087 0.021065 0.0010072 3.49945e-05
threshold=-0.83047959208488453 1.0000000180025095e-35 1.0914683341979983 1.0000000180025095e-35 1.0000000180025095e-35 1.0000000180025095e-35 0.91333830356597911 -1.0335878133773801 1.0232870578765871 0.98914402723312389 -1.2562091350555418 1.0487142801284792 -1.911857485771179 -1.6267745494842527 1.1124658584594729 -0.35423493385314936 1.226020395755768 0.859836906194687 1.1061975955963137 -0.9237801432609557 1.0116294622421267 1.1783848404884341 1.0557140707969668 -0.53865453600883473 1.0055291652679446 -0.92879197001457203 -1.6368279457092283 -1.027261435985565 0.91828623414039623 1.0175623893737795 -1.3583837151527403 0.94991174340248119 0.82665556669235241 0.97596135735511791 -1.0291332006454466 -1.0332753062248228 1.0000000180025095e-35 0.66923442482948314 1.0000000180025095e-35 0.42050091922283178 -1.4252631664276121 0.96645230054855358 0.96611070632934581 -0.8874259591102599 0.39370045065879827 1.1272767782211306 1.1646481752395632 1.610739588737488 -0.98970293998718251 1.6341673731803896 -0.96848559379577626 0.78480637073516857
decision_type=2 2 2 2 2 2 2 2 2 2 2 2 2 2 2 2 2 2 2 2 2 2 2 2 2 2 2 2 2 2 2 2 2 2 2 2 2 2 2 2 2 2 2 2 2 2 2 2 2 2 2 2
left_child=1 2 3 4 5 -1 47 16 28 14 21 25 33 -6 15 -10 17 -4 19 -9 27 44 23 -23 -24 26 -12 -5 29 30 -8 -22 -14 -11 -20 -31 39 -38 -16 -30 41 -13 -27 -18 45 -3 -42 49 -46 50 -2 -52
right_child=6 10 7 20 13 -7 8 18 9 12 11 40 32 -15 38 -17 43 -19 34 -21 31 22 24 -25 -26 42 -28 -29 36 35 -32 -33 -34 -35 -36 -37 37 -39 -40 -41 46 -43 -44 -45 48 -47 -48 -49 -50 -51 51 -53
leaf_value=0.28149391838644339 -0.11523227506612244 0.11214189923852046 0.12098991439775125 0.0049541674063274905 0.062522143692836374 0.13913083244027785 -0.12017329562063708 0.34052085684754452 0.086166566644822584 -0.091215595037052621 0.40868972571833206 0.12165265565259409 0.26527332290711497 0.17688405464358312 0.25149178136334999 -0.069853890217651468 -0.071174389830002155 -0.0010756744520285814 0.28873619259189948 0.17731527968849364 0.018774221727882571 0.11635852989853963 0.14198215184192445 0.30682117238878026 0.0033751277991434605 -0.061944505025839328 0.060394675245497777 0.16670469493214532 0.19749779496920231 0.015426331647389727 0.35497167794542722 0.19562713641802984 0.003037789994144351 0.12126320535990794 -0.016663497888170519 0.17682099251506 0.054745087554582454 0.47898102894840849 0.59311482420178652 0.2897078536970018 0.045746191507525291 0.29858522126928594 0.032961833183818505 0.46771871433577972 0.55882576032937192 0.40475220294352054 0.42270106337631463 0.45129176239699725 0.30212101143314163 -0.12233029575727122 -0.11343470331860371 -0.11379930626573105
leaf_weight=45056.916341431439 3.1427707597613326 48.976787008345127 826.86744284629822 110.06565421819687 903.39182416349649 2252.2217963933945 18.561634033918381 352.11867892742157 3958.9403263032436 84.563939116895199 42.942256741225719 240.60974368453026 609.2879392132163 1212.8067942708731 48.656929351389408 380.27533535659313 361.88849677890539 592.12573429942131 30.61785414814949 459.61420281976461 332.98153258860111 229.01108038425446 631.11187229305506 273.03559556603432 258.50614853948355 320.52111487090588 826.14326357841492 3109.1220028176904 487.78285921365023 186.99276874959469 90.960776709020138 108.09450230747461 37.776360921561718 123.65859603881836 99.877519562840462 138.55819715559483 152.54634413123131 31.002028584480286 27.157460004091263 459.54268426448107 8.0360681265592557 89.626583181321621 487.99111337214708 5.6168609559535971 26.363087110221386 43.159922063350677 46.517084643244743 2.3110495805740348 14.12546696513891 2.6836364269256583 509.20070311427116 2.6461239010095587
leaf_count=146691 28 284 3746 836 4909 12659 133 937 25023 738 162 1378 2279 5082 249 3199 2271 3610 95 1866 2377 1319 3611 817 1816 2589 5699 16022 2283 1175 311 576 240 632 569 650 905 64 73 1708 51 272 3406 9 38 147 136 4 50 18 4877 25
internal_value=0 0.243789 0.2526 0.260219 0.268437 0.274717 0.103903 0.10439 0.120248 0.0971352 0.106672 0.0677553 0.197623 0.128064 0.0776685 0.0724934 0.0426956 0.0700537 0.221365 0.248112 0.149237 0.159327 0.144359 0.219941 0.101706 0.0379562 0.0776042 0.161174 0.198035 0.132029 0.274445 0.0621156 0.249964 0.0349707 0.0549918 0.0841177 0.223429 0.1264 0.373865 0.242228 0.197673 0.169672 -0.00466219 -0.0629381 0.316391 0.24921 0.367173 -0.110983 0.469268 -0.113494 -0.113448 -0.113437
internal_weight=0 59401 55814.3 53085.6 49425.3 47309.1 7356.25 2728.73 6836.26 5270.32 3586.68 2062.39 855.287 2116.2 4415.03 4339.22 1786.5 1418.99 942.228 811.733 3660.26 1524.29 1391.66 502.047 889.618 1677.6 869.086 3219.19 1565.95 435.073 109.522 441.076 647.064 208.223 130.495 325.551 1130.87 183.548 75.8144 947.326 384.789 330.236 808.512 367.505 132.625 92.1367 54.5532 519.984 40.4886 517.673 514.99 511.847
internal_count=268644 224030 202255 189152 169341 159350 44614 13103 39662 32433 21775 13693 3889 9991 28544 28222 9636 7356 3467 2803 19811 8082 7563 2136 5427 11856 5861 16858 7229 2269 444 2953 2519 1370 664 1825 4960 969 322 3991 1837 1650 5995 2280 519 431 187 4952 88 4948 4930 4902
is_linear=0
shrinkage=0.1


Tree=2
num_leaves=53
num_cat=0
split_feature=106 130 30 103 118 0 134 115 47 114 102 54 38 127 59 36 89 40 134 23 26 104 103 132 30 79 97 53 14 31 32 129 125 85 31 60 60 25 30 1 107 68 9 5 31 60 26 77 29 24 113 33
split_gain=7401.85 4043.81 3573.98 2753.64 3944.49 3579.47 3460.87 3755 1846.64 1198.84 856.849 678.62 758.948 794.846 687.317 672.733 580.832 679.238 539.992 507.186 476.251 418.327 398.716 304.297 247.723 236.026 198.987 348.008 321.253 227.869 187.666 235.782 238.159 177.472 176.172 171.083 197.732 167.294 165.31 180.023 165.093 131.123 129.438 78.4215 72.9765 59.9977 52.8642 45.8426 13.1368 0.0153161 0.00284209 2.52235e-05
threshold=-0.82787826657295216 1.0000000180025095e-35 1.0930436253547671 -0.85002064704895008 -1.5886310935020445 -0.21884994953870771 1.0000000180025095e-35 -0.93531379103660572 0.93236926198005687 -0.99830475449562062 -0.53610342741012562 1.0217646360397341 1.0030754804611208 -1.95120632648468 0.82519054412841808 0.97596135735511791 -1.1631841659545896 1.0494794249534609 1.0000000180025095e-35 1.2400348186492922 1.4085556268692019 -0.75515586137771595 -0.90387085080146778 1.0000000180025095e-35 1.098035514354706 -1.2617064118385313 -0.90692579746246327 1.02422571182251 0.97118452191352855 1.0067583322525027 0.95644858479499828 1.0000000180025095e-35 -1.2996111512184141 -1.2766832709312437 1.0197316408157351 0.69867408275604259 0.7142423987388612 1.2530736923217776 1.0556142926216128 0.46086460351943975 -0.86719524860382069 -0.061311535537242882 0.82162278890609752 0.75877434015274059 0.99965128302574169 0.56841933727264415 1.610739588737488 -1.2424248456954954 1.1244394779205324 1.6341673731803896 -1.0764030814170835 0.78480637073516857
decision_type=2 2 2 2 2 2 2 2 2 2 2 2 2 2 2 2 2 2 2 2 2 2 2 2 2 2 2 2 2 2 2 2 2 2 2 2 2 2 2 2 2 2 2 2 2 2 2 2 2 2 2 2
left_child=1 2 3 6 10 -6 7 -1 46 22 -5 30 14 15 19 -14 26 33 -16 -13 -8 -15 23 -4 42 44 27 28 -3 -29 35 37 -33 47 -35 41 -37 -32 39 -28 -27 -10 -11 -26 -19 -24 49 -18 -40 50 -2 -52
right_child=8 16 9 4 5 -7 20 -9 11 24 -12 12 13 21 18 -17 17 25 -20 -21 -22 -23 45 -25 43 40 38 29 -30 -31 31 32 -34 34 -36 36 -38 -39 48 -41 -42 -43 -44 -45 -46 -47 -48 -49 -50 -51 51 -53
leaf_value=0.22542562029422389 -0.11499144369844856 0.34584952779258832 0.16206689118260734 0.29581042164347987 -0.077148431476840321 0.17245972086077968 0.33166908761461178 0.12083940571079035 0.025756782831454633 -0.02426529660283672 0.00866960447096745 0.1930087185644325 0.019073548130733128 0.2540479697107319 0.0026072293259936704 0.19692730543116754 0.56961025829732548 0.38247098741153124 0.40359008374734195 0.067860149388056332 -0.01502406401422806 0.043033999823163513 0.053210533075870196 0.4125305577405991 -0.063154693313895921 0.15981220039927302 0.18920477621949117 0.10264847003421029 0.1441269499902724 -0.029240643839087362 0.23319232994959155 -0.020761683170462879 0.28357136623854606 0.023168272168163865 0.29937785323593469 -0.010528924638848728 0.13270528374359467 0.10325086216311544 -0.11908079691976792 0.39633225045947196 -0.038511832030434151 0.22718857244666363 0.07720993291294094 0.006303849095365033 0.10516847322446872 -0.091335677162352968 0.31140846906708991 0.22731728249080413 0.11818934148826404 -0.11989204948087136 -0.11199501590911853 -0.11231841959389295
leaf_weight=22271.719811886549 3.1906404867768279 89.513456717133522 874.87886703014374 3002.9482066109776 585.67067220807076 30160.10223416239 2738.2686833739281 4058.4541202038527 40.133723735809326 164.85042656958103 107.64910650998354 418.71288228780031 654.22920779883862 557.62765701860189 1817.7113045230508 315.11052732169628 4.8181341141462353 57.390461534261703 34.216422379016876 1429.0205692276359 40.204564929008484 112.9848787561059 55.576293788850307 51.354808613657951 368.11703754216433 348.02262023091316 158.7923130095005 538.88996019214392 668.83448126912117 173.07006159424782 566.94510261714458 93.353501155972481 35.489324346184731 1803.7808052003384 23.391282618045807 159.67962038516998 243.12478110194206 120.06159874796867 14.193056881427767 57.032923370599747 47.730382405221462 165.91105848550797 529.31356343626976 291.08078809082508 11.370431974530218 59.415055975317955 2.9664864391088477 20.820037484169006 2.7925957441329947 2.4827686026692382 464.09436177462339 2.4242583215236655
leaf_count=60740 29 195 2994 4787 3276 103532 4512 15919 221 1045 470 2025 4219 2145 12214 1039 8 113 96 8365 185 672 260 55 2326 1463 633 2876 2854 1252 1757 590 91 12575 59 922 1054 555 106 96 301 568 2458 1588 47 364 4 78 15 18 4853 25
internal_value=0 0.187405 0.193392 0.197953 0.178562 0.167705 0.220506 0.209305 0.0811448 0.0734822 0.285873 0.0945307 0.0781697 0.134796 0.053069 0.0768898 0.0900636 0.0574786 0.0100158 0.0962199 0.326652 0.218496 0.15415 0.175954 0.0114195 0.165606 0.1344 0.120798 0.167938 0.0705876 0.15585 0.187203 0.0630658 0.0303704 0.0267043 0.113837 0.0759244 0.210484 0.2203 0.243939 0.135893 0.187953 0.0531115 -0.032484 0.336616 -0.0214753 -0.109415 0.291644 -0.0800714 -0.112058 -0.112017 -0.111997
internal_weight=0 69380 65359.6 62965 33856.4 30745.8 29108.6 26330.2 7239.47 2394.59 3110.6 6764.31 5339.61 1639.95 3699.66 969.34 4020.44 2317.32 1851.93 1847.73 2778.47 670.613 1041.23 926.234 1353.36 464.514 1703.12 1470.31 758.348 711.96 1424.7 815.85 128.843 1852.81 1827.17 608.849 402.804 687.007 232.811 215.825 395.753 206.045 694.164 659.198 68.7609 114.991 475.159 25.6382 16.9857 472.192 469.709 466.519
internal_count=268644 227182 204511 193421 112065 106808 81356 76659 41462 11090 5257 36533 30775 8075 22700 5258 22671 14644 12310 10390 4697 2817 3673 3049 7417 1924 8027 7177 3049 4128 5758 2993 681 12720 12634 2765 1976 2312 850 729 1764 789 3503 3914 160 624 4929 86 121 4925 4907 4878
is_linear=0
shrinkage=0.1


Tree=3
num_leaves=53
num_cat=0
split_feature=106 130 131 128 129 30 47 34 84 35 87 110 31 80 71 114 111 34 58 125 135 123 38 70 5 51 71 31 52 45 33 34 126 39 31 82 79 105 100 110 92 129 122 102 123 69 42 73 29 24 113 51
split_gain=5003.84 2357.17 2468.12 2518.41 2249.05 2244.59 1160.79 911.745 586.587 559.959 555.177 634.666 401.618 365.856 336.968 334.753 326.794 307.851 702.463 514.476 362.803 295.935 291.596 481.253 413.805 274.295 308.355 269.822 260.603 250.764 240.583 238.48 220.259 345.822 218.801 167.285 151.159 185.984 149.112 130.707 114.587 102.087 84.0189 74.6399 97.9458 61.9793 56.7377 20.7711 19.7913 0.0223395 0.00190079 8.59569e-06
threshold=-0.81685367226600636 1.0000000180025095e-35 1.0000000180025095e-35 1.0000000180025095e-35 1.0000000180025095e-35 1.0864090323448183 0.93236926198005687 0.93651708960533153 -1.2947534322738645 0.94297379255294811 -1.2494324445724485 -0.9018844962120055 1.0155695676803591 -1.396271765232086 -0.47128045558929438 -0.95402950048446644 -0.93222934007644642 0.93995758891105663 0.87980255484581005 -1.6767810583114622 1.0000000180025095e-35 -1.0997289419174192 0.98000454902648937 -0.22526016086339948 0.60154062509536754 1.0565187335014345 -0.52580195665359486 0.97045087814331066 1.0648825168609621 1.1039823889732363 0.93962261080741893 0.95368683338165294 -1.6954135298728941 1.0379582643508913 1.0053935647010805 -1.2884075641632078 -1.2617064118385313 -0.80969306826591481 -0.88588356971740712 -0.90842860937118519 -1.1719672083854673 1.0000000180025095e-35 -1.3292487263679502 -0.86194673180580128 -1.3294373154640196 -0.055719321593642228 1.1202402710914614 -0.88817885518074025 1.1160557270050051 1.6341673731803896 -1.0764030814170835 0.86808660626411449
decision_type=2 2 2 2 2 2 2 2 2 2 2 2 2 2 2 2 2 2 2 2 2 2 2 2 2 2 2 2 2 2 2 2 2 2 2 2 2 2 2 2 2 2 2 2 2 2 2 2 2 2 2 2
left_child=1 2 3 4 5 -1 48 -6 14 15 11 -5 13 40 25 27 -12 18 22 31 21 -20 24 -24 -8 26 -3 -10 38 -27 -15 46 33 -21 -30 -33 42 -38 -16 -17 -4 -34 -11 47 -45 -22 -19 -14 49 50 -2 -52
right_child=6 8 12 10 7 -7 17 -9 9 36 16 -13 43 30 28 39 -18 19 20 32 45 -23 23 -25 -26 29 -28 -29 34 -31 -32 35 41 -35 -36 -37 37 -39 -40 -41 -42 -43 -44 44 -46 -47 -48 -49 -50 -51 51 -53
leaf_value=0.17482177111479269 -0.11333131466436107 0.071087072421458661 0.16251338348280955 0.26836230816755469 0.063194107236458352 0.10538625500905552 6.1670092158521222e-05 0.18685143144239796 0.12153098650977906 0.51763365171403142 0.06169506699660763 0.093529596473368087 -0.039295424135102369 0.080746047338676408 -0.12470433119016139 0.22277448528742366 -0.043626877550113088 -0.096895646735955895 -0.015165079126673559 0.04290919381536188 0.066137800599284938 0.38975682835414438 0.24043227518831822 0.019012664274741048 0.10389996158068318 0.025325737910982235 0.23424350945403299 0.020512284572571621 0.17357684812841734 0.21659905611156122 0.16189045797705615 0.24569627691219453 0.19811827183552386 0.19210806671064246 -0.030493899334507274 -0.071677248130178353 0.18033090948785177 -0.067876728239881265 0.32338997834147287 0.086587960332781988 0.31070763362779785 0.35957634725215004 0.24969737378435625 -0.091780988765986365 0.20187373192031677 0.40326800118289569 0.00010718876146768118 -0.11167032831510633 0.22110239281390323 -0.12100074059036831 -0.11072318104521009 -0.1109439494524608
leaf_weight=56726.070194393396 2.8152237609028807 232.42945558577776 135.32127779722214 252.38637536764145 2914.7223761603236 5071.8309520035982 588.34835886210203 749.60110275447369 299.62580867856741 13.480929940938948 1651.2892955169082 1170.9980776533484 69.902635306119919 4238.1508790701628 7.8330676630139342 125.78487934917212 358.57497614622116 118.76233504712582 1456.9934240803123 288.64771956205368 6.9685454145073882 18.275423437356949 271.63487212359905 153.70693267136812 1103.7587399110198 527.2149533778429 230.91845920681953 2249.4626764655113 491.48299462348223 78.78453928232193 399.85499549657106 56.157017156481743 127.65905064344406 336.41713890433311 58.828513987362385 23.582149386405945 170.8356533870101 36.66865449398756 143.01918238401413 160.26923207938671 84.918065920472145 56.489509738981724 88.762280948460102 21.342816799879074 24.27923996001482 25.077426627278328 122.48707662522793 91.63613037019968 1.8043773397803295 2.1333323866128913 414.59576264023781 1.7711613029241551
leaf_count=141524 28 1075 493 563 14513 17271 3575 2620 1454 20 7059 4814 572 19086 51 447 1872 905 9806 1657 35 60 965 840 4541 2984 477 14708 1977 247 1526 128 511 906 387 127 468 247 299 758 200 164 238 136 84 44 711 692 3 16 4740 20
internal_value=0 0.150821 0.155278 0.160231 0.16461 0.169123 0.0493428 0.0884904 0.0837643 0.0578444 0.0767456 0.12453 0.0879072 0.0937217 0.129805 0.0438971 0.0429048 0.0634665 0.0492585 0.109034 -0.0029182 -0.010149 0.0864006 0.160417 0.0677952 0.0944788 0.152399 0.0323863 0.183681 0.0501927 0.0877417 0.00190923 0.151527 0.12321 0.151762 0.151836 0.185506 0.136469 0.300122 0.146472 0.219653 0.247647 0.285025 -0.0484523 0.0644968 0.329957 -0.0476454 -0.0803516 -0.109378 -0.110794 -0.110742 -0.110724
internal_weight=0 78876.3 73960.9 68895.5 65462.2 61797.9 5178.09 3664.32 4915.4 3144.89 3433.25 1423.38 5065.41 4858.25 1770.51 2835.14 2009.86 4754.97 3624.76 1130.2 1507.31 1475.27 2117.45 425.342 1692.11 1069.35 463.348 2549.09 701.164 605.999 4638.01 320.989 809.213 625.065 550.312 79.7392 309.748 207.504 150.852 286.054 220.239 184.149 102.243 207.161 45.6221 32.046 241.249 161.539 423.12 421.315 419.182 416.367
internal_count=268644 238862 213025 190236 175928 158795 29782 17133 25837 18340 14308 5377 22789 21305 7497 17367 8931 24975 19866 5109 9945 9866 9921 1805 8116 4783 1552 16162 2714 3231 20612 1871 3238 2563 2364 255 973 715 350 1205 693 675 258 1484 220 79 1616 1264 4807 4804 4788 4760
is_linear=0
shrinkage=0.1


Tree=4
num_leaves=54
num_cat=0
split_feature=105 120 103 30 96 129 72 56 136 134 54 119 5 34 121 32 135 132 111 117 123 33 110 117 36 33 0 51 123 129 127 72 98 37 50 119 119 70 121 112 120 30 118 109 1 39 103 79 68 36 57 1 66
split_gain=3644.02 2631.08 2549.39 2754.02 1693.22 1497.24 1366.72 1308.51 959.268 1593.53 3013.55 959.095 742.352 646.507 811.496 570.057 556.797 529.722 441.559 454.503 382.349 437.669 300.105 270.261 250.867 218.663 194.39 174.931 156.911 151.56 139.11 296.965 126.418 105.445 99.3679 89.5082 83.7978 72.7981 57.7956 54.9428 52.0856 40.3715 38.0543 30.8488 18.5649 18.0816 13.6926 8.44368 6.66079 0.0547374 0.0191067 0.0176211 0.0119906
threshold=-0.78271058201789845 -1.7311165332794187 -0.83899766206741322 1.0818392634391787 -1.0626825690269468 1.0000000180025095e-35 -0.77797120809555043 0.83452615141868602 1.0000000180025095e-35 1.0000000180025095e-35 1.0716288685798647 -1.627201974391937 0.62161675095558178 0.83503568172454845 -1.8763790130615232 0.96249040961265575 1.0000000180025095e-35 1.0000000180025095e-35 -1.2450233101844785 -1.5649693608283994 -1.1340289711952207 0.95202726125717174 -1.1903120875358579 -1.5766190886497495 0.90438598394393932 0.8371468484401704 0.45721887052059179 1.1529242992401125 -2.1724517345428462 1.0000000180025095e-35 -3.2311171293258663 -0.3202721625566482 -0.92318585515022267 0.94863069057464611 1.1839261054992678 -1.6584885120391843 -1.6775693893432615 -0.23068311065435407 -1.4908608794212339 -1.2925461530685423 -1.758313715457916 1.0804538130760195 -1.6012602448463438 -1.1098799109458921 -0.16582973301410672 1.0333949923515322 -0.60049602389335621 -0.36702714860439295 0.22951579838991168 0.9076390564441682 1.025630831718445 -0.14688222855329511 0.24001172184944156
decision_type=2 2 2 2 2 2 2 2 2 2 2 2 2 2 2 2 2 2 2 2 2 2 2 2 2 2 2 2 2 2 2 2 2 2 2 2 2 2 2 2 2 2 2 2 2 2 2 2 2 2 2 2 2
left_child=1 18 3 4 41 -6 17 -8 9 11 -11 -4 15 16 43 -10 23 -5 19 30 21 25 28 -2 -14 -16 32 -24 -21 -23 31 -1 -22 40 42 49 -32 38 50 -37 -25 -3 51 45 48 -15 -39 -44 -45 -36 -18 -20 -28
right_child=13 2 8 6 5 -7 7 -9 12 10 -12 -13 24 14 20 -17 37 -19 34 22 26 29 27 33 -26 -27 52 -29 -30 -31 36 -33 -34 -35 35 39 -38 46 -40 -41 -42 -43 47 44 -46 -47 -48 -49 -50 -51 -52 -53 -54
leaf_value=-0.1036571516684468 0.28988113657959835 -0.1090419838808464 0.15688439960584302 0.017739318401187587 0.15619255303196139 0.034798375704659372 0.15526721605269284 0.06865420542303223 0.10444213943531611 0.10677135816408045 0.26417072286797211 0.076314302204808906 0.090244849099270982 0.069243809642108842 -0.10743030333148947 0.17043942672013812 -0.12575525211798091 0.2135532077618208 0.25040856596959976 -0.022274436790328315 -0.035517832076435954 0.048039883797345979 0.30132174490549862 -0.012889473394955157 0.27613812486925582 0.0044747974615668802 -0.12955001851571635 0.084272465433573307 0.19089450262365978 0.18846441948624537 0.25930998231025593 0.19646147655748733 0.27985580010870503 0.3220252147217138 0.25103462975069707 -0.14052116614149526 0.21197581144447097 0.34664431596309209 0.31777199497652764 0.26188599332432561 -0.113828556423012 0.11418351471002204 0.33919425484255006 0.22140071395848504 0.34795751080355247 0.24564875021473953 0.22957917061263367 0.28217384330081474 0.27723032671988035 0.25698373958816051 -0.13546063774931563 0.25370457321349349 -0.13503856935788014
leaf_weight=36.462942063808441 18.073598027229309 254.86803727596998 1587.1625723987818 2466.1698601171374 34458.007303602993 1046.8740877136588 3616.2175028175116 3369.5455504432321 3667.3193732053041 8003.0283399969339 1434.4043126702309 21374.309199772775 85.51403646171093 11.863893032073976 199.55256357043982 2035.0322024077177 3.8965568989515287 146.35167744755745 30.339737474918365 166.58325470983982 14.648326009511946 148.50464802980423 85.194143414497375 55.69852065294981 480.59402707219124 1397.1158258467913 7.0259696990251568 65.820239886641502 43.560333967208862 159.31367275863886 741.05036842823029 344.17792870104313 96.075788706541061 5.8176565989851943 30.375957369804382 10.733737811446188 755.12110215425491 26.095056533813473 4.4419853389263144 4.9612215459346762 622.02253768593073 8.367919906973837 347.66837976872921 31.38276444375515 31.19139888882637 11.387888312339781 16.190688118338588 28.066457360982895 66.975518748164177 31.509157061576843 4.230898305773735 34.853719711303711 9.1824863851070386
leaf_count=140 14 2141 3519 10380 80476 4983 8946 12045 10409 22521 2232 84832 241 31 1039 4671 25 249 20 555 80 595 62 304 603 8368 40 155 57 415 534 445 253 10 21 53 831 29 9 8 5716 41 258 36 24 9 30 32 45 20 22 22 48
internal_value=0 0.125049 0.121896 0.137976 0.15074 0.152613 0.0904136 0.11349 0.10303 0.0961017 0.130695 0.0818835 0.138838 0.0118611 0.0394547 0.127995 -0.0678127 0.0287087 0.221184 0.201919 0.0227377 0.0115375 0.0991881 -0.0918017 0.248058 -0.00951117 0.190785 0.20672 0.021913 0.120718 0.221688 0.167712 0.238133 -0.101894 0.304335 0.19997 0.23542 0.239014 0.0277185 -0.0133191 -0.105533 -0.101946 0.322698 0.261699 0.280735 0.155641 0.301822 0.334935 0.259417 0.254064 -0.130808 0.252171 -0.132659
internal_weight=0 86790.2 84033.8 45366.4 35768.1 35504.9 9598.28 6985.76 38667.4 32398.9 9437.43 22961.5 6268.46 2940.69 2184.22 5702.35 756.467 2612.52 2756.48 2237.97 2031.42 1904.49 361.158 701.612 566.108 1596.67 126.933 151.014 210.144 307.818 1876.81 380.641 110.724 683.539 518.508 77.5801 1496.17 54.8552 12.5694 15.695 677.721 263.236 440.928 152.801 129.55 23.2518 42.2857 375.735 98.3583 61.8851 8.12746 65.1935 16.2085
internal_count=268644 251502 248289 119261 87641 85459 31620 20991 129028 113104 24753 88351 15924 17142 10983 15080 6159 10629 3213 2779 10838 10417 829 6044 844 9407 421 217 612 1010 1950 585 333 6030 434 102 1365 115 56 61 6020 2182 332 145 105 40 59 290 81 41 47 42 88
is_linear=0
shrinkage=0.1


Tree=5
num_leaves=57
num_cat=0
split_feature=106 30 105 120 127 131 38 130 136 50 134 90 78 110 110 92 107 133 61 30 54 35 69 102 30 75 111 117 135 95 83 73 70 36 27 59 30 30 117 27 132 74 86 29 0 107 32 48 82 71 73 108 3 63 106 113
split_gain=2793.66 1763.7 1565.99 1378.9 2600.52 1328.83 1317.42 1282.24 1117.36 1092.99 843.359 805.089 744.357 883.696 765.867 740.222 682.685 622.292 482.334 488.875 360.95 330.101 340.802 319.924 286.509 278.819 249.065 449.869 239.505 212.048 202.791 196.331 190.598 167.639 166.957 206.796 132.903 124.53 116.362 113.431 107.982 93.2511 84.4471 69.6046 68.8211 60.7075 56.7807 45.9259 33.8719 23.7494 44.0765 20.5547 10.2935 7.62324 2.49357 0.0351326
threshold=-0.86078092455863942 1.0930436253547671 -0.76881355047225941 -1.7311165332794187 -2.4625502824783321 1.0000000180025095e-35 0.92441394925117504 1.0000000180025095e-35 1.0000000180025095e-35 1.1596394181251528 1.0000000180025095e-35 -0.30342346429824824 -1.266438841819763 -0.90344291925430287 -0.92474785447120655 -1.180040121078491 -0.9459538161754607 1.0000000180025095e-35 0.70610561966896068 1.0681387782096865 1.1613739132881167 0.85880693793296825 0.086011782288551344 -0.55739244818687428 1.1107046604156496 -1.1894580125808714 -1.2479782104492185 -1.5649693608283994 1.0000000180025095e-35 -0.91486015915870655 -1.1599022150039671 -0.81567662954330433 -0.057215737178921693 0.94621926546096813 1.4380707740783694 0.64217719435691845 1.0994260311126711 1.0994260311126711 -1.5766190886497495 1.1714671254158022 1.0000000180025095e-35 -1.0261027216911314 -0.28452767431735987 1.1856471300125124 -0.23892996460199353 -1.0007456541061399 0.85153350234031688 1.2249643206596377 -1.1545757055282591 -0.3455867320299148 -0.76442730426788319 -1.0329843759536741 0.60460668802261364 0.72258934378623974 -0.83047959208488453 -1.2536827325820921
decision_type=2 2 2 2 2 2 2 2 2 2 2 2 2 2 2 2 2 2 2 2 2 2 2 2 2 2 2 2 2 2 2 2 2 2 2 2 2 2 2 2 2 2 2 2 2 2 2 2 2 2 2 2 2 2 2 2
left_child=1 3 8 23 6 7 17 -6 9 12 28 -8 13 -2 -14 52 24 -5 19 -17 21 38 25 26 29 -23 27 -1 -11 37 -12 -31 51 -7 35 36 -18 -3 -4 -20 41 -36 49 -37 -28 -26 -40 -24 -47 50 -22 -25 -10 -51 -54 -44
right_child=2 16 20 4 5 33 11 -9 15 10 30 -13 14 -15 -16 18 34 -19 39 -21 42 22 47 32 45 -27 44 -29 -30 31 -32 -33 -34 -35 40 43 -38 -39 46 -41 -42 -43 55 -45 -46 48 -48 -49 -50 53 -52 -53 54 -55 -56 -57
leaf_value=0.19076872622059482 0.12989962282730505 0.17305882651284296 0.24669009010603737 0.11932013166084728 0.13212040135041062 0.056324470004461481 0.084697570066719033 0.045292872042968835 0.051003888736220887 0.092048517920009801 0.053601671684651991 -0.067744343630843168 0.057795395691138923 0.064126923323906376 -0.018752629560303324 0.13361030662117657 0.060363358756464494 -0.10258773789105818 0.059792007494393354 -0.020859219863669176 0.24497257905394343 0.26842964899538568 0.27934846388093132 -0.13080555269504357 0.19399469769920738 -0.029518788656526376 0.18522329828665107 0.056754242349624839 0.2532988631333194 -0.097715183092884114 0.25420878871580044 0.099695582361505025 0.21882056905583794 0.17669728591153439 0.041433804833067141 -0.011339404035432717 -0.013847232451272701 0.093837622136362403 -0.10870334995672082 -0.042229463859363325 0.22038464739346991 -0.10633552508081348 -0.12077396063520834 -0.10269806256547803 0.25610938643904058 0.18306090267558495 0.19576714038659937 0.077461817348114206 -0.10706534934486378 0.32100919653602755 -0.013662414321390676 0.062339910353080091 -0.13867317668449025 0.233044527266974 -0.11045102093321989 -0.13417518822976346
leaf_weight=1897.6257240474224 2593.7476458325982 448.98747447133064 9.576362729072569 158.37231576442719 44699.66604539752 2962.897220492363 7833.712653875351 1768.0862501114607 3.4137890934944144 1725.4337035790086 55.383231863379478 362.4760300219059 4602.125111296773 9615.6061459332705 1825.475284345448 6430.7503953352571 695.61345978081226 625.4127793610096 331.55555282533169 211.62862518429756 17.437705054879189 32.928024917840958 46.273723728954792 51.216033667325974 8.0777304619550687 680.39704957604408 178.99614363908768 288.57764713466167 97.306041106581688 80.113170072436333 559.06961408257484 135.73551097512245 25.437013909220695 120.39699348807335 51.788011021912098 172.23621579259634 369.52311159670353 355.55585013329983 514.77812266349792 162.34075492620468 12.43652096390724 243.50948688387871 4.2305932193994522 161.67656707763672 583.23053368926048 4.2328118532896033 6.198820397257804 14.89488312602043 81.599436730146408 15.783650264143942 10.591380275785925 6.1740964651107779 64.572534963488579 26.215169377624989 60.77086528390646 3.6388441100716582
leaf_count=1884 8122 928 6 391 96266 11954 21980 9038 11 6615 154 1565 16936 40213 9066 14259 2674 2767 989 726 41 63 35 248 20 4017 205 728 143 372 626 398 21 343 259 1030 1829 1008 5274 623 18 1488 31 1085 414 13 23 49 441 21 48 19 328 42 776 21
internal_value=0 0.115488 0.0784227 0.119031 0.115625 0.124598 0.0661113 0.128817 0.0834933 0.0718347 0.134811 0.0779558 0.0635992 0.0780996 0.0360553 0.117312 0.0381711 -0.0577488 0.1216 0.128689 -0.0254845 -0.0379661 0.00365999 0.184795 0.0990532 -0.0157651 0.19024 0.173079 0.100657 0.114436 0.236127 0.0264257 -0.00903456 0.0610248 -0.00157686 0.0130916 0.0346178 0.138048 -0.0987312 0.0262582 -0.0682639 -0.0804204 0.183625 -0.0555742 0.239463 -0.0680926 -0.105081 0.230188 -0.0927578 0.218528 0.147242 -0.110027 -0.120324 0.266103 -0.12499 -0.126971
internal_weight=0 64383.4 29722.1 61562.3 58531 49551 8979.97 46467.8 28339.2 21074.1 2437.19 8196.19 18637 12209.4 6427.6 7265.03 2821.09 783.785 7136.28 6642.38 1382.94 1305.05 774.494 3031.26 1114.3 713.325 2948.43 2186.2 1822.74 1020.39 614.453 215.849 82.8271 3083.29 1706.78 1399.05 1065.14 804.543 530.553 493.896 307.734 295.297 77.8973 333.913 762.227 93.91 520.977 61.1686 85.8322 70.0279 28.0291 57.3901 128.757 41.9988 125.343 7.86944
internal_count=268644 159386 109258 147823 144304 117601 26703 105304 99587 81875 7538 23545 74337 48335 26002 17712 11563 3158 16597 14985 9671 9467 4164 3519 3180 4080 3231 2612 6758 2706 780 770 288 12297 8383 6618 4503 1936 5303 1612 1765 1747 204 2115 619 474 5297 84 454 152 89 267 1115 63 1104 52
is_linear=0
shrinkage=0.1


Tree=6
num_leaves=53
num_cat=0
split_feature=106 30 10 119 127 118 55 136 39 134 31 73 121 55 30 30 73 32 127 110 116 29 131 105 30 5 34 132 32 134 56 5 134 29 70 13 32 29 2 104 70 113 3 83 26 99 57 106 20 106 115 106
split_gain=2140.05 1453.18 1482.21 1582.84 1722.51 1369.66 1233.04 1125.83 844.431 823.926 1311.01 1027.93 799.146 623.855 607.666 555.577 545.309 539.105 684.595 447.338 626.014 437.107 408.681 387.237 372.669 392.041 396.035 361.973 359.167 345.63 318.622 314.377 307.148 290.6 216.827 211.191 205.373 202.464 310.479 136.289 134.602 128.757 109.88 62.2912 56.301 28.9771 9.86489 2.53453 0.180357 0.0757305 0.0395076 0.0140964
threshold=-0.86078092455863942 1.0838014483451845 0.77829912304878246 -1.6424823403358457 -2.482629537582397 -1.3439464569091795 0.75067430734634411 1.0000000180025095e-35 0.96053537726402294 1.0000000180025095e-35 0.99260932207107555 -0.7988654077053069 -1.0193756222724912 0.87804540991783153 1.0740129947662356 1.0994260311126711 -0.8949328064918517 0.96379593014717113 -1.5892642140388487 -1.1970225572586057 -1.5216078162193296 1.1989275813102724 1.0000000180025095e-35 -0.93461173772811879 1.0690758228302004 0.61528974771499645 0.90297061204910289 1.0000000180025095e-35 0.96283960342407238 1.0000000180025095e-35 0.81415861845016491 0.5715681016445161 1.0000000180025095e-35 1.1871968507766726 -0.49448454380035395 0.35808923840522772 0.95226809382438671 1.2301123142242434 0.65451082587242138 -0.93558531999588002 -0.47386173903942103 -0.99457690119743336 0.59884288907051098 -1.3485306501388548 1.610739588737488 -0.97480925917625416 0.87267151474952709 -0.83132025599479664 1.778900742530823 -0.83520874381065358 -0.85091620683670033 -0.81685367226600636
decision_type=2 2 2 2 2 2 2 2 2 2 2 2 2 2 2 2 2 2 2 2 2 2 2 2 2 2 2 2 2 2 2 2 2 2 2 2 2 2 2 2 2 2 2 2 2 2 2 2 2 2 2 2
left_child=1 2 3 19 8 -6 44 9 -5 17 36 -12 13 15 21 34 29 18 -8 20 -1 22 -4 40 25 28 -27 -23 -9 -16 -18 -19 37 -25 -3 -21 -11 38 -14 -39 -15 -17 46 -44 47 -34 -26 48 49 -2 -49 -52
right_child=6 12 14 4 5 -7 7 24 -10 10 11 -13 32 23 16 41 30 31 -20 35 -22 27 -24 33 42 26 -28 -29 -30 -31 -32 -33 45 -35 -36 -37 -38 39 -40 -41 -42 -43 43 -45 -46 -47 -48 50 -50 -51 51 -53
leaf_value=0.15520922619447577 -0.13147613284177523 0.088512231973080432 0.16074812848128034 -0.04365588384790111 0.18357910796978616 0.095446150467442759 0.021257767452319283 0.073210272301174995 0.060148435198356769 0.19567680611046501 0.11467577038677519 0.014235808576180582 -0.026413469936796836 -0.043713383390346104 0.045625476612865583 0.053137792855179868 0.16744601199094822 0.059166544709908099 0.07203678498810738 0.13241835290484835 0.023762891211921627 0.045462563995908603 0.061222314025606905 0.04054234854497419 -0.1487451117468018 0.11232749205079595 0.19890742291542068 0.20057972932880569 0.13182497362222367 0.18207991344448657 0.10862884383923538 0.11162188938893235 0.2740569924988131 -0.067032279180272533 0.1484901725703508 0.20756222227027821 0.019911754266796824 0.065593497056913239 0.053696023775776459 -0.079139090573992057 0.13142650559853838 -0.047982621985485835 -0.04949446602944698 0.12427162248673801 0.21495706159878869 0.1306692042557035 -0.075291647189962868 -0.11755357203720457 -0.14921648523091632 -0.11877768900542401 -0.11139247720524677 -0.1079729430958839
leaf_weight=1429.7681454271078 40.605966955423355 887.22316495329142 7950.2406826764345 880.86399272084236 1877.6090905368328 28975.133549690247 8327.0028904676437 3381.0534586980939 7102.3856935203075 1139.7158911079168 2143.5522203743458 1942.1703327149153 797.03922198712826 47.731384664773941 1583.9069454371929 453.59094730019569 1352.1915486752987 3644.0728739723563 3897.7793312445283 494.35868509113789 485.29280224442482 663.34447391331196 435.16787704825401 1840.8681018799543 56.362445056438446 1613.1877440735698 785.61231775581837 194.56188501417637 1513.3076488226652 210.26677870750427 2888.3693767637014 1664.3809934780002 44.621004357933998 290.78299004584551 1879.7833045274019 1536.4003763198853 70.595649138092995 79.527308352291584 1231.0192533358932 357.70150848478079 544.06977222859859 174.30807477980852 41.051672175526619 41.469932228326797 5.3599657565355292 20.600748613476753 27.063037991523743 4.4801692292094222 5.4701863825321189 5.3106768280267707 12.522361017763613 323.14326586574316
leaf_count=1643 224 2288 12462 3511 2741 70916 39495 8757 20702 1599 4733 6367 3476 205 4667 1443 2019 15302 13903 740 1361 1750 1544 6246 256 3356 955 230 3052 264 6284 5683 31 1492 3547 1269 221 325 4218 1904 1137 932 156 94 8 39 106 37 25 40 139 4750
internal_value=0 0.10008 0.105776 0.0962279 0.0900968 0.10081 0.0681699 0.0704646 0.0486948 0.0594443 0.0940106 0.0669311 0.0618388 0.0813876 0.132513 0.109988 0.107831 0.0490032 0.0374483 0.156572 0.1219 0.148628 0.155583 0.0457361 0.104193 0.107565 0.140683 0.0806411 0.0913336 0.0616171 0.127384 0.0756131 0.014573 0.0258679 0.129259 0.18927 0.185425 0.00890629 0.0222125 -0.0528138 0.117301 0.0250662 -0.0439872 0.0378289 -0.106945 0.228767 -0.124917 -0.111352 -0.132052 -0.130007 -0.108225 -0.108101
internal_weight=0 66708.7 58059.9 42781.8 38836 30852.7 30685.3 30288.4 7983.25 22829.3 5296.03 4085.72 8648.87 6118.36 15278 3394.91 6034.73 17533.2 12224.8 3945.82 1915.06 9243.31 8385.41 2723.45 7459.11 7293.16 2398.8 857.906 4894.36 1794.17 4240.56 5308.45 2530.51 2131.65 2767.01 2030.76 1210.31 2465.29 2028.06 437.229 591.801 627.899 165.947 82.5216 396.893 65.2218 83.4255 391.533 51.3868 45.9166 340.146 335.666
internal_count=268644 159386 132103 102883 97870 73657 109258 104035 24213 87303 12920 11100 27283 17290 29220 8210 13234 74383 53398 5013 3004 15986 14006 9080 16732 16120 4311 1980 11809 4931 8303 20985 9993 7738 5835 2009 1820 9923 7694 2229 1342 2375 612 250 5223 70 362 5215 289 264 4926 4889
is_linear=0
shrinkage=0.1


Tree=7
num_leaves=59
num_cat=0
split_feature=105 120 104 134 114 133 129 33 11 56 48 107 109 117 72 32 127 26 53 116 75 127 117 105 71 119 125 33 52 0 119 112 91 0 82 44 72 101 46 126 119 112 36 112 1 123 74 110 108 59 37 114 110 106 118 33 106 66
split_gain=1726.66 1497.24 1513.54 1761.24 1731.07 1123.26 1058.94 943.029 847.52 740.458 717.675 628.692 409.341 636.896 400.728 620.643 454.74 375.509 288.587 282.24 262.085 239.332 208.083 203.874 191.938 186.31 181.509 224.587 192.475 172.255 167.662 136.306 134.13 130.093 123.12 114.255 96.2512 82.2063 78.9505 52.8707 46.3252 45.013 22.6414 25.5213 15.7828 12.4711 9.84058 5.71097 4.52468 4.52412 18.9928 4.29416 1.07796 0.716785 0.0922907 0.0407078 0.015416 0.012608
threshold=-0.78271058201789845 -1.720219552516937 -0.85824114084243763 1.0000000180025095e-35 -0.93367066979408253 1.0000000180025095e-35 1.0000000180025095e-35 0.8825090527534486 0.26628702878952032 1.0190577507019045 0.81313660740852367 -0.95372337102890004 -1.1244213581085203 -1.5649693608283994 -0.27304655313491816 0.83221167325973522 -3.492179155349731 1.4085556268692019 1.2022510766983034 -1.4207407832145689 -1.0818556547164915 -3.1603974103927608 -1.5766190886497495 -0.80516299605369557 -0.21994245797395703 -1.6380072832107542 -1.3139932155609129 0.95202726125717174 1.1962813138961794 -0.18138661980628965 -1.6473236083984373 -1.2925461530685423 -1.1538916230201719 0.45721887052059179 -1.2884075641632078 1.1822761297225954 -0.33348405361175532 -0.83034181594848622 1.2204021811485293 -2.9041695594787593 -1.6424823403358457 -1.2866230607032774 0.81843736767768871 -0.89849671721458424 -0.16582973301410672 -2.1956925392150874 -0.66733795404434193 -1.1800162792205808 -1.0288264751434324 0.93182235956192028 0.92071121931076061 -1.4243088960647581 -1.1681092381477354 -0.83520874381065358 -1.6012602448463438 0.70812582969665538 -0.83047959208488453 0.24001172184944156
decision_type=2 2 2 2 2 2 2 2 2 2 2 2 2 2 2 2 2 2 2 2 2 2 2 2 2 2 2 2 2 2 2 2 2 2 2 2 2 2 2 2 2 2 2 2 2 2 2 2 2 2 2 2 2 2 2 2 2 2
left_child=1 12 3 4 6 8 -3 19 25 -10 -6 -9 13 23 15 18 49 20 22 -7 -5 35 -2 38 -25 -4 27 28 -17 30 39 -32 -19 37 -29 -15 -23 -28 -1 -14 45 48 43 -20 -24 -31 -44 -42 51 53 55 -18 -50 54 -16 -51 -55 -35
right_child=14 2 5 17 10 7 -8 11 9 -11 -12 -13 29 21 16 26 41 32 42 -21 -22 36 44 24 -26 -27 33 34 -30 40 31 -33 -34 57 -36 -37 -38 -39 -40 -41 47 -43 46 -45 -46 -47 -48 -49 52 50 -52 -53 -54 56 -56 -57 -58 -59
leaf_value=0.16845352080091058 0.19614266839069494 0.097323834911441906 0.038588886276299916 0.18711135084896391 -0.10785915268103925 0.25973673300669192 -0.011317619055963074 0.11056325119519428 0.068985623045154557 0.13399205703121092 0.041956345764530112 -0.021945314030414543 0.14579028302975591 -0.12799523167841587 -0.14570052527283739 -0.0095158286836535023 0.19585965117209753 0.27211517494589194 -0.13128834488709662 -0.084686269844371734 0.11662372560057928 0.14748978521872377 -0.11967283033702976 -0.13055952832510442 0.14976583640789562 -0.096240399363101095 -0.074088356208610012 0.10968592904556836 0.158267492633861 0.21304704857575413 -0.092686324217043203 0.15050911302808639 -0.13929991390103194 -0.12959824994667299 -0.081179732464320961 0.0034569550798935929 0.015658422443369173 0.20202844323953331 0.11807123973911192 0.19153610399614984 0.22811706554938069 0.32702952913758354 0.10551092843914417 0.19945007415573715 -0.084213901421677631 0.14703279415335593 0.21207556796689928 0.27907458507888888 0.1952552687358533 -0.12830648371959583 0.23688916961190287 0.13558754467792525 0.21751990940589719 -0.11981125451876205 -0.12823269508578891 -0.11184510987569399 -0.11262970851032135 -0.13525635317038306
leaf_weight=1089.4698393940926 22.81291176378727 34672.938959829509 142.48694238066673 2286.1709274053574 343.33817747235298 24.405940160155296 921.01495940238237 801.42234092950821 44700.773206733167 1823.7041936293244 4654.6873347759247 647.21386138349771 481.81472897529602 100.61870501935482 9.4518473744392377 1469.6729788780212 23.488329485058784 9.323601230978964 5.5209423825144768 946.04273509979248 685.7086184322834 137.91360466182232 509.02746092528105 50.460497841238976 47.339287996292114 365.07177866995335 12.041280239820479 300.58948437869549 71.707728728652 334.3111385256052 46.091865882277489 46.09400837123394 52.803788855671883 7.3798110634088507 38.077694095671177 192.85622298717499 92.545573070645332 103.14405338466167 435.29971647262573 531.17484724521637 26.089624613523483 29.275027826428413 12.489667639136309 4.0406451523303968 166.61181899905205 31.296441614627838 28.301555879414085 140.08149725198746 58.705017611384392 2.0627989917993528 1.9043117165565489 23.796717807650566 34.539982005953789 3.2970968335866884 4.448129102587699 5.5283565744757652 31.994634449481968 8.4449872672557813
leaf_count=928 21 74426 390 2215 2161 27 4146 1810 133094 4011 15403 2148 531 426 44 8443 16 7 35 4060 1122 184 3938 184 49 1606 65 815 168 208 193 77 232 44 195 573 240 188 551 338 31 33 27 15 2461 37 34 94 40 12 15 30 25 24 26 59 325 44
internal_value=0 0.0811976 0.0786909 0.0922675 0.0867743 0.0667136 0.0945127 0.000259122 0.0701317 0.0715338 0.0316648 0.0513618 0.142864 0.11414 0.00402111 -0.00651549 0.131288 0.165761 -0.0842306 -0.0760243 0.170848 0.0182808 -0.100899 0.145093 0.00512996 -0.0583898 0.0224212 0.0144907 -0.00171025 0.18053 0.158028 0.0289142 -0.0775579 0.136228 0.0882261 -0.0416118 0.0945502 0.173164 0.15407 0.169778 0.227294 0.214224 0.146982 0.00847888 -0.110929 0.207396 0.179447 0.271074 0.190725 -0.108678 -0.0454827 0.165527 0.203503 -0.120876 -0.140111 -0.116318 -0.113301 -0.132618
internal_weight=0 96860.6 93077.1 43626 40592 49451.1 35594 2419.08 47032 46524.5 4998.03 1448.64 3783.46 2146.5 2988.36 2759.86 228.492 3034.01 748.805 970.449 2971.88 523.934 698.452 1622.57 97.7998 507.559 2011.06 1880.05 1541.38 1636.95 1105.18 92.1859 62.1274 131.01 338.667 293.475 230.459 115.185 1524.77 1012.99 531.779 169.805 50.3528 9.56159 675.639 365.608 40.7912 166.171 140.53 58.6872 9.49547 47.285 93.245 49.1917 13.9 7.59116 35.2917 15.8248
internal_count=268644 251502 246858 99712 96136 147146 78572 8045 139101 137105 17564 3958 4644 3135 17142 16493 649 3576 6531 4087 3337 1423 6420 1712 233 1996 9962 9621 8611 1509 1139 270 239 341 1010 999 424 253 1479 869 370 144 111 50 6399 245 61 125 111 505 86 46 65 419 70 71 349 88
is_linear=0
shrinkage=0.1


Tree=8
num_leaves=55
num_cat=0
split_feature=107 130 131 128 76 114 52 134 83 78 109 81 109 81 108 130 41 39 136 112 83 79 109 110 79 108 81 130 34 74 76 2 37 31 75 83 102 28 75 101 54 72 80 76 27 115 120 113 55 106 115 106 25 106
split_gain=1504.41 1132.08 1006.96 1112.08 964.498 944.433 716.757 631.159 389.715 325.706 318.891 316.08 743.367 391.799 359.823 298.58 274.411 272.809 255.67 378.635 324.564 248.834 358.452 295.313 446.141 247.229 216.099 213.355 208.431 151.568 150.581 129.693 469.032 133.049 127.634 122.503 116.431 145.073 140.951 114.175 113.501 91.5308 65.3593 53.1016 50.8882 47.7116 31.5954 16.3702 10.0833 3.01425 0.51935 0.246326 0.0449133 0.020041
threshold=-0.84368211030960072 1.0000000180025095e-35 1.0000000180025095e-35 1.0000000180025095e-35 -1.1882542967796323 -0.9353993535041808 0.78126275539398204 1.0000000180025095e-35 -1.3321284651756284 -1.2353365421295164 -0.87565517425537098 -1.3709926605224607 -0.85769769549369801 -1.3959913849830625 -0.8201288878917693 1.0000000180025095e-35 1.0852957367897036 1.0249707102775576 1.0000000180025095e-35 -0.93274405598640431 -1.3246238827705381 -1.3189015388488767 -0.87934166193008412 -0.9079337716102599 -1.2532612681388853 -0.87369629740715016 -1.3670370578765867 1.0000000180025095e-35 0.91542717814445507 -0.95712098479270924 -1.2182196378707884 0.54044258594512951 0.89188703894615184 0.97200044989585888 -1.1101167798042295 -1.3686210513114927 -0.78595447540283192 1.1562373042106631 -1.0231704115867613 -0.77184626460075367 1.0407582521438601 -0.49460449814796442 -1.359428822994232 -1.1453952789306638 1.1723737120628359 -1.020393908023834 -1.0887739062309263 -1.1362540721893308 1.0370476841926577 -0.83372259140014637 -0.91097199916839589 -0.86078092455863942 1.4924876093864443 -0.82787826657295216
decision_type=2 2 2 2 2 2 2 2 2 2 2 2 2 2 2 2 2 2 2 2 2 2 2 2 2 2 2 2 2 2 2 2 2 2 2 2 2 2 2 2 2 2 2 2 2 2 2 2 2 2 2 2 2 2
left_child=1 2 3 4 7 -6 47 -1 10 17 -5 12 28 14 -14 -15 31 36 19 20 -13 22 30 24 -23 -10 -24 -21 35 -30 -4 33 -33 -11 -25 -8 37 -3 -38 44 42 -41 -20 48 -18 -45 -42 -2 -19 50 -49 -52 53 -51
right_child=6 9 21 8 5 -7 11 -9 25 16 -12 18 13 15 -16 -17 39 43 40 27 -22 23 26 34 -26 -27 -28 -29 29 -31 -32 32 -34 -35 -36 -37 38 -39 -40 41 46 -43 -44 45 -46 -47 -48 49 -50 52 51 -53 -54 -55
leaf_value=0.092871864253609146 0.20390746001078655 0.086946131933592838 0.28043230232811867 0.15082126384063002 0.080148838562517158 0.020921824958871266 0.086863124117518425 0.15465481966928307 0.016042727105673962 0.056066635361931232 0.0081684161240032915 0.078915912992239309 0.075156861628724037 -0.045516707693812726 0.014610634319512754 0.060740447948645894 0.10100255162497195 0.30994252482675222 -0.081448665053728983 -0.068962367243572312 -0.0094309601446245766 0.080335346354773657 0.12775134654965287 0.00035381015540707943 0.0040660764870356497 -0.074639794522644007 0.016733785101154919 0.029245069173400792 0.20912832568000797 0.1181738435149927 0.12284290503397294 -0.01700660856700013 0.29383675974710688 -0.039844285078993354 -0.075020592660128893 -0.055965733745339086 -0.092771414485520731 0.032139078724814217 0.27272912698303381 0.062529453187631576 0.14020301654515518 -0.10548145253878079 0.20892837653075658 0.17491860694070183 0.23600922563181884 0.039969851104343021 -0.11092959273982413 -0.16024601806561689 0.20660726955443831 -0.11324838610625586 -0.14096230098022772 -0.12486913504160385 -0.12218317827582362 -0.10669904628597458
leaf_weight=4268.6658415272832 1.6579703092575062 655.27620853483677 89.756997838616371 372.47994047403336 68678.655861787498 2802.2030249685049 333.83435817062855 2698.9393220990896 2214.81462816149 161.92862117290497 270.50879961252213 809.93043324351311 2254.3259067684412 911.89371947944164 1738.5281044952571 372.46651772409678 65.148826435208321 25.081190764904022 8.3823270350694639 802.49057271704078 854.59706281125546 1375.2293098047376 233.58738695085049 692.80781770497561 1734.0147429853678 347.86306864768267 703.07892929017544 305.40124648436904 275.62451820075512 546.45522191375494 186.87239413708448 264.0239407196641 59.477398917078972 1354.3520287126303 332.46417431533337 73.221495404839516 104.46344223618507 1836.6401729360223 11.736351653933523 244.96930745244026 6.7851289659738567 37.372876524925232 102.99162169918418 102.53482545167208 48.85699437558651 35.190853133797646 19.146510250866413 5.9166106581687918 15.144789740443228 4.7517059445381156 12.719537407159804 37.704743593931198 1.9128581359982479 279.33863415196538
leaf_count=9121 1 2446 120 765 151372 8721 982 3231 7636 645 880 2764 8103 4450 7764 1342 159 30 31 4360 4160 4279 646 3013 6816 1575 2733 1316 676 1818 507 1299 140 7860 1440 337 639 7572 38 824 14 176 119 210 86 114 91 26 28 47 63 240 14 4805
internal_value=0 0.0735117 0.0761765 0.0789297 0.0812888 0.077827 0.0322216 0.116804 0.0211983 0.0273475 0.0908064 0.0374013 0.0496537 0.0333408 0.0487944 -0.014702 -0.00107836 0.0501624 0.0100041 0.00340733 0.0335571 0.0341386 0.073958 0.0224533 0.0378002 0.0037333 0.0444195 -0.0418905 0.119692 0.148669 0.173975 -0.0173379 0.0401436 -0.0296016 -0.0240878 0.061171 0.0419887 0.0465512 -0.0558553 0.0743956 0.143203 0.0402903 0.187074 0.169959 0.158859 0.140437 -0.0452196 -0.109558 0.271038 -0.111076 -0.132217 -0.128929 -0.106911 -0.106809
internal_weight=0 92024.1 87001.9 81654.1 78448.5 71480.9 9760.08 6967.61 3205.67 5022.2 642.989 9416.07 6506.35 5277.21 3992.85 1284.36 2236.13 2786.07 2909.72 2772.42 1664.53 5347.81 1213.3 4134.52 3109.24 2562.68 936.666 1107.89 1229.14 822.08 276.629 1839.78 323.501 1516.28 1025.27 407.056 2608.12 2491.92 116.2 396.348 137.306 282.342 111.374 177.952 114.006 137.726 25.9316 344.002 40.226 342.344 56.3409 50.4243 286.003 284.09
internal_count=268644 225121 202855 183301 172445 160093 43523 12352 10856 22266 1645 38327 25472 21659 15867 5792 11189 11077 12855 12600 6924 19554 4006 15548 11095 9211 3379 5676 3813 2494 627 9944 1439 8505 4453 1319 10695 10018 677 1245 255 1000 150 382 245 324 105 5196 58 5195 329 303 4866 4852
is_linear=0
shrinkage=0.1


Tree=9
num_leaves=59
num_cat=0
split_feature=106 30 129 103 119 30 1 105 136 45 52 3 116 134 30 134 124 92 97 59 32 110 102 30 1 122 78 51 106 105 56 34 69 75 104 123 127 127 124 46 135 69 0 82 111 32 105 30 117 109 88 21 119 93 51 2 111 118
split_gain=1314.96 1074.58 977.953 991.721 1466 865.527 863.987 729.708 589.627 658.819 582.248 531.019 477.472 471.363 416.216 373.313 424.246 366.553 357.133 339.454 322.434 319.011 290.649 330.217 260.474 381.574 233.926 228.236 221.597 182.92 174.748 160.432 185.608 145.013 134.735 131.057 127.385 119.81 119.691 111.794 116.802 101.69 96.4961 86.208 102.747 65.5289 57.579 49.315 29.7325 186.041 23.4889 18.6011 13.7907 57.1998 13.2782 7.34 2.13252 0.132502
threshold=-0.86078092455863942 1.0864090323448183 1.0000000180025095e-35 -0.85435920953750599 -1.6424823403358457 1.0724937319755556 -0.11145834624767302 -0.76616379618644703 1.0000000180025095e-35 1.1575795412063601 1.0270291566848757 0.5933787226676942 -0.96176046133041371 1.0000000180025095e-35 1.0575981140136721 1.0000000180025095e-35 -1.5766851902008054 -1.180040121078491 -1.027261435985565 0.83254161477088939 0.96249040961265575 -1.1970225572586057 -0.88162851333618153 1.1032654047012331 0.59992513060569774 -1.0797392129898069 -1.1853978037834165 1.2127665877342226 -0.87995299696922291 -0.93626776337623585 0.97893929481506359 0.83132758736610424 0.086011782288551344 -1.1894580125808714 -0.92830592393875111 -1.0386469364166258 -1.9719572663307188 -3.3573768138885494 -1.6871667504310606 1.1152395606040957 1.0000000180025095e-35 -0.12993331998586652 0.59700798988342296 -1.2399395108222959 -0.95707106590270985 0.94440028071403515 -0.84998914599418629 1.0887742638587954 -1.5430002212524412 -1.0788345932960508 -0.26766660809516901 1.6706159710884096 -1.6524255871772764 -0.34353826940059656 1.1794759631156924 0.5727076828479768 -0.84047743678092945 -1.6012602448463438
decision_type=2 2 2 2 2 2 2 2 2 2 2 2 2 2 2 2 2 2 2 2 2 2 2 2 2 2 2 2 2 2 2 2 2 2 2 2 2 2 2 2 2 2 2 2 2 2 2 2 2 2 2 2 2 2 2 2 2 2
left_child=1 2 3 5 21 13 -6 8 9 11 -7 14 22 -1 -2 16 -11 55 -13 20 -19 -5 23 29 35 42 -27 31 43 -3 46 48 33 -33 -25 47 -21 50 -32 40 -24 -17 -26 44 -4 -45 -30 -14 49 -9 -29 -50 -39 -54 -34 -10 -57 -52
right_child=7 12 28 4 6 10 -8 27 17 15 -12 18 24 -15 -16 41 -18 19 -20 36 -22 -23 39 34 25 26 -28 37 30 -31 38 32 54 -35 -36 -37 -38 52 -40 -41 -42 -43 -44 45 -46 -47 -48 -49 51 -51 57 -53 53 -55 -56 56 -58 -59
leaf_value=0.095924089062677742 0.033717918103938947 0.098676378903295281 0.11559778522119551 0.090112402397618419 -0.069065969896209459 0.078638899823952099 0.056720248479304174 -0.1006023577586198 0.021294331755156857 0.025427538680277917 0.026141510133232217 -0.10227023096553822 -0.033472562515240604 0.14769621363863453 -0.0061156319651923009 -0.045646369020483357 0.10545270046917837 0.068215504151637171 0.07579792423379686 -0.045044878671343373 0.11802151864819591 0.14697042084533718 -0.095155430954792938 0.0075795403921559042 0.071566250454654368 0.017677133603676651 -0.063986855939771242 0.11855893594227365 0.012398938262580331 0.05225908453012465 -0.10351181683237445 0.17044010135788135 0.20938251323611903 -0.048134457115093815 -0.12729326716605885 0.30800244537809046 0.046025641684430615 0.21172325555695598 0.15600228550783279 0.24498995831885254 0.032144825946784576 0.16748994720411436 0.20006369129988211 -0.11659894650721847 -0.052371916033596144 -0.038655410878709523 -0.080952594861274568 -0.10163917578533679 -0.11256375885848641 0.55783660286497383 -0.13857254307490646 0.17054293321907571 0.14519467794531851 -0.130232994747566 0.096282931795880766 -0.14727494094286903 -0.11308472125655795 -0.12149086253331061
leaf_weight=16777.682828813791 13837.136386282742 1399.8770287334919 54.86089788377285 1918.9031888395548 557.62114751338959 9927.2517838776112 26339.54641918838 34.739740252494812 3.7409723550081244 1281.6496862545609 2683.8383661136031 116.67543718591332 169.23698075115681 1964.4997268468142 3236.7315030843019 23.405116707086563 1371.2456924244761 5584.2458228245378 3249.2080452814698 294.38318315148354 1694.1331842392683 2031.4454700499773 201.67473011463881 341.70957809686661 119.17057587206364 1597.3281064257026 449.46669002622366 4.6556746065616634 434.0184953212738 2157.3814490661025 20.577379405498505 32.280124053359032 31.50478607416153 508.56701261550188 94.566129602491856 9.0546784326434118 321.14049260318279 19.614409551024437 130.36376532912254 13.427668020129202 112.16159699857235 513.8074209690094 114.68129153549671 237.06855852901936 108.32290221750736 197.90900135040283 77.937339678406715 284.60985296219587 346.53906239196658 4.8959681391715995 5.8640179112553623 2.3364500999450675 79.113809145987034 8.3344738483428937 15.481433898210524 24.102991729974747 75.031813152134418 20.128958605229855
leaf_count=30339 51894 2632 156 3003 2362 19829 65061 197 11 4882 7594 1173 648 2042 12184 67 3904 12003 8297 973 2791 2009 926 1161 290 5616 2178 11 1597 6033 102 51 21 3107 543 18 830 13 291 17 292 506 142 1241 464 865 342 1593 4765 8 30 26 155 55 40 112 996 156
internal_value=0 0.0693111 0.0734295 0.075197 0.062467 0.0877217 0.0541125 0.0450608 0.0478627 0.0399196 0.0674666 0.0333231 0.0323143 0.101351 0.0261666 0.0821853 0.0667915 0.0713339 0.0696253 0.073778 0.0798085 0.119351 0.0530306 0.0604552 -0.000311665 0.01357 -0.000255902 -0.0344825 -0.0137538 0.0705255 0.0260662 -0.0514815 -0.0185267 -0.035089 -0.0216552 -0.0687046 0.00246984 0.0860365 0.120623 -0.0375702 -0.0496597 0.158204 0.134582 -0.0578832 0.00409796 -0.0811357 -0.00181239 -0.0762202 -0.101343 -0.0192692 -0.0882944 -0.110668 0.135942 0.118944 0.172117 -0.116209 -0.121398 -0.125344
internal_weight=0 70526.2 63461.8 62200.8 30847.5 31353.3 26897.2 32740.7 31626.6 23629.9 12611.1 20439.8 7064.35 18742.2 17073.9 3190.11 2652.9 7996.78 3365.88 7893.9 7278.38 3950.35 4320.8 3993.53 2743.55 2280.65 2046.79 1114.06 1261.06 3557.26 662.897 976.345 587.833 540.847 436.276 462.902 615.524 137.711 150.941 327.264 313.836 537.213 233.852 598.161 163.184 434.978 511.956 453.847 388.511 39.6357 30.6487 348.876 107.063 87.4483 46.9862 102.876 99.1348 25.993
internal_count=268644 159386 137297 132239 72435 59804 67423 109258 100623 82907 27423 73548 22089 32381 64078 9359 8786 17716 9470 16597 14794 5012 11604 10369 10485 8226 7794 8635 5058 8665 2332 8215 3219 3158 1704 2259 1803 420 393 1235 1218 573 432 2726 620 2106 1939 2241 4996 205 197 4791 223 210 61 1119 1108 186
is_linear=0
shrinkage=0.1


Tree=10
num_leaves=55
num_cat=0
split_feature=118 103 1 122 31 29 132 129 133 40 52 40 55 110 29 52 133 106 127 78 120 91 93 51 92 57 115 74 120 59 120 73 105 111 127 71 27 46 69 3 73 29 119 71 38 111 116 107 104 121 76 118 114 87
split_gain=1110.84 1316.62 1082.7 1168.43 871.774 806.911 1065.24 736.125 693.19 658.878 626.867 626.145 579.4 411.194 374.208 334.542 326.865 321.931 269.689 240.661 358.47 265.366 228.694 189.484 145.719 145.625 122.755 114.578 102.831 224.513 98.0911 91.2814 89.5485 87.195 66.4892 253.706 64.4184 63.2283 56.3823 51.6905 50.4389 39.1699 37.8321 29.5083 25.0199 21.7457 21.1396 16.7971 10.514 10.0963 3.82878 2.6995 2.04793 1.51849
threshold=-1.5944888591766355 -0.81683698296546925 -0.16582973301410672 -2.012405157089233 1.0081344246864321 1.2115787863731386 1.0000000180025095e-35 1.0000000180025095e-35 1.0000000180025095e-35 1.0282163023948672 0.78126275539398204 1.0203803777694704 1.0702423453330996 -1.1875120997428892 1.2353809475898745 1.1453118920326235 1.0000000180025095e-35 -0.87995299696922291 -1.7381604313850401 -0.46617977321147913 -1.742393374443054 -0.29602284729480738 -0.34353826940059656 0.98329663276672374 -0.16237801313400266 0.95832192897796642 -1.488039970397949 -1.0090664029121397 -1.7311165332794187 0.85955962538719188 -1.2683005332946775 -0.39589755237102503 -0.80792468786239613 -1.2479782104492185 -3.2311171293258663 -0.21994245797395703 1.1849960684776308 1.1842454075813296 0.086011782288551344 -0.054110698401927941 -0.44572243094444269 0.86408129334449779 -1.6775693893432615 -0.30041109025478357 0.99236214160919201 -1.2638601660728452 -1.5216078162193296 -0.90562078356742848 -0.8424926996231078 -1.8213190436363218 -0.51782763004302967 -1.6012602448463438 -1.4126590490341184 -0.30173376202583307
decision_type=2 2 2 2 2 2 2 2 2 2 2 2 2 2 2 2 2 2 2 2 2 2 2 2 2 2 2 2 2 2 2 2 2 2 2 2 2 2 2 2 2 2 2 2 2 2 2 2 2 2 2 2 2 2
left_child=19 4 22 13 5 7 14 10 12 -10 -2 16 -5 37 -7 -15 18 -9 -6 45 24 28 40 -18 34 44 -26 -8 31 -30 48 -22 39 -27 35 -21 -32 -4 -34 -24 43 -42 -36 -3 -23 46 -1 -28 -13 52 51 -51 53 -47
right_child=1 2 3 8 11 6 27 17 9 -11 -12 30 -14 15 -16 -17 23 -19 -20 20 21 25 32 -25 26 33 47 -29 29 -31 36 -33 38 -35 42 -37 -38 -39 -40 -41 41 -43 -44 -45 -46 49 -48 -49 -50 50 -52 -53 -54 -55
leaf_value=0.16996199836441078 -0.096036547667684519 0.0098903821979570462 0.10997576747597958 0.036215524956799722 -0.035521302327358242 0.013099208527590176 -0.032447507906292999 -0.067611161497562189 -0.065174036311882663 0.061488412112612127 0.069333368338834009 0.18193746851950476 0.10084433382737279 0.19226849655518902 -0.074556658906801396 -0.09972993381887453 -0.12700855455997936 0.028728583023669936 0.018518717230451291 -0.086425241367669589 0.14488764016428332 0.031377553903067422 0.092948435021781475 0.08059368661462965 0.18149460034726239 -0.11622206576941324 -0.13530109201743901 0.17588126840898 0.14925719025673939 -0.054146718544310739 -0.039888327406275119 0.043192816283038338 -0.12151419760395331 0.094221082493822966 0.15648318109114318 0.12154519620315928 0.11280492930155168 -0.13187239012255653 -0.030194644474569033 -0.15165415413122213 0.21714721762887002 -0.10378076186234486 0.11738199713016172 0.19748304847781367 0.20151462831651076 0.1648893544433051 0.0013648449508066778 0.11875073699884545 0.25813551999837825 0.17809591510462114 0.16307717637305397 0.21063654422516984 0.18281011967769933 0.14143053637668854
leaf_weight=15.135948061943056 230.13094009459019 11.061009004712103 13.577786877751349 26510.357600435615 1322.9608548358083 2294.6014860793948 28.234675049781799 463.89831858873367 1246.9647828936577 612.36707098782063 58251.312332980335 158.89814247190952 1463.74985717237 724.8538835644722 618.24608338624239 41.481834046542645 46.45898999273777 1374.800515756011 3058.4031956344843 63.493261963129044 248.32347056269646 14.641348406672476 35.294736549258232 819.08328033983707 19.599951982498169 154.74856118857861 41.308245904743671 406.26765218377113 88.22705040872097 140.97345085442066 30.692135035991669 136.93732929229736 554.5212192311883 22.559168040752411 725.29851332306862 770.2620560079813 276.86863777041435 53.030206233263016 76.998824328184128 11.439742371439932 4.8932849168777492 17.070028156042099 375.58149245381355 34.661676093935966 21.099417597055435 284.88981711864471 14.620909467339514 2.777481220662593 20.437524706125259 33.937241315841675 29.990849450230598 102.46568819880486 59.736018896102905 30.55226044356823
leaf_count=11 2737 35 23 85207 5085 7050 85 2261 4811 1466 124186 162 3116 583 2906 186 201 5181 10992 207 205 33 93 1574 12 546 247 366 105 422 115 266 4321 35 515 870 614 228 556 53 3 80 400 50 14 188 37 18 15 21 26 63 37 25
internal_value=0 0.05302 0.0360335 0.038929 0.0607084 0.0640718 0.0162821 0.0667238 0.0356674 -0.023458 0.0686826 0.0233614 0.0395972 0.155748 -0.00550557 0.176463 0.0132948 0.00442235 0.00220123 0.111159 0.0991908 0.0438431 -0.0830038 0.0694504 0.12211 -0.052328 -0.026724 0.162344 0.0771879 0.0241503 0.131841 0.108741 -0.100495 -0.089447 0.12701 0.105708 0.0975673 -0.0825726 -0.11038 0.0330742 0.0922719 -0.0322801 0.143143 0.152102 0.131817 0.170352 0.0871225 -0.119295 0.190621 0.174925 0.195428 0.20254 0.165832 0.162617
internal_weight=0 100814 31412.3 30666.4 69401.3 63667.5 3347.35 60320.1 29833.4 1859.33 58481.4 5733.8 27974.1 832.944 2912.85 766.336 5246.91 1838.7 4381.36 3397.16 2825.83 827.51 745.941 865.542 1998.32 213.048 63.6857 434.502 614.461 229.201 486.896 385.261 678.255 177.308 1934.64 833.755 307.561 66.608 631.52 46.7345 67.686 21.9633 1100.88 45.7227 35.7408 571.329 29.7569 44.0857 179.336 541.572 166.394 136.403 375.178 315.442
internal_count=268644 264341 100811 95620 163530 144772 10407 134365 94600 6277 126923 18758 88323 1020 9956 769 17852 7442 16077 4303 3895 1626 5191 1775 2269 628 277 451 998 527 906 471 5023 581 1992 1077 729 251 4877 146 168 83 915 85 47 408 48 265 177 360 110 84 250 213
is_linear=0
shrinkage=0.1


Tree=11
num_leaves=60
num_cat=0
split_feature=106 30 10 119 127 118 36 136 105 134 31 76 35 69 80 126 37 131 30 32 32 28 132 129 4 72 115 30 107 34 59 135 110 110 107 79 71 118 12 99 104 58 42 30 74 73 30 103 116 101 71 5 31 106 71 52 30 106 107
split_gain=986.403 823.52 936.57 920.066 1005.46 967.973 616.037 552.055 539.185 422.308 875.092 643.211 444.08 509.636 455.128 412.255 429.053 386.684 382.523 372.483 348.274 339.404 350.99 321.083 304.322 498.172 285.061 281.007 278.285 284.372 287.665 271.577 268.531 496.409 245.122 196.743 253.405 199.684 189.316 188.953 179.023 161.828 404.573 293.354 139.092 131.222 126.052 123.657 85.6404 82.4301 97.5965 78.4803 50.7909 43.3244 22.2863 4.05369 1.9052 0.260657 0.0516424
threshold=-0.86078092455863942 1.0818392634391787 0.77829912304878246 -1.6424823403358457 -2.4625502824783321 -1.3439464569091795 0.84702116250991832 1.0000000180025095e-35 -0.93302959203720082 1.0000000180025095e-35 0.99699902534484874 -1.1873129010200498 0.94297379255294811 -0.05727479234337806 -1.2993031740188596 -1.8585446476936338 0.99985662102699291 1.0000000180025095e-35 1.0957457423210146 0.95226809382438671 0.94109946489334118 1.328389644622803 1.0000000180025095e-35 1.0000000180025095e-35 0.65917417407035839 -0.78072446584701527 -0.88749203085899342 1.1107046604156496 -0.86248418688774098 0.91259509325027477 0.82924571633338939 1.0000000180025095e-35 -1.200731039047241 -1.2181621193885801 -0.86719524860382069 -0.96265655755996693 -0.57962185144424427 -1.2048908472061155 0.25574466586112982 -0.93890723586082447 -0.75273624062538136 0.84186461567878734 1.0209002494812014 1.0569354891777041 -0.90488421916961659 -0.93274202942848194 1.0640724897384646 -0.8220326006412505 -0.9306240677833556 -0.87528714537620533 -0.55994409322738636 0.75488319993019115 1.0064199566841128 -0.98688593506813038 -0.59474968910217274 1.050370514392853 1.0516500473022463 -0.83520874381065358 -0.83388245105743397
decision_type=2 2 2 2 2 2 2 2 2 2 2 2 2 2 2 2 2 2 2 2 2 2 2 2 2 2 2 2 2 2 2 2 2 2 2 2 2 2 2 2 2 2 2 2 2 2 2 2 2 2 2 2 2 2 2 2 2 2 2
left_child=1 2 3 32 6 -6 -5 9 27 12 19 20 13 14 -2 16 -14 21 24 46 -12 23 -23 -4 39 -26 28 35 29 47 -31 -15 33 -1 -13 37 -37 -3 -34 -10 -17 42 -30 -43 -21 51 -11 -9 -47 50 -19 -20 -51 -29 -55 56 57 -28 -58
right_child=7 8 17 4 5 -7 -8 26 18 10 11 34 15 31 -16 40 -18 49 45 44 -22 22 -24 -25 25 -27 55 53 41 30 -32 -33 38 -35 -36 36 -38 -39 -40 -41 -42 43 -44 -45 -46 48 -48 -49 -50 52 -52 -53 -54 54 -56 -57 58 -59 -60
leaf_value=0.12105503030064083 0.030156909761223372 0.16530422692764069 0.093140122969262773 -0.10905874252686154 0.12874709243523835 0.052879732795147107 0.024629315179316637 0.02086411971270645 -0.074611803616414438 0.12584252647937486 -0.10001970016999984 0.0087897949123603002 -0.046522785517052224 -0.035488165072316433 -0.014756554644420827 0.089996328901094547 0.081517102760438206 0.024755516214514162 -0.070115210217138541 0.095696479815958566 0.11598155538853548 0.016060401256492066 0.13543875022599053 -0.051813716664224421 -0.0020668359638288361 0.06650779916102012 -0.11843780532047113 0.1248587730923563 0.067132711587303023 0.084708132674616785 0.0024368112196700171 0.15947603759010234 0.047864722106591651 0.0080665034553273392 -0.079698161166336531 -0.11660937010051649 0.069186450240492581 0.075628913555910199 0.13357582729122383 0.0092296719460251541 -0.0034317507716632371 0.070136057194452289 0.15927702713900832 -0.044166979618491073 -0.031537408273481879 -0.035107924552293938 -0.02086928322023018 -0.047992304628227671 -0.11284084280851021 0.012124592307759773 -0.074852881267186103 0.075412864722940939 0.26985456063248442 -0.10715106527187612 0.10480753139015722 -0.035674419541295889 -0.14688645917973761 -0.10560733607218427 -0.1363994226266847
leaf_weight=832.91213209927082 11257.532334070653 284.03791133314371 12425.734050869942 358.94762967526913 1778.9814504086971 30759.195564717054 8674.1790245696902 1110.7737988978624 305.65333976596594 1722.6810480430722 82.413753718137741 2335.8570394665003 656.76371475309134 2257.9154631011188 2821.7467749454081 1914.4287062734365 435.08361137658358 722.7160746306181 48.891732633113861 130.62570907175541 792.02042785286903 1182.1315138041973 311.10454036295414 154.71467649936676 1640.38380625844 2991.0220329463482 25.872315943241119 9.5388327389955503 1569.5267538577318 1545.3491498678923 586.22543539106846 73.781548209488392 296.85491365194321 729.31885524094105 361.49712789058685 113.85506662726402 206.63768444955349 1974.1583909988403 1953.7334240227938 2229.6958785429597 229.70306677371264 1959.1491687446833 684.22115257382393 253.59435042738914 251.0515001565218 853.87401190400124 60.623202413320541 340.84569518268108 169.94008748233318 12.233293056488035 113.86264289915562 153.08566810190678 20.392890259623528 105.87883924692869 5.2044560760259619 6.2189726009964934 16.54279358685017 40.808220345526934 6.5568965375423423
leaf_count=867 41407 287 19391 1664 2257 69184 23538 2629 1362 2502 263 6505 3198 12461 13569 5482 1179 2376 333 281 1153 2918 342 672 5404 6709 198 20 3022 2831 1649 88 602 1692 1271 435 384 3932 1852 6534 1145 3970 701 738 798 3875 148 1064 1039 38 480 595 17 574 13 32 77 863 34
internal_value=0 0.0556906 0.060295 0.0531455 0.0488334 0.0570277 0.019317 0.0348987 0.0306477 0.0276298 0.0514997 0.0210925 0.02066 0.0139839 0.0211554 0.0545169 0.00449905 0.0820095 0.0181438 0.101666 0.0956238 0.0860073 0.040932 0.0913575 0.0269731 0.0422196 0.0575499 0.0695242 0.0595928 0.0388339 0.0620819 -0.0293189 0.10016 0.068307 -0.00306929 0.0765025 0.00318248 0.0869084 0.12227 -0.00087798 0.0799873 0.0762464 0.095107 0.0570362 0.0120073 -0.0334782 0.120855 0.00469637 -0.0480106 0.0172798 0.0111983 0.0401856 0.173218 -0.0796583 -0.0972204 -0.113751 -0.11916 -0.110586 -0.14391
internal_weight=0 71418.9 60327 45384.1 41571.3 32538.2 9033.13 33529.4 11091.9 25383.7 5736.77 3571.79 19647 16411 14079.3 3235.98 1091.85 14942.9 8392.55 2164.98 874.434 14073.7 1493.24 12580.4 7166.76 4631.41 8145.68 2699.31 8049.69 3583.19 2131.57 2331.7 3812.82 1562.23 2697.35 2578.69 320.493 2258.2 2250.59 2535.35 2144.13 4466.49 2253.75 2212.74 381.677 1225.79 1783.3 1451.62 1023.81 869.205 836.579 201.977 32.6262 120.622 111.083 95.9992 89.7802 66.6805 23.0997
internal_count=268644 159386 127890 101656 96643 71441 25202 109258 31496 91450 12921 9192 78529 67525 54976 11004 4377 26234 25851 3729 1416 23323 3260 20063 20009 12113 17808 5645 16604 8173 4480 12549 5013 2559 7776 5038 819 4219 2454 7896 6627 8431 3723 4708 1079 5842 2650 3693 4914 2911 2856 928 55 607 587 1204 1172 1061 111
is_linear=0
shrinkage=0.1


Tree=12
num_leaves=52
num_cat=0
split_feature=118 9 106 134 32 122 5 133 56 33 78 126 110 32 40 110 49 122 90 81 105 110 53 71 0 126 120 111 119 71 54 104 80 87 40 105 115 1 107 69 110 124 36 135 106 87 36 51 90 106 106
split_gain=899.357 1014.92 888.4 1101.99 1097.47 870.86 873.107 569.195 506.32 456.844 444.75 438.702 326.27 292.131 244.809 205.142 417.243 305.956 166.698 163.544 145.579 139.909 311.802 129.336 194.74 100.282 308.976 211.945 96.5652 91.276 81.3213 117.836 72.5005 71.4376 71.0469 69.5869 68.5499 67.7704 54.4816 37.1375 36.7141 29.4727 18.2226 14.6697 12.688 12.5046 10.241 9.47235 6.74309 0.520246 0.177298
threshold=-1.5944888591766355 0.13037640601396563 -0.96647143363952626 1.0000000180025095e-35 0.95067942142486583 -2.012405157089233 0.61633393168449413 1.0000000180025095e-35 0.98784595727920543 0.8640381693840028 -0.96514499187469471 -1.808005094528198 -1.1903120875358579 0.91765940189361583 1.007448196411133 -1.200731039047241 1.2086146473884585 -2.012405157089233 -0.37224753201007837 -0.20668069273233411 -0.80516299605369557 -1.2181621193885801 1.1031715273857119 -0.19114596396684644 -0.23892996460199353 -2.8854057788848873 -1.742393374443054 -1.2513728737831114 -1.6775693893432615 -0.17739985883235929 1.0802876353263857 -0.76921835541725148 -0.46344728767871851 -0.87839254736900318 1.0573219656944277 -0.80516299605369557 -1.488039970397949 -0.20839949697256085 -1.0268837213516233 0.086011782288551344 -1.1800162792205808 -2.4284912347793575 0.91972637176513683 1.0000000180025095e-35 -0.86554062366485585 -0.4485789686441421 0.90477472543716442 1.1633863449096682 -0.32003331184387201 -0.86002781987190235 -0.83448517322540272
decision_type=2 2 2 2 2 2 2 2 2 2 2 2 2 2 2 2 2 2 2 2 2 2 2 2 2 2 2 2 2 2 2 2 2 2 2 2 2 2 2 2 2 2 2 2 2 2 2 2 2 2 2
left_child=15 18 7 5 8 12 -7 13 -5 10 -9 -6 -4 33 -11 16 21 20 45 25 42 30 32 35 39 26 40 -28 -19 -22 46 -32 -23 -3 -30 37 -21 -20 -15 -25 -17 -24 -18 -37 -26 -2 -1 -27 -49 -38 -51
right_child=1 2 3 4 11 6 -8 9 -10 14 -12 -13 -14 38 -16 19 17 28 23 36 29 22 41 24 44 47 27 -29 34 -31 31 -33 -34 -35 -36 43 49 -39 -40 -41 -42 -43 -44 -45 -46 -47 -48 48 -50 50 -52
leaf_value=0.085157809323226016 0.15407931820038914 0.090178420262207695 -0.13610489684027016 0.074918502327615225 -0.0029963412209149717 0.025592949560813247 0.047066455939677038 0.098182564141264056 0.13408687209431588 0.1020928813411951 -0.0053051562338586513 0.050652148302388393 0.15941558301630604 -0.14430982594241024 0.1698960835492736 0.10832473653448774 0.12332260602644646 0.1279751543711688 0.14449299859540662 0.17074157108101307 -0.14112023115356773 0.18778080632844238 -0.032451159761024334 -0.12402419375310687 0.10803845863267321 0.086373328601770272 -0.14805615178517925 0.091282112997364939 0.062661740181772216 0.14147247894610557 -0.17737266598050805 0.099186989903746303 -0.20591107441335083 0.024820503057081455 -0.14461714949087112 -0.12135872823322097 -0.16245955735086168 -0.073693501333551695 -0.045524442180549393 -0.019901911987823633 0.15500252428911704 0.10534476856182839 0.055591812966037747 0.026602875360981139 0.21714800887546459 0.040207972280105114 0.14437696145173251 0.15754214922592649 0.13975482533336445 -0.12941351028044346 -0.11193664418399921
leaf_weight=30.736711025238037 30.128138676285744 225.53596036881208 39.460072547197342 8136.4896740987897 2215.6163145750761 44265.084855947644 33088.963421724737 921.26242007315159 1758.9010528028011 2721.6896911114454 756.10971201956272 4884.7012467682362 701.82734165340662 91.29080456495285 662.03863178193569 425.91585073620081 138.86969576776028 16.571221619844437 19.653171256184578 9.5921759605407697 46.799436822533607 5.1638125777244559 16.694554314017296 63.063539020717144 17.799029156565666 24.780538514256477 76.358137920498848 71.782459691166878 18.360992982983589 15.123197376728056 19.516819626092911 73.150499299168587 49.684234365820885 646.96539491415024 166.38317315280437 482.11137615889311 4.2662418931722632 51.645869821310043 143.72707505524158 74.986769586801529 278.80987942218781 220.99036252498627 55.637098386883736 6.7951968759298316 26.564053773880005 14.183636978268622 584.99988834559917 448.49870017170906 406.109798386693 24.672950983047482 7.5904123932123211
leaf_count=41 39 407 173 13959 6010 131359 83218 1462 2117 3938 1838 10894 657 357 602 482 145 15 39 6 194 4 42 520 22 35 290 102 31 13 71 85 209 1486 616 3981 19 213 427 549 212 301 90 20 18 36 456 300 315 145 84
internal_value=0 0.0423407 0.0432199 0.0408342 0.0639103 0.0358122 0.0347785 0.0799957 0.0854357 0.0942055 0.0515334 0.0339114 0.143684 0.01506 0.115359 0.0958799 0.0680838 -0.0110033 -0.0707863 0.118679 0.0614357 0.104252 0.0460719 -0.0820291 -0.00889449 0.123627 0.0991956 -0.0320833 -0.103274 -0.0721034 0.128277 0.0409403 -0.168846 0.0417151 -0.124017 -0.105843 -0.0671693 -0.0135516 -0.0838968 -0.0674666 0.126792 0.0956662 0.103949 -0.119302 0.173372 0.117631 0.141421 0.147322 0.14909 -0.129641 -0.125302
internal_weight=0 102047 101260 95091 16995.7 78095.3 77354 6168.62 9895.39 5061.1 1677.37 7100.32 741.287 1107.52 3383.73 3237.06 1458.68 457.745 786.931 1778.38 256.429 1000.94 292.533 742.619 182.413 1732.26 852.866 148.141 201.315 61.9226 708.404 92.6673 54.848 872.501 184.744 560.206 46.1218 71.299 235.018 138.05 704.726 237.685 194.507 488.907 44.3631 44.3118 615.737 879.389 854.608 36.5296 32.2634
internal_count=268644 264341 258904 248387 32980 215407 214577 10517 16076 7840 3300 16904 830 2677 4540 4303 2313 1104 5437 1990 442 1209 556 5362 1109 1736 1086 392 662 207 653 156 213 1893 647 4253 254 252 784 1069 694 343 235 4001 40 75 497 650 615 248 229
is_linear=0
shrinkage=0.1


Tree=13
num_leaves=63
num_cat=0
split_feature=128 131 130 118 127 118 40 125 34 35 127 78 106 43 126 116 93 105 50 32 31 57 36 125 114 117 73 112 71 100 2 37 106 111 56 36 69 124 72 72 96 126 96 58 55 88 97 108 103 7 25 78 16 126 72 63 72 29 54 101 28 0
split_gain=833.606 854.009 973.021 598.46 783.434 727.135 550.903 352.783 406.715 370.353 263.3 255.138 293.903 254.712 273.796 399.32 226.055 225.887 203.205 182.999 168.998 179.427 321.559 165.381 225.702 175.748 252.849 158.379 123.519 123.058 122.769 120.039 110.249 100.195 156.351 97.8181 96.0459 125.972 92.5286 90.3624 89.0698 87.8217 199.75 81.578 76.6192 69.6731 69.2377 57.343 39.8246 50.1136 38.6271 28.2305 21.6375 18.0882 17.9605 15.7397 42.3351 4.2459 0.77397 0.0536117 0.0186883 0.00821909
threshold=1.0000000180025095e-35 1.0000000180025095e-35 1.0000000180025095e-35 -1.6106778383255003 -2.4425027370452876 -1.3098395466804502 0.98636698722839367 -1.5239298343658445 0.91031736135482799 0.94628772139549266 -1.9803430438041685 -1.2343554496765134 -0.79251939058303822 1.1099658012390139 -1.6027428507804868 -0.93963405489921559 -1.0470577478408811 -0.80008396506309498 1.1564480066299441 0.96460834145545971 1.0155695676803591 0.92220523953437816 0.93273761868476879 -1.3597748875617979 -0.96520835161209095 -0.92640841007232655 -0.87862810492515553 -0.96475028991699208 -0.55595284700393666 -0.85430553555488575 0.54044258594512951 0.96534845232963573 -0.85129505395889271 -1.2638601660728452 1.0044176578521731 0.97596135735511791 -0.11933200061321257 -1.5142155289649961 -0.59856009483337391 -0.54535931348800648 -0.82262822985649098 -1.725809574127197 -0.90190854668617237 0.92421895265579235 0.96519130468368541 -1.3024258613586424 -0.89673912525176991 -0.9117336869239806 -0.85211190581321705 0.62541180849075328 1.2673727273941042 -0.29870547354221338 0.9558299481868745 -1.8155858516693113 -0.72895574569702137 0.56987640261650097 -0.58685144782066334 1.0663982033729555 1.023797392845154 -0.81657126545906056 1.1102049350738528 -0.28287105262279505
decision_type=2 2 2 2 2 2 2 2 2 2 2 2 2 2 2 2 2 2 2 2 2 2 2 2 2 2 2 2 2 2 2 2 2 2 2 2 2 2 2 2 2 2 2 2 2 2 2 2 2 2 2 2 2 2 2 2 2 2 2 2 2 2
left_child=1 2 3 33 6 -6 -5 9 23 32 35 12 19 14 16 -16 -10 20 30 -4 21 22 -3 24 28 26 -25 52 -9 -27 -13 -23 36 34 -1 47 46 -38 59 -29 -20 53 -43 -37 -26 -40 -2 -11 54 -50 -14 -35 -12 -34 -22 57 -57 61 -59 -15 -58 -19
right_child=7 17 11 4 5 -7 -8 8 13 10 27 18 50 38 15 -17 -18 55 40 -21 48 31 -24 25 44 29 -28 39 -30 -31 -32 -33 41 51 -36 43 37 -39 45 -41 -42 42 -44 -45 -46 -47 -48 -49 49 -51 -52 -53 -54 -55 -56 56 60 58 -60 -61 -62 -63
leaf_value=0.11436331824622262 -0.13332094133473849 0.011585239436657929 0.019809063938163503 -0.044456199887272674 0.095162322139388814 0.047996531684978722 0.029453423569029531 -0.098226491865554225 -0.11396959789555768 0.022386442666479198 0.089380916522612625 -0.049733800907761368 -0.10395346992062393 -0.14555495809571686 0.12420612235461759 0.016467913500777649 0.031426507910252498 -0.10379854184277262 0.064012443185798087 0.074187653235020842 -0.048575909341631834 -0.08512797296516629 0.090405316117932191 -0.0547329246427311 -0.020022120760729054 -0.026090927853094126 0.096125370783632633 0.085475672838869657 0.031394509155164174 0.095700695908422978 0.014880059884556632 0.015307080269600343 -0.13250164940918471 0.13181623506839943 0.035884012248608058 0.05079589664317441 -0.015794233013677935 0.13355921710311994 0.444798892768202 -0.0021093419378575636 -0.0045359873904684345 -0.092324363035748772 0.031462221747370879 -0.12294098799303699 -0.11103585715955618 0.19700877043987208 -0.029707446894374514 -0.083578732693301572 -0.10142080362286793 0.12392703884898637 0.11852822099045374 0.021741456898717912 0.19261409662248841 -0.089988523370543749 -0.10956816316371903 0.19356530587952753 -0.13466441601862794 -0.15469104809255191 -0.13088679996444497 -0.12859941209420198 -0.12601563022940185 -0.10575192517272694
leaf_weight=624.82093903422356 81.744157701730728 5644.6544374227524 4251.1913563683629 1112.9811064377427 3437.5998857617378 66482.948582198471 10742.334211178124 88.160445109009743 157.09405280649662 63.754295170307159 25.735227361321449 1324.7190923765302 194.8273354806006 3.7737458497285843 708.71764849126339 668.52687592059374 334.88368833065033 42.730450630187988 347.99855567514896 724.29828656464815 75.99114928394556 290.10418038070202 569.84324939548969 146.76339823007584 128.03851279616356 711.44474868103862 457.23936760425568 242.70093213766813 442.57132187485695 93.912391074001789 377.96019537374377 201.76489149034023 144.45516417175531 822.18620844185352 427.57544779777527 181.44859546422958 207.12869274616241 77.642193704843521 12.91972706466913 228.88534999638796 416.33114068955183 334.96012227982283 213.41481897979975 31.756531238555908 333.21057046949863 93.242695182561874 305.58977429568768 256.65555855631828 18.045739486813545 21.777786031365395 8.1293793283402902 23.978780783712864 96.193898022174835 325.79772055149078 132.39812102168798 6.1238854229450252 7.8359305113553983 21.6226567029953 37.085595920681953 3.6865347474813452 3.6678360104560852 43.435941554605961
leaf_count=618 341 18785 15831 4066 5050 145885 27907 330 901 213 53 7150 1723 19 1701 2553 1196 1212 1173 2283 576 1273 1445 519 405 3016 893 658 1173 253 1487 644 820 688 771 506 726 171 33 843 1542 1805 848 147 1529 228 1000 1411 86 50 54 73 139 1795 772 18 42 95 209 22 23 866
internal_value=0 0.0418532 0.0444535 0.0475737 0.0462851 0.0503154 0.0225148 0.00660916 0.0243527 -0.0209973 0.0234043 0.0103048 0.0229136 0.0578712 0.0490346 0.071909 -0.0150001 0.00848873 -0.0161619 0.0277251 0.011212 0.014211 0.0188127 -0.00332421 -0.0346048 0.0186927 0.0594691 0.0692329 0.00986302 -0.0118889 -0.0353908 -0.0439295 -0.0505977 0.103077 0.0824782 -0.0275687 -0.0191609 0.0249267 0.203242 0.0429661 0.026674 -0.0713402 -0.0441495 0.0249181 -0.0857713 0.227164 -0.0515744 -0.0624941 -0.0698164 0.0218123 -0.095042 0.128697 0.170825 -0.103048 -0.0873268 -0.108058 -0.0188371 -0.118914 -0.139654 -0.137176 -0.131907 -0.104783
internal_weight=0 98437 91319.9 83674.4 81775.9 69920.5 11855.3 7202.05 4384.19 2817.86 1127.13 7645.46 5178.45 1982.84 1869.22 1377.24 491.978 7117.08 2467.01 4975.49 6954.58 6706.37 6214.5 2401.34 991.981 1409.36 604.003 593.515 530.732 805.357 1702.68 491.869 1690.73 1898.56 1052.4 533.615 672.105 284.771 113.623 471.586 764.33 1018.63 548.375 213.205 461.249 106.162 387.334 320.41 248.213 39.8235 202.957 846.165 121.929 470.253 208.389 162.502 17.6277 144.875 58.7083 7.46028 11.5038 86.1664
internal_count=268644 242397 216301 185058 182908 150935 31973 26247 14771 11476 3970 31243 19891 6653 6351 4254 2097 26096 11352 18114 23631 22147 20230 8118 3437 4681 1412 1693 1503 3269 8637 1917 7506 2150 1389 2277 2238 897 302 1501 2715 5268 2653 653 1934 261 1341 1624 1484 136 1777 761 192 2615 1348 2465 83 2382 304 41 65 2078
is_linear=0
shrinkage=0.1


Tree=14
num_leaves=60
num_cat=0
split_feature=118 104 30 32 133 105 122 11 39 134 104 134 96 74 52 105 30 103 24 35 111 117 48 122 89 80 0 105 74 53 28 30 40 127 72 125 120 111 72 34 43 34 104 112 121 69 119 20 21 94 70 77 121 116 110 118 105 51 106
split_gain=753.912 821.331 1046.14 880.772 753.644 680.003 661.056 678.349 553.272 517.066 619.997 474.236 413.568 389.587 369.75 306.846 287.264 286.858 409.707 232.836 190.425 295.409 249.906 267.72 165.154 156.216 155.054 148.858 143.772 128.311 119.729 95.0335 69.0454 57.3442 141.511 50.0016 172.525 131.393 45.2571 93.0212 40.1232 38.8399 37.77 30.3245 21.993 21.0852 20.7555 41.3429 16.9138 12.7058 12.5537 6.4353 8.07012 5.7267 4.0294 3.72917 0.637374 0.216097 0.128225
threshold=-1.5944888591766355 -0.84710079431533802 1.0724937319755556 0.83221167325973522 1.0000000180025095e-35 -0.93461173772811879 -2.0238571166992183 0.28148782253265386 0.99836203455924999 1.0000000180025095e-35 -0.8770565092563628 1.0000000180025095e-35 -0.98449769616127003 -1.0130776762962339 0.72753748297691356 -0.86361977458000172 1.0994260311126711 -0.85743400454521168 1.3522303104400637 0.91517004370689403 -1.2593544125556944 -1.5766190886497495 1.2202349305152895 -2.035294651985168 -0.86041718721389759 -0.23652552813291547 -0.19949343800544736 -0.86798554658889759 -0.41348414123058314 1.2022510766983034 1.2084931135177615 1.1107046604156496 1.0881341099739077 -3.2311171293258663 -0.3138392567634582 -2.6185632944107051 -1.742393374443054 -1.2513728737831114 -0.27304655313491816 0.83008530735969555 1.156083405017853 0.83950084447860729 -0.73956227302551258 -1.3199281096458433 -1.8911290168762205 1.0000000180025095e-35 -1.6775693893432615 0.96069499850273143 1.6706159710884096 -0.35831326246261591 -0.20071578025817868 -0.49517114460468287 -1.8286318182945249 -1.5216078162193296 -1.2050304412841795 -1.6012602448463438 -0.76616379618644703 1.1794759631156924 -0.83448517322540272
decision_type=2 2 2 2 2 2 2 2 2 2 2 2 2 2 2 2 2 2 2 2 2 2 2 2 2 2 2 2 2 2 2 2 2 2 2 2 2 2 2 2 2 2 2 2 2 2 2 2 2 2 2 2 2 2 2 2 2 2 2
left_child=20 2 9 29 6 16 26 -8 27 10 14 13 -13 -7 -2 -10 24 30 -19 -12 21 33 23 53 -4 35 -5 -6 32 38 -11 -18 -24 34 57 36 44 -38 48 -40 -36 -30 -25 -27 -22 50 54 -48 -3 -47 -31 55 -53 -23 -35 -37 -45 -1 -58
right_child=1 3 5 4 8 11 7 -9 15 17 19 12 -14 -15 -16 -17 31 18 -20 -21 25 22 28 42 -26 43 -28 -29 41 45 -32 -33 -34 46 40 51 37 -39 39 -41 -42 -43 -44 56 -46 49 47 -49 -50 -51 -52 52 -54 -55 -56 -57 58 -59 -60
leaf_value=-0.19255283952642288 -0.094022155078906419 -0.10867644485123065 0.081101814943555187 0.022717818198279102 -0.041967171267971053 -0.014029990757621548 -0.065744382473222548 0.02886521795903739 0.096163357506197755 0.13993282764234402 0.028616742898053407 0.11022221722047634 -0.039615100437171008 0.021599022259262909 0.063740814065448959 -0.04847429356797283 0.018952816868283512 0.080755758321258919 -0.053264026454779456 0.085342779827130733 0.15242918560078608 -0.24153931847129942 -0.10392895807401714 0.083137915468170745 0.0021594814591428808 0.15135320531009488 0.15376967802839436 -0.11458231067488994 -0.13842545558589894 -0.15348703733432775 0.08698067238884527 -0.080934251047853262 0.22502718315606535 0.12292009973453838 -0.059664412391154775 0.13867168732752955 -0.14331293698173728 0.074767317226756641 -0.11133586237602167 0.1779630673558486 0.099193872830950117 0.097906343793442291 -0.058222811629615678 -0.17195079335331817 0.10933992920849962 0.15348669438802678 -0.030826338926605901 0.11547853568652676 0.1568199837464769 0.028777368857483301 0.06434108716371012 0.13418045997485173 0.079369486071552434 -0.16298077236255523 0.14194466386837437 0.16159723802424214 -0.12648637578006672 -0.16916066954552914 -0.11099600824723484
leaf_weight=5.0959248393774059 149.9548315256834 584.32216189056635 3067.753922842443 109.4431157708168 542.84698654711246 4104.9335999637842 770.61540221422911 45744.441995255649 366.94551463425159 1045.0649172365665 11254.192116875201 900.0602401047945 231.60840290784836 12161.048517391086 15954.227068312466 244.34541711956263 483.77533606439829 1696.8605706393719 263.53106044232845 773.29484164714813 170.1853958517313 17.22987999022007 214.21361798048019 506.93195468187332 290.07270966470242 4.4617152214050284 515.63403287529945 588.18585769087076 7.8436207175254813 5.6354252845048904 722.00643803179264 118.59901853650808 6.5764433443546286 321.40626873075962 17.16792868077755 145.66815841197968 45.82996341586113 69.559047251939774 30.740026734769344 17.408870011568069 215.14506766200066 61.311057180166245 19.633262574672699 2.8864180743694332 389.67863795906305 23.039824083447453 25.287112787365913 81.774705573916435 2.4094126224517813 12.658007599413397 4.9870220720767957 313.91938395798206 29.376170009374619 20.109579131007195 170.32831099629402 138.33408211171627 21.590897545218471 17.549692884087563 7.1014198288321486
leaf_count=21 1036 6791 4879 314 1988 14209 2840 129673 657 903 27375 1021 587 30667 28740 792 1276 2658 691 1587 127 74 745 728 658 3 432 2553 43 30 924 590 5 285 43 111 177 106 358 20 242 77 55 13 421 18 57 79 22 42 10 254 40 88 126 90 135 74 84
internal_value=0 0.0339727 0.0425997 0.0247098 0.0262834 0.0254756 0.0286706 0.0272978 -0.0383024 0.0540794 0.0494421 0.0169624 0.0795564 0.0126076 0.0622718 0.0383487 0.0628748 0.0890778 0.0627398 0.0322639 0.0844532 0.0623165 0.020726 0.0595189 0.0742822 0.112692 0.130824 -0.0797302 -0.0547212 -0.0882149 0.118297 -0.000713539 -0.0941307 0.103912 0.064194 0.118375 0.0994907 -0.0118493 -0.0999378 -0.00673601 0.0874542 0.0711013 0.0778672 -0.0926795 0.122438 0.0724624 0.120823 0.0809225 -0.107586 0.109266 -0.0512212 0.138703 0.12949 -0.199231 0.12951 0.149838 -0.127159 -0.174425 -0.122652
internal_weight=0 102781 53217 49563.7 48882.5 21357.9 47140.1 46515.1 1742.32 31859.1 28131.7 17397.7 1131.67 16266 16104.2 611.291 3960.2 3727.46 1960.39 12027.5 3046.2 1707.6 853.849 563.905 3357.83 1338.59 625.077 1131.03 289.945 681.201 1767.07 602.374 220.79 853.755 254.959 1302.55 675.253 115.389 634.88 48.1489 232.313 69.1547 526.565 36.0405 559.864 46.3203 598.796 107.062 586.732 35.6978 10.6224 627.298 343.296 37.3395 491.735 284.002 31.5787 22.6456 28.6923
internal_count=268644 264341 117801 146540 139249 53887 133259 132513 5990 63914 58738 46484 1608 44876 29776 1449 7403 5176 3349 28962 4303 2742 1815 945 5537 1561 746 4541 870 7291 1827 1866 750 927 380 1326 831 283 7191 378 285 120 783 235 548 100 547 136 6813 60 40 495 294 162 411 201 232 95 219
is_linear=0
shrinkage=0.1


Tree=15
num_leaves=57
num_cat=0
split_feature=118 5 30 96 106 135 34 37 41 133 72 56 32 38 117 78 48 75 33 132 119 111 8 19 36 30 131 73 110 87 118 25 124 95 110 127 71 39 26 79 110 56 110 51 120 134 105 119 113 121 56 112 105 116 110 117
split_gain=694.716 739.01 733.395 723.109 658.981 741.391 1018.84 677.028 639.602 605.526 461.823 636.128 453.808 441.11 405.461 385.469 378.362 433.3 294.357 294.183 267.255 337.338 290.737 280.683 264.857 259.633 234.33 195.854 159.362 154.21 152.473 141.944 119.665 119.271 95.228 75.3943 136.83 71.5812 64.417 61.8909 56.7533 176.54 56.0228 34.7877 23.4304 16.8686 10.0924 7.52347 7.36929 4.59857 3.5883 3.55848 1.23211 0.95089 0.334762 0.214076
threshold=-1.5836306810379026 0.61842527985572826 1.0785726308822634 -1.0626825690269468 -0.95625391602516163 1.0000000180025095e-35 0.84453478455543529 0.85718619823455822 1.0313874483108523 1.0000000180025095e-35 -0.78072446584701527 0.81415861845016491 0.91166439652442943 0.94727590680122387 -1.1332147121429441 -0.49779592454433436 1.0555135011672976 -1.0546295642852781 0.88594150543212902 1.0000000180025095e-35 -1.6664412021636961 -1.2479782104492185 0.060822406783699996 0.89017921686172496 0.81630966067314159 1.0938686132431032 1.0000000180025095e-35 -0.935931235551834 -1.1041266322135923 -0.80771654844284047 -1.6012602448463438 1.4359299540519717 -1.7703121304512022 -1.0169584751129148 -1.1594845056533811 -3.2311171293258663 -0.21994245797395703 1.0490782260894778 0.99882844090461742 -0.94153979420661915 -1.2050304412841795 1.0044176578521731 -1.1850117444992063 1.1600998640060427 -1.7140389680862425 1.0000000180025095e-35 -0.86181414127349842 -1.6424823403358457 -0.91763150691986073 -1.8213190436363218 1.0044176578521731 -1.306144595146179 -0.82702556252479542 -1.5070592164993284 -1.1934614181518552 -1.5492557287216184
decision_type=2 2 2 2 2 2 2 2 2 2 2 2 2 2 2 2 2 2 2 2 2 2 2 2 2 2 2 2 2 2 2 2 2 2 2 2 2 2 2 2 2 2 2 2 2 2 2 2 2 2 2 2 2 2 2 2
left_child=15 4 3 45 7 6 24 31 -8 18 19 25 28 -11 -13 44 26 -18 -9 27 35 23 34 37 -6 -12 -5 -4 -7 -14 -25 32 -2 -21 -23 36 38 -22 -17 -33 41 -37 -38 -24 49 48 -46 55 -3 52 -42 -49 -1 54 -51 -48
right_child=1 2 10 16 5 12 8 9 -10 13 11 14 29 -15 -16 20 17 -19 -20 33 21 22 43 30 -26 -27 -28 -29 -30 -31 -32 39 -34 -35 -36 40 42 -39 -40 -41 50 -43 -44 -45 46 -47 47 51 -50 53 -52 -53 -54 -55 -56 -57
leaf_value=0.099642044433957896 -0.076816245634929475 0.023169783694584372 0.030188659560165365 0.065479501074081639 -0.11737082056905415 -0.0059479049644360904 0.0056570370895036772 0.03939519887109591 0.029240496973939628 0.061491583673133593 0.080166021439158588 0.082413983152592005 0.046763253318636983 0.12899591524788898 0.0028863948746521862 -0.15116369621505127 0.045046044964513171 -0.018208331703709786 -0.056110695453883211 -0.040673359657362636 -0.11020892050926759 -0.10676954005994083 0.13669929994388283 0.073536163823718345 -0.031098013355677558 0.019350602259960228 -0.0037112384755590422 -0.033776641793604338 0.12259349188365315 -0.032872707228530154 -0.010066271111818152 -0.036966543285045977 0.0179332966908845 0.13943962033826293 0.12809864355987838 0.11241285121294869 0.057198307727816027 0.1178158209513009 0.086728950239138403 -0.15433692087437012 0.088879336195701431 -0.034897307486578669 0.12942227287775113 0.085432108666002302 0.11467449881288153 0.21160612135054505 0.17305317670847997 0.19695869470179289 -0.11062015615719718 0.15905379022456659 0.12938106886029818 0.23490573017884409 0.13258110189897646 0.17235420369541352 0.1457521355210917 0.18415774931604745
leaf_weight=18.383280247449875 188.87076638638973 4.1770842671394339 602.46789748966694 13460.945829357952 430.61744185164571 105.24367780983448 19364.046247392893 963.95735473930836 28316.503131203353 3272.2949116528034 2738.6537608206272 725.60485644638538 2040.3689104169607 1374.6804406046867 5503.5054870322347 40.830728784203529 12823.789458945394 1182.8368732184172 485.11746209859848 46.981600180268288 215.33059111982584 85.984235685318708 387.21781444549561 404.6024032831192 2049.4131753481925 943.95171126723289 507.94654868543148 2329.6568353399634 1154.2546644434333 276.06148351728916 473.38679832220078 73.640133291482925 452.99037508666515 169.08155560493469 21.599528316408396 401.62095741927624 355.22193818539381 14.707140997052191 15.782172724604605 115.22520160675049 22.716520935297012 102.01927243173122 153.94342493265867 201.09370157122612 13.488617196679114 1.6535899639129628 33.370209336280823 38.850942581892014 286.11665378510952 32.699650317430496 590.26431748270988 67.904089689254761 29.707291960716248 29.87160849571228 44.898726463317871 36.186145424842834
leaf_count=21 550 17 2185 22477 2917 282 54132 2041 81829 5487 4409 1118 3977 1533 15789 174 29604 3199 1474 130 875 608 310 592 7971 2461 1619 8466 1598 803 1264 201 946 162 73 394 584 21 22 425 27 237 188 285 21 1 21 34 4421 22 507 42 25 19 32 22
internal_value=0 0.0303165 0.0406296 0.0496844 0.0232906 0.0195486 0.0164124 0.0523203 0.0196628 0.0638613 0.0210311 0.0316291 0.0635408 0.0814609 0.0121503 0.0736893 0.0513182 0.0397043 0.00742199 -0.0123355 0.0637065 0.0369682 0.0915348 0.00269763 -0.0460779 0.0645774 0.0629635 -0.0206336 0.111853 0.0372726 0.0284601 -0.0323698 -0.00994722 0.100275 -0.0596152 0.0923762 0.0626366 -0.0956305 -0.0848455 -0.108573 0.107445 0.0825731 0.0790348 0.119175 0.174463 -0.106881 0.198044 0.204422 -0.108695 0.145692 0.12788 0.221096 0.11999 0.157194 0.151357 0.17883
internal_weight=0 101991 41327.4 28267.5 60663.3 53736.5 50160.6 6926.78 47680.5 6096.05 13059.9 9911.72 3575.93 4646.98 6229.11 3831.68 27975.5 14006.6 1449.07 3148.19 3486.32 1803.92 695.895 1108.03 2480.03 3682.61 13968.9 2932.12 1259.5 2316.43 877.989 830.726 641.861 216.063 107.584 1682.4 565.778 230.038 56.6129 188.865 1116.62 503.64 509.165 588.312 345.361 291.947 189.8 176.311 290.294 155.561 612.981 106.755 48.0906 107.47 77.5984 69.5564
internal_count=268644 262224 96058 61338 166166 153509 146849 12657 135961 10535 34720 23777 6660 7020 16907 6420 56899 32803 3515 10943 6161 4028 1276 2752 10888 6870 24096 10651 1880 4780 1856 2122 1496 292 681 2133 968 896 196 626 1165 631 772 595 259 4439 140 119 4438 119 534 76 46 73 54 43
is_linear=0
shrinkage=0.1


Tree=16
num_leaves=53
num_cat=0
split_feature=106 118 127 53 69 108 127 118 30 106 127 132 77 133 118 111 116 71 47 34 105 37 125 127 94 36 82 127 35 35 57 30 61 61 81 104 127 72 120 52 53 42 118 110 28 77 118 115 6 8 7 96
split_gain=658.418 559.908 701.8 630.262 1427.97 823.391 655.037 768.206 506.896 503.633 518.105 397.073 316.49 252.011 247.199 308.115 239.006 236.806 187.491 181.238 165.877 151.45 371.355 304.922 282.131 240.964 219.297 207.799 185.436 160.607 113.579 96.2054 95.1514 86.1549 80.3275 68.5601 50.7428 122.077 42.6185 26.1394 32.8156 25.0412 15.4455 10.9631 9.18266 3.71909 1.32592 0.198907 0.0165397 0.0102088 0.00581898 0.00480347
threshold=-0.81685367226600636 -1.5836306810379026 -2.6406219005584712 1.1031715273857119 -0.0066935878712683907 -1.054950416088104 -3.0264154672622676 -1.5445322990417478 1.098035514354706 -0.96647143363952626 -1.7416175603866575 1.0000000180025095e-35 -0.51045161485671986 1.0000000180025095e-35 -1.6224294900894163 -1.2479782104492185 -1.5134291052818296 -0.20071791857481 0.93236926198005687 0.83132758736610424 -0.92013174295425404 0.98035278916358959 -1.5133188366889951 -1.8965959548950193 -1.0127675533294676 0.9703788459300996 -1.2884075641632078 -1.7176164388656614 0.89773103594779979 0.92928263545036327 0.90966424345970165 1.1107046604156496 0.74071061611175548 0.75871670246124279 -0.20668069273233411 -0.75515586137771595 -3.2311171293258663 -0.3138392567634582 -0.90205729007720936 1.1338164806365969 1.0893146395683291 1.1202402710914614 -1.5944888591766355 -1.2050304412841795 1.3933166861534121 -0.52711796760559071 -1.6012602448463438 -0.86937913298606861 0.86260327696800243 1.1524311304092409 -0.29815138876438135 -1.0549250245094297
decision_type=2 2 2 2 2 2 2 2 2 2 2 2 2 2 2 2 2 2 2 2 2 2 2 2 2 2 2 2 2 2 2 2 2 2 2 2 2 2 2 2 2 2 2 2 2 2 2 2 2 2 2 2
left_child=1 12 3 4 11 -6 17 -8 9 13 -11 -3 39 -4 36 16 -16 -5 44 -17 31 22 28 25 27 32 -27 -24 34 -26 -30 -10 -23 35 -20 -25 37 -14 -22 40 -1 -35 46 -38 47 -44 -41 48 -2 50 -49 -51
right_child=18 2 8 6 5 -7 7 -9 20 10 -12 -13 14 -15 15 19 -18 -19 21 -21 38 23 24 33 29 26 -28 -29 30 -31 -32 -33 -34 41 -36 -37 43 -39 -40 42 -42 -43 45 -45 -46 -47 -48 49 -50 51 -52 -53
leaf_value=-0.08471498164029527 -0.12798030825718867 -0.076623699653076568 0.011615094458771888 -0.096782552397923743 -0.10748324543166282 0.18524269500921647 0.14739806841604494 -0.025787527171201075 0.012387569884050577 0.02306540720329231 0.038978777618258319 0.013317063413753548 -0.15832920667224942 0.070932620452187234 0.043345823207528285 -0.079265095119714524 -0.03961289115282645 0.025644828809408517 0.084262317443190127 0.10700596875764588 -0.071575807220418883 -0.011102798514325428 -0.081734484482119119 0.12171458861607456 0.0089331643299997224 0.069003873491807283 -0.09966219860457376 0.0032262362073296317 0.089490230787920594 0.10753901927418281 -0.081858313735444665 -0.0785181193280165 -0.096185143126291978 -0.085138989452141822 -0.10912070870787063 0.0014989493160143727 0.10383595177894767 0.085575721137871014 0.14738713978655299 0.13206975292611056 0.1508625721570766 0.12719060497286894 0.1923328445913324 0.1295845666448707 0.11866565363462836 0.15699660360574128 0.14973613836700106 -0.10273128854773142 -0.11765420860714289 -0.10543491117985493 -0.10426399542130681 -0.10890818137556633
leaf_weight=9.8439944535493868 2.8824694752693167 641.10678315907717 846.08558951318264 1332.3500717915595 111.73314595222473 686.39961043745279 323.15865133702755 1234.7682754844427 841.59806829690933 43184.143123455346 38879.40023329854 2094.4975004941225 22.115796536207199 4666.7156965136528 1066.0878539532423 56.349385034292936 515.07053451240063 179.24750597774982 114.57336771860719 715.29718463122845 560.21068891137838 283.54837277531624 326.18505088239908 382.09924603998661 288.75627704709768 493.03852726519108 91.372261524200439 2451.217664912343 40.364885970950127 385.97405853122473 929.18538922071457 135.1063709333539 245.02925063669682 32.196649871766567 26.435691852122545 54.16563531011343 318.89936605095863 284.5255823880434 9.0324037671089155 72.714205980300903 14.80777186155319 6.7123239040374747 134.85064761340618 343.44368314743042 1.8564327806234349 38.228606700897217 102.18616999685764 31.366376683115959 3.3584500774741173 19.65097447484732 117.78706682100892 4.993624083697795
leaf_count=29 19 2512 1893 5788 422 605 448 3703 2476 108818 88687 5367 100 7108 1930 465 1674 874 340 875 3067 1217 1787 817 1164 1221 486 8997 87 1216 5384 740 1491 127 372 256 339 352 21 62 15 13 85 299 2 37 71 1212 28 422 3054 70
internal_value=0 0.0307118 0.0292376 -0.00221867 0.0265752 0.144263 -0.0353671 0.0101361 0.0315682 0.0325702 0.0306047 -0.00776114 0.0689117 0.0618288 0.0591087 0.0416021 0.0163216 -0.0822649 -0.00254367 0.0934035 -0.0251944 0.000415279 -0.00884244 0.0270121 0.00733877 -0.0016183 0.042633 -0.00675176 -0.0591411 0.0653399 -0.0747246 -0.000187307 -0.0505439 0.0940725 0.0480078 0.106789 0.101617 0.0679846 -0.0681014 0.1563 0.0567913 -0.0485093 0.163349 0.117187 -0.102602 0.184528 0.142391 -0.104883 -0.122423 -0.104253 -0.103942 -0.106139
internal_weight=0 99420 95725.6 6603.26 3533.74 798.133 3069.52 1557.93 89122.3 87576.3 82063.5 2735.6 3694.42 5512.8 3321.79 2352.8 1581.16 1511.6 6332.75 771.647 1545.95 6150.85 4562.69 1588.16 3452.13 1112.99 584.411 2777.4 1110.56 674.73 969.55 976.704 528.578 475.174 141.009 436.265 968.984 306.641 569.243 372.631 24.6518 38.909 347.98 662.343 181.895 173.079 174.9 180.039 6.24092 173.798 149.153 24.6446
internal_count=268644 238862 232529 19719 8906 1027 10813 4151 212810 206506 197505 7879 6333 9001 6034 4944 3604 6662 29782 1340 6304 24975 19347 5628 13164 4415 1707 10784 6183 2380 5471 3216 2708 1213 712 1073 1090 452 3088 299 44 140 255 638 4807 122 133 4805 47 4758 4266 492
is_linear=0
shrinkage=0.1


Tree=17
num_leaves=58
num_cat=0
split_feature=115 134 125 30 117 106 135 35 32 133 48 32 92 118 124 118 78 132 72 55 91 119 136 136 127 54 81 0 98 122 76 110 122 77 101 28 97 126 51 73 114 122 27 95 28 93 74 75 95 109 112 67 32 106 77 104 15
split_gain=634.372 878.159 730.978 866.998 615.017 604.475 685.275 809.195 646.015 628.943 445.043 413.846 317.472 302.734 369.759 472.504 300.729 297.635 352.063 553.677 284.033 271.974 250.39 238.044 236.517 232.093 176.667 159.775 149.66 148.581 144.949 143.858 143.848 143.066 77.0754 110.229 74.9879 67.444 65.4331 52.0297 45.0172 41.4712 36.9358 27.7813 127.27 24.3562 20.8561 14.1355 51.7245 13.4794 9.61498 5.70795 5.02262 4.71606 4.17436 1.46738 0.275212
threshold=-0.93143343925476063 1.0000000180025095e-35 -1.4277731180191038 1.0707392096519472 -1.5373427867889402 -0.94973552227020253 1.0000000180025095e-35 0.86472725868225109 0.92746537923812877 1.0000000180025095e-35 0.81313660740852367 0.90929964184761058 -1.1413180232048032 -0.93298453092575062 -1.267768323421478 -0.98660451173782338 -0.49779592454433436 1.0000000180025095e-35 -0.78610241413116444 0.859836906194687 -1.1538916230201719 -1.6473236083984373 1.0000000180025095e-35 1.0000000180025095e-35 -1.931328237056732 1.0725782513618471 -1.3812813162803648 0.64398771524429332 -0.95016071200370777 -0.99875009059905995 -1.2218306660652158 -1.1970225572586057 -1.0525712966918943 -1.2806573510169981 -0.89088925719261158 1.2104679346084597 -0.99516203999519337 -1.3603418469429014 1.1409962177276614 -0.935931235551834 -0.93457013368606556 -1.0362492203712461 1.4051839709281924 -1.0546726584434507 1.2224276065826418 -1.0944983363151548 -0.51371902227401722 -1.0614728331565855 -1.0142673850059507 -1.1386685967445371 -0.8917393386363982 0.015513795893639328 0.93715396523475658 -0.81685367226600636 -1.2280883789062498 -0.85824114084243763 1.2617819905281069
decision_type=2 2 2 2 2 2 2 2 2 2 2 2 2 2 2 2 2 2 2 2 2 2 2 2 2 2 2 2 2 2 2 2 2 2 2 2 2 2 2 2 2 2 2 2 2 2 2 2 2 2 2 2 2 2 2 2 2
left_child=2 10 4 13 16 8 7 -7 24 -10 40 -8 22 14 15 -4 38 18 28 -20 34 31 26 32 -6 -23 -12 -16 -5 30 -14 -18 -15 -24 43 45 41 -25 46 -31 -2 -19 -38 50 -45 -36 -1 48 -42 -40 -3 -37 54 -49 55 -22 -56
right_child=1 20 3 17 5 6 11 -9 9 -11 12 -13 29 23 27 -17 21 36 19 -21 52 25 33 37 -26 -27 -28 -29 -30 39 -32 -33 -34 -35 35 51 42 -39 49 -41 47 -43 -44 44 -46 -47 -48 53 -50 -51 -52 -53 -54 -55 56 -57 -58
leaf_value=-0.18383999528973474 0.064088100161584227 0.14322238293390019 0.085395658689176243 -0.01357205659781999 0.013458880975207796 -0.02132077157561597 0.092140113740651189 0.018251517070550404 -0.043718918857228374 0.084340178733583016 0.020466375599394671 0.031492977792569106 0.0018586493924677328 -0.019936451045335854 0.10072102419655059 0.026541693154333936 0.044186893666870335 0.034317955956480135 0.063816263762530509 0.010281659406307221 -0.2863911962980441 0.063123016715394761 0.011820523790724862 -0.020169106573357718 0.055409028071005943 -0.078816699316679284 -0.018078814171889088 0.021897647761414469 -0.12053918108922404 0.075877404438048135 -0.037037678845493596 0.08944531988435872 0.037594778426904195 0.078006430372659599 0.091832891269283942 -0.24986636485148248 0.069466631211873783 0.095077279343718277 0.089454172130782106 -0.01220696739018013 -0.11088243284422505 -0.18358440327985059 0.12931423598565811 0.12803651186708573 -0.039778998742387744 -0.022196508490735824 0.049759140058466683 -0.14888789537591277 0.016100752756958211 0.16132430518262017 0.097881738386968453 -0.11944995739386277 -0.10033053012961342 -0.10263429840857444 -0.15277466844175952 -0.21799110422603701 -0.18289853686165958
leaf_weight=6.8803423196077338 15.907396439462898 384.09490746259689 2609.2207766324282 1424.9412047192454 5473.7460244297981 5843.149339556694 1728.0281761661172 44680.968971967697 423.87957306206226 4028.2039054334164 2936.3034731671214 3225.1823732852936 1444.2538017109036 763.48727881163359 3580.235682696104 2858.6556375920773 1491.8222159221768 29.963765889406204 2893.3166907727718 5814.0187453255057 6.3549774736166 204.57938057184219 525.74469082057476 55.786252707242966 1781.3798046708107 263.68209919333458 1998.3346626162529 277.05650885403156 144.01857111603022 210.71184235811234 2846.0404319241643 1327.0845267362893 1008.9208030663431 862.16844128072262 108.12555904686451 10.726426750421522 152.91481199860573 565.79544074833393 28.266417935490608 98.361949995160103 277.36476771719754 12.32756347954273 316.6971331089735 258.36681997776031 54.772300511598587 22.656728908419609 8.5983327776193601 86.268805585801601 36.272794812917709 339.84774641692638 53.255408570170403 4.8839914649724951 4.9078012108802787 29.609987923875451 4.2544072419404992 6.1926987022161484 10.562263295054434
leaf_count=28 38 290 4011 4790 11956 18303 2585 122306 1218 5674 9206 6675 5633 2344 4798 6769 2708 60 5294 14944 28 383 1176 127 3091 959 7250 523 611 575 9666 2041 2280 1400 140 45 232 728 44 319 4457 51 306 225 126 53 18 386 109 253 61 15 15 1232 21 25 43
internal_value=0 0.00451412 0.028677 0.0443766 0.0236899 0.0215122 0.0171549 0.013675 0.0421606 0.0721478 -0.00312618 0.052651 0.000869666 0.0632076 0.0713512 0.0546263 0.0635478 0.0239206 0.0202134 0.0280704 0.0979861 0.0537702 0.0154111 0.0314864 0.0237591 -0.0168045 0.00485709 0.0950594 -0.0233908 -0.0191198 -0.0239439 0.0654936 0.0128125 0.0529351 0.108474 0.0420992 0.098341 0.084734 0.147336 0.0478448 -0.101105 -0.0291987 0.109827 0.121421 0.0986833 0.0720784 -0.0540768 -0.107223 -0.0961966 0.155806 0.137701 -0.209063 -0.193484 -0.137069 -0.210191 -0.252633 -0.174249
internal_weight=0 12296.5 93362.7 22507.4 70855.3 67184.5 55477.3 50524.1 11707.2 4452.08 11367.3 4953.21 10921.9 11719.2 9325.17 5467.88 3670.76 10788.2 10276.3 8707.34 929.154 3287.17 6322.55 2393.99 7255.13 468.261 4934.64 3857.29 1568.96 4599.37 4290.29 2818.91 1772.41 1387.91 896.882 146.393 511.903 621.582 383.593 309.074 445.424 42.2913 469.612 750.489 313.139 130.782 15.4787 429.516 313.638 368.114 437.35 15.6104 32.2721 115.879 27.3643 12.5477 14.8167
internal_count=268644 42534 226110 47868 178242 171808 149869 140609 21939 6892 41447 9260 35225 21580 16101 10780 6434 26288 25639 20238 1087 6091 19032 5479 15047 1342 16456 5321 5401 16193 15299 4749 4624 2576 955 253 649 855 343 894 6222 111 538 702 351 193 46 6184 4566 297 351 60 132 1618 117 53 64
is_linear=0
shrinkage=0.1


Tree=18
num_leaves=59
num_cat=0
split_feature=134 32 115 4 118 61 122 78 56 103 33 48 105 31 78 72 107 23 99 4 85 111 125 77 118 127 23 41 77 109 126 55 136 41 34 30 102 43 99 109 84 26 80 43 106 103 73 34 31 21 114 37 51 114 5 69 106 124
split_gain=568.598 793.423 685.481 513.952 652.573 543.895 654.002 488.961 427.502 684.201 520.824 387.172 382.747 371.676 369.282 360.606 343.306 327.047 633.704 268.871 285.986 257.424 245.336 239.182 234.118 206.27 186.727 180.109 550.779 266.314 249.802 234.257 177.766 170.91 163.695 163.171 150.779 403.748 126.784 121.244 96.3986 93.9945 87.471 79.8791 79.4729 115.272 65.5115 63.1013 62.2352 56.3825 39.7512 25.4976 23.3583 17.034 42.4932 15.6248 8.62305 0.462302
threshold=1.0000000180025095e-35 0.9489097297191621 -0.93143343925476063 0.58615908026695263 -1.5836306810379026 0.7714325785636903 -1.9937545061111448 -1.3105026483535764 0.97893929481506359 -0.85743400454521168 0.89678654074668895 0.81313660740852367 -0.83999326825141896 0.98406845331192028 -0.96514499187469471 -0.60283654928207386 -0.97686988115310658 1.4149191975593569 -0.95484280586242665 0.58930113911628734 -1.3144657015800474 -1.1570604443550108 -2.5491708517074581 -0.51045161485671986 -1.6224294900894163 -1.5676106810569761 1.3509535789489748 1.0443211197853091 -1.1736791729927061 -0.92430675029754628 -1.8633168935775755 1.0190989375114443 1.0000000180025095e-35 1.0288071036338808 0.92160543799400341 1.0638172030448916 -0.84465646743774403 1.0413133502006533 -0.88115984201431263 -0.8772045075893401 -1.3523094058036802 1.3085307478904726 -1.3163346052169798 1.0869827270507815 -0.87762987613677967 -0.75486376881599415 -0.75631204247474659 0.87233945727348339 1.0081344246864321 1.297234117984772 -0.93457013368606556 0.974990874528885 1.1570069193840029 -0.91916096210479725 0.79354149103164684 -0.19539880752563474 -0.86078092455863942 -2.2824505567550655
decision_type=2 2 2 2 2 2 2 2 2 2 2 2 2 2 2 2 2 2 2 2 2 2 2 2 2 2 2 2 2 2 2 2 2 2 2 2 2 2 2 2 2 2 2 2 2 2 2 2 2 2 2 2 2 2 2 2 2 2
