tree
version=v4
num_class=1
num_tree_per_iteration=1
label_index=0
max_feature_idx=136
objective=binary sigmoid:1
feature_names=Column_0 Column_1 Column_2 Column_3 Column_4 Column_5 Column_6 Column_7 Column_8 Column_9 Column_10 Column_11 Column_12 Column_13 Column_14 Column_15 Column_16 Column_17 Column_18 Column_19 Column_20 Column_21 Column_22 Column_23 Column_24 Column_25 Column_26 Column_27 Column_28 Column_29 Column_30 Column_31 Column_32 Column_33 Column_34 Column_35 Column_36 Column_37 Column_38 Column_39 Column_40 Column_41 Column_42 Column_43 Column_44 Column_45 Column_46 Column_47 Column_48 Column_49 Column_50 Column_51 Column_52 Column_53 Column_54 Column_55 Column_56 Column_57 Column_58 Column_59 Column_60 Column_61 Column_62 Column_63 Column_64 Column_65 Column_66 Column_67 Column_68 Column_69 Column_70 Column_71 Column_72 Column_73 Column_74 Column_75 Column_76 Column_77 Column_78 Column_79 Column_80 Column_81 Column_82 Column_83 Column_84 Column_85 Column_86 Column_87 Column_88 Column_89 Column_90 Column_91 Column_92 Column_93 Column_94 Column_95 Column_96 Column_97 Column_98 Column_99 Column_100 Column_101 Column_102 Column_103 Column_104 Column_105 Column_106 Column_107 Column_108 Column_109 Column_110 Column_111 Column_112 Column_113 Column_114 Column_115 Column_116 Column_117 Column_118 Column_119 Column_120 Column_121 Column_122 Column_123 Column_124 Column_125 Column_126 Column_127 Column_128 Column_129 Column_130 Column_131 Column_132 Column_133 Column_134 Column_135 Column_136
feature_infos=[-1.8014661073684692:2.1475074291229248] [-1.7160434722900391:2.0597634315490723] [-1.6382262706756592:1.9801409244537354] [-1.5680137872695923:1.9086390733718872] [-1.5054070949554443:1.8452587127685547] [-1.4504051208496094:1.7899996042251587] [-1.4123568534851074:1.7937201261520386] [-1.3844102621078491:1.9274762868881226] [-1.3517893552780151:1.9831451177597046] [-1.3099035024642944:2.0549979209899902] [-1.2559221982955933:2.0165181159973145] [-1.1870334148406982:2.064321756362915] [-1.1039742231369019:2.1106562614440918] [-1.0067610740661621:2.1771299839019775] [-0.90047705173492432:2.2825961112976074] [-0.78966546058654785:2.3805651664733887] [-0.67814630270004272:2.4481546878814697] [-0.65591526031494141:2.4998569488525391] [-0.65795356035232544:2.5653238296508789] [-0.66444498300552368:2.5221147537231445] [-0.8555336594581604:2.4413206577301025] [-0.86833834648132324:2.3840618133544922] [-0.86565589904785156:2.2409591674804688] [-0.70636492967605591:2.1797337532043457] [-0.6794590950012207:2.1614029407501221] [-0.92955285310745239:2.0620582103729248] [-1.274228572845459:1.9191513061523438] [-1.700652003288269:1.6958240270614624] [-1.9454965591430664:1.5409636497497559] [-2.2033448219299316:1.3462176322937012] [-2.6534385681152344:1.1459542512893677] [-2.9375624656677246:1.0691677331924438] [-2.8855924606323242:1.0182701349258423] [-2.3245775699615479:1.0153312683105469] [-1.6179424524307251:1.0222163200378418] [-0.8696785569190979:1.0987448692321777] [-0.66342759132385254:1.3781088590621948] [-0.67049169540405273:1.4357191324234009] [-0.67192721366882324:1.5244829654693604] [-0.67710685729980469:1.3697364330291748] [-0.67391806840896606:1.309401273727417] [-0.77278417348861694:1.2266663312911987] [-0.78214722871780396:1.2687077522277832] [-0.67822211980819702:1.5027958154678345] [-0.67593681812286377:1.6759111881256104] [-0.67998087406158447:1.7528411149978638] [-0.67735743522644043:1.7343066930770874] [-0.68031680583953857:1.8940913677215576] [-0.67738151550292969:2.0411467552185059] [-0.6802976131439209:2.1347439289093018] [-0.67868822813034058:2.1180493831634521] [-0.68411111831665039:2.1010029315948486] [-0.6882440447807312:2.3278176784515381] [-0.69760811328887939:2.41339111328125] [-0.68820065259933472:2.0181429386138916] [-0.66498374938964844:1.7058380842208862] [-0.62731093168258667:1.5109990835189819] [-0.6819922924041748:1.3641012907028198] [-0.88048118352890015:1.3483799695968628] [-0.69688475131988525:1.3266682624816895] [-0.58480948209762573:1.2987289428710938] [-0.6056399941444397:1.6912268400192261] [-0.63139909505844116:1.8743280172348022] [-0.66095739603042603:1.7138135433197021] [-0.89532732963562012:1.3433690071105957] [-1.1747497320175171:1.0728911161422729] [-1.3727543354034424:0.99044626951217651] [-1.6713657379150391:0.88485002517700195] [-1.8910553455352783:0.75389385223388672] [-2.0949718952178955:0.60495084524154663] [-1.9126988649368286:0.45876148343086243] [-1.7446892261505127:0.33052113652229309] [-1.674402117729187:0.23037496209144592] [-1.5674382448196411:0.15855956077575684] [-1.4517455101013184:0.30397361516952515] [-1.6804615259170532:0.9557119607925415] [-1.8599822521209717:1.3625956773757935] [-1.985605001449585:0.97979003190994263] [-2.0616223812103271:1.1285310983657837] [-2.1171634197235107:0.92254304885864258] [-2.168381929397583:0.73609095811843872] [-2.1978850364685059:0.28676301240921021] [-2.2107267379760742:0.33890664577484131] [-2.208972692489624:0.39074629545211792] [-2.1915850639343262:0.5232703685760498] [-2.1574652194976807:0.47703936696052551] [-2.1063995361328125:0.50853937864303589] [-2.0390708446502686:0.53271615505218506] [-1.9571486711502075:0.67684948444366455] [-1.8639241456985474:0.56802195310592651] [-1.767259955406189:0.65060514211654663] [-1.7565661668777466:1.0689502954483032] [-1.6520191431045532:1.4172115325927734] [-1.5958865880966187:1.6290324926376343] [-1.5394163131713867:1.6652539968490601] [-1.4922878742218018:1.6182962656021118] [-1.4526540040969849:1.5607637166976929] [-1.4226374626159668:1.5597559213638306] [-1.4104764461517334:1.5645072460174561] [-1.5819015502929688:1.5648646354675293] [-2.0638625621795654:1.5687597990036011] [-2.4396805763244629:1.5660412311553955] [-2.4439821243286133:1.5687909126281738] [-2.3072562217712402:1.5662518739700317] [-1.8666654825210571:1.5674868822097778] [-1.4073458909988403:1.5623446702957153] [-1.2213733196258545:1.563502311706543] [-1.1215335130691528:1.5613243579864502] [-1.168958306312561:1.5697338581085205] [-1.225764274597168:1.5734660625457764] [-1.369315505027771:1.5835809707641602] [-1.5506553649902344:1.5861003398895264] [-2.1400496959686279:1.5904537439346313] [-2.4733853340148926:1.5879726409912109] [-2.4289262294769287:1.5883719921112061] [-1.8155614137649536:1.5816894769668579] [-1.6131480932235718:1.5827864408493042] [-1.6321159601211548:1.6058655977249146] [-1.6864286661148071:2.4495923519134521] [-1.7459897994995117:2.6529664993286133] [-1.820858359336853:2.5047237873077393] [-1.9280952215194702:1.7488086223602295] [-2.1567583084106445:1.5763181447982788] [-2.3918964862823486:1.5743108987808228] [-2.6616356372833252:1.8138364553451538] [-2.9659750461578369:2.1645474433898926] [-3.3559722900390625:3.0688047409057617] [-3.8503069877624512:4.2020993232727051] [0:1] [0:1] [0:1] [0:1] [0:1] [0:1] [0:1] [0:1] [0:1]
tree_sizes=5527 5781 5798 6103 5804 5677 6682 6075 6602 6209 6090 6018 6714 6344 6232 5939 6219 6213 6915 6037 6304 6921 6750 5622 6125 6932 6088 5842 5854 5988 6221 6825 6815 5213 6149 5239 6013 6215 5849 6239 6929 5855 5869 5740 5772 6919 6076 6710 5212 6947 6386 6420 6464 6273 5969 6639 6697 6588 6228 5989 6503 6831 6165 6356 5918 5327 5129 6367 6940 6398 5347 6102 6984 6244 6308 6934 6900 6186 6048 6593 6919 6956 5925 6234 6602 6623 6052 6498 6904 5064 5461 6151 6936 6827 6940 6621 6049 5820 6244 6589 5162 5963 6170 5574 5620 5547 6339 6340 6829 6741 6913 6567 6904 6574 5386 6248 5893 5537 5796 6238 6959 6375 6958 6369 5634 6422 6724 6183 5247 6508 5177 6921 6724 6409 6847 6925 6695 6708 6156 4648 6486 6595 5945 6423 5394 6441 5952 5235 6241 6614 6017 6363 6690 6617 6590 5582 6197 6787 5818 6083 6700 6135 6258 6933 6849 6360 6518 6794 5713 6287 6699 6892 4807 6819 5964 5027 6698 6614 4977 6927 6965 5393 6287 6030 6304 6926 6556 6682 4661 6573 5595 5389 6590 6294 6637 6274 5698 5806 6890 5486

Tree=0
num_leaves=51
num_cat=0
split_feature=106 130 131 129 118 103 50 53 36 136 33 89 34 134 31 79 127 136 110 30 79 108 110 118 78 102 33 54 84 43 53 103 58 60 129 74 100 80 9 6 39 62 105 100 96 100 1 50 26 0
split_gain=29539.5 15916.8 12800.1 9593.53 7432.4 9146.1 4139.44 2487.99 1822.35 1668.95 1384.82 1189.83 1495.21 961.075 891.32 654.569 629.173 596.637 583.365 571.398 520.785 798.582 557.528 451.753 451.216 419.181 408.749 555.295 401.113 451.988 414.283 380.73 344.1 323.86 321.276 312.333 266.402 213.058 204.54 182.26 167.181 159.873 155.772 154.767 135.54 93.7806 89.1063 76.4863 19.6147 1.13687e-13
threshold=-0.83579319715499867 1.0000000180025095e-35 1.0000000180025095e-35 1.0000000180025095e-35 -1.6013113260269163 -0.82928639650344838 0.97814860939979564 1.0506068468093874 0.97600275278091442 1.0000000180025095e-35 0.93227532505989086 -1.1631436944007871 0.93821898102760326 1.0000000180025095e-35 1.012186646461487 -1.1428182721137998 -2.1422109603881831 1.0000000180025095e-35 -1.1970764398574827 1.0486881136894228 -1.3188831210136411 -0.8710004687309264 -0.90800398588180531 -0.97003406286239613 -1.3319845795631406 -0.85596260428428639 0.91998568177223217 0.99043220281600963 -1.3627536892890928 1.0810170173645022 1.0249354839324953 -0.80429407954215992 0.81877037882804882 0.82628253102302562 1.0000000180025095e-35 -0.92100372910499562 -0.8303035795688628 -1.3150718808174131 0.77043122053146373 0.62418261170387279 1.0333479046821596 0.58270797133445751 -0.78950846195220936 -0.75424429774284352 -0.87375482916831959 -0.95190820097923268 0.48509173095226293 1.0903704166412356 1.4895011186599734 0.45841458439826971
decision_type=2 2 2 2 2 2 2 2 2 2 2 2 2 2 2 2 2 2 2 2 2 2 2 2 2 2 2 2 2 2 2 2 2 2 2 2 2 2 2 2 2 2 2 2 2 2 2 2 2 2
left_child=1 2 3 4 18 -6 48 17 9 13 15 28 19 -9 20 -5 42 26 -1 35 21 -4 -22 -11 41 45 27 -8 32 30 -30 -12 38 -18 -28 -13 -21 -31 -3 -27 44 -19 -10 -42 -14 -16 -26 -34 49 -2
right_child=6 11 14 10 5 -7 7 8 16 23 31 12 40 -15 25 -17 33 24 -20 36 22 -23 -24 -25 46 39 34 -29 29 37 -32 -33 47 -35 -36 -37 -38 -39 -40 -41 43 -43 -44 -45 -46 -47 -48 -49 -50 -51
leaf_value=-1.316863718877995 -2.0072967444257914 -1.2818951626674338 -1.3718788173977088 -1.7580763168221276 -1.4650473452128012 -1.570250773749958 -1.5399630887426148 -1.7876921894548896 -1.5920261461052234 -1.443208745376316 -1.7012312072127294 -1.6471347988153482 -1.4931007321911767 -1.3888531335884682 -2.0072967444257914 -1.9659097372775423 -1.3808133642273153 -1.5695691409556627 -1.1813400304657344 -1.8492430765643451 -1.6864237037092291 -1.6637756301556426 -1.8041028818404596 -1.7764430894335321 -1.3942088637712393 -1.7631654784500619 -1.5730087049247468 -1.7668796792393353 -1.647836303861703 -1.3148706327530553 -1.7796660705967644 -1.5374042081383792 -1.9597736704413502 -1.8061070424089307 -1.7323755333326802 -1.8010750777210649 -1.9638660538366861 -1.7196260577135463 -1.7911861047450097 -1.4686337087142405 -1.3457647014710274 -2.0072967444257914 -1.8836506083055089 -1.7553764519281656 -1.8544689781895476 -1.8721019195998103 -1.1952057809639229 -1.5168978886518467 -1.7104688174204026 -2.0072967444257914
leaf_weight=751.39319863915443 146.16093456745148 54.872508645057678 110.66963186860085 1078.0861079692841 23009.252420336008 12894.910317510366 147.63466545939445 5081.204932898283 31.95073664188385 190.52423116564751 234.09459578990936 174.98782977461815 25.803781449794769 61.144417494535446 62.835541963577271 176.32371461391449 188.49182161688805 37.889435738325119 550.19336298108101 772.31649005413055 1513.4215533435345 612.1923380792141 548.5052125453949 51.727062195539474 42.201116323471069 57.066068708896637 818.78331533074379 400.11494591832161 490.92211639881134 44.072375357151031 463.39186334609985 360.01757070422173 13.959746718406679 19.784613311290741 149.61168166995049 534.01795452833176 274.95260167121887 18.449153333902359 9.2093116343021375 33.252833157777786 74.210079699754715 10.700255334377287 42.923141598701477 10.533650457859038 17.363600671291351 279.70282432436943 48.198042154312134 5.4111877977848044 2.2349988520145407 421.63559317588806
leaf_count=2195 1284 144 375 7189 96172 65418 711 35161 168 761 1448 1002 114 216 552 1487 653 192 974 5748 9171 3592 3872 353 151 383 4173 2698 2814 128 3175 1726 117 140 965 3756 2314 117 64 140 235 94 332 70 130 2136 91 25 14 3704
internal_value=-1.89222 -1.53692 -1.52116 -1.50537 -1.49432 -1.50283 -1.74657 -1.72636 -1.75786 -1.77087 -1.72772 -1.76011 -1.80836 -1.78295 -1.71287 -1.78729 -1.51059 -1.6185 -1.25958 -1.8324 -1.69212 -1.61909 -1.71773 -1.51436 -1.4202 -1.84637 -1.63668 -1.70572 -1.67749 -1.69478 -1.71185 -1.60196 -1.46673 -1.42121 -1.59763 -1.76308 -1.87934 -1.43431 -1.35509 -1.65473 -1.47827 -1.66596 -1.75921 -1.39668 -1.63846 -1.8969 -1.28811 -1.83606 -2.00613 -2.0073
internal_weight=0 45256.4 42271.9 39054.3 37205.7 35904.2 7892.92 7322.88 5667.75 5384.6 1848.52 2984.47 1884.19 5142.35 3217.65 1254.41 283.15 1655.13 1301.59 1756.27 2784.79 722.862 2061.93 242.251 138.989 432.857 1516.14 547.75 1100.29 1016.84 954.314 594.112 83.4528 208.276 968.395 709.006 1047.27 62.5215 64.0818 90.3189 127.911 48.5897 74.8739 84.7437 43.1674 342.538 90.3992 19.3709 570.032 567.797
internal_count=268644 216783 196830 176609 164759 161590 51861 46859 37784 36491 11850 19953 13369 35377 20221 8676 1293 9075 3169 12820 17010 3967 13043 1114 528 3211 8547 3409 6584 6234 5989 3174 350 793 5138 4758 8062 245 208 523 549 286 500 305 244 2688 242 142 5002 4988
is_linear=0
shrinkage=1


Tree=1
num_leaves=53
num_cat=0
split_feature=106 130 30 131 128 129 49 75 54 37 125 89 40 126 36 135 71 30 55 81 77 97 30 100 119 2 71 30 57 31 75 106 0 81 109 48 107 62 3 48 14 69 106 122 59 31 104 34 28 50 23 12
split_gain=12916.5 7112.27 6480.84 4915.4 4552.25 4141.44 2427.62 1801.79 1141.83 1297.24 1308.12 802.535 980.726 739.317 708.324 673.051 901.621 394.751 438.423 392.146 376.57 373.706 365.622 473.622 359.107 252.619 421.497 362.189 246.971 245.154 259.599 212.141 210.459 208.903 443.853 347.602 339.4 321.831 181.333 172.075 169.898 166.162 155.99 146.269 126.95 116.001 77.2096 59.6241 20.0998 0.00163288 0.000157736 1.13687e-13
threshold=-0.82767051458358754 1.0000000180025095e-35 1.0914300084114077 1.0000000180025095e-35 1.0000000180025095e-35 1.0000000180025095e-35 0.925014227628708 -1.0347755551338194 1.023365914821625 0.98579218983650219 -1.6496756076812742 -1.1658525466918943 1.0501827001571657 -1.6244218349456785 0.97600275278091442 1.0000000180025095e-35 -0.3620909303426742 1.0979704856872561 0.86327743530273449 -1.3885372281074522 -1.1907621026039121 -1.0217570662498472 1.1106730103492739 -0.92370322346687306 -1.0475299358367918 0.59864068031311046 -0.53829333186149586 1.0799075961112978 0.9717426896095277 1.0197390317916872 -1.0474620461463926 -0.84324756264686573 0.39367586374282842 -1.4117696285247801 -0.82476079463958729 1.1010457873344424 -0.82777199149131764 0.58519819378852855 0.54943570494651806 1.1460698246955874 1.1026726365089419 -0.073236677795648561 -0.91599762439727772 -1.2212998270988462 0.76489534974098217 0.98255038261413585 -0.97000181674957264 0.93995642662048351 1.2111538648605349 0.94338560104370128 1.6073710918426516 1.2668544054031374
decision_type=2 2 2 2 2 2 2 2 2 2 2 2 2 2 2 2 2 2 2 2 2 2 2 2 2 2 2 2 2 2 2 2 2 2 2 2 2 2 2 2 2 2 2 2 2 2 2 2 2 2 2 2
left_child=1 2 3 4 5 -1 48 17 33 15 14 24 29 -6 -11 16 -10 18 -4 40 47 -21 23 -9 32 27 -27 -26 -12 30 -13 -22 39 34 38 -36 37 -35 -8 -3 -5 -17 -19 -34 -31 -38 -24 -14 49 50 51 -2
right_child=6 11 7 19 13 -7 8 22 9 10 28 12 20 -15 -16 41 -18 42 -20 21 31 -23 46 -25 25 26 -28 -29 -30 44 -32 -33 43 36 35 -37 45 -39 -40 -41 -42 -43 -44 -45 -46 -47 -48 -49 -50 -51 -52 -53
leaf_value=0.28133888140799085 -0.11343513706604649 -0.076581179994166582 0.12733096779838282 0.31346137118580497 0.062509147922860442 0.14669610221314761 -0.11890309195837814 0.31075274470498265 0.078395702714618376 0.0051204984327162511 0.34558998894253717 0.080680190385606976 0.54564705387908385 0.17852046296834334 0.22734174225143025 0.10256070954420636 -0.071625427240222847 0.036404770542468011 -0.0075095072369149489 0.014422754319610801 0.22097753514271312 0.15010666132244235 0.23255359093822656 0.16360574216321083 0.14974977809758031 0.17097623648417568 0.46309062641930682 -0.082097340846690736 -0.1167252749583029 0.0096654688969493707 0.0062794653644680318 0.031235211421210014 0.5797023768316798 0.12678520899902954 0.053540088765786253 0.27559678554059003 0.23280686066645342 0.30583718104475183 0.30738701727022488 0.39419633670042642 -0.031632068046946876 0.59089853365350953 -0.057528400723867106 0.20752846650868406 0.59676114638097177 0.021067028160428856 -0.081744300685240634 0.30217537640442477 0.19401900576537201 -0.11614004230875126 -0.114312048287917 -0.11343513706604649
leaf_weight=45147.329854883254 460.97524926066399 15.595721811056139 699.7364741563797 182.49700984358788 962.56390921026468 2406.2261793240905 10.223611064255236 394.6186626330018 3324.5739760622382 342.98797984421253 390.57712848484516 864.93700323998928 35.019394606351852 1279.5574652850628 246.53897492587566 9.0755711495876294 455.49417629092932 321.89623788744211 367.91511534899473 216.06962342560291 272.52901928126812 3353.1685622707009 9.3264565467834455 490.78896553814411 1070.098660774529 198.58842242509127 65.749893426895142 71.907869674265385 11.907260902225969 5.2995299696922329 1024.4217734634876 75.179199695587158 40.795147925615311 225.94266191869974 184.8412768393755 113.95375918596983 30.102837651968002 180.6444853618741 416.25876361876726 15.460953325033186 15.476218342781065 30.000180721282959 392.18385548144579 14.248001888394354 12.075412556529043 184.16774065047503 48.263143330812454 14.111393108963965 2.1349724680185309 2.2474755942821494 2.0595657080411902 47.611486673355103
leaf_count=146947 4415 113 3126 690 5295 13387 77 1149 21376 2438 1520 5729 82 5391 961 57 3530 1746 2248 1478 1251 18115 33 2045 5744 966 125 515 97 40 7554 483 64 1179 1130 432 132 649 1530 45 112 64 2492 70 24 1141 301 50 12 19 19 456
internal_value=0 0.24304 0.251975 0.259628 0.267961 0.274526 0.0963843 0.10153 0.113829 0.0910508 0.192936 0.110555 0.0735453 0.128716 0.098053 0.0645865 0.0603183 0.0423701 0.0808646 0.149491 0.21657 0.141893 0.213308 0.229188 0.167679 0.155542 0.243635 0.135151 0.331913 0.0437782 0.0403397 0.179953 0.365927 0.195241 0.231689 0.138228 0.152663 0.206337 0.297168 0.157786 0.286484 0.477479 -0.0151848 0.483365 0.417691 0.0508143 -0.0308447 0.475717 -0.112176 -0.113451 -0.113439 -0.113435
internal_weight=0 60083.6 56287.6 53562.9 49795.7 47553.6 6672.32 2724.73 6157.29 4811.16 992.011 3796.02 2303.57 2242.12 589.527 3819.14 3780.07 1781.73 1067.65 3767.21 396.839 3569.24 942.997 885.408 1492.44 1406.34 264.338 1142.01 402.484 1906.73 1889.36 347.708 86.0998 1346.14 725.277 298.795 620.858 406.587 426.482 31.0567 197.973 39.0758 714.08 55.0431 17.3749 214.271 57.5896 49.1308 515.029 512.894 510.646 508.587
internal_count=268644 227410 204555 191415 171020 160334 41234 13140 36313 30043 5016 22855 15213 10686 3399 25027 24906 9612 5374 20395 1866 19593 3528 3194 7642 7350 1091 6259 1617 13347 13283 1734 292 6270 3169 1562 3101 1828 1607 158 802 121 4238 134 64 1273 334 132 4921 4909 4890 4871
is_linear=0
shrinkage=0.1


Tree=2
num_leaves=53
num_cat=0
split_feature=106 130 30 103 117 1 134 115 49 112 111 85 35 6 36 103 35 58 35 53 26 127 104 114 30 97 53 71 31 31 102 30 57 28 20 109 128 110 74 102 60 46 30 127 37 130 102 113 27 51 113 23
split_gain=7383.15 4030.63 3473.59 2888.84 3918.97 3804.29 3236.69 3332.84 1590.78 1242.9 729.084 664.289 639.078 576.453 658.35 764.386 499.174 496.257 548.804 541.553 424.88 406.587 355.986 352.705 311.53 310.027 361.577 491.863 294.749 291.723 272.077 252.778 230.485 182.926 168.77 191.301 145.514 132.026 121.729 116.626 104.967 186.009 93.1523 80.861 75.6604 72.7835 41.8827 37.7666 0.00461872 0.00107816 2.60123e-08 5.27507e-11
threshold=-0.81988367438316334 1.0000000180025095e-35 1.0921934843063357 -0.85001277923583973 -1.5370387434959409 -0.13683380931615827 1.0000000180025095e-35 -0.93539282679557789 0.925014227628708 -0.98791441321372975 -1.2478964924812315 -1.2788794040679929 0.94204363226890575 0.63333311676979076 0.95723557472229015 -0.75287780165672291 0.95568183064460765 0.87847107648849498 0.917198807001114 1.1696039438247683 1.4155461192131045 -1.8966785073280332 -0.91547980904579151 -0.95352619886398304 1.1060767173767092 -0.90873649716377247 1.0249354839324953 -0.52687755227088917 0.97215950489044201 1.0052596330642702 -0.80557978153228749 1.0979704856872561 0.75925892591476452 1.1327114701271059 1.2004639506340029 -0.82476079463958729 1.0000000180025095e-35 -0.90894928574562062 -1.0335729122161863 -0.75515100359916676 0.76197680830955516 1.1573440432548525 1.0539934635162356 -1.7113639116287229 0.98931506276130687 1.0000000180025095e-35 -0.79485598206520069 -1.1116126179695127 1.2845172286033633 1.0485297441482546 -0.8557436168193816 1.5010377764701845
decision_type=2 2 2 2 2 2 2 2 2 2 2 2 2 2 2 2 2 2 2 2 2 2 2 2 2 2 2 2 2 2 2 2 2 2 2 2 2 2 2 2 2 2 2 2 2 2 2 2 2 2 2 2
left_child=1 2 3 6 10 -6 7 -1 48 22 -5 25 23 14 17 21 -17 18 -10 -19 -8 -16 24 28 -4 26 27 -3 -13 -28 34 32 -11 46 45 -36 -35 -25 -33 44 42 -42 -27 -24 -14 -15 -32 -41 49 50 -2 -52
right_child=8 11 9 4 5 -7 20 -9 13 31 -12 12 39 30 15 16 -18 19 -20 -21 -22 -23 43 37 -26 40 29 -29 -30 -31 33 38 -34 36 35 -37 -38 -39 -40 47 41 -43 -44 -45 -46 -47 -48 -49 -50 -51 51 -53
leaf_value=0.22492448885855343 -0.11198269052003079 0.089343820297989096 0.21196003024964757 0.2511786576427042 -0.081784953973309329 0.17134155073648971 0.32913814849326295 0.12668376957340929 0.0075531559766871554 0.089028104199951205 0.35554871668989529 0.13258966168826233 0.1861551687363607 0.193878387470661 0.12364893327831378 -0.030255614331224336 0.14478095255776519 -0.014721262177914918 0.13906506839658508 0.26914018099961351 -0.030736630677534928 0.27432803212529328 -0.04203967769232992 0.25860393270764387 0.058861727888036314 0.29245462053538102 0.11874365116409523 0.28152889082221683 0.027703405423375044 -0.024182559633722053 -0.12461446824572507 0.052707513904838937 -0.022859102886946488 0.14027063023466063 0.16071558819209486 0.047153382550558121 0.38461343972119183 0.10461867294319571 -0.048181776377790461 0.19461700107823979 0.045015080142973542 0.37394060992173239 0.088960229497622292 0.1024575018598152 0.29604595222941471 0.42125645212856649 0.16147441377587568 -0.056560302282898545 -0.11696091502224418 -0.11435004098002109 -0.11199438378643617 -0.11199385807355666
leaf_weight=22017.373787775636 1.9110956117510784 261.39827358722687 770.69876100867987 2576.4417549520731 605.30203177034855 31093.157521523535 2657.975246116519 4095.6560379415751 549.38473410159349 647.92813561856747 904.2000851854682 305.96229598671198 172.31014271825552 31.466321110725403 381.81469787657261 376.44213983416557 287.25280174612999 1408.2156059518456 751.17252177000046 70.577481232583523 33.216722100973129 337.26563939452171 86.54719028621912 97.879607029259205 160.60779222846031 208.28431542217731 500.13166000694036 271.46990901231766 2155.1763283163309 199.87881352752447 11.439170092344286 156.95087697356939 257.19486667215824 32.509326919913292 374.33294424414635 245.70058753341436 97.380098477005959 129.14727552235126 502.42956709861755 8.4064207673072833 59.555658765137196 24.169738918542862 25.218817666172981 70.091761879622936 98.451568692922592 25.475336387753487 9.2592480480670911 20.791895434260368 1.8876547068357457 1.9510947912931431 455.76337137818336 1.9124954789876927
leaf_count=60153 20 1235 2227 5099 3441 107986 4435 15883 3516 2783 1323 1652 657 131 1956 2647 1202 9738 3908 216 157 1286 467 376 724 646 2493 752 14510 1270 73 910 1623 133 1494 1430 173 647 3105 36 337 75 131 314 236 41 36 141 16 18 4766 20
internal_value=0 0.185936 0.192146 0.196795 0.177568 0.166508 0.220277 0.209516 0.0652022 0.0800103 0.278292 0.0947483 0.0671923 0.0816624 0.0665063 0.122892 0.0455017 0.0384536 0.0835115 -0.00117358 0.324696 0.194321 0.162098 0.051744 0.185558 0.147868 0.125182 0.187253 0.0407426 0.0779329 0.157888 0.0229268 0.0572348 0.279461 0.130845 0.115714 0.323458 0.171007 -0.0241673 0.205636 0.236032 0.139969 0.270477 0.022619 0.226113 0.295606 0.00336478 0.0157556 -0.112024 -0.112004 -0.111994 -0.111994
internal_weight=0 71174 66635.8 63983.3 35179.1 31698.5 28804.2 26113 5453.11 2652.45 3480.64 4538.23 2988.13 4989.69 4162.13 1382.78 663.695 2779.35 1300.56 1478.79 2691.19 719.08 1087.95 2688.17 931.307 1550.11 1232.88 532.868 2461.14 700.01 827.563 1564.5 905.123 150.588 676.975 620.034 129.889 227.027 659.38 299.96 317.229 83.7254 233.503 156.639 270.762 56.9417 20.6984 29.1983 463.426 461.538 459.587 457.676
internal_count=268644 235824 210630 198477 117849 111427 80628 76036 32820 12153 6422 25194 18255 27980 24469 7091 3849 17378 7424 9954 4592 3242 3732 17185 2951 6939 5750 1987 16162 3763 3511 8421 4406 415 3096 2924 306 1023 4015 1070 1189 412 777 781 893 172 109 177 4840 4824 4806 4786
is_linear=0
shrinkage=0.1


Tree=3
num_leaves=56
num_cat=0
split_feature=107 130 30 8 117 3 45 30 73 74 55 56 37 126 104 129 29 77 42 39 127 37 36 38 82 109 136 81 93 132 75 93 89 32 30 101 43 127 31 53 38 58 125 25 62 76 115 53 10 106 106 130 26 106 71
split_gain=4963.34 2658.29 2596.94 2578.99 2185.51 2793.89 1733.32 1193.07 1032.19 817.641 771.061 661.784 793.194 781.134 620.861 544.643 479.799 372.107 398.891 373.225 314.372 1080.48 295.503 281.158 276.282 435.334 334.088 283.67 261.193 231.944 314.24 238.642 207.234 203.788 179.38 166.435 166.353 146.436 137.201 132.669 130.629 124.913 107.871 106.155 64.3587 61.1767 57.5269 39.0104 15.0826 2.55145 0.0783078 0.0463921 0.00957966 0.00772251 0.000295214
threshold=-0.84440016746520985 1.0000000180025095e-35 1.0863971114158633 0.70523372292518627 -1.5648936033248899 -0.054696075618267052 0.773973047733307 1.0747812390327456 -0.90529245138168324 -1.0100386142730711 0.8783206343650819 0.96595481038093578 0.98579218983650219 -1.8367699980735777 -0.9126591384410857 1.0000000180025095e-35 1.2115847468376162 -1.1916915178298948 1.1020781993865969 1.0248659253120425 -1.8442430496215818 0.97230803966522228 0.93433436751365673 1.0265029668807986 -1.3789130449295042 -0.85513216257095326 1.0000000180025095e-35 -1.408162474632263 -1.0700120925903318 1.0000000180025095e-35 -1.0825393199920652 -1.0505093336105344 -1.1631436944007871 0.96326878666877758 1.0556214451789858 -0.77310350537300099 1.1522359251976015 -3.2311935424804683 1.0197390317916872 1.1098651289939883 1.0149853825569155 0.87573561072349559 -1.4822601675987241 1.6773871779441836 0.62115937471389782 -1.1461842656135557 -1.0200042128562925 1.0560837984085085 0.5993541181087495 -0.83579319715499867 -0.82767051458358754 1.0000000180025095e-35 1.217734754085541 -0.81988367438316334 -0.68790379166603077
decision_type=2 2 2 2 2 2 2 2 2 2 2 2 2 2 2 2 2 2 2 2 2 2 2 2 2 2 2 2 2 2 2 2 2 2 2 2 2 2 2 2 2 2 2 2 2 2 2 2 2 2 2 2 2 2 2
left_child=1 2 3 4 37 -6 43 15 29 -9 16 24 20 23 -12 -5 -10 19 38 32 22 -22 -13 -14 25 41 28 -27 -26 30 -4 -31 34 -34 -3 44 -37 -1 39 -19 -15 -8 -28 49 -20 48 -47 -40 -21 51 54 52 -2 -52 -51
right_child=6 17 8 7 5 -7 11 9 10 -11 14 12 13 40 -16 -17 -18 18 35 45 21 -23 -24 -25 26 27 42 -29 -30 31 -32 -33 33 -35 -36 36 -38 -39 47 -41 -42 -43 -44 -45 -46 46 -48 -49 -50 50 53 -53 -54 -55 -56
leaf_value=0.20733494223319018 -0.13006575909249596 0.16846176110313302 0.044867168877885409 0.22043977284301791 -0.028171986731258293 0.15044472030652467 0.19398185130821541 0.10762222124824319 0.18337790892113745 0.18634411121960356 0.14871979867798577 0.15243113840675337 -0.088193642735298297 0.13785945699542912 0.016798463366115013 0.0095922492542204543 0.079097055622855197 -0.0072630113894402715 0.36034363705825023 0.4810554171684458 0.0025356036942633803 0.20470290038458125 -0.044359062647681094 0.11898391491002079 -0.0048170122341874106 0.13212168690519766 0.36009082270663706 0.066254258492676188 0.089695969109294338 -0.13203444965035191 -0.059639465719655033 0.33768979666553456 0.020576007764922844 0.13633885543025984 0.091175037450510574 0.0066757593991146613 0.15543682427338631 0.27187925296442289 0.12097397444410976 0.10577412810514326 0.23264104989592221 0.42600710806026643 0.16278702921267979 0.22986756028212071 0.17483804946009071 0.27742559699158925 0.096788343797347354 0.41965136864248004 0.32941245636052391 -0.11905382808839247 -0.11387020109770662 -0.12354885214272381 -0.13482033039531549 -0.11075188796000189 -0.12027320863800468
leaf_weight=464.44447919726372 4.6516873538494101 412.91304758936167 1373.1564694643021 10159.606772229075 892.55330783128738 46435.034007139504 529.98522992432117 1892.9906907081604 1760.8571829348803 4354.1844241917133 568.63887013494968 84.00424387305975 170.25218974798918 243.7873697578907 957.39842450618744 124.00636687874794 588.73298547416925 1072.6667388230562 21.669556967914104 13.165204599499704 1180.2968180403113 340.66105528175831 832.58098997920752 106.46536406129599 476.6858674287796 1718.68238363415 37.519060671329498 1055.3177881538868 756.34532611817122 14.253073766827582 363.99080765247345 44.849853232502937 606.92418146133423 202.9085124284029 1101.1732595264912 166.71428327262402 136.89893823862076 1445.5109512060881 7.9853786081075695 114.95904016494751 360.33202061802149 24.264960035681725 105.98783252388239 9.1657098233699781 136.57676787674427 71.721642427146435 23.376407414674759 9.6665849387645704 13.070752799510954 2.7952878996729851 8.0940251648426038 4.2636159956455222 47.612766996026039 422.27723121643066 6.853092432022093
leaf_count=720 27 1480 6261 20814 4448 136251 1763 6463 4630 10123 1669 372 1251 978 4290 652 2192 7615 43 19 7566 1508 5888 393 2483 7056 41 4912 3537 79 1947 53 3970 1121 5063 932 552 1428 35 650 1010 58 276 24 447 177 93 10 29 21 76 28 249 4822 49
internal_value=0 0.152683 0.157183 0.162783 0.151309 0.147076 0.072207 0.196958 0.0922596 0.16249 0.121302 0.0835251 0.0493278 0.130659 0.0659556 0.217897 0.157248 0.0745021 0.0380718 0.0993397 0.0199379 0.0478166 -0.0263234 -0.00848336 0.107645 0.12323 0.0699644 0.107064 0.0531576 0.0295977 0.0229695 0.224413 0.0904128 0.0495811 0.112252 0.117091 0.073752 0.256184 0.007792 0.00367869 0.194393 0.20414 0.214371 -0.107355 0.20024 0.270319 0.233022 0.284536 0.405507 -0.11358 -0.11101 -0.133579 -0.134397 -0.110811 -0.11992
internal_weight=0 75552.6 71440.2 65768.3 49237.5 47327.6 8528.88 16530.8 5671.88 6247.18 3875.63 8023.17 3318.38 880.837 1526.04 10283.6 2349.59 4112.39 1667.14 2445.25 2437.54 1520.96 916.585 276.718 4704.79 3328.25 1376.54 2774 1233.03 1796.25 1737.15 59.1029 2323.92 809.833 1514.09 461.86 303.613 1909.96 1205.28 1187.63 604.119 554.25 143.507 505.713 158.246 121.334 95.098 17.652 26.236 496.548 440.02 56.5281 52.2645 430.371 9.64838
internal_count=268644 224256 202020 180899 142847 140699 44388 38052 21121 16586 12781 39092 18966 3632 5959 21466 6822 22236 10284 11952 15334 9074 6260 1644 20126 13789 6337 11968 6020 8340 8208 132 11634 5091 6543 1974 1484 2148 8310 8265 1988 1821 317 5296 490 318 270 45 48 5272 4968 304 276 4898 70
is_linear=0
shrinkage=0.1


Tree=4
num_leaves=53
num_cat=0
split_feature=106 131 128 130 129 102 49 34 86 109 84 85 83 35 111 84 31 7 35 127 127 36 113 71 32 3 102 105 38 89 129 112 84 119 87 74 57 43 50 128 55 37 118 58 122 47 71 49 26 51 112 105
split_gain=3613.69 2091.07 2034.08 2119.26 1945.36 1685.27 936.343 772.265 534.574 567.873 537.092 418.574 411.665 372.47 310.494 320.699 307.082 299.204 371.727 470.922 364.233 618.06 311.9 216.281 203.548 372.212 176.27 158.122 149.054 113.401 110.985 95.4071 157.101 101.353 91.9373 85.0928 106.988 121.599 73.4004 73.7409 69.8328 58.6456 52.6876 46.0025 41.9421 30.9834 19.7965 10.7318 0.0111404 0.00229201 4.41432e-05 6.65971e-06
threshold=-0.81662943959236134 1.0000000180025095e-35 1.0000000180025095e-35 1.0000000180025095e-35 1.0000000180025095e-35 -0.55779716372489918 0.925014227628708 0.93588575720787059 -1.2654947638511655 -0.88742849230766285 -1.3277058601379392 -1.2788794040679929 -1.3900781869888303 0.94204363226890575 -0.93281766772270192 -1.2717086672782896 1.0156026482582095 0.64576494693756115 0.95027279853820812 -2.0245406627655025 -1.8068222999572752 0.94001200795173656 -0.9348059594631194 -0.4728520661592483 0.96506229043006908 0.55572855472564708 -0.80758392810821522 -0.87325799465179432 1.0265029668807986 -1.1954250335693357 1.0000000180025095e-35 -0.8414262831211089 -1.4076248407363889 -0.8944323956966399 -1.2494246959686277 -1.0120359063148496 0.90025982260704052 1.0442804694175722 1.0914918184280398 1.0000000180025095e-35 0.96175450086593639 0.92070505023002636 -0.92335686087608326 0.83927130699157726 -1.0887406468391416 1.1364629268646242 -0.55534526705741871 1.1102195382118227 1.3583412766456606 1.0352796316146853 -0.8076668083667754 -0.86121258139610279
decision_type=2 2 2 2 2 2 2 2 2 2 2 2 2 2 2 2 2 2 2 2 2 2 2 2 2 2 2 2 2 2 2 2 2 2 2 2 2 2 2 2 2 2 2 2 2 2 2 2 2 2 2 2
left_child=1 2 3 4 5 -1 48 -6 9 34 -11 23 35 -13 15 -10 24 18 20 28 22 -22 -8 -5 25 -14 31 -26 -20 -16 -21 32 -19 -33 -4 36 37 -3 40 -40 -28 46 44 -43 -37 -44 -18 -38 49 50 -2 -52
right_child=6 12 8 11 7 -7 17 -9 14 10 -12 13 16 -15 29 -17 41 26 19 30 21 -23 -24 -25 27 -27 38 -29 -30 -31 -32 33 -34 -35 -36 42 47 -39 39 -41 -42 43 45 -45 -46 -47 -48 -49 -50 -51 51 -53
leaf_value=0.14410607029497752 -0.11011740569904618 0.1717040245187097 0.25381615922792949 0.082174246835351794 0.048300168062913346 -0.029167915615113123 0.020723222346196151 0.15578556683119049 0.12649410013043477 0.10440387781356045 -0.04667268648352757 0.038390129068717894 0.015341696738931244 0.14406195010822617 0.072160450517384039 0.017805001236618538 -0.048394960665375353 0.16237696790613831 -0.086805034083395807 0.1223566218870164 0.0076691374849840281 0.12132575608185547 -0.083148595098847256 0.1506795287959963 0.254575751116486 0.077904461829144636 0.2489431732572224 0.099528654082596646 0.069159489649149919 -0.10219017015972301 0.21807809340348883 -0.090410321906010283 0.042392112795431494 0.071778063331365424 0.13504884861867966 0.040015201340571419 -0.12712041346851266 0.3308945185604909 0.064226763270895479 0.29312314128824757 0.047883312813484541 0.082189372375937597 -0.098300826439443878 -0.09501904449660141 0.31573675928231437 0.13933441042845832 -0.11656421095317443 0.081140699975740138 -0.11808189068776308 -0.11325329368970133 -0.10979314110002875 -0.10959925639781964
leaf_weight=65554.003305643797 1.6571742817759503 218.25283937901258 227.11037503182888 1162.8906866237521 3171.02677231282 566.15788279473782 846.38036157935858 846.99266820400953 337.24231927841902 1085.740949228406 300.43122770637274 2894.6850516721606 1422.3007437065244 377.00140203535557 44.331110090017319 1391.9997985064983 85.278750993311405 244.30669241398573 123.79477696865797 317.53096875548363 1185.0935968011618 802.41016142070293 439.0321860909462 763.40535552054644 74.303367495536804 2869.502659574151 27.431931853294373 573.11455875635147 121.33505262434483 235.38503428548574 195.83243165165186 55.143657818436623 197.21827617287636 127.88637488335371 91.411371231079102 11.817088335752489 10.580767095088957 61.506515696644783 16.984449446201324 82.145834520459175 46.65372271835804 47.170955568552017 21.167732708156112 21.247743591666222 10.348503991961477 7.4063621014356604 85.122134789824486 3.2295643836259833 1.5617621392011631 1.7273589596152295 1.7799497842788685 378.15265650302172
leaf_count=155902 20 640 401 4803 14381 2749 5114 2750 1113 3886 1449 17321 6440 1129 149 5761 622 723 936 1063 6905 3758 3193 2742 182 11660 50 2156 463 1238 496 325 874 601 291 54 64 92 68 91 173 191 118 124 17 26 541 15 13 17 22 4732
internal_value=0 0.126233 0.13039 0.133951 0.138517 0.142622 0.0404549 0.0709579 0.05814 0.0993275 0.0716604 0.0723412 0.0667413 0.0505669 0.0231904 0.0390019 0.0597009 0.0524183 0.0413455 0.104423 0.0267274 0.0535555 -0.0147542 0.109323 0.0650557 0.0571712 0.108373 0.117323 -0.00960528 -0.074558 0.158871 0.0836182 0.108783 0.0229136 0.219732 0.172622 0.19329 0.206703 0.19763 0.253905 0.12233 -0.0510479 0.0530437 0.0271565 0.168742 -0.0367061 -0.0824483 -0.0784183 -0.109653 -0.109619 -0.109602 -0.1096
internal_weight=0 84572.2 79049.8 75336.2 70138.2 66120.2 5214.06 4018.02 3713.65 1704.69 1386.17 5197.98 5522.35 3271.69 2008.96 1729.24 5178.04 4829.18 4031.41 758.493 3272.92 1987.5 1285.41 1926.3 4939.22 4291.8 797.771 647.418 245.13 279.716 513.363 624.555 441.525 183.03 318.522 344.309 293.57 279.759 173.216 99.1303 74.0857 238.82 50.7397 68.4187 22.1656 28.5741 170.401 13.8103 384.879 383.317 381.59 379.933
internal_count=268644 239007 216065 201777 175782 158651 29637 17131 14288 6027 5335 25995 22942 18450 8261 6874 21916 24833 21928 2958 18970 10663 8307 7545 20438 18100 2905 2338 1399 1387 1559 2523 1597 926 692 1026 811 732 382 159 223 1478 215 315 71 144 1163 79 4804 4791 4774 4754
is_linear=0
shrinkage=0.1


Tree=5
num_leaves=52
num_cat=0
split_feature=106 118 127 30 32 134 33 121 108 51 122 10 54 110 116 102 135 123 38 71 135 126 50 35 47 44 122 46 36 74 120 115 118 32 112 127 73 59 112 60 60 3 92 1 103 113 28 47 106 112 25
split_gain=2662.58 1781.64 2424.07 1870.21 1898.69 1820.09 1249.22 1998.41 1176.21 931.36 761.982 757.193 592.009 458.6 797.476 532.353 370.176 342.94 360.046 436.75 443.487 434.696 326.804 308.314 295.617 275.231 271.698 271.673 262.652 260.015 256.125 215.949 197.604 144.033 127.066 139.695 125.911 125.637 119.934 118.905 108.028 93.0218 74.4625 69.4195 67.5582 63.5916 23.2762 0.087394 0.0287842 0.00195993 0.0012122
threshold=-0.82767051458358754 -1.5885145068168638 -2.5041952133178706 1.0853088498115542 0.94817480444908153 1.0000000180025095e-35 0.83437913656234752 -1.8438327908515928 -1.0076771378517149 0.99953559041023265 -1.0646010041236875 0.21963088214397433 0.92319050431251537 -1.1970764398574827 -1.5217204689979551 -0.53625562787055958 1.0000000180025095e-35 -1.128711938858032 1.0131382942199709 -0.3620909303426742 1.0000000180025095e-35 -1.869023263454437 1.1797037720680239 0.94300743937492382 1.224474370479584 1.0776931643486025 -2.0128744840621944 1.2203785777091982 0.97600275278091442 -1.0396697521209715 -1.7425011992454527 -1.4703937172889707 -1.6225578188896177 0.94846811890602123 -1.3057926297187803 -3.1809141635894771 -0.38042995333671564 0.85958856344223034 -1.2865021228790281 0.69959959387779247 0.80954852700233471 0.68203899264335643 -1.1795927882194517 -0.2284087538719177 -0.66015666723251332 -1.2079946398735044 1.3932197093963625 0.89731946587562572 -0.81988367438316334 -0.89722782373428334 1.3471093177795412
decision_type=2 2 2 2 2 2 2 2 2 2 2 2 2 2 2 2 2 2 2 2 2 2 2 2 2 2 2 2 2 2 2 2 2 2 2 2 2 2 2 2 2 2 2 2 2 2 2 2 2 2 2
left_child=1 13 6 4 5 -4 16 22 -6 46 12 -9 -5 14 27 34 31 18 19 23 -21 28 -8 -11 26 33 -16 44 -20 -12 -29 -3 -17 41 35 -15 -26 42 -34 -35 -23 -19 -27 -36 -1 -18 47 48 50 -50 -2
right_child=9 2 3 10 8 -7 7 11 -10 17 29 -13 -14 15 24 32 45 25 21 20 -22 40 -24 -25 36 37 -28 30 -30 -31 -32 -33 38 39 43 -37 -38 -39 -40 -41 -42 -43 -44 -45 -46 -47 -48 -49 49 -51 -52
leaf_value=0.21536232505238476 -0.11382359008727759 0.26911811368479938 0.12081361816632125 0.11004587748256818 0.20709072943078077 0.17721671851330878 0.29951961219430723 -0.069679154597341503 0.092495249913744679 0.039759352378677469 0.074156175436132996 0.061442979845957361 0.040300965110378451 0.15906726494798676 -0.11557760413109963 0.25175772199093127 -0.018873513279939816 -0.0048936857435418167 -0.079650412921419569 -0.061456066443127649 0.27864830480455144 0.17222232250953165 0.063493107648523506 0.12057484613628695 -0.11001534636753073 0.12299971831655493 0.13217997551297575 0.14330808052461613 0.08555569457527229 -0.0080620648059422911 -0.085817455553682642 -0.10297778689747911 -0.12314399798035197 0.19693662837550849 0.12787425976755037 0.23182613925816217 0.095207334476885522 0.58847588941399165 0.2865930308264068 0.088723759943881375 0.086012214352861494 0.29564208905507394 0.26791474225932249 0.26032726682852991 0.10084572449163212 0.25929031303844424 0.26931982736650589 -0.12851433862610487 -0.11224176281793226 -0.1086360616683963 -0.11653661269981802
leaf_weight=908.00477564334869 6.2871180027723295 15.99162384867668 32636.479355312884 3232.3631265088916 927.23713347315788 6937.3094561994076 403.34534387290478 472.2084456756711 26311.845725141466 4531.2313412576914 509.69356115162373 6539.4982876181602 1951.9903496354818 470.87792955338955 53.103834494948387 22.474394977092743 10.609237805008886 177.08056107908487 164.96481974422932 597.10564124584198 40.971181020140648 506.52900478988886 68.647290349006653 526.9677467495203 146.66028782725334 58.304232813417912 265.84365731477737 351.70090943574905 230.97740140557289 1567.8196743801236 56.644601672887802 632.04030795395374 73.377309396862984 131.46476568281651 41.846333846449852 600.27600547671318 37.550324529409409 9.3796923607587797 7.9144003540277472 446.10905073583126 203.84739940613508 10.934910096228121 90.488025233149529 727.16933320462704 54.614453196525574 36.472977712750435 1.6343419551849354 2.2604795694351187 1.5140125676989544 351.08701003342867 2.2314261794090271
leaf_count=811 59 20 79054 8459 1381 11624 345 2082 80135 22639 2092 19519 7224 656 220 17 39 878 1195 4284 51 1283 231 2053 613 254 545 546 752 6508 196 3378 354 322 87 429 89 15 15 1578 727 26 262 582 104 55 3 14 17 4803 19
internal_value=0 0.108872 0.105772 0.111477 0.116715 0.130701 0.0541088 0.0660197 0.0963962 0.0488723 0.0632802 0.0526125 0.0837858 0.175651 0.140354 0.20968 -0.0741254 0.0562465 0.0484829 0.0383441 -0.0396178 0.100686 0.265192 0.0481788 0.0326772 0.113418 0.0909291 0.179872 0.0167245 0.0121092 0.111524 -0.0937955 -0.0106939 0.0886075 0.222107 0.199841 -0.0681818 0.233507 -0.0832528 0.113355 0.147484 0.0125854 0.21113 0.25312 0.208865 0.19661 -0.107219 -0.108913 -0.10879 -0.108652 -0.114534
internal_weight=0 86071.6 82253.6 74074.7 66812.9 39573.8 8178.81 7483.7 27239.1 8091.37 7261.87 7011.71 5184.35 3818.06 1874.12 1943.94 695.114 7726.36 6802.59 5696.28 638.077 1106.32 471.993 5058.2 503.158 923.761 318.947 1370.96 395.942 2077.51 408.346 648.032 103.766 765.589 1840.17 1071.15 184.211 158.172 81.2917 577.574 710.376 188.015 148.792 769.016 962.619 47.0822 365.014 363.38 361.12 352.601 8.51854
internal_count=268644 227410 222146 196477 172194 90678 25669 22177 81516 41234 24283 21601 15683 5264 3124 2140 3492 36319 32984 29027 4335 3957 576 24692 1467 3335 765 1657 1947 8600 742 3398 386 2804 1754 1085 702 531 369 1900 2010 904 516 669 915 94 4915 4912 4898 4820 78
is_linear=0
shrinkage=0.1


Tree=6
num_leaves=61
num_cat=0
split_feature=106 30 136 103 119 129 127 131 39 119 72 55 105 50 134 78 110 114 109 134 105 132 110 116 30 5 32 34 54 30 74 4 103 69 29 91 33 120 80 102 94 70 32 83 122 0 81 43 80 123 28 93 73 73 69 29 30 107 31 106
split_gain=2154.48 1726.07 1703.92 1410.67 1995.62 1370.61 1305 1096.33 1054.2 878.755 858.05 943.454 827.636 894.301 1074.82 792.398 900.386 733.848 689.575 689.187 514.642 446.828 435.531 650.743 432.703 562.101 560.815 516.038 404.63 391.168 339.529 356.531 254.09 249.34 239.233 219.673 208.731 186.654 311.353 177.251 163.87 159.833 158.503 155.538 120.754 105.119 80.1006 98.3936 78.7477 63.8515 52.9143 48.4893 30.2541 18.3185 13.9503 7.56823 5.0409 3.35694 0.242014 0.204426
threshold=-0.86078113317489613 1.0817872881889345 1.0000000180025095e-35 -0.8542308211326598 -1.6424897909164426 1.0000000180025095e-35 -2.4820351600646968 1.0000000180025095e-35 0.96064811944961559 -1.3891570568084715 -0.78065857291221608 0.86327743530273449 -0.76301389932632435 1.15950483083725 1.0000000180025095e-35 -1.2674567699432371 -0.90354320406913746 -0.88384252786636341 -0.90947532653808583 1.0000000180025095e-35 -0.93587681651115406 1.0000000180025095e-35 -1.1970764398574827 -1.5217204689979551 1.0690816044807436 0.61423683166503917 0.96289333701133739 0.9030851721763612 1.1591241359710696 1.0938297510147097 -1.0302085280418394 0.72120749950408947 -0.92362123727798451 -0.31959412992000574 1.2353871464729311 -0.23193512111902234 0.95317915081977855 -1.7577140927314756 -0.2358698099851608 -0.88647097349166859 -1.027444005012512 -0.47752846777439112 0.82225263118743908 -1.1598759293556211 -1.2019327878952024 0.5212855637073518 -1.3342940807342527 0.9975343942642213 -0.52756103873252858 -1.1620192527770994 1.1967834830284121 -1.0133914351463316 -0.92992454767227162 -0.82711341977119435 0.010025331750512125 0.86442694067955028 1.0947450399398806 -0.7944575548171996 0.99657523632049572 -0.82767051458358754
decision_type=2 2 2 2 2 2 2 2 2 2 2 2 2 2 2 2 2 2 2 2 2 2 2 2 2 2 2 2 2 2 2 2 2 2 2 2 2 2 2 2 2 2 2 2 2 2 2 2 2 2 2 2 2 2 2 2 2 2 2 2
left_child=1 3 12 5 22 7 8 19 -6 -8 21 29 13 15 36 16 -2 24 -17 -1 41 30 23 -5 25 26 -4 -27 37 39 31 -3 -31 -22 -32 -24 -15 38 -14 -12 52 -13 -39 -16 -9 50 47 -7 54 -47 -26 -48 -23 57 -30 -50 -42 58 -19 -59
right_child=2 10 17 4 6 46 9 44 -10 -11 11 20 28 14 43 18 -18 53 -20 -21 33 40 35 -25 45 27 -28 -29 48 32 34 -33 -34 -35 -36 -37 -38 42 -40 -41 56 -43 -44 -45 -46 49 51 -49 55 -51 -52 -53 -54 -55 -56 -57 -58 59 -60 -61
leaf_value=0.12636789283905339 0.11800316262676631 -0.026742035655518206 0.074170066782395558 0.15805798361267603 -0.052514247477672076 -0.12973596746907323 0.19657886890662946 -0.013480353475145455 0.061393459152668112 0.091993183594315159 0.15431826352645395 -0.037262580062480892 0.32728871363285206 0.063705342226922243 0.079909431095878114 0.049817348371962659 0.052493274003887092 -0.13739600152094208 -0.014645976330356478 0.17956889701572365 -0.017241281794360533 -0.13656316108591765 0.1978271274750944 0.022429381769822451 -0.00093635018452339121 0.12460824799810698 0.1481193333364699 0.22240658756253745 0.18379719280780429 0.11454492455695538 -0.0016396624078935747 0.10655786658725641 0.0045721110287449598 0.048593910599538916 -0.089529526343884405 0.038265382717197885 0.15061954628511184 -0.10807520099979906 -0.071147705532490821 -0.030992083953373602 0.22236031894265326 0.13232226588520254 -0.018437604486399081 0.24190057886128047 0.060461816086446719 0.25647146849385355 -0.027907392313611324 0.16857862826842784 -0.13442238096236617 -0.014801807680762709 -0.13205610886876806 -0.097791279845445972 0.057510296856096092 0.16417471737099859 0.27632953169597729 0.046553200844011711 0.26642027311340633 -0.12914038906201156 -0.14945390808353162 -0.10877894445195724
leaf_weight=21510.683466337621 2641.0622092932463 331.6954243928194 3294.7597943395376 1404.2068748176098 918.20636110007763 15.672104716300963 843.19071173667908 261.37850278615952 7056.7771753370762 17017.30461537838 1930.2717965841293 59.542748793959618 32.81627057492733 1749.6504050195217 66.045377969741821 4137.5235683172941 10204.271146416664 40.065252065658569 2770.6193026080728 2745.8157794475555 697.34434154629707 11.829788491129873 1938.4745286256075 472.89378775656223 47.971328139305115 1689.8240832164884 1489.0157904922962 792.59778700768948 36.14559431374073 504.65766316652298 1186.2459406554699 507.872034907341 359.94543609023094 3286.3720072731376 419.12543961405754 90.301156982779503 328.13614498078823 459.48698810487986 48.744840428233147 53.034665301442146 76.187064468860626 834.40499737858772 345.67339133471251 577.98793302476406 1424.7524806782603 16.038618788123131 334.56447046995163 37.542010247707367 6.7410561740398389 18.903258502483368 85.872263818979263 141.18568925559521 25.024130776524544 2.1957423388957968 29.664135575294495 3.5160037279129028 39.393399327993393 5.3872471004724494 28.476195380091667 58.198437690734863
leaf_count=41440 7636 1548 8606 1646 3525 89 1190 1095 20395 44316 3365 221 25 6901 166 13891 41434 206 12638 3171 2725 63 1729 1397 150 3416 2995 1002 73 1162 4549 1581 1345 10865 2129 277 770 4982 270 177 77 1639 2055 647 5085 13 1500 110 41 60 358 752 67 7 35 14 33 32 129 829
internal_value=0 0.100028 0.0681115 0.10693 0.0919844 0.123721 0.0819126 0.12697 0.0482786 0.0969307 0.0624423 0.0791592 0.0547898 0.0586791 0.112417 0.0512746 0.0659624 0.109362 0.0239633 0.13239 0.0524567 0.0127199 0.158605 0.123889 0.113547 0.117224 0.0971878 0.155834 -0.0360018 0.124893 0.00236341 0.0538939 0.0687618 0.0370695 -0.0245857 0.190725 0.0774313 -0.0549893 0.089164 0.149363 0.17883 0.121027 -0.0695918 0.225288 0.0489995 -0.0447386 -0.0356319 0.0807219 0.185338 0.109715 -0.085061 -0.0486464 -0.0047856 -0.122292 0.225507 -0.072386 0.237377 -0.127053 -0.142406 -0.110504
internal_weight=0 66535.9 31007.4 56212.9 29741.4 26471.6 25835.5 25942.6 7974.98 17860.5 10322.9 7725.57 23438.1 22475.3 2721.82 19753.5 12845.3 7569.31 6908.14 24256.5 4877.66 2597.37 3905.88 1877.1 7434.98 7266.2 4783.78 2482.42 962.788 2847.91 2444.94 839.567 864.603 3983.72 1605.37 2028.78 2077.79 886.721 81.5611 1983.31 152.434 893.948 805.16 644.033 1686.13 168.785 528.964 53.2141 76.0668 34.9419 133.844 475.75 36.8539 134.323 65.8097 10.2571 115.58 132.127 68.5414 63.5857
internal_count=268644 159263 109381 127717 74475 53242 69426 50791 23920 45506 31546 21499 91578 84083 8484 75599 49070 17803 26529 44611 15450 10047 5049 3043 16600 16019 11601 4418 7495 6049 9807 3129 2507 13590 6678 2006 7671 7332 295 3542 240 1860 7037 813 6180 581 2451 199 163 73 508 2252 130 1203 108 55 110 1196 335 861
is_linear=0
shrinkage=0.1


Tree=7
num_leaves=56
num_cat=0
split_feature=105 121 106 134 136 135 32 54 105 32 133 115 72 32 127 38 83 26 111 119 52 127 50 49 108 30 35 124 53 118 100 106 40 43 76 127 72 90 82 118 120 112 18 81 120 112 21 117 38 55 95 107 115 112 108
split_gain=1731.23 1599.74 1297.57 1643.72 1482.58 1608.22 1470.47 883.149 847.287 765.3 983.241 681.595 549.609 544.469 498.365 379.548 320.919 346.75 299.956 447.853 352.539 292.69 280.057 279.492 262.188 233.341 203.13 279.651 261.722 176.8 175.705 151.167 102.692 101.971 89.821 83.3112 255.852 73.0768 63.5395 54.8464 54.1744 38.1609 30.4026 23.7221 24.7696 14.0955 12.3968 7.73795 5.27352 8.33106 1.13398 0.649701 0.0531395 0.0386271 0.0309782
threshold=-0.78561493754386891 -1.8438327908515928 -0.95629602670669545 1.0000000180025095e-35 1.0000000180025095e-35 1.0000000180025095e-35 0.95076695084571849 1.0705043673515322 -0.83993959426879872 0.91637817025184642 1.0000000180025095e-35 -0.88737639784812916 -0.27325646579265589 0.82606488466262828 -3.4934617280960079 0.94517993927001964 -0.94559484720230091 1.4416108727455141 -1.2449359297752378 -1.6662176847457884 1.1436181068420412 -1.5555470585823057 1.2384367585182192 1.1825864315032961 -1.0582410693168638 1.1060767173767092 0.94634109735488903 -1.4721322059631345 1.1596266031265261 -1.6225578188896177 -0.85358855128288258 -0.98237726092338551 1.0617246031761172 1.075963616371155 -0.46803928911685938 -3.2311935424804683 -0.32028155028820032 -0.22279337048530576 -0.17804303020238874 -1.6225578188896177 -1.7425011992454527 -1.2865021228790281 1.102793872356415 -0.37141852080821985 -1.7309663295745847 -1.1863892078399656 1.6690475940704348 -1.5370387434959409 0.97761783003807079 1.040125370025635 -0.29656977951526636 -0.93089845776557911 -1.4638751745223997 -1.2988319993019102 -1.0147012472152708
decision_type=2 2 2 2 2 2 2 2 2 2 2 2 2 2 2 2 2 2 2 2 2 2 2 2 2 2 2 2 2 2 2 2 2 2 2 2 2 2 2 2 2 2 2 2 2 2 2 2 2 2 2 2 2 2 2
left_child=1 18 9 4 5 -4 7 -5 -8 16 31 -6 13 22 38 -12 25 -18 19 35 43 26 29 24 -21 -3 28 -28 -15 -2 42 -11 -25 -32 -22 36 -1 45 -14 -37 -36 48 -23 47 -45 -24 -31 -20 49 -16 -50 52 -40 -39 -53
right_child=12 2 3 6 11 -7 8 -9 -10 10 15 -13 14 21 41 -17 17 -19 20 23 34 30 37 32 -26 -27 27 -29 -30 46 33 -33 -34 -35 40 39 -38 53 51 -41 -42 -43 -44 44 -46 -47 -48 -49 50 -51 -52 54 -54 -55 -56
leaf_value=-0.13236031205594143 0.14395050105452845 0.13056737292594997 0.050493375399376698 0.11570563407278395 0.099216269108878707 0.089801727751041394 0.094495289323455106 0.19889010102746116 0.020342322445457434 -0.095896200290308112 0.135804613854274 -0.12892351575576716 0.37819668647310084 -0.025182802950723854 0.21289292716621536 0.19848019359804708 0.067819171009074627 -0.11011035994992867 0.2175881990260484 -0.12024129823474559 0.17980050025870542 0.26117470161054318 0.082018670946904626 -0.12664403773262717 0.2132894942595637 -0.0061867691848273149 0.0090227706995146678 0.13126206462467996 0.12796430921061039 -0.11480376890373015 0.17024551995450191 0.036422819161586427 0.02582065813588133 0.42103175181849795 0.14310190193114122 0.1839308313258744 0.14220207564508822 -0.13765746284679178 -0.14977792546070626 0.13657786768698565 -0.15170893901812799 0.31713812348815185 -0.048477941295977559 0.2184562760306803 0.12173056400666503 0.19228432192306308 0.076585337467324252 0.25763805446429194 0.19942151969947819 0.11836198846311946 0.21820540758363918 -0.1213261305821553 -0.13600467220049839 -0.12491671401186595 -0.11406732797002786
leaf_weight=37.02353435754776 27.882153689861298 1365.3925465047359 39902.211453579366 8006.1466506719589 14040.492439925671 14081.154267668724 4277.8874964416027 1518.3339752405882 2408.4065025001764 108.86718441545963 3530.7567218095064 132.18863106146455 2.6671661287546149 1345.6516825333238 19.867490082979202 1330.2291550338268 2440.7760977596045 114.67263336479664 61.266925811767578 30.743770837783813 15.467824235558508 3.4430326968431464 16.449424333870411 96.305668756365776 100.99272792041302 137.31784818321466 573.3572359085083 277.84419785439968 121.67985531687737 590.41153782606125 101.35390757024288 417.26307132095098 81.615753695368767 19.300594389438629 7.5369762182235709 838.00142972171307 407.4504347294569 3.7025075107812881 4.1003390401601783 345.42075100541115 36.031451627612114 34.361198879778385 40.093357287347317 426.7543106675148 28.226078480482101 39.26877161860466 3.4038606770336619 226.91791382431984 52.425682783126831 17.56575645506382 83.056081548333168 6.8656915277242652 8.8411505818366987 6.6598709449172002 40.922291643917561
leaf_count=133 34 2321 133218 14158 29425 31843 9587 1886 7249 428 5760 1141 9 7789 13 1492 5737 464 39 123 15 11 51 402 75 527 2714 876 307 6085 220 1117 214 23 8 594 485 19 19 386 171 39 213 277 55 55 33 146 38 28 59 49 47 49 388
internal_value=0 0.0812459 0.0790462 0.0751111 0.0683037 0.0607467 0.103732 0.128966 0.0677854 0.114195 0.138901 0.0970884 0.00906389 -0.00261313 0.145842 0.152956 0.0813992 0.0598348 0.156567 0.135277 0.20799 0.0191982 -0.0813472 0.0250433 0.135452 0.118071 0.0100611 0.0489234 -0.0124829 -0.102151 0.148223 0.00904329 -0.0567057 0.210363 -0.027214 0.156245 0.119332 0.11438 -0.0995124 0.170109 -0.100709 0.220885 -0.0239894 0.226675 0.212456 0.159731 -0.113707 0.249124 0.201757 0.168534 0.210937 -0.120493 -0.140369 -0.129469 -0.11511
internal_weight=0 96551.9 93812.1 84366.8 68156 53983.4 16210.8 9524.48 6686.29 9445.28 5387.12 14172.7 3441.17 3170.5 270.673 4860.99 4058.16 2555.45 2739.76 1937.55 802.201 2482.72 687.778 309.658 131.736 1502.71 2318.53 851.201 1467.33 621.698 164.191 526.13 177.921 120.655 59.0363 1627.9 444.474 66.0806 63.3966 1183.42 43.5684 207.276 43.5364 743.165 454.98 55.7182 593.815 288.185 172.915 37.4332 135.482 60.7295 12.9415 10.3624 47.788
internal_count=268644 249476 246353 228507 195627 165061 32880 16044 16836 17846 8797 30566 19168 18479 689 7252 9049 6201 3123 2412 711 12153 6326 814 198 2848 11686 3590 8096 6152 467 1545 616 243 194 1598 618 174 512 980 179 177 224 517 332 106 6118 185 138 41 97 503 66 68 437
is_linear=0
shrinkage=0.1


Tree=8
num_leaves=60
num_cat=0
split_feature=128 131 130 129 29 103 132 32 81 125 35 34 105 105 77 110 79 74 31 127 114 40 127 36 110 43 50 5 36 114 104 52 37 57 41 105 51 114 73 103 24 36 84 104 126 116 119 54 118 32 38 47 55 100 107 32 46 10 105
split_gain=1463.66 1402.32 1445.74 1124.08 1098.84 1265.91 1222.73 652.658 424.686 413.953 447.827 344.718 339.934 274.646 323.952 265.873 342.473 285.56 261.305 262.454 279.651 278.479 252.894 226.403 226.201 216.271 214.1 199.539 266.021 252.332 198.288 186.378 157.871 149.653 174.409 143.676 144.071 138.75 118.658 113.868 109.123 106.297 100.418 95.0209 90.7844 158.443 87.3218 67.6234 66.2504 63.0517 58.1029 50.3394 46.6251 23.3702 16.8289 7.28437 1.8039 0.204569 0.00327587
threshold=1.0000000180025095e-35 1.0000000180025095e-35 1.0000000180025095e-35 1.0000000180025095e-35 1.2069083452224734 -0.84589615464210499 1.0000000180025095e-35 0.96703234314918529 -1.1410655975341795 -1.5239105820655821 0.94634109735488903 0.91119042038917553 -0.79883387684822071 -0.78693389892578114 -1.1916915178298948 -0.87235376238822926 -1.3548373579978941 -1.0062432289123533 1.0116565823554995 -1.6111459136009214 -0.95674914121627797 0.94769689440727245 -1.9680827260017393 0.95323890447616588 -0.88764441013336171 1.1082730889320376 1.1534805893898012 0.61625316739082348 0.84018242359161388 -0.96230825781822193 -0.86679768562316883 1.0750470161437991 0.91967758536338817 0.915919989347458 1.0789449214935305 -0.8452562391757964 1.1262339353561404 -1.0196603536605833 -0.84204000234603871 -0.73897597193717945 1.2684835195541384 0.97600275278091442 -1.354176342487335 -0.77307328581809986 -1.7014434933662412 -0.98220542073249806 -0.94396179914474476 1.1155973076820376 -0.95400500297546376 0.9269235134124757 0.98703074455261242 1.1799201369285586 0.9589800536632539 -0.77678066492080677 -0.88036388158798207 0.95926418900489818 0.90893450379371654 0.70270246267318737 -0.76301389932632435
decision_type=2 2 2 2 2 2 2 2 2 2 2 2 2 2 2 2 2 2 2 2 2 2 2 2 2 2 2 2 2 2 2 2 2 2 2 2 2 2 2 2 2 2 2 2 2 2 2 2 2 2 2 2 2 2 2 2 2 2 2
left_child=1 2 3 4 5 -1 -6 8 -5 10 35 27 18 14 23 16 42 46 19 20 -3 -21 39 -4 -18 -19 -16 29 37 38 -30 -9 52 53 -35 36 50 -29 -11 41 47 -12 -13 -31 51 -46 -17 -15 -34 -38 -2 -37 -20 -24 -14 -41 58 -58 -56
right_child=9 12 13 7 6 -7 -8 31 -10 11 22 15 54 40 26 17 24 25 32 21 -22 -23 33 -25 -26 -27 -28 28 30 43 -32 -33 48 34 -36 44 49 -39 -40 55 -42 -43 -44 -45 45 -47 -48 -49 -50 -51 -52 -53 -54 -55 56 -57 57 -59 -60
leaf_value=0.099804151566970964 -0.049791368740599043 0.033516475176993674 0.045516057589464566 0.0293044667679291 0.011605485789762605 0.073144363257167389 0.1830717522943506 -0.077531887015250656 -0.092618902163932038 -0.066004630722981336 -0.022150042787403713 0.17409218986366362 0.16066949117742341 -0.092663823931343994 -0.020635557671201392 0.26777494549362169 0.10555100106869289 -0.0027906710934094171 -0.035174494902927372 0.029750918477440831 -0.045166320494679946 0.08956600124238312 0.18500858859986172 0.13896615896157441 -0.048531891896878725 0.16490567422928107 0.046563380974932851 0.050202874166645872 0.10976889149908578 -0.10396522808515672 0.028185581692066527 0.10800182967393263 0.053236076181537077 -0.028062417672753526 0.11286666428464305 -0.088490298993879196 -0.057937631406516116 -0.097793413581497735 0.062251956817212073 -0.056676586458299705 0.25612104131822794 0.074413064874281662 0.31948115470831051 0.11401640817356698 0.021533600361329532 -0.11693862828958837 0.11035167372823206 0.078822681006947282 -0.13384053168366361 0.12244627777960942 0.088959183962827204 0.0021727931220777096 -0.10082992545039282 0.30363764456644382 -0.1077743322166608 -0.12741314156040651 -0.12487797253169802 -0.13900359100800258 -0.10618240876867197
leaf_weight=34241.201151970774 243.23358637094498 2039.6326032876968 4402.2800492122769 4539.2084345445037 3506.9819127768278 37119.157049335539 471.84015466272831 56.507773771882057 304.87769720703363 96.583089411258698 290.46924566477537 251.50293768942356 2.2694275677204123 245.24753354117274 1323.2088307663798 53.078026503324509 403.32465401291847 693.52537031471729 334.384775839746 1589.6799215972424 580.20172184705734 1525.0343736559153 44.531182140111923 275.47569222003222 124.744434684515 86.495724774897099 738.87219583243132 94.600727185606956 466.19885812699795 307.15003138780594 825.32781706750393 1294.1807775497437 247.35337506234646 123.0046374425292 306.95441413670778 673.64414681494236 23.282731950283051 191.75142163038254 284.94990971684456 18.852898508310318 10.230796623975037 187.64084330201149 58.569215714931488 21.390327051281929 271.27164375782013 118.82836139202118 104.82182091474533 25.374396428465843 20.498708635568619 115.53325453400612 34.455933943390846 67.365944512188435 159.87852004915476 26.482493504881859 14.818183794617651 63.905512496829033 41.176428712904453 13.651408433914183 101.25955499336123
leaf_count=62984 941 7104 17878 19225 11072 85474 530 265 1612 389 1406 659 7 2107 7579 86 1100 3334 1783 6030 2625 4433 92 763 594 262 2881 265 1000 1566 2656 3750 828 634 761 3828 94 1467 844 112 33 519 96 76 1102 824 325 101 112 299 98 284 901 22 223 427 266 69 1847
internal_value=0 0.0726382 0.0759686 0.079718 0.0830849 0.0859367 0.0319393 0.0387705 0.0216308 0.0241927 -0.00688876 0.0441498 0.0284204 0.0324256 0.0364631 0.0772057 0.118135 0.0406308 0.0321063 0.0394175 0.016091 0.0590377 0.0431241 0.0510194 0.0691524 0.015805 0.00344275 0.0184896 0.0383006 -0.025533 0.0576345 0.10024 -0.022907 0.0947613 0.072549 -0.0412033 0.00900807 -0.0489006 0.0297845 -0.00299874 -0.064465 0.0157475 0.201555 -0.0897731 -0.0596925 -0.0206464 0.163269 -0.0765847 0.0389191 0.0921916 -0.0325751 -0.080248 -0.0564119 0.229248 -0.109854 -0.111299 -0.113446 -0.128395 -0.106386
internal_weight=0 95224.5 88554.6 81534 75339.2 71360.4 3978.82 6194.77 4844.09 6673.47 2609.46 4064.01 6669.84 7020.69 6739.84 1776.06 838.141 937.921 6496.66 5734.55 2619.83 3114.71 1061.84 4677.76 528.069 780.021 2062.08 2287.95 1577.88 710.073 1291.53 1350.69 762.115 500.973 429.959 1547.62 416.506 286.352 381.533 560.868 280.853 478.11 310.072 328.54 1131.11 390.1 157.9 270.622 267.852 138.816 277.69 741.01 494.263 71.0137 173.175 82.7584 170.906 54.8278 116.078
internal_count=268644 242482 216254 184912 160060 148458 11602 24852 20837 26162 11443 14719 26228 31342 29101 6456 2449 4007 23816 20192 9729 10463 3973 18641 1694 3596 10460 8263 5388 2875 3656 4015 3624 1509 1395 7470 1432 1732 1233 2464 2241 1925 755 1642 6038 1926 411 2208 940 393 1039 4112 2684 114 2412 539 2405 335 2070
is_linear=0
shrinkage=0.1


Tree=9
num_leaves=57
num_cat=0
split_feature=118 104 30 133 32 122 12 105 30 54 40 96 103 134 26 30 50 105 110 110 81 54 75 33 53 53 57 121 132 81 73 127 120 86 105 113 110 60 90 106 120 88 66 111 101 40 42 57 118 50 116 76 108 106 117 106
split_gain=1385.09 1467.65 1544.54 1492.24 1296.82 911.445 832.67 784.238 831.656 799.15 691.526 648.982 603.856 480.815 447.845 351.398 350.231 340.915 266.265 470.853 216.714 208.112 195.718 186.096 182.453 179.3 225.171 194.211 161.884 124.764 114.914 105.522 178.583 200.242 104.222 97.9583 87.4388 82.5254 69.531 47.7192 42.9554 35.7709 33.0328 29.5427 28.1118 17.9236 17.0685 14.7149 13.8882 11.47 3.78833 3.49171 3.35279 0.375303 0.225235 0.0148299
threshold=-1.5944647192955015 -0.84300231933593739 1.0717636346817019 1.0000000180025095e-35 0.82939434051513683 -2.0238510370254512 0.34886571764945989 -0.93270584940910328 1.0957124233245852 0.98120540380477916 1.0261998772621157 -1.0627605915069578 -0.85276809334754933 1.0000000180025095e-35 1.292390823364258 1.1106730103492739 1.1797037720680239 -0.86728534102439869 -1.2007063031196592 -1.2179901003837583 -0.20602228492498395 1.0803166627883913 -0.42428973317146296 0.93542078137397777 1.2005056738853457 1.1030535697937014 0.97584691643714916 -1.8509066104888914 1.0000000180025095e-35 -1.2858882546424864 -0.93277302384376515 -3.1595523357391353 -1.7425011992454527 -0.26764607429504389 -0.86728534102439869 -1.3792856931686399 -1.2046945691108701 0.8077494502067567 -0.37462237477302546 -0.98674389719963063 -1.7425011992454527 -0.39981934428215021 0.38697829842567449 -1.2287276983261106 -0.90724959969520558 1.0447723269462588 1.1398084163665774 0.87724736332893383 -1.6013113260269163 1.1879046559333803 -1.5217204689979551 -0.51840052008628834 -1.0600769519805906 -0.83579319715499867 -1.5648936033248899 -0.82767051458358754
decision_type=2 2 2 2 2 2 2 2 2 2 2 2 2 2 2 2 2 2 2 2 2 2 2 2 2 2 2 2 2 2 2 2 2 2 2 2 2 2 2 2 2 2 2 2 2 2 2 2 2 2 2 2 2 2 2 2
left_child=18 2 11 4 24 16 -7 15 9 -9 29 44 13 -13 -14 28 -6 37 19 21 31 45 42 -19 40 38 36 -28 -4 -5 -10 32 43 -34 -31 -22 -27 -12 -21 -17 -3 -26 -23 -20 47 -1 -24 -2 52 -47 -40 -50 -33 54 -37 -55
right_child=1 3 7 10 5 6 -8 8 30 -11 17 12 14 -15 -16 39 -18 23 20 25 35 22 46 -25 41 26 27 -29 -30 34 -32 48 33 -35 -36 53 -38 -39 50 -41 -42 -43 -44 -45 -46 49 -48 -49 51 -51 -52 -53 -54 55 -56 -57
leaf_value=0.076874343607997775 -0.11808891364123307 -0.048503564578973972 0.087320871675890588 0.18241828174833605 0.1899794025379935 -0.053831768499778138 0.051642834161867816 0.056548328915054673 0.027797890790205438 -0.0020606919390169396 0.14919117355090172 0.089958928399159727 0.076975957403751571 0.14012909678023602 0.029171847434273496 0.14523438535842967 0.0075892526428627182 -0.08612022074483322 0.1534650617036537 0.20630458671997906 0.19777743386223498 0.071880734158545165 0.041923701913114175 0.081400669330427944 0.16473378156145468 0.056238095211419273 0.035630582709544674 -0.16181464169630624 0.15415700070796762 -0.065174334514085538 -0.052151349723914622 0.19161083516651947 0.12723852737633398 -0.059376717976215992 -0.13031811716267894 -0.16149152419749471 0.15608702770574587 -0.060990591437749743 -0.21186131408295572 -0.092948311340428608 -0.11272607621215194 -0.041183320241153377 -0.12915785153525594 0.26191533597495104 0.062303883716856613 0.17382954497058545 0.13717560342644713 0.13456397389407385 0.21881938312240012 0.10663325668650124 -0.15602745993188477 0.18618142529656045 0.17266626145655029 -0.12403124650297664 -0.13634606780920563 -0.11529176080496312
leaf_weight=20.852047219872475 168.25244496017694 130.43921113759279 3627.2361907884479 15.580691263079641 638.43722034990788 762.35782361030579 41100.351409260184 13644.726636707783 217.86980641633272 2804.6907636970282 217.52694930136204 19454.873299840838 8882.3746303915977 2118.2210793048143 2514.5162419527769 9.0651383996009809 126.07132771611214 196.39606370031834 822.10294111073017 5.0952496826648703 11.590327382087706 9.7062844187021238 22.960322752594948 100.11777313053608 32.394488275051117 259.42923147976398 134.20929744839668 79.224695399403572 402.61875778436661 425.87033559381962 1028.3387025147676 116.1334173232317 161.25764657557011 89.36299341917038 580.16422265768051 4.1852211952209464 132.49558874964714 20.435898661613464 22.632154941558838 116.65564397722483 516.6655996888876 11.406671479344366 51.741728901863098 25.909893602132797 9.4790679812431318 619.07489222288132 104.13834726810455 2.3372297137975684 114.87413823604584 26.489293947815895 26.243147999048233 45.866529062390327 477.63932994008064 2.6292309910058975 23.929307714104652 7.4244359657168406
leaf_count=34 1518 866 6933 22 495 2872 123091 32814 923 9712 365 38662 19780 2298 6398 20 427 738 724 4 7 17 42 233 39 527 286 332 484 1560 4902 75 192 292 2471 18 128 71 91 605 5977 48 183 18 27 444 109 5 70 34 116 38 298 17 126 66
internal_value=0 0.0594596 0.0704091 0.0460391 0.0494953 0.0516981 0.049722 0.0497688 0.0405882 0.0465553 -0.050175 0.0840144 0.0850485 0.094885 0.0664289 0.0888622 0.159902 0.04199 0.124205 0.0929136 0.149106 0.141882 0.0491266 -0.0295569 -0.0864108 0.0294155 0.0449864 -0.0376592 0.0939984 -0.0983927 -0.0381741 0.154636 0.134861 0.0606977 -0.102742 -0.056841 0.0899934 0.131141 -0.145234 -0.0757741 -0.0997805 0.111109 -0.0974019 0.156779 -0.105313 0.168125 0.119968 -0.114627 0.183431 0.171072 -0.181882 0.209506 0.176372 -0.13416 -0.140089 -0.117577
internal_weight=0 99875.5 55001.3 44874.2 43318.1 42627.2 41862.7 21851.2 17695.6 16449.4 1556.09 33150.1 32970 21573.1 11396.9 4155.58 764.509 534.477 3417.2 1514.29 1902.91 854.963 188.547 296.514 690.906 659.329 605.359 213.434 4029.85 1021.62 1246.21 1853.15 1098.63 250.621 1006.03 49.7585 391.925 237.963 53.9706 125.721 647.105 43.8012 61.448 848.013 180.069 666.416 127.099 170.59 754.513 645.564 48.8753 160.741 593.773 38.1682 28.1145 10.0537
internal_count=268644 264356 125081 139275 133815 126885 125963 56393 48351 42526 5460 68688 67138 40960 26178 8042 922 1407 4288 2347 1941 863 351 971 6930 1484 1273 618 7417 4053 5825 1707 1226 484 4031 234 655 436 211 625 6843 87 200 742 1550 512 151 1523 481 478 207 108 373 227 144 83
is_linear=0
shrinkage=0.1


Tree=10
num_leaves=56
num_cat=0
split_feature=118 103 30 96 10 122 5 30 133 38 55 29 117 51 53 96 109 102 77 120 59 70 103 132 29 90 30 69 30 110 118 110 91 120 127 71 110 111 115 115 33 81 127 107 99 5 79 119 127 101 35 113 101 118 12
split_gain=1224.41 1304.69 1032.22 892.466 868.022 1086.99 866.979 853.39 792.92 752.702 715.415 415.226 404.004 386.572 359.93 435.067 298.04 274.886 268.827 496.884 373.395 213.395 213.175 183.555 177.253 157.024 152.205 134.819 131.444 110.626 206.233 106.73 87.5271 162.321 84.7724 83.0247 58.7182 80.6283 57.4585 41.9167 32.637 32.2344 27.9458 52.9637 22.5421 52.1851 18.4712 28.6262 18.0285 12.1813 10.5567 9.85095 7.23917 5.97515 0.0189984
threshold=-1.5885145068168638 -0.81677368283271778 1.0837385058403017 -1.0627605915069578 0.17389222234487536 -2.003140807151794 0.66092646121978771 1.058696508407593 1.0000000180025095e-35 0.94571644067764293 1.0675461292266848 1.2353871464729311 -0.93983468413352955 1.159831762313843 0.96728238463401806 -1.0010001659393308 -1.1245490312576292 -0.96286961436271656 -0.48160588741302485 -1.7367884516716001 0.85677814483642589 -0.069617196917533861 -0.6003529131412505 1.0000000180025095e-35 1.1870810985565188 -0.37462237477302546 1.1106730103492739 0.086537312716245665 0.893396556377411 -1.1935045123100279 -1.6225578188896177 -1.2046945691108701 -0.2959423810243606 -1.7309663295745847 -3.4934617280960079 -0.19115450978279111 -1.2179901003837583 -1.2549793124198911 -1.4703937172889707 -1.4880672693252561 0.8202803134918214 -0.37141852080821985 -3.1595523357391353 -0.96953037381172169 -0.99027693271636952 0.70675656199455272 -0.48341633379459376 -1.6473590731620786 -3.056504368782043 -0.55297023057937611 0.87849494814872753 -0.91781717538833607 -0.52625513076782215 -1.6013113260269163 0.34886571764945989
decision_type=2 2 2 2 2 2 2 2 2 2 2 2 2 2 2 2 2 2 2 2 2 2 2 2 2 2 2 2 2 2 2 2 2 2 2 2 2 2 2 2 2 2 2 2 2 2 2 2 2 2 2 2 2 2 2
left_child=18 2 3 44 25 13 7 -5 10 -10 -7 14 -8 16 15 -4 -6 26 31 22 36 -15 29 -19 -16 52 -13 39 35 30 -20 38 33 -22 -29 -27 50 -38 48 -24 -31 -34 43 49 51 -46 53 -48 -1 -33 -21 -2 -3 -44 -40
right_child=1 4 11 6 5 8 12 -9 9 -11 -12 17 -14 21 24 -17 -18 23 19 20 32 -23 27 -25 -26 28 -28 34 -30 40 -32 42 41 -35 -36 -37 37 -39 54 -41 -42 -43 46 -45 45 -47 47 -49 -50 -51 -52 -53 -54 -55 -56
leaf_value=0.0043240594621435533 0.042528660820562073 0.072133181774109573 0.016629769760812901 0.072836271964010171 -0.092961368631926874 0.035396040243800261 0.096974773192405495 0.044649497184654635 -0.097731439972197701 0.02932301761978422 0.1045519899764303 0.15520458688058197 0.064962114970372631 -0.1224808808388535 0.0099261714742594747 0.068974183128104383 0.19886522263265738 -0.10834538826436953 0.13373219699927469 0.08022438388861694 0.083377416866783377 0.24394608884509333 0.17153359796537959 0.18381924345176401 -0.080574071871358857 -0.11089167683773615 -0.10816149888945187 -0.059047150054751779 0.2860945074925213 0.052821027684411007 0.053092609703368647 0.020865257876667265 0.11531121193710331 -0.063162500283606968 0.19710033344538658 -0.023076493911261015 -0.025709988478005975 0.16450135348418082 -0.15803135837279175 -0.13515656470439216 0.1538767649375592 -0.11584987116691706 0.16763075600679889 0.17073155822078867 -0.10876535485555189 0.045587060022558606 0.1712786461276444 0.075483943786601268 0.16085879665583758 -0.17504615503230472 0.18123467245453706 -0.1190252807792936 0.16982453223935115 0.20688313515330459 -0.16567436164617175
leaf_weight=13.914297938346865 3.8387263566255561 11.656564161181448 2780.5621312856674 21029.038495130837 37.054232686758041 25997.535163570195 10678.810021445155 21956.157006934285 845.4535935819149 1039.6591440439224 1587.2161485925317 81.046668916940689 6249.2191737182438 69.192898206412792 2033.1906517297029 3701.8684650436044 630.19119104743004 402.4634397700429 924.83051393926144 11.386170566081999 124.94579899311066 20.632232621312141 4.8195083141326895 22.717427164316177 242.19810128957033 503.79565341025591 30.090933300554752 20.64333176612854 9.3223682120442373 33.120995417237282 482.66631937026978 6.2397356033325178 6.3553949892520896 191.35778316855431 34.535718686878681 136.92478711158037 46.333905711770058 42.935877576470375 5.5455363094806653 59.15480449795723 910.62114004790783 118.69672366976738 48.968616485595703 25.773159846663475 68.737107276916504 32.148119688034058 427.48265470564365 33.650290742516518 15.614088132977484 6.4591185748577118 113.31897234916687 225.09387302398682 21.718215599656105 186.40331876277924 7.8647143989801407
leaf_count=35 16 36 8851 47076 136 84021 17500 53941 3517 2795 3498 158 14205 301 6870 8090 462 2114 876 18 202 14 3 19 1192 4054 175 145 13 70 904 15 9 652 31 943 142 33 24 332 721 485 31 21 340 111 277 65 19 27 91 2800 21 114 33
internal_value=0 0.0527008 0.0602993 0.0650848 0.0356069 0.0381267 0.0659879 0.0584389 0.0350872 -0.0276596 0.0393752 0.0292803 0.0851569 0.156441 0.0345109 0.0465217 0.182659 -0.0561327 0.109784 0.0966924 0.019281 -0.0383151 0.117228 -0.092735 0.000293098 -0.0758399 0.0838972 -0.0132634 -0.0867011 0.12384 0.106079 0.162387 -0.0332773 -0.00527651 0.101272 -0.0921252 0.12769 0.0657755 0.00914047 -0.112052 0.15033 -0.104102 0.17134 0.0883718 -0.0989615 -0.0595794 0.175923 0.164288 0.0870969 -0.0787827 0.172012 -0.116316 0.135705 0.198717 -0.162514
internal_weight=0 100448 69537.2 60243 30910.4 30226.9 59913.2 42985.2 29469.9 1885.11 27584.8 9294.14 16928 757.071 8757.82 6482.43 667.245 536.318 3903.64 3125.72 655.331 89.8251 2470.39 425.181 2275.39 683.418 111.138 119.153 650.043 2351.24 1407.5 777.916 441.356 316.304 55.1791 640.72 213.975 89.2698 42.9386 63.9743 943.742 125.052 734.977 38.472 329.818 100.885 696.505 461.133 29.5284 12.6989 124.705 228.933 33.3748 235.372 13.4103
internal_count=268644 263269 163458 135989 99811 94744 132722 101017 93831 6312 87519 27469 31705 913 25003 16941 598 2466 5375 4714 1632 315 3082 2133 8062 5067 333 511 5010 2571 1780 661 1348 854 176 4997 284 175 111 335 791 494 550 63 3267 451 487 342 54 42 109 2816 57 145 57
is_linear=0
shrinkage=0.1


Tree=11
num_leaves=55
num_cat=0
split_feature=118 104 30 133 1 122 129 78 72 56 39 52 103 132 134 112 105 78 118 111 1 25 30 135 81 127 111 35 118 112 127 12 78 37 61 111 55 119 111 95 110 71 52 127 110 44 90 55 118 120 109 127 118 120
split_gain=1082.55 1157.19 1136.83 984.311 865.692 928.237 615.138 605.505 590.912 895.237 521.442 468.916 526.383 439.122 380.007 379.102 313.349 291.561 289.928 534.188 365.498 253.957 240.378 238.087 216.031 195.825 175.948 164.485 142.37 111.921 108.016 138.906 104.461 99.9401 93.488 92.6647 185.61 115.81 85.8126 82.3832 77.6512 67.9158 63.9856 28.0136 75.4556 17.3426 13.3434 10.7254 14.0715 3.78866 1.89738 1.88693 0.712488 0.221395
threshold=-1.583467364311218 -0.84300231933593739 1.0747812390327456 1.0000000180025095e-35 -0.1180061064660549 -1.9941041469573972 1.0000000180025095e-35 -0.51657336950302113 -0.78065857291221608 0.81082800030708324 0.99432486295700084 0.72744527459144603 -0.8674471080303191 1.0000000180025095e-35 1.0000000180025095e-35 -1.2988319993019102 -0.86417114734649647 -0.49826985597610468 -1.6105396151542661 -1.2510511279106138 -0.2284087538719177 1.6458778977394106 1.0938297510147097 1.0000000180025095e-35 -1.3328597545623777 -3.1595523357391353 -1.2226318120956419 0.92868816852569591 -1.6013113260269163 -0.95548915863037098 -2.6738320589065547 0.59611806273460399 -1.1742981672286985 0.92652788758277904 0.74679085612297069 -1.2637314200401304 1.0462225675582888 -1.6776738762855528 -1.2693522572517393 -1.0132192969322202 -1.2179901003837583 -0.19115450978279111 1.1362254619598391 -3.2311935424804683 -1.187549829483032 1.1599182486534121 -0.43710644543170923 1.0270330905914309 -1.5885145068168638 -1.7199644446372984 -1.1245490312576292 -3.1809141635894771 -1.5944647192955015 -1.7255004644393919
decision_type=2 2 2 2 2 2 2 2 2 2 2 2 2 2 2 2 2 2 2 2 2 2 2 2 2 2 2 2 2 2 2 2 2 2 2 2 2 2 2 2 2 2 2 2 2 2 2 2 2 2 2 2 2 2
left_child=17 2 6 4 23 15 11 -7 13 22 30 29 -13 21 -11 -6 34 47 35 25 26 -4 -10 41 33 38 -21 -18 -27 -2 45 -32 -26 -8 -12 36 40 -38 -20 -15 -19 -3 -22 44 -37 -5 -25 -1 49 53 -50 -45 -51 -49
right_child=1 3 8 10 5 7 24 -9 9 14 16 12 -14 39 -16 -17 27 18 19 20 42 -23 -24 46 32 28 -28 -29 -30 -31 31 -33 -34 -35 -36 43 37 -39 -40 -41 -42 -43 -44 51 -46 -47 -48 48 50 52 -52 -53 -54 -55
leaf_value=0.12038044029219019 0.051734043470100383 -0.095711361228939598 -0.0027653303232943833 -0.13465478607350445 -0.062469258208867597 0.039074105663678305 0.013351702701342128 -0.072570595335010118 0.098595474075944489 0.0254624204148967 0.11620286002703428 0.082452873363733428 0.05827654811880411 0.017283908302918267 0.10485077110160611 0.18466439671461229 -0.11262633701075618 0.14364437418428594 0.035503624991647255 -0.092129730081420766 0.15635532335514801 -0.10918504570829134 0.039512075111880249 0.17082402585003811 -0.016953472108979184 0.1108687643227666 0.20916252530166088 0.043578335017676662 0.00052035006785531288 -0.13295784302974575 0.13887867684918029 -0.074845167606626309 -0.10224644026052179 0.12807192837747225 -0.097062121284228947 0.0010902206623425858 0.086733479846148653 -0.018401309801760541 -0.072646848778664896 0.15205380864002363 0.036786101720420225 -0.010736891052450197 0.10116990976437304 0.14312433040456005 0.14611579525310026 0.0086581743683378544 0.069092705519510494 0.15368155078611062 0.2071913902916839 0.17951122848662038 0.24084525588484978 0.15410702589545772 0.19167996864996187 0.164820595443229
leaf_weight=24.398639053106308 42.666890628635883 606.80336766690016 3025.1108629405499 374.99781276285648 69.508545964956284 41548.692457675934 204.3742559812963 491.52937741577625 3099.9522175639868 10298.338617272675 279.91337360441685 16740.438077431172 19491.600014619529 57.943633586168289 640.44227136671543 580.13935080170631 159.94133001565933 592.59864760935307 96.784218639135361 113.40282522141933 542.99847319722176 242.19412514567375 885.2311639264226 34.665761262178421 465.0535497367382 206.68473257124424 23.378214202821255 116.52475263178349 269.20787394046783 142.03625537082553 32.315961077809334 515.58876334130764 207.72999680042267 120.8366574048996 22.184023395180702 49.551377102732658 287.93296833336353 164.7096011787653 303.2099991440773 208.82372058928013 76.818967431783676 111.31150978058577 342.70920959115028 236.74618910253048 129.9913272485137 8.6384031623601896 20.527975052595139 38.875177025794983 26.670106709003448 94.572055757045746 45.05171799659729 461.15746700763702 97.949838206171989 32.980973839759827
leaf_count=38 85 4499 10537 1807 240 123821 774 1734 4944 28257 489 29991 41462 150 865 517 652 471 235 718 405 1077 2332 37 1771 256 56 296 763 1289 69 2031 1060 293 85 117 390 401 1120 194 141 777 501 180 114 31 42 26 27 59 28 308 61 21
internal_value=0 0.0468845 0.0564951 0.0349447 0.0377023 0.0396018 0.066514 0.0377688 0.0361867 0.0448936 -0.0444234 0.0686366 0.0694468 -0.000581616 0.0301104 0.158223 0.0301399 0.0983579 0.0904004 0.0624105 0.111507 -0.0106539 0.0854712 -0.0671569 -0.0109413 0.00509644 -0.0406337 -0.0467893 0.0484457 -0.0902936 -0.0907333 -0.0622395 -0.0432887 0.0559776 0.100542 0.116975 0.0979376 0.0484766 -0.0464783 0.122781 0.131382 -0.0825399 0.135002 0.141319 0.106091 -0.131428 0.132988 0.184399 0.189046 0.178389 0.228331 0.150381 0.185702 0.158794
internal_weight=0 100846 55872.8 44973.3 43463.2 42689.9 37414.7 42040.2 18458 14924 1510.1 36416.7 36232 3534.07 10938.8 649.648 578.563 4258.38 3897.88 1898.38 1022.49 3267.3 3985.18 773.309 997.994 875.887 136.781 276.466 475.893 184.703 931.541 547.905 672.784 325.211 302.097 1999.51 1122.06 452.643 399.994 266.767 669.418 718.115 885.708 877.446 179.543 383.636 55.1937 360.499 336.1 264.378 71.7218 697.904 192.522 71.8562
internal_count=268644 262208 125081 137127 131667 126312 76725 125555 48356 36398 5460 72827 71453 11958 29122 757 1522 6436 6176 4054 1680 11614 7276 5355 3898 2374 774 948 1019 1374 3938 2100 2831 1067 574 2122 1403 791 1355 344 612 5276 906 719 231 1838 79 260 222 167 55 488 120 47
is_linear=0
shrinkage=0.1


Tree=12
num_leaves=61
num_cat=0
split_feature=128 131 130 129 30 73 32 81 125 35 36 93 127 105 58 37 1 72 32 30 105 107 35 5 62 34 80 108 100 51 113 127 53 56 87 122 127 36 93 113 106 35 31 33 51 75 34 106 93 90 37 40 111 104 68 31 107 46 10 0
split_gain=1062.95 1073.12 1110.12 782.348 712.035 766.749 487.734 331.021 309.556 348.944 325.214 296.896 375.767 290.723 264.793 216.406 211.85 414.255 328.523 225.407 206.173 171.146 218.302 197.374 251.977 167.617 166.382 356.108 188.075 166.218 162.294 148.365 137.02 134.935 117.32 114.4 110.119 279.997 245.512 146.42 118.979 105.202 103.318 100.539 90.4522 86.8344 86.4458 75.341 69.8672 66.8486 65.2347 64.8405 57.3095 47.6963 63.9858 14.2151 12.6095 1.8883 0.184229 0.00308911
threshold=1.0000000180025095e-35 1.0000000180025095e-35 1.0000000180025095e-35 1.0000000180025095e-35 1.0914300084114077 -0.78995788097381581 0.96403321623802196 -1.1410655975341795 -1.4795275926589964 0.9042644500732423 0.9634445607662202 -1.0614783167839048 -1.6720848679542539 -0.92209407687187184 0.9076809585094453 0.99142426252365123 0.50368338823318493 -0.66451862454414357 0.96444383263587963 1.0567391514778139 -0.79883387684822071 -0.87274584174156178 0.8348243534564973 0.61931273341178905 0.51449957489967357 0.88226816058158886 -1.2537274360656736 -0.90205988287925709 -0.77372720837593068 1.0605566501617434 -1.0532873272895811 -1.9804885387420652 1.0609749555587771 0.93232712149620067 -1.1919451951980589 -1.3266044259071348 -1.8274942636489866 0.93881192803382885 -1.045178949832916 -0.99147844314575184 -0.87937477231025685 0.90752798318862926 1.010042726993561 0.93576788902282726 1.1243720054626467 -1.1240812540054319 0.9440077841281892 -0.82092297077178944 -1.0735954046249387 -1.0962262749671934 0.92607176303863536 0.99129036068916332 -0.9805031120777129 -0.75286102294921864 0.14761398732662204 0.96570706367492687 -0.88036388158798207 0.90893450379371654 0.70270246267318737 -0.28274357318878168
decision_type=2 2 2 2 2 2 2 2 2 2 2 2 2 2 2 2 2 2 2 2 2 2 2 2 2 2 2 2 2 2 2 2 2 2 2 2 2 2 2 2 2 2 2 2 2 2 2 2 2 2 2 2 2 2 2 2 2 2 2 2
left_child=1 2 3 4 5 -1 7 -5 10 21 36 12 48 -6 31 -8 18 29 19 -4 26 22 52 50 -25 -19 27 42 -29 -18 43 49 -20 -14 -24 -32 40 39 -39 -38 44 51 -3 -28 -2 -43 -42 -33 -11 -12 -23 -13 -10 54 -16 -55 -22 59 -59 -58
right_child=8 20 16 6 13 -7 15 -9 9 11 14 41 33 -15 53 -17 17 25 32 -21 56 23 34 24 -26 -27 30 28 -30 -31 35 47 -34 -35 -36 -37 37 38 -40 -41 46 45 -44 -45 -46 -47 -48 -49 -50 -51 -52 -53 -54 55 -56 -57 57 58 -60 -61
leaf_value=0.069096610548068427 -0.046833421881283796 0.1532041233613424 0.0044594236630095705 0.0071446115493638152 0.040763710751107456 0.048569375641457954 0.039174952115179816 -0.10386109510969124 0.037838718661219302 -0.12521150266373263 -0.13303799789333731 0.19855329753023099 0.15545695723184733 -0.017732164356930112 -0.085583769528856782 0.10962489410393994 0.03935691411786528 -0.050173964629874772 0.11496179644080606 -0.045839931136568701 0.10677600431007793 -0.12826772133544059 0.10161625561981627 -0.079418159925378012 0.034542205821634475 0.17274449851313478 -0.00040928900817702478 0.012068236618663818 0.35408901272418181 -0.031229071391914782 -0.10853748067207457 0.18112228711058692 0.031859667647730246 0.048321713262266114 -0.042672506716547313 -0.020711950105141732 0.030171317608170125 -0.080002703688314053 0.081043821464330978 -0.098766940864718641 -0.072857321760500957 0.23903868580343388 0.044027882394976896 0.1033076545136315 0.060729393008300728 0.11642141058445594 0.050178950750612544 0.078673476478481733 -0.026539623422115639 0.02534569055797788 -0.043849830515301016 -0.14788621467116467 -0.091131799967221525 0.12371156007976236 0.038707824127755565 -0.12412554482582533 -0.10403524091211985 -0.1250759791887722 -0.13851001203661267 -0.10524114587054825
leaf_weight=32744.235416542739 169.43559354543686 241.88120040297508 3146.1237598583102 3982.2390971668065 1663.2995622158051 40957.813578613102 1822.0601242110133 288.06910150498152 48.159783355891705 112.89149977266788 29.167069226503372 7.1621427834033993 141.37779504060745 1736.7996028661728 85.495081298053265 573.18461424857378 1298.079986076802 38.397801838815212 253.67955565452576 1242.8970254957676 2.6374924182891837 177.59218160808086 367.29044058918953 272.61437404900789 673.01883262395859 277.52042968571186 230.72812171280384 4860.0720232985914 16.131173610687256 449.00845068693161 169.89486312866211 90.597202107310295 910.64773375540972 697.82336242496967 66.564486876130104 1167.6654815301299 118.89549662172794 124.90155821293592 390.9740289747715 339.71607027947903 1105.640171289444 66.547253102064133 135.09113613516092 157.09981308877468 145.15751890838146 437.13105580210686 60.215504266321659 345.64612382650375 196.96124428510666 308.59934423863888 188.91652916371822 21.988698869943619 121.07121500372887 2.38038645684719 80.341239042580128 83.333168171346188 44.739367067813873 41.284480012953281 13.561310127377508 40.447131875902414
leaf_count=59988 602 491 13542 15832 4215 89221 6231 1569 122 649 174 7 228 6636 391 1220 4898 259 733 6245 7 827 678 1647 1890 505 786 16440 12 1789 725 144 3371 2279 218 4543 326 659 1215 1566 5836 127 469 350 378 1072 201 829 859 1093 750 104 525 6 251 509 1200 266 69 870
internal_value=0 0.0465466 0.0494602 0.0527836 0.0556251 0.0576892 0.0199153 -0.00034368 0.00642482 0.0269965 -0.0148361 0.0602329 0.0316222 0.0108835 0.0324576 0.0560337 0.012908 0.0402713 0.00274285 -0.00978451 0.00915688 -0.00219045 0.0419029 -0.0224566 0.00168884 0.14565 0.0115898 0.0204389 0.0131997 0.021216 -0.0153527 0.0614252 0.0499657 0.0663705 0.0794787 -0.0318674 -0.0345933 -0.00848848 0.0420519 -0.0653396 -0.0517764 0.121932 0.11408 0.041604 0.00279752 0.132622 -0.0665026 0.0999496 -0.0624897 0.0116688 -0.0847546 -0.0627686 -0.0544294 -0.0566744 -0.0253693 -0.117243 -0.109845 -0.113925 -0.128398 -0.104608
internal_weight=0 98505.3 91384.1 83767.7 77102.1 73702 6665.55 4270.31 7077.61 3597.11 3480.5 1681.88 1149.05 3400.1 1025.56 2395.24 7616.35 2063.01 5553.35 4389.02 7121.23 1915.23 603.086 1312.14 945.633 315.918 6978.56 5253.18 4876.2 1747.09 1725.39 774.01 1164.33 839.201 433.855 1337.56 2454.94 974.487 515.876 458.612 1480.45 532.829 376.972 387.828 314.593 503.678 1165.86 436.243 309.853 337.766 366.509 29.1508 169.231 251.55 165.836 85.7136 142.67 140.032 54.8458 85.1865
internal_count=268644 242482 216254 184912 160060 149209 24852 17401 26162 11982 14180 5325 4015 10851 3397 7451 31342 7451 23891 19787 26228 6657 1543 5114 3537 764 23816 17412 16452 6687 6404 2240 4104 2507 896 5268 10783 3766 1874 1892 7017 1310 960 1136 980 1199 6037 973 1508 1267 1577 111 647 1157 642 515 2412 2405 335 2070
is_linear=0
shrinkage=0.1


Tree=13
num_leaves=58
num_cat=0
split_feature=118 104 30 32 133 33 108 134 119 72 56 104 69 108 52 132 70 42 27 98 110 110 81 116 30 54 135 53 57 75 75 29 126 120 112 57 95 113 121 118 105 69 109 37 72 0 53 14 40 106 51 21 114 88 116 115 107
split_gain=975.093 867.707 1081.6 874.227 713.624 681.32 666.477 643.233 639.735 478.453 696.37 444.234 437.136 411.371 395.07 321.34 311.62 248.95 238.815 236.392 221.919 415.225 225.479 208.699 208.429 188.393 160.274 158.741 179.755 154.975 150.599 143.077 132.225 269.114 161.41 117.785 80.7756 70.9843 59.8888 58.3195 51.9811 29.9985 28.6082 23.6518 21.2295 102.171 19.0799 39.7792 16.8914 15.7937 12.2318 10.6565 5.9 5.61697 3.91035 0.335276 0.150771
threshold=-1.5885145068168638 -0.85809361934661854 1.0759910941123965 0.83238700032234203 1.0000000180025095e-35 0.88271889090538036 -1.0564756393432615 1.0000000180025095e-35 -1.5966058373451231 -0.77797117829322804 0.81413504481315624 -0.87624621391296376 -0.01804215274751186 -0.99116235971450795 0.72744527459144603 1.0000000180025095e-35 -0.45542752742767328 1.0609472990036013 1.4919478893280032 -0.91243886947631825 -1.2007063031196592 -1.2179901003837583 -0.20602228492498395 -1.4204921722412107 1.0938297510147097 1.0803166627883913 1.0000000180025095e-35 1.1030535697937014 0.97584691643714916 -0.42428973317146296 -0.42428973317146296 1.162304759025574 -2.8664170503616329 -1.7367884516716001 -1.3100944757461546 0.84379002451896679 -1.0168963074684141 -1.3792856931686399 -1.8213395476341245 -1.6013113260269163 -0.82193881273269642 -0.020697742700576779 -1.1558189988136289 0.93875306844711315 -0.28834211826324457 -0.23918972164392469 1.112407445907593 0.59021469950675975 1.0672369003295901 -0.96462577581405629 1.1667466759681704 1.6690475940704348 -1.4121695160865781 -0.49530433118343348 -1.5217204689979551 -1.4703937172889707 -0.92932763695716847
decision_type=2 2 2 2 2 2 2 2 2 2 2 2 2 2 2 2 2 2 2 2 2 2 2 2 2 2 2 2 2 2 2 2 2 2 2 2 2 2 2 2 2 2 2 2 2 2 2 2 2 2 2 2 2 2 2 2 2
left_child=20 2 7 26 6 23 12 11 -8 15 24 14 -5 -7 -2 18 -12 -13 -4 31 21 25 32 -6 -11 43 44 38 39 -30 42 -9 33 40 -35 -21 -17 -24 54 -29 -22 -28 -27 49 51 -46 47 -34 -32 -1 -45 -3 -48 -43 -23 -39 -57
right_child=1 3 9 4 5 13 8 19 -10 10 16 17 -14 -15 -16 36 -18 -19 -20 35 22 27 37 -25 -26 30 41 28 29 -31 48 -33 46 34 -36 -37 -38 55 -40 -41 -42 53 -44 50 45 -47 52 -49 -50 -51 -52 -53 -54 -55 -56 56 -58
leaf_value=0.12945232394766815 -0.089972359881499986 -0.11326295257894202 -0.0044227861781710349 0.0093876369615990083 0.2124034740974583 0.0670106740943337 0.098536243201685747 0.12924133949027297 0.033380501578896826 0.084601336279328865 -0.027299378496232575 0.027786997139129289 -0.086426780846637366 -0.036904059914245571 0.064963379576129965 -0.012402912503703952 0.02855054396740464 0.078607459273578581 -0.10267771594087377 -0.045357058284173232 -0.050255588191048306 -0.20611664053029594 0.15742248212314788 -0.092051325003455711 0.029617778857472795 -0.17626647268321705 -0.05761519145213722 0.081763388955642627 -0.11503436719717952 0.058592430283494236 -0.0098792859459740714 -0.070078014009663486 -0.066852421166234646 -0.11147735638226353 0.06396570907740215 0.074470478492062953 0.13166465722706738 -0.15792657337562779 0.068417121705344003 -0.00043539809651040127 0.12038495324744224 0.16970516267963306 -0.041620914000458857 0.1440490224967072 -0.089127508294418442 0.30764344049279457 0.14670673948772725 0.17617398020165237 0.10157839292415255 -0.024435965106044941 0.089554515389332887 0.059026186536441476 0.16764983886894783 0.092020731273589729 -0.15384746522676068 -0.12690465058704928 -0.11457975924112428
leaf_weight=12.059606909751894 166.05944709852338 473.07496362924576 3179.6298504695296 1513.9040872305632 23.042346253991127 854.19049753248692 1554.0673343092203 1848.9729734510183 49688.775622513145 3013.1123901307583 1139.7174549326301 6663.2240833006799 694.64688314497471 687.64193120598793 18443.984561026096 47.976762309670448 8093.387895308435 1126.9270465373993 268.24234025925398 112.46949887275696 18.162019908428192 22.666811838746071 10.721306204795836 984.14998365938663 893.98878382891417 29.293122708797455 11.174923449754713 315.40734755992889 140.34927423298359 81.120616689324379 15.65348297357559 36.729357957839966 12.299116507172586 85.400044187903404 135.86844001710415 303.095733076334 206.10904109477997 2.9811627417802802 12.323211640119551 118.83474746346474 1044.961292155087 17.835201412439343 34.207139655947685 560.39008897542953 91.197043024003506 6.9873095750808707 589.81049270927906 14.888137668371199 103.50235116481781 14.920506566762922 44.456921488046646 3.6174742691218844 174.25655347108841 19.466184213757519 38.834740445017815 34.680291779339314 13.905163712799547
leaf_count=12 1052 6304 10877 4027 26 1790 2935 1765 138812 4753 3752 16051 2560 2131 33781 136 20692 2130 1271 282 50 91 7 4108 2340 115 38 462 541 145 33 100 34 330 248 468 202 13 23 348 1102 12 96 438 808 5 434 10 118 35 55 30 112 31 175 217 131
internal_value=0 0.0375272 0.047803 0.0292622 0.0305731 -0.0211198 0.0330383 0.0596081 0.0353565 0.0276856 0.0366317 0.0551882 -0.0207485 0.0206657 0.0635809 -0.00406896 0.0216565 0.0351387 -0.012067 0.110313 0.089908 0.0610192 0.110772 -0.0850861 0.0720205 0.110098 -0.0885096 0.0062253 0.0218771 -0.0514379 0.0206499 0.125359 0.116397 0.0965871 -0.00374771 0.0420401 0.104462 -0.0766982 -0.132794 0.0592689 0.11747 0.0861075 -0.103734 0.135957 -0.103234 -0.0608912 0.148554 0.0662324 0.0869362 0.0443492 0.140044 -0.111956 0.151483 0.129165 -0.173112 -0.125375 -0.123377
internal_weight=0 102167 45543.6 56623.8 56000.4 2549.02 53451.4 28701.5 51242.8 16842.2 13140.2 26400.2 2208.55 1541.83 18610 3701.96 9233.11 7790.15 3447.87 2301.27 3681.95 1544.02 2137.93 1007.19 3907.1 814.483 623.353 729.537 655.712 221.47 182.656 1885.7 2075.65 1284.39 221.268 415.565 254.086 62.2879 73.8248 434.242 1063.12 48.4763 63.5003 631.827 574.877 98.1844 791.254 27.1873 119.156 26.9801 604.847 476.692 764.067 37.3014 61.5016 51.5666 48.5855
internal_count=268644 263269 99652 163617 156389 8055 148334 55629 141747 44023 31537 53014 6587 3921 34833 12486 24444 18181 12148 2615 5375 2687 2688 4134 7093 902 7228 1785 1496 686 362 1865 2320 1730 578 750 338 368 289 810 1152 81 211 540 7147 813 590 44 151 47 493 6334 546 43 266 361 348
is_linear=0
shrinkage=0.1


Tree=14
num_leaves=57
num_cat=0
split_feature=118 134 56 74 105 136 135 115 35 107 32 127 30 33 133 74 40 113 127 34 118 70 26 33 110 54 120 117 96 81 18 106 112 52 27 100 32 126 120 111 72 110 113 54 75 32 123 110 50 109 50 89 125 115 107 92
split_gain=871.559 799.664 1114.31 1366.22 962.065 919.626 1168.31 1165.28 560.503 489.51 510.667 420.331 520.539 403.628 634.55 314.715 257.283 223.402 213.603 399.352 323.399 204.014 201.743 196.793 183.926 314.201 168.845 168.448 166.638 120.565 112.075 104.765 103.523 176.941 101.953 99.283 94.019 85.5427 190.584 144.915 80.9523 62.6937 57.7906 53.0194 104.662 37.9009 33.0872 30.8166 30.6544 12.0852 6.4032 2.86384 0.423351 0.191462 0.0954053 0.0612312
threshold=-1.5944647192955015 1.0000000180025095e-35 0.99740460515022289 -0.98262920975685109 -0.92209407687187184 1.0000000180025095e-35 1.0000000180025095e-35 -0.93720731139183033 0.86132526397705089 -0.87473732233047474 0.93322819471359264 -2.0576174259185787 1.0621452927589419 0.88066872954368602 1.0000000180025095e-35 -0.949263036251068 0.99305182695388805 -1.2456817626953123 -1.9680827260017393 0.83416527509689342 -1.2000176310539243 -0.22393953055143354 1.4155461192131045 0.89199122786521923 -1.2007063031196592 1.0903117060661318 -1.7425011992454527 -1.1080229878425596 -1.0225396752357481 -0.20602228492498395 1.1154808998107912 -0.88723996281623829 -1.3353630900382993 1.1313611865043642 1.013778865337372 -0.97287955880165089 0.95301795005798351 -2.8843727111816402 -1.7425011992454527 -1.2510511279106138 -0.27325646579265589 -1.2046945691108701 -1.3792856931686399 1.0803166627883913 -0.42428973317146296 0.86245688796043407 -2.1965891122817989 -1.1935045123100279 1.1949123144149782 -1.1558189988136289 1.1836794614791872 -0.31182321906089777 -2.5260082483291622 -1.4703937172889707 -0.93245777487754811 -0.54842448234558094
decision_type=2 2 2 2 2 2 2 2 2 2 2 2 2 2 2 2 2 2 2 2 2 2 2 2 2 2 2 2 2 2 2 2 2 2 2 2 2 2 2 2 2 2 2 2 2 2 2 2 2 2 2 2 2 2 2 2
left_child=24 4 3 22 13 6 8 -8 -6 10 -5 21 -13 18 23 -11 -16 52 19 -2 -20 -7 28 -15 25 32 31 36 -3 37 -29 41 43 45 46 -24 -19 38 47 -40 -33 -27 -31 49 -45 -34 -28 -26 -35 -1 -39 -52 -4 -44 -55 -54
right_child=1 2 17 9 5 11 7 -9 -10 15 -12 12 -14 14 16 -17 -18 27 20 -21 -22 -23 35 -25 29 26 34 30 -30 42 -32 40 33 48 -36 -37 -38 50 39 -41 -42 -43 53 44 -46 -47 -48 -49 -50 -51 51 -53 55 54 -56 -57
leaf_value=0.13209815296421087 -0.028808314335002999 0.15181250262559168 -0.15010179069104043 -0.11949758993088373 -0.010512388255227214 -0.11581882193497282 0.058445411604674695 -0.015189013062428321 0.017567170778431469 0.020351859467853756 0.041627211001579227 0.064628680181027409 0.023780945906216516 0.04598020841016786 0.079636581237087931 -0.058547470257011215 0.1384842967971035 0.15044502801967644 0.12676100552108413 0.049975256611965876 0.046008877356960645 0.0061655227947256565 0.18741854849746339 -0.07004364576531126 0.07041547138455001 0.029423697946121374 0.018879608838551193 -0.18502004787747781 0.092688711067018315 0.14909301635042704 0.087745157847067698 -0.18822229334576454 -0.17187533615444997 0.093932742869942909 0.15363038670196927 -0.18256978917911171 0.022433533787114875 0.08990186793755979 -0.11087666858639329 0.090242821662985473 0.16917334701518283 0.14483395594608631 -0.1495643765369912 -0.11396298674851101 0.10606788186208854 0.00027291713935463137 -0.1355868291359745 0.12506440142872655 -0.01036277310418692 0.072273164070219803 0.14562443455870749 0.13338269391017052 -0.19440540554789176 -0.12601609363664606 -0.11323583913869946 -0.18137207294519181
leaf_weight=506.39186930656433 1037.8537399172783 567.23350165784359 4.3244913965463665 200.78419525921345 8881.1592528261244 197.39747600257397 11635.414592802525 2636.0692033991218 35622.19112868607 1113.9408703744411 9679.8094343245029 9607.6203358210623 4619.8697591274977 276.41469448804855 2551.7960370182991 925.67127259075642 1048.0778306275606 1422.2395877242088 554.06863139569759 1692.8984814733267 4727.3335300758481 448.87377552688122 9.0420938134193403 310.29955919086933 127.48537427186966 152.75952507555485 15.559595003724096 25.230812519788742 2986.9297666102648 10.214212179183958 37.382235929369926 30.458376571536064 37.993108317255974 221.52979715168476 15.197603806853293 36.648671239614487 59.786166697740555 26.376702785491943 73.173282995820045 70.195108816027641 8.0029039382934553 68.031083330512047 2.8402713984251013 28.158588498830795 93.073915779590607 19.27888785302639 127.50161646306515 541.36534534394741 32.28891833126545 36.179050430655479 416.65078561007977 353.01275560259819 4.9406701922416731 20.294888861477379 8.2015943229198474 13.329992815852162
leaf_count=418 2638 453 21 674 33007 694 22272 8117 114355 2539 20374 18759 9801 592 3989 2947 1022 1481 631 3095 10264 1120 9 1017 185 280 51 104 3953 7 60 127 168 327 13 152 142 35 284 102 5 54 13 93 100 50 531 507 80 50 299 295 20 130 84 54
internal_value=0 0.0338096 0.0535656 0.0454507 0.0298773 0.0255689 0.0199476 0.0448445 0.0119636 0.0291459 0.038353 0.047782 0.0513648 0.0558887 0.0810526 -0.0154563 0.0967697 0.133927 0.0427398 0.0200327 0.0544805 -0.0310934 0.0994406 -0.0153821 0.0881194 0.0613548 -0.0112334 0.138493 0.102125 0.110708 -0.0221694 0.0384525 0.0924416 0.0448406 -0.0926265 -0.10935 0.145281 0.115053 0.0922213 -0.0124058 -0.113857 0.0649845 -0.0574748 0.11475 0.0549615 -0.113927 -0.118787 0.114648 0.080665 0.128109 0.138349 0.14001 -0.178237 -0.124806 -0.122338 -0.184896
internal_weight=0 102935 17087.3 15520.1 85847.3 73648.6 58774.8 14271.5 44503.4 11920.2 9880.59 14873.8 14227.5 12198.7 4186.59 2039.61 3599.87 1567.23 8012.15 2730.75 5281.4 646.271 3599.85 586.714 3042.22 1392.4 417.511 1544.64 3554.16 1649.81 62.613 259.252 974.894 311.091 158.259 45.6908 1482.03 1608.26 812.219 143.368 38.4613 220.791 41.551 663.803 121.233 57.272 143.061 668.851 253.819 542.571 796.04 769.664 22.5952 31.3368 28.4965 18.2707
internal_count=268644 264356 32983 31101 231373 208125 177751 30389 147362 26534 21048 30374 28560 23248 6620 5486 5011 1882 16628 5733 10895 1814 4567 1609 4288 2347 1061 1787 4406 1941 164 466 1286 625 595 161 1623 1707 1078 386 132 334 234 661 193 218 582 692 407 468 629 594 95 227 214 74
is_linear=0
shrinkage=0.1


Tree=15
num_leaves=54
num_cat=0
split_feature=118 103 131 133 1 122 56 128 130 29 78 120 93 120 110 127 34 37 77 35 135 53 104 80 36 89 105 115 108 71 109 105 58 34 59 26 114 70 126 115 121 12 111 103 120 108 55 108 118 33 119 108 73
split_gain=804.888 732.601 685.112 598.944 522.557 885.427 722.908 505.798 548.225 561.904 217.209 227.766 239.893 308.388 205.262 185.154 361.766 228.708 182.724 180.183 168.502 157.145 151.263 182.505 198.805 131.757 138.875 138.917 119.809 118.445 113.696 144.437 96.0071 87.0987 93.9415 73.5283 70.3462 61.4609 54.6376 96.4027 42.5995 40.9955 34.4204 29.4853 25.3133 18.3132 10.5395 8.12873 6.93267 2.15539 1.55618 0.566795 0.277178
threshold=-1.583467364311218 -0.78817215561866749 1.0000000180025095e-35 1.0000000180025095e-35 -0.098812691867351518 -1.9941041469573972 1.0286664366722109 1.0000000180025095e-35 1.0000000180025095e-35 1.2027305960655215 -0.49826985597610468 -1.7309663295745847 -0.25517947971820826 -1.7577140927314756 -1.1849739551544187 -1.745569586753845 0.91119042038917553 0.96825623512268078 -1.1952996850013731 0.93762218952178966 1.0000000180025095e-35 1.112407445907593 -0.81334248185157765 -1.3671517372131345 0.93235310912132274 -0.31182321906089777 -0.83176416158676136 -1.4703937172889707 -0.84710186719894398 -0.21984595060348508 -1.132403492927551 -0.81133487820625294 0.92413780093193065 0.92806270718574535 0.81627210974693309 1.0319310426712038 -1.2065876722335813 -0.14562364667654035 -2.5354831218719478 -1.3443033695220945 -1.8287896513938902 0.27419604361057287 -1.218877851963043 -0.81731131672859181 -1.7199644446372984 -0.98399236798286427 1.0262818336486819 -1.0639532804489134 -1.5885145068168638 0.85759112238883983 -1.6473590731620786 -1.0619043111801145 -0.46868367493152613
decision_type=2 2 2 2 2 2 2 2 2 2 2 2 2 2 2 2 2 2 2 2 2 2 2 2 2 2 2 2 2 2 2 2 2 2 2 2 2 2 2 2 2 2 2 2 2 2 2 2 2 2 2 2 2
left_child=10 2 7 4 20 14 -7 8 9 -2 46 12 30 29 -6 17 -17 -9 -10 38 21 -3 23 28 -25 26 27 -13 -4 -14 31 -12 -21 43 -35 40 -34 -37 47 -40 -27 -32 -15 -24 -28 -22 -1 -5 50 -50 51 -48 -52
right_child=1 3 22 19 5 6 -8 15 18 -11 11 25 13 42 -16 16 -18 -19 -20 32 45 -23 33 24 -26 35 44 -29 -30 -31 41 -33 36 34 -36 37 -38 -39 39 -41 -42 -43 -44 -45 -46 -47 48 -49 49 -51 52 -53 -54
leaf_value=0.085369835415254294 0.043358345009302884 0.024940531636140087 0.10387041044050403 -0.074056744793862539 -0.044893758287600144 0.0066241467106175388 0.089406542197141947 -0.051678225886669316 0.020711714248032163 0.0083835793467937399 0.078345773959245066 0.077899601159181958 -0.20890056719264993 -0.11766801622429859 0.16241018451626321 -0.0050928876721003796 0.069371963585319038 0.045097616053032585 -0.017085927893001944 0.17975956547061275 -0.029517541956126866 -0.088151951597443948 -0.011586208066969488 -0.0068411779726793125 0.048489670757032421 -0.029386549547060582 0.13507982805437899 -0.060035180635471655 0.025779969535102761 0.086907400500448803 0.086392109945727852 -0.11457408684526438 0.071398267061578993 0.13181813164600567 -0.059128178374682365 -0.12156401985971384 -0.16762054850595606 0.11227556772575607 0.13527810229029807 -0.083932590861976478 -0.12427134562790237 0.12623391716630117 0.16158589904121426 -0.10321532342233955 0.051239434321206805 0.12191982764724463 0.15413370979027438 -0.13742303965327293 0.20139019747921885 0.16729566366662726 0.16574703151300083 0.13825935679726201 0.15507262231152724
leaf_weight=21.17918436229229 64104.192768275738 147.77754946053028 268.16972073912621 22.204980432987213 52.754350334405899 11709.430071961135 1159.3326718062162 992.78699925541878 4583.6156451664865 4948.1710462346673 952.84339086711407 147.47186902165413 14.22278571128845 133.61162246018648 504.83662490546703 2219.6786975972354 924.00519436597824 323.86299537867308 1773.9892118573189 37.090198516845703 9.3667211681604368 728.85988282412291 41.652603715658188 4958.7225037552416 747.22557529807091 171.16153553873301 162.14234432578087 144.61319953203201 734.81633602082729 280.38500349223614 354.7890116199851 40.456107899546623 28.33373074233532 43.233822181820869 63.767943695187569 14.256568014621733 21.777465313673019 53.119091168045998 21.151115640997887 389.46292273700237 65.394026845693588 949.2299312800169 4.564640261232852 223.87579841911793 46.293274506926537 54.149160400032997 29.677567839622498 229.2889753729105 38.446223214268684 35.81491906940937 34.611877083778381 92.90102744102478 81.85650797188282
leaf_count=35 132272 1449 591 82 172 40194 2256 3926 16538 13909 1375 243 58 784 413 7133 2400 970 8387 39 28 4388 481 17366 2057 572 136 485 2380 510 481 145 65 105 268 52 91 79 32 1683 287 855 19 1268 95 65 20 1200 25 31 22 71 56
internal_value=0 0.0301541 0.0336865 0.00983462 0.0143807 0.0194274 0.0140819 0.0363296 0.038265 0.0408521 0.0766212 0.0693323 0.083112 0.0148161 0.142797 0.00360858 0.0167941 -0.0278738 0.0101649 -0.0773264 -0.0576921 -0.0690876 0.00387578 0.00731974 0.000404704 0.0225679 0.0541043 0.0096072 0.0466591 0.0726267 0.095978 0.0704883 0.0577966 -0.0581469 0.0180232 -0.029367 -0.0324752 0.0627955 -0.0951225 -0.0726408 -0.0556167 0.115394 -0.108443 -0.0888418 0.116459 0.0995873 0.153643 -0.131828 0.158258 0.184947 0.149967 0.142103 0.158245
internal_weight=0 102068 86951.8 15115.8 14366.5 13426.4 12868.8 79870.3 75410 69052.4 3869.04 3534.55 2730.1 432.784 557.591 4460.33 3143.68 1316.65 6357.6 749.309 940.153 876.637 7081.46 6708.93 5705.95 804.452 500.521 292.085 1002.99 294.608 2297.32 993.299 87.2014 372.53 107.002 303.931 50.1112 67.3757 662.108 410.614 236.556 1304.02 138.176 265.528 208.436 63.5159 334.487 251.494 313.308 74.2611 239.047 122.579 116.468
internal_count=268644 262208 210051 52157 48965 43035 42450 185535 171106 146181 6436 6176 4227 1371 585 14429 9533 4896 24925 3192 5930 5837 24516 22394 19423 1949 959 728 2971 568 2856 1520 195 2122 373 990 156 131 2997 1715 859 1336 803 1749 231 93 260 1282 225 56 169 91 78
is_linear=0
shrinkage=0.1


Tree=16
num_leaves=57
num_cat=0
split_feature=118 103 30 30 32 122 9 132 29 105 96 54 41 73 79 120 93 120 3 49 54 102 37 124 76 95 89 105 70 109 109 71 122 61 64 119 43 98 117 50 87 43 110 25 72 110 87 107 70 117 81 107 119 117 77 50
split_gain=715.609 702.01 841.898 651.696 543.216 532.306 546.662 514.507 511.852 502.188 456.21 336.884 500.11 378.867 311.96 265.642 286.646 300.192 234.13 212.709 180.026 158.055 138.437 191.476 136.11 125.419 125.292 149.888 188.455 118.502 135.489 95.9816 88.1553 81.8787 79.3882 72.9468 55.8249 53.8527 55.8753 47.5892 46.0692 42.2583 34.3996 29.2291 25.6413 22.745 58.4491 21.6554 19.7404 18.3076 6.00849 2.44851 1.64513 1.60282 1.38562 0.569344
threshold=-1.5786237120628355 -0.83896490931510914 1.0710377693176272 1.0635916590690615 0.84756910800933849 -1.9941041469573972 0.24531383067369464 1.0000000180025095e-35 1.2298673987388613 -0.94401732087135304 -1.0627605915069578 0.99692001938819896 1.0220035314559939 -0.81822311878204335 -0.48341633379459376 -1.7309663295745847 -0.25517947971820826 -1.7577140927314756 0.59436151385307323 1.1900028586387636 1.1591241359710696 -0.96286961436271656 0.92461112141609203 -1.462592542171478 -1.1816520690917967 -1.0244212150573728 -0.31182321906089777 -0.83088690042495716 -0.12456445395946501 -1.132403492927551 -1.1558189988136289 -0.21984595060348508 -2.0238510370254512 0.76429069042205822 0.38102231919765478 -1.6377459764480589 1.0148242712020876 -0.98336225748062123 -0.93665626645088185 1.2096113562583926 -0.24971096217632291 1.1559502482414248 -1.079764664173126 1.5101136565208437 -0.27325646579265589 -0.82981285452842701 -1.3517264127731321 -1.0059070587158201 -0.18033232539892194 -1.5427095890045164 -0.46380506455898279 -0.7980966567993163 -1.632583439350128 -1.5492410659790037 -0.52783119678497303 1.1857298016548159
decision_type=2 2 2 2 2 2 2 2 2 2 2 2 2 2 2 2 2 2 2 2 2 2 2 2 2 2 2 2 2 2 2 2 2 2 2 2 2 2 2 2 2 2 2 2 2 2 2 2 2 2 2 2 2 2 2 2
left_child=14 2 10 4 20 19 -7 8 9 -4 45 13 -13 -12 47 16 29 31 22 -6 32 -10 34 -24 25 -20 27 28 -17 30 -16 -18 -3 41 -5 -29 -26 38 -9 -35 -31 -28 -22 -39 -19 46 -2 48 -1 53 52 -47 -51 55 -55 -49
right_child=1 3 7 18 5 6 -8 37 21 -11 11 12 -14 -15 15 26 17 44 24 -21 42 -23 23 -25 36 -27 33 35 -30 40 -32 -33 -34 39 -36 -37 -38 43 -40 -41 -42 -43 -44 -45 -46 51 -48 49 -50 50 -52 -53 -54 54 -56 -57
leaf_value=0.14696377226838905 0.17587812268796899 -0.041202085774351818 0.063897243536462214 -0.061479635117993085 0.15750351818197394 -0.056731057393751352 0.022349480602589844 0.059111407270286187 0.050075814925496377 0.01548009352826062 0.067881204229000028 0.023519881660113755 0.071332338042269031 0.037532427822607385 0.10412915176468396 0.062686738706907982 -0.18908831738530765 -0.1206206959732888 -0.12393927935009602 -0.034112716930248296 -0.085654677781162203 -0.075322795610352017 -0.10778291855024538 0.041117733987917224 -0.19917387569743322 0.12702396640622407 -0.0085220116305766633 0.11836132109092815 -0.081459226036384835 0.12492361664680181 0.029395114134690606 0.077965585799902759 -0.11608222985763805 -0.090790853238272101 -0.1258888327630292 -0.066041175007199637 -0.0057751560349402443 0.087313173195645244 -0.18339366732222809 -0.007893957733932663 0.085762065233307816 0.13355996846489387 0.11431799549075197 0.12726854095727821 -0.0055704065469241917 -0.13102314797820774 -0.11114080688940263 0.15151680870403106 -0.02355594106632572 0.1928711023506787 0.15304828205780188 -0.10680577257009907 0.21958178303958598 0.16318703464763659 0.13738139642951483 0.13539798125083838
leaf_weight=15.318998306989672 10.000465631484984 281.02743514627218 2412.3643371611834 799.40295454859734 390.59267471730709 891.49312315881252 44899.840009234846 41.631951332092285 116.44504842162132 19131.395437926054 10605.739472087473 9524.1913327053189 2840.0250187069178 6719.6554411277175 463.00138291716576 219.39785918593407 14.143410444259642 139.65431597828865 22.897986486554146 68.021256983280182 10.039230071008204 734.64392593502998 128.04149435460567 265.30628429353237 23.282396569848061 152.76989874243736 45.467635676264763 238.20331229269505 154.61767591536045 846.81045606732368 509.57509295642376 277.83107931166887 356.8834058009088 162.21873950958252 251.5905526727438 23.575390264391899 41.580389067530632 366.04909655451775 12.310744583606718 120.83858674392104 465.53636035323143 38.793562412261963 60.098282307386398 366.31300653517246 22.49139715731144 71.050934866070747 24.421501964330673 28.567916825413704 12.192352518439291 42.759458944201469 26.202174857258797 101.23295764625072 50.046696394681931 75.07671856880188 28.784883454442024 94.073006927967072
leaf_count=17 16 2043 4159 2934 322 3035 125433 79 388 49470 17909 23002 5324 12717 498 418 58 965 97 215 55 3399 536 726 96 195 118 248 567 775 1025 540 4277 683 1065 80 101 519 54 427 627 56 84 365 145 415 119 20 33 27 28 1956 35 49 25 75
internal_value=0 0.0270381 0.0349909 0.0183602 0.0205527 0.0218835 0.0208099 0.0206883 0.0178967 0.0209016 0.046081 0.0471117 0.0345023 0.0561104 0.069574 0.0608811 0.0770048 0.00444028 -0.0427458 0.129083 -0.0663745 -0.0581659 -0.0579581 -0.007352 0.0486013 0.0943114 0.0168549 0.0437176 0.00309693 0.0914267 0.0649727 0.0650293 -0.0830943 -0.0296421 -0.0768981 0.101754 -0.0751953 0.100196 0.00376716 -0.0554018 0.111032 0.056892 0.0856946 0.107298 -0.104662 -0.101966 -0.0277544 0.156781 0.0713936 0.163579 0.195336 -0.116793 0.207275 0.146894 0.156035 0.139153
internal_weight=0 101720 53077.5 48642.9 46958 46249.9 45791.3 23181.2 22394.8 21543.8 29896.3 29689.6 12364.2 17325.4 4115.18 3742.16 2739.04 454.12 1684.87 458.614 708.048 851.089 1444.34 393.348 240.531 175.668 1003.11 635.794 374.016 2284.92 972.576 291.974 637.911 367.319 1050.99 261.779 64.8628 786.305 53.9427 283.057 1312.35 84.2612 70.1375 732.362 162.146 206.706 34.422 373.022 27.5114 345.511 119.008 172.284 92.8062 226.503 103.862 122.641
internal_count=268644 261105 119891 141214 135464 129005 128468 58433 57416 53629 61458 58952 28326 30626 7539 7230 4633 1708 5750 537 6459 3787 5261 1262 489 292 2597 1313 985 2925 1523 598 6320 1284 3999 328 197 1017 133 1110 1402 174 139 884 1110 2506 135 309 50 259 90 2371 62 169 74 95
is_linear=0
shrinkage=0.1


Tree=17
num_leaves=57
num_cat=0
split_feature=118 104 134 114 32 122 134 54 55 129 30 53 75 59 136 78 119 53 76 109 110 49 119 82 56 24 99 35 122 89 54 33 127 71 26 110 96 110 55 81 110 0 91 55 34 113 79 119 51 118 55 33 36 105 118 114
split_gain=628.938 604.63 771.652 744.586 531.436 457.421 471.772 1228.05 663.738 435.148 447.109 333.812 280.709 327.271 278.386 262.617 247.687 380.052 317.706 258.19 288.952 179.597 172.597 172.01 159.184 120.333 445.827 111.829 95.1706 256.098 93.0818 85.0634 74.9113 185.715 81.3251 67.4882 62.1214 60.7512 194.941 58.3174 47.4918 38.2838 35.4547 32.5337 24.1814 22.8751 15.5598 14.1716 23.4815 8.59289 8.30242 7.29426 3.66704 2.19016 1.82106 0.743088
threshold=-1.5786237120628355 -0.85809361934661854 1.0000000180025095e-35 -0.93304157257080067 0.84756910800933849 -1.9941041469573972 1.0000000180025095e-35 1.0546323060989382 1.0011084079742434 1.0000000180025095e-35 1.090691924095154 0.78613242506980907 -1.0818831324577329 0.688951075077057 1.0000000180025095e-35 -0.49826985597610468 -1.6662176847457884 1.1086107492446902 -0.49222218990325922 -1.1221925616264341 -1.2100692391395567 1.1900028586387636 -1.6424897909164426 -1.337983965873718 1.0663566589355471 1.415840804576874 -0.96887287497520436 0.88965487480163585 -2.0238510370254512 -0.27857439219951624 1.0841940045356753 0.89073926210403453 -3.2311935424804683 -0.21984595060348508 0.99898502230644237 -1.1849739551544187 -1.0049039125442503 -1.2046945691108701 1.0462225675582888 -1.2389797568321226 -1.079764664173126 0.68513154983520519 -0.14808258414268491 1.0108583569526675 0.78555771708488475 -1.3621411323547361 -0.50289833545684803 -1.6377459764480589 1.1860263943672182 -1.583467364311218 1.0807591080665591 0.83437913656234752 0.92214784026145946 -0.85487550497055043 -1.5885145068168638 -1.4121695160865781
decision_type=2 2 2 2 2 2 2 2 2 2 2 2 2 2 2 2 2 2 2 2 2 2 2 2 2 2 2 2 2 2 2 2 2 2 2 2 2 2 2 2 2 2 2 2 2 2 2 2 2 2 2 2 2 2 2 2
left_child=15 2 3 9 24 21 8 -8 -7 10 -2 41 25 39 -13 43 32 19 22 20 -18 35 -19 -11 28 36 -27 -23 29 -3 -20 -15 33 34 -17 -6 -4 38 -34 -14 51 -5 -35 -1 -42 -21 49 55 -49 54 -30 -26 -39 -51 -45 -48
right_child=1 4 12 11 5 6 7 -9 -10 23 -12 14 13 31 -16 16 17 18 30 45 -22 27 -24 -25 40 26 -28 -29 50 -31 -32 -33 37 42 -36 -37 -38 52 -40 -41 44 -43 -44 46 -46 -47 47 48 -50 53 -52 -53 -54 -55 -56 -57
leaf_value=-0.0067784465651685531 0.040059105287172089 0.13094730941598076 0.12955340962877357 -0.063278058724519179 -0.016547415660876884 0.024404125495737644 0.018483611618486943 0.091085575550180931 -0.0010467857401350298 0.056400844856580791 0.0015305204892876148 -0.012072057674063764 -0.0079388077409708272 -0.060892252576285257 0.042940136185229016 -0.17614055425510072 0.09801461160974928 0.10743517021312293 0.018583579329098765 0.044314140085682831 -0.093332293183864268 -0.12743683707917708 -0.077550491691954715 -0.048765336147628041 -0.12783503288160794 0.14726422191974206 -0.1623899651567588 0.14039187224335464 -0.11974415492560453 -0.093061543761024171 -0.058499616409393974 0.066845719820172678 0.10734805132581507 0.085313027745132233 0.078227425332001721 0.1569204050841379 0.092843821301421631 0.12525620373813096 -0.054986014529352659 -0.21112719531233584 -0.0080726036937993958 -0.13262120670408123 -0.0051070178204304867 0.14083196434452511 0.14430371849396817 0.13456548820205869 0.12971694513815538 -0.065278475785930254 0.1464011859891583 0.16399898423484613 -0.075675692453870402 0.041883578379668031 0.089482705154163969 0.20208318270027054 0.16363396531501556 0.14464874569174321
leaf_weight=14.1607568860054 32787.138366110623 67.989974953234196 914.34751376509666 138.15764505788684 23.936511129140854 21537.937204405665 11339.926060095429 2932.236951187253 19546.023728765547 190.78662875294685 3316.6218723282218 3821.8301963247359 18.45457461476326 57.966722130775452 1211.4653024375439 45.428323104977608 180.8503070473671 290.81458358466625 211.9145300835371 29.848130360245705 140.02194411307573 43.248001649975777 61.021318688988686 841.48526442795992 11.411155570298432 121.52516363561153 75.309001341462135 24.377269595861435 340.99403285607696 204.66771505028009 600.76041536778212 517.90118518471718 366.05101175606251 453.01665814220905 17.376713484525681 355.87233389914036 929.70198644697666 543.00150012969971 92.710727497935295 60.214077711105347 13.386628851294516 187.90027228742838 47.956112369894981 83.280937790870667 46.911367874592543 475.09740427881479 86.518078252673149 9.836116239428522 11.216108560562132 20.649803996086121 48.879368126392365 3.2545938342809668 30.250852912664413 56.188591003417969 60.446845039725304 54.212056279182434
leaf_count=35 64493 93 797 533 67 58535 25003 4482 65204 510 10247 12793 39 151 2315 188 272 346 552 50 508 185 223 3668 99 104 266 30 5192 1919 2696 767 383 581 24 255 1087 498 240 254 36 1628 181 63 47 407 75 29 12 21 295 11 39 34 42 40
internal_value=0 0.0243285 0.0329518 0.0296608 0.0174363 0.0185508 0.0177368 0.0333998 0.0122957 0.0346893 0.0365197 -0.00518323 0.0848369 0.0278524 0.00116884 0.0648381 0.0562994 0.032767 -0.00403143 0.0846577 0.0145148 0.119254 0.0753518 -0.0293283 -0.0668962 0.103113 0.0287901 -0.0308911 -0.0825238 -0.0372027 -0.0383993 0.0539876 0.0856498 0.0563358 -0.105763 0.145988 0.111046 0.101664 0.0745421 -0.163462 0.0712209 -0.103239 0.0766575 0.142064 0.110475 0.129231 0.147576 0.124022 0.0474993 0.164853 -0.114219 -0.0901714 0.123368 0.191848 0.150422 0.135469
internal_weight=0 101732 45190.8 42495.4 56541.1 55803.6 55356.1 14272.2 41084 37136 36103.8 5359.35 2695.42 654.537 5033.3 3982.63 3586.12 1990.33 1164.51 825.818 320.872 447.434 351.836 1032.27 737.495 2040.88 196.834 67.6253 662.531 272.658 812.675 575.868 1595.79 563.778 62.805 379.809 1844.05 1032.01 458.762 78.6687 74.9637 326.058 500.973 396.509 60.298 504.946 382.349 161.782 21.0522 220.566 389.873 14.6657 573.252 76.8384 143.728 140.73
internal_count=268644 261105 99652 96187 161453 153761 153224 29485 123739 78918 74740 17269 3465 1211 15108 7539 7188 5054 3817 1237 780 537 569 4178 7692 2254 370 215 7499 2012 3248 918 2134 974 212 322 1884 1160 623 293 193 2161 762 351 83 457 316 156 41 160 5487 110 537 55 105 115
is_linear=0
shrinkage=0.1


Tree=18
num_leaves=63
num_cat=0
split_feature=128 131 130 118 127 0 40 4 102 37 127 35 0 72 30 57 36 56 80 36 69 54 35 37 48 5 23 95 100 58 100 101 107 45 63 105 61 72 104 80 118 75 104 114 60 92 127 100 37 54 1 74 0 75 52 37 75 33 32 13 126 110
split_gain=568.985 557.255 564.628 417.006 517.259 774.929 575.963 218.084 361.093 204.422 275.657 168.509 233.289 411.724 187.784 158.217 262.672 290.016 175.281 147.568 142.734 134.704 216.174 121.275 117.582 168.525 116.758 113.308 111.411 104.012 103.601 103.318 102.728 99.274 93.4219 92.2492 111.404 98.852 84.5444 83.0147 118.465 80.1475 170.34 108.452 74.7884 67.6031 84.1803 71.9949 107.49 61.8727 56.2881 55.7294 49.0701 48.0688 45.1013 40.1076 34.2263 33.4083 27.6542 25.8857 20.9835 19.9827
threshold=1.0000000180025095e-35 1.0000000180025095e-35 1.0000000180025095e-35 -1.6105396151542661 -2.4415488243103023 0.25257255136966711 0.98326194286346447 0.55936577916145336 -0.80690160393714894 0.97611719369888317 -1.9157588481903074 0.94300743937492382 0.44413298368453985 -0.64055746793746937 1.0560789704322817 0.92165282368659984 0.93433436751365673 0.95272594690322887 -1.2436699271202085 0.9683988392353059 -0.056975755840539925 1.0060457587242129 0.8348243534564973 0.95734900236129772 1.1257440447807314 0.59846276044845592 1.3965650796890261 -1.0493390560150144 -0.83732342720031727 0.90890479087829601 -0.81253999471664418 -0.75620800256729115 -0.93577569723129261 1.1354877352714541 0.49373693764209753 -0.85162889957427967 0.6446947753429414 -0.68806481361389149 -0.9051431119441985 -0.37999451160430903 -1.6225578188896177 -1.0584743618965147 -0.84528049826621998 -0.95919865369796742 0.79655498266220104 -0.91036653518676747 -2.4211096763610835 -0.83100497722625721 0.96543067693710338 1.0273107290267947 0.36149653792381292 -1.0044001936912534 0.32183906435966497 -1.1072879433631895 1.0800362825393679 0.99379411339759838 -1.1300297379493711 0.93725234270095836 0.97095862030982982 0.38824449479579931 -1.6717579960823057 -1.2100692391395567
