tree
version=v4
num_class=1
num_tree_per_iteration=1
label_index=0
max_feature_idx=136
objective=binary sigmoid:1
feature_names=Column_0 Column_1 Column_2 Column_3 Column_4 Column_5 Column_6 Column_7 Column_8 Column_9 Column_10 Column_11 Column_12 Column_13 Column_14 Column_15 Column_16 Column_17 Column_18 Column_19 Column_20 Column_21 Column_22 Column_23 Column_24 Column_25 Column_26 Column_27 Column_28 Column_29 Column_30 Column_31 Column_32 Column_33 Column_34 Column_35 Column_36 Column_37 Column_38 Column_39 Column_40 Column_41 Column_42 Column_43 Column_44 Column_45 Column_46 Column_47 Column_48 Column_49 Column_50 Column_51 Column_52 Column_53 Column_54 Column_55 Column_56 Column_57 Column_58 Column_59 Column_60 Column_61 Column_62 Column_63 Column_64 Column_65 Column_66 Column_67 Column_68 Column_69 Column_70 Column_71 Column_72 Column_73 Column_74 Column_75 Column_76 Column_77 Column_78 Column_79 Column_80 Column_81 Column_82 Column_83 Column_84 Column_85 Column_86 Column_87 Column_88 Column_89 Column_90 Column_91 Column_92 Column_93 Column_94 Column_95 Column_96 Column_97 Column_98 Column_99 Column_100 Column_101 Column_102 Column_103 Column_104 Column_105 Column_106 Column_107 Column_108 Column_109 Column_110 Column_111 Column_112 Column_113 Column_114 Column_115 Column_116 Column_117 Column_118 Column_119 Column_120 Column_121 Column_122 Column_123 Column_124 Column_125 Column_126 Column_127 Column_128 Column_129 Column_130 Column_131 Column_132 Column_133 Column_134 Column_135 Column_136
feature_infos=[-1.7844352722167969:2.1873281002044678] [-1.6962581872940063:2.0962586402893066] [-1.6161398887634277:2.0136351585388184] [-1.5440802574157715:1.9394575357437134] [-1.4800789356231689:1.8737261295318604] [-1.4241359233856201:1.8164401054382324] [-1.3852788209915161:1.7937201261520386] [-1.3575865030288696:1.9274762868881226] [-1.3260828256607056:2.0758624076843262] [-1.2853907346725464:2.0974209308624268] [-1.2320997714996338:2.0165181159973145] [-1.1626077890396118:2.064321756362915] [-1.0779223442077637:2.1106562614440918] [-0.97803342342376709:2.1771299839019775] [-0.86829191446304321:2.2759943008422852] [-0.75375783443450928:2.4052433967590332] [-0.63881856203079224:2.5269482135772705] [-0.65591526031494141:2.5277442932128906] [-0.65817779302597046:2.5653238296508789] [-0.66488730907440186:2.5221147537231445] [-0.8555336594581604:2.4413206577301025] [-0.86833834648132324:2.3840618133544922] [-0.86565589904785156:2.2409591674804688] [-0.70636492967605591:2.1797337532043457] [-0.68053698539733887:2.1696581840515137] [-0.94777458906173706:2.0883691310882568] [-1.2671374082565308:1.9448176622390747] [-1.6690099239349365:1.7312250137329102] [-1.8814246654510498:1.5516149997711182] [-2.2033448219299316:1.3473584651947021] [-2.6534385681152344:1.1444870233535767] [-2.9375624656677246:1.0691677331924438] [-2.8964071273803711:1.0182701349258423] [-2.6209216117858887:1.0153312683105469] [-1.9672813415527344:1.0222163200378418] [-1.2877312898635864:1.0987448692321777] [-0.66409575939178467:1.3781088590621948] [-0.67049169540405273:1.4357191324234009] [-0.67192721366882324:1.5244829654693604] [-0.67710685729980469:1.427788257598877] [-0.67391806840896606:1.3506048917770386] [-0.77278417348861694:1.3033223152160645] [-0.78214722871780396:1.4334096908569336] [-0.67822211980819702:1.6771683692932129] [-0.67593681812286377:1.8418123722076416] [-0.67998087406158447:1.9795904159545898] [-0.67735743522644043:1.8671952486038208] [-0.67972826957702637:1.7601110935211182] [-0.67687547206878662:1.5982344150543213] [-0.68022686243057251:1.6658937931060791] [-0.67672491073608398:1.8198304176330566] [-0.68167710304260254:2.1010029315948486] [-0.68784564733505249:2.3278176784515381] [-0.6967010498046875:2.41339111328125] [-0.68777680397033691:2.0181429386138916] [-0.66555494070053101:1.7058380842208862] [-0.62813276052474976:1.5109990835189819] [-0.79989981651306152:1.3641012907028198] [-0.9627259373664856:1.3483799695968628] [-0.83332031965255737:1.3266682624816895] [-0.58463895320892334:1.3006186485290527] [-0.6056399941444397:1.6912268400192261] [-0.63135004043579102:1.8743280172348022] [-0.66003769636154175:1.7138135433197021] [-0.93073725700378418:1.3433690071105957] [-1.1747497320175171:1.0613176822662354] [-1.3727543354034424:0.98026233911514282] [-1.6713657379150391:0.87500208616256714] [-1.8910553455352783:0.74292320013046265] [-2.0949718952178955:0.59156680107116699] [-1.9126988649368286:0.44254273176193237] [-1.7446892261505127:0.31167539954185486] [-1.674402117729187:0.20973041653633118] [-1.5101885795593262:0.13722024857997894] [-1.4517455101013184:0.30397361516952515] [-1.6804615259170532:0.9557119607925415] [-1.8599822521209717:1.3625956773757935] [-2.0371255874633789:0.97979003190994263] [-2.1728529930114746:1.1285310983657837] [-2.2573421001434326:0.92254304885864258] [-2.3058340549468994:0.73609095811843872] [-2.3315773010253906:0.27998179197311401] [-2.3403120040893555:0.32789856195449829] [-2.3343968391418457:0.37759476900100708] [-2.3124566078186035:0.5232703685760498] [-2.2730567455291748:0.46151745319366455] [-2.2140905857086182:0.49370381236076355] [-2.1362462043762207:0.51996833086013794] [-2.0426793098449707:0.54197138547897339] [-1.9374580383300781:0.55988889932632446] [-1.8240519762039185:0.65060514211654663] [-1.7103197574615479:1.0689502954483032] [-1.6520191431045532:1.4172115325927734] [-1.5958865880966187:1.6290324926376343] [-1.5394163131713867:1.6652539968490601] [-1.4922878742218018:1.6182962656021118] [-1.4526540040969849:1.5608183145523071] [-1.4226374626159668:1.5597559213638306] [-1.4027614593505859:1.5643377304077148] [-1.5819015502929688:1.563044548034668] [-2.0638625621795654:1.5685317516326904] [-2.4396805763244629:1.5680602788925171] [-2.5584738254547119:1.5700795650482178] [-2.4521515369415283:1.5659784078598022] [-2.0341367721557617:1.5674868822097778] [-1.4165751934051514:1.5623446702957153] [-1.2213733196258545:1.563502311706543] [-1.1215335130691528:1.561995267868042] [-1.1656886339187622:1.5723429918289185] [-1.225764274597168:1.5757462978363037] [-1.3164699077606201:1.5827798843383789] [-1.5627152919769287:1.5861003398895264] [-2.1400496959686279:1.5904401540756226] [-2.4733853340148926:1.5886306762695312] [-2.4289262294769287:1.5883719921112061] [-1.9469403028488159:1.5826603174209595] [-1.6131480932235718:1.5835590362548828] [-1.6321159601211548:1.7016431093215942] [-1.6862318515777588:2.5795986652374268] [-1.7458088397979736:2.8008601665496826] [-1.820858359336853:2.5472877025604248] [-1.9280952215194702:1.7180403470993042] [-2.1567583084106445:1.5744708776473999] [-2.3918964862823486:1.5728672742843628] [-2.6616356372833252:1.8138364553451538] [-2.9761693477630615:2.1645474433898926] [-3.3559722900390625:3.0688047409057617] [-3.8750591278076172:4.2020993232727051] [0:1] [0:1] [0:1] [0:1] [0:1] [0:1] [0:1] [0:1] [0:1]
tree_sizes=4772 6600 6587 5932 5651 5952 4946 4920 4661 5890 5137 5145 5194 4810 5088 4926 4847 4811 5058 4822 5199 5157 5018 5192 4711 5159 4877 4966 5020 4860 4883 5022 4320 5218 5197 4933 4544 4849 4829 5071 5168 4412 5005 4735 5135 4363 5215 4434 5009 4773 5210 4097 4460 4773 5290 5010 4437 5195 4141 4765 4991 4432 5037 5098 4751 6933 6367 5119 5881 6673 6955 6530 6818 6629 6539 6814 5265 6593 6786 6416 6686 6667 6325 5762 4658 6653 5907 6690 6212 6628 6582 6279 4195 6952 6472 6462 6598 6285 6801 6336 6780 6439 6109 6916 6947 6801 6828 6596 6144 5850 5858 5894 6748 6321 6419 6562 6465 6206 6940 6922 5844 6616 6384 5775 6932 6812 5933 6820 6889 6930 6358 6488 6899 6793 4402 6595 6672 6771 6445 5706 6782 6809 6919 6970 6359 6906 6926 6881 6948 6904 6414 6092 3654 3594 6789 6331 6033 6921 6909 6934 6230 4418 6802 6457 4427 3339 6767 6566 6554 6368 6223 6640 5720 6924 6312 6275 6168 6019 6934 6953 6771 6905 6793 6609 6055 6895 6800 6265 6488 5472 6035 6282 6939 6395 6881 6365 6396 4526 5130 6155

Tree=0
num_leaves=44
num_cat=0
split_feature=125 75 31 123 30 33 74 53 117 75 106 40 30 74 115 31 30 77 30 95 74 95 56 29 131 100 122 52 88 1 31 45 38 117 81 33 65 127 26 24 29 0 0
split_gain=203202 14035.3 16839.1 13671.3 16195 8211.89 6099.3 6163.16 5639.61 7941.38 4721.61 4369.33 3692.61 2920.81 3905.16 4005.75 2731.24 2081.83 1803.02 1460.16 1409.67 1112.14 998.903 928.263 769.147 740.415 579.307 539.585 531.748 267.066 579.746 228.351 189.5 183.019 57.5931 44.2421 71.3695 3.46243 37.3224 0.0591954 0.0492881 1.16415e-10 8.88178e-16
threshold=-0.41703537106513971 -1.1002872586250303 0.99529090523719799 -2.1955125331878658 1.0838023424148562 0.91369295120239269 -0.91936078667640675 1.0871704220771792 -1.0009154081344602 -1.0724653005599973 -0.96624562144279469 1.0637893676757815 1.0589466094970705 -1.0288852453231809 -0.95058616995811451 1.0048476457595827 1.0894387364387514 -0.42979812622070307 1.0938655138015749 -1.0528283715248106 -1.0632473230361936 -0.33886080980300898 0.96048548817634594 1.2117021679878237 1.0000000180025095e-35 -0.88868948817253102 -1.1275833845138548 0.85431560873985302 -1.0501298904418943 0.65387311577796947 0.97782352566719066 1.1164218187332156 0.94560900330543529 -0.97586336731910694 -0.94098967313766468 0.77594193816185009 0.19053471833467486 1.0000000180025095e-35 1.1595019698143008 1.4910948872566225 1.0878793597221377 0.47031834721565252 0.49157227575778967
decision_type=2 2 2 2 2 2 2 2 2 2 2 2 2 2 2 2 2 2 2 2 2 2 2 2 2 2 2 2 2 2 2 2 2 2 2 2 2 2 2 2 2 2 2
left_child=1 13 3 11 5 -5 8 10 9 -4 -8 17 -10 19 25 16 -16 -3 -6 20 32 -13 -17 -22 -9 26 -15 35 -29 31 -31 -21 -1 -27 42 37 -37 38 -2 41 -40 -39 -30
right_child=27 2 6 4 18 -7 7 24 12 -11 -12 21 -14 14 15 22 -18 -19 -20 29 23 -23 -24 -25 -26 33 -28 28 34 30 -32 -33 -34 -35 -36 36 -38 39 40 -41 -42 -43 -44
leaf_value=-2.3832307335193987 -1.4549674648823929 -1.8791087375024054 -2.2598411009472645 -2.1014747571206409 -1.823686030766015 -1.9120595485349381 -2.1730141522977542 -2.052409936512261 -1.9241186388080584 -1.8926054939356383 -1.688662051227888 -1.6380590848759518 -1.6963388375587765 -1.9905644142226995 -2.0804087620865199 -1.7975164116345379 -1.6955226484538943 -1.5086601463949483 -1.6254398859111834 -2.3840662471185765 -2.0995897049495889 -2.2493593533020531 -2.2882008868381902 -1.6891613968772066 -1.6386964115985796 -2.4262222048717912 -2.2692117452369049 -1.2517627564571745 -2.4871158711613144 -2.373756930841934 -1.5981843262455948 -1.757770645643888 -1.4011323416590247 -2.2503058104413971 -1.819188160583846 -1.6293139993271857 -1.1996810418575912 -1.1996810418575912 -1.2059352681864186 -1.2056240003841203 -1.1996810418575912 -1.1996810418575912 -2.4871158711613144
leaf_weight=186.81090342253447 6.2674696445465079 184.4199073985219 697.34749076515436 8071.3576216027141 945.82571642100811 3194.7901941761374 209.38359741866589 647.33348590135574 1087.7402794957161 3784.8279702812433 5190.5898261740804 38.094971440732479 2058.7614840641618 125.93512228131294 2531.6562873497605 959.96322005242109 198.85381330549717 855.07395406067371 890.8798566237092 376.65108621865511 753.96536157280207 136.04167118668556 43.361632287502289 59.450799219310284 48.289878278970718 212.46737794578075 183.0709375590086 9.6002978160977381 4.8934512957930565 28.533077262341976 14.554458871483801 5.9130286350846282 1.9855914413928974 81.951232798397541 1.6141863614320735 6.2844337150454548 10.049376726150511 1052.6722120642662 15.989186979830263 16.826635040342808 59.458812296390533 3199.8890392184258 1.5534766018390653
leaf_count=2229 22 1357 7540 75674 6484 24463 2099 5781 8448 28313 29225 197 11735 1054 23252 6353 1132 3418 4505 4497 7056 1458 480 335 250 2618 1995 16 63 338 70 37 6 879 11 32 12 1257 20 21 71 3821 20
internal_value=-2.37784 -1.92647 -1.89726 -1.97313 -2.00287 -2.04776 -1.81811 -1.74353 -1.8777 -1.94974 -1.70744 -1.65204 -1.77508 -2.06858 -2.02774 -1.98959 -2.05238 -1.57438 -1.72753 -2.19263 -2.12673 -2.11563 -1.81872 -2.06959 -2.02369 -2.26377 -2.15565 -1.20294 -1.75456 -2.3478 -2.11178 -2.37439 -2.3729 -2.37726 -2.35337 -1.20071 -1.36498 -1.20009 -1.22048 -1.1997 -1.20101 -1.19968 -2.48712
internal_weight=0 33805.9 28040.8 14316.5 13102.9 11266.1 13724.3 6095.6 7628.68 4482.18 5399.97 1213.63 3146.5 5765.12 4337.26 3733.83 2730.51 1039.49 1836.71 1427.86 1002.21 174.137 1003.32 813.416 695.623 603.425 309.006 4385.1 17.6614 425.652 43.0875 382.564 188.796 294.419 8.06111 4367.44 16.3338 4351.1 81.7155 4269.39 75.448 4252.56 6.44693
internal_count=268644 263278 210947 117556 111126 100137 93391 37355 56036 35853 31324 6430 20183 52331 37763 31217 24384 4775 10989 14568 9626 1655 6833 7391 6031 6546 3049 5366 110 4942 408 4534 2235 3497 94 5256 44 5212 113 5099 91 5078 83
is_linear=0
shrinkage=1


Tree=1
num_leaves=61
num_cat=0
split_feature=45 32 75 31 74 132 40 57 127 92 130 113 111 115 53 131 106 124 117 33 130 136 0 72 71 50 125 60 25 56 8 73 55 77 74 29 116 9 109 49 109 125 74 6 31 30 32 108 110 105 70 100 44 74 112 127 30 30 30 1
split_gain=21840.4 4988.87 3590.94 3533.2 3612.93 6025.01 4463.27 2933.78 2246.84 1699.82 1342.94 1282.93 1182.92 1383.28 1075.85 1210.92 1038.46 814.303 1032.47 778.681 821.554 691.804 566.841 800.531 518.866 513.671 512.711 484.286 479.037 399.364 396.276 315.589 292.697 268.472 215.839 199.82 184.183 189.802 161.143 159.229 152.746 428.782 296.624 216.333 127.215 107.754 100.396 90.0583 203.988 98.5138 87.2538 58.2279 51.5815 39.6328 27.9284 3.00139 0.00791575 0.00790749 0.00401208 2.96864e-06
threshold=0.79647654294967662 0.96058505773544323 -1.1139162778854368 1.0027534365653994 -0.47110727429389948 1.0000000180025095e-35 1.0684399604797366 0.93780830502510082 -1.9188969731330869 -0.98465779423713673 1.0000000180025095e-35 -0.95506486296653736 -0.84453791379928578 -0.92548170685768116 1.0598841309547427 1.0000000180025095e-35 -0.87725189328193653 -1.3795256614685056 -1.0289727449417112 0.94740694761276256 1.0000000180025095e-35 1.0000000180025095e-35 0.50594988465309154 -0.64937093853950489 -0.44152630865573878 1.0624915361404421 -1.704345107078552 0.80787059664726268 1.6765460371971133 0.98860031366348278 0.91388154029846203 -0.93579119443893422 1.0040150284767153 -1.2014661431312559 -0.98041027784347523 1.2351629137992861 -1.0678567290306089 0.8604717254638673 -0.90543654561042775 0.7244834601879121 -0.90503075718879689 -0.41703537106513971 -1.0006644129753111 0.83695712685585033 0.95793229341506969 1.0560885071754458 0.92911058664321911 -0.93244960904121388 -0.96258211135864247 -0.97446954250335682 -0.56474831700325001 -0.95860791206359852 1.1238774061203005 -0.99276587367057789 -1.0310123562812803 1.0000000180025095e-35 1.0842855572700503 1.0842855572700503 1.0838023424148562 0.63136252760887157
decision_type=2 2 2 2 2 2 2 2 2 2 2 2 2 2 2 2 2 2 2 2 2 2 2 2 2 2 2 2 2 2 2 2 2 2 2 2 2 2 2 2 2 2 2 2 2 2 2 2 2 2 2 2 2 2 2 2 2 2 2 2
left_child=11 2 10 4 5 -4 -6 8 16 19 12 30 13 -2 15 -5 24 18 -10 20 -9 -19 23 -12 -3 -24 29 -21 40 -11 34 53 -18 -16 57 38 37 -36 -33 -37 43 42 -42 50 -45 -38 -14 48 54 -49 -13 -50 -28 58 -32 -43 -51 59 -30 -1
right_child=1 7 3 14 6 -7 -8 9 17 26 22 28 46 -15 33 -17 32 21 -20 27 -22 -23 25 -25 -26 -27 52 -29 31 -31 47 35 -34 -35 36 39 45 -39 -40 -41 41 55 -44 44 -46 -47 -48 49 51 56 -52 -53 -54 -55 -56 -57 -58 -59 -60 -61
leaf_value=-0.11208282105943974 0.048464220632696259 0.16265636307568421 0.25399482847522453 0.35619450678330511 0.40338178979453554 0.088938070809730929 -0.024847517845667317 0.048547252136698908 0.28494400893415595 0.47212070567049741 0.14055594823812773 0.51441571300973832 0.42778606034546662 0.20012490927248044 0.059296305755408098 0.21044312959012618 0.48786813832528558 0.2885300559995555 0.3991808939246404 0.29004867665026673 0.25916022206884615 0.094309000609200486 0.29794991870032977 0.38039997106599177 0.36825208322072278 0.59287669241156127 0.4063040552228081 0.076776651043067676 -0.11222759281540798 0.31943491744414065 0.094498675569689772 0.60280396426207128 0.42130099779554409 0.23103224737192002 0.76654470665199881 0.77436201375562164 0.089252816398683543 -0.041030714686198788 -0.11222759281540802 0.57443835543576893 0.20420198011929119 0.41933903320884841 0.49275896401692043 -0.022308768519179845 0.44995409437128364 0.56997210609427518 -0.078273028539747699 0.38560617198855662 0.22355554363870081 -0.11229499190521995 0.71286530156302186 0.64075639205756596 -0.11381964330753654 0.37412330057433607 -0.11770544004441348 0.43207440749667009 -0.1170309533808325 -0.11909017739661093 -0.11716370785284316 -0.11222759281540798
leaf_weight=1.9154443815350513 881.85887617617846 180.50643667578697 21267.826242603362 5574.9654805734754 2388.4302288219333 2468.171625085175 271.00502406805754 614.57200368493795 1389.3662213161588 236.86754899471998 421.34769333899021 211.43005742877722 3.9808219000697127 1891.0230543911457 135.83232796192169 634.94244309514761 1220.3778507038951 1722.3935084119439 1837.5182380750775 596.07992083579302 265.10378071665764 205.25078754127026 183.52116841822863 207.79054100811481 383.64670717716217 87.074709631502628 2.0596642345190075 129.62545295804739 3.8833075761795044 618.90476375818253 10.168009608983992 6.0313973277807236 1439.8881128132343 275.97187538444996 3.6749310344457653 59.534941747784615 5.3208132982254019 13.986743927001951 6.6016228795051557 120.40920244157314 138.09358074516058 188.60630723834038 48.00893272459507 11.459422990679743 11.356571078300474 37.707207605242729 257.58806489408016 4.3235949054360381 6.3088228404521942 44.38818496465683 24.749066710472107 7.1217502653598768 25.672611750662327 2.2043415904045087 15.901284143328668 9826.7020635381341 3.8340317606925955 2.1453529298305511 2.8589081466197968 5.4366306066513062
leaf_count=20 7661 942 122581 22392 7071 20675 2596 4690 6212 851 3335 459 19 13790 997 3743 2685 9555 7573 3105 1476 1381 1134 1173 1313 324 7 949 40 3235 62 23 4245 1413 6 112 42 100 68 332 805 139 199 88 24 90 2710 24 30 457 46 13 243 10 128 5125 31 16 23 56
internal_value=0 0.272356 0.254839 0.2656 0.249215 0.236832 0.359744 0.331914 0.360232 0.236583 0.16453 0.429661 0.132716 0.151892 0.330912 0.341292 0.425704 0.319275 0.349995 0.175276 0.112019 0.26785 0.271826 0.219771 0.30247 0.392854 0.347983 0.251954 0.433907 0.361697 0.150565 0.586621 0.451838 0.174386 0.329544 0.613594 0.398916 0.127005 0.229151 0.640584 0.430965 0.42904 0.278641 0.506805 0.212758 0.510527 -0.0705713 0.0140888 0.128174 -0.0716721 0.535211 0.444782 -0.0751903 0.00602701 -0.0349378 0.431835 -0.112672 -0.113749 -0.114321 -0.11219
internal_weight=0 47819.2 36951.3 33017.1 26395.4 23736 2659.44 10867.8 8378.95 2488.89 3934.18 10824.2 3034.45 2772.88 6621.71 6209.91 3224.42 5154.53 3226.88 1605.38 879.676 1927.64 899.734 629.138 564.153 270.596 883.505 725.705 10661.9 855.772 162.233 201.524 2660.27 411.804 70.1871 192.577 60.6897 17.6617 12.633 179.944 10460.4 10201.4 186.103 258.995 22.816 43.028 261.569 92.0457 39.4999 52.5458 236.179 13.4306 27.7323 8.94656 26.0693 10015.3 48.2222 9.49743 6.74222 7.35207
internal_count=268644 260076 211614 181468 152923 143256 9667 48462 33906 14556 30146 8568 24180 21451 28545 26135 9185 24721 13785 10220 6166 10936 5966 4508 2255 1458 4336 4054 7493 4086 1075 608 6930 2410 330 535 238 106 91 444 6885 6268 1004 617 112 132 2729 745 233 512 505 43 250 73 190 5264 488 92 63 76
is_linear=0
shrinkage=0.1


Tree=2
num_leaves=61
num_cat=0
split_feature=45 107 31 75 132 40 106 30 75 134 113 116 56 54 69 125 114 130 33 112 2 58 35 33 131 31 8 84 82 108 109 35 74 102 118 6 108 110 105 12 32 59 127 55 106 45 73 73 97 113 100 111 10 87 101 12 113 13 113 30
split_gain=13391.3 2544.23 2813.12 3540.06 3476.69 3368.19 3213.65 2278.56 1872.97 4171.32 2179.96 2106.69 1911.21 1500.13 965.153 803.945 721.741 543.133 658.393 558.294 501.09 365.234 474.883 371.346 310.057 269.737 252.703 250.88 196.895 249.029 238.765 165.109 155.023 106.341 92.5788 78.2376 71.8778 110.819 69.6378 48.4108 45.8487 101.308 56.4529 97.3654 48.8881 163.699 251.056 139.726 97.2715 50.3711 38.2409 32.3897 23.7238 19.5266 16.2711 5.60125 0.02272 0.0207267 0.0129684 0.00418795
threshold=0.79647654294967662 -0.81678414344787587 0.98757201433181774 -0.52852895855903614 1.0000000180025095e-35 1.0684399604797366 -0.90615263581275929 1.0907212495803835 -1.0451064109802244 1.0000000180025095e-35 -1.0893282890319822 -1.0243979692459104 0.98634058237075817 1.0077545046806338 -0.20559331774711606 -2.5041861534118648 -0.95580869913101185 1.0000000180025095e-35 0.93125367164611828 -0.86087107658386219 0.036489291116595275 0.90332597494125377 0.94197684526443493 0.94873374700546276 1.0000000180025095e-35 0.9881705939769746 0.91388154029846203 -1.4031977653503416 -1.4230856895446775 -0.80829524993896473 -0.8356126844882964 0.91329345107078563 -0.98283678293228138 -0.81325098872184742 -1.0837859511375425 0.706264227628708 -0.93244960904121388 -0.96258211135864247 -0.97446954250335682 1.1302207112312319 0.82947209477424633 0.43072803318500524 -1.2264904975891111 0.73672461509704601 -0.90615263581275929 0.73831486701965343 -0.91733327507972706 -0.93579119443893422 -1.011046767234802 -0.92492204904556263 -0.94668540358543385 -0.97050362825393666 1.0759842991828921 -1.613930821418762 -0.76617228984832753 1.1433077454566958 -0.95506486296653736 1.289875388145447 -0.95506486296653736 1.082828223705292
decision_type=2 2 2 2 2 2 2 2 2 2 2 2 2 2 2 2 2 2 2 2 2 2 2 2 2 2 2 2 2 2 2 2 2 2 2 2 2 2 2 2 2 2 2 2 2 2 2 2 2 2 2 2 2 2 2 2 2 2 2 2
left_child=16 2 3 4 7 6 -5 -2 9 11 14 -4 -12 -11 -10 -6 26 19 25 21 -7 22 -3 -23 54 27 32 -19 29 -20 -30 -26 56 -27 35 -34 37 52 -38 -36 44 53 43 -43 47 49 -47 48 -18 -46 -49 -39 -28 -42 -21 -44 59 -55 -40 -1
right_child=1 17 8 5 15 20 -8 -9 10 13 12 -13 -14 -15 -16 -17 40 18 28 24 -22 23 -24 -25 31 33 36 -29 30 -31 -32 -33 34 -35 39 -37 38 51 58 -41 41 42 55 -45 45 46 -48 50 -50 -51 -52 -53 -54 57 -56 -57 -58 -59 -60 -61
leaf_value=-0.11089004156711871 0.14868577986704212 0.086379229578935512 0.033414685174928994 0.42726221404844583 0.17225004921203957 -0.062416236298335641 0.22001510072656394 0.2764826660054937 0.096997858225391143 0.12058918039585571 0.27023076787209832 0.22246552740322534 0.15922473364844356 -0.062981216570591414 0.21049227962565059 0.00010137889209901447 0.3092833686312243 0.36197104205650188 0.43507230741236713 -0.10022620709031878 0.47413318113209474 -0.066499370177379266 0.24824644983594235 0.1645276271735864 0.069658144234157948 0.057386415410769165 -0.068958937831274839 0.030605599296264403 0.27287431553628932 0.12063568000759101 -0.11729447813480097 0.50775676113634016 0.40755315090209587 -0.11637949929048595 0.43981212697404592 -0.1175662599047632 0.25758290578318366 0.45089455385461585 -0.11132482870691603 0.26652184458877237 0.1566876292328907 -0.13108901494714736 0.35956216824111531 0.3477756365625293 0.20298050917903576 0.1211702358791488 0.32116432023073915 0.3734743434559008 -0.0449514856137017 0.3158610233650474 0.23413427678706902 0.17873341745015636 0.22361458032158096 -0.12960615130532335 0.067635006415993862 0.30027857296005928 -0.12167086038562298 -0.11922790197101928 -0.11786722130558047 -0.11631670962355914
leaf_weight=5.660137951374054 9327.8553334623575 801.00129328668118 610.71306575089693 1087.4521679207683 320.84865812957287 344.85594063252211 2398.3851543217897 1640.5118789598346 1227.0948029309511 2138.6834256574512 13627.175312586129 16925.861542485654 1750.2201768904924 562.18661239743233 1924.2899013161659 1755.9735459908843 16.770538710057739 47.332026429474354 122.94504936039448 256.15729585289955 18.331111811101437 232.97617320716381 234.25139993429184 99.199618585407734 29.561641126871109 81.505826577544212 22.306399405002598 44.1699403449893 68.952033177018166 31.676923155784607 20.302507936954498 12.133426673710344 4.0064610391855231 62.014926046133041 22.811583653092384 9.7223534509539586 5.7232407853007308 7.4625419974327114 43.956946849822998 54.965446978807449 3.6417623907327652 8.0487897843122482 28.226742774248123 8.9868344515562057 39.659380123019218 110.60942237079144 145.1179312095046 356.85920833796263 14.414654687047003 12258.545544438064 20.846454277634621 10.561174675822256 3.1647058576345435 3.4923545569181424 5.907702922821044 36.605433888733387 3.8750412315130216 4.2859894186258316 3.2540821060538283 1.899324372410774
leaf_count=64 54846 5117 3564 2542 2252 3408 6755 4782 6741 11769 40405 72996 9010 4042 7933 14993 16 194 360 2609 73 1759 936 519 265 630 174 323 293 181 162 45 3 528 23 78 24 7 486 163 9 45 20 10 158 546 369 408 102 5595 56 36 16 20 44 34 28 35 27 16
internal_value=0 0.200133 0.204256 0.170201 0.145336 0.254474 0.284669 0.1678 0.219097 0.198065 0.242069 0.215882 0.257596 0.082379 0.1663 0.0266967 0.311572 0.0933944 0.187284 0.0664893 -0.035335 0.0937309 0.123006 0.00249359 -0.0561432 0.0678434 0.122743 0.202014 0.302388 0.370655 0.184124 0.197147 0.231708 -0.0176974 0.275088 0.0356786 0.00641988 0.101665 -0.0718408 0.317347 0.314456 0.244602 0.283523 0.121527 0.314959 0.31385 0.234661 0.348987 0.145546 0.315497 0.365784 0.291419 -0.0326076 -0.0344148 -0.0964421 0.32609 -0.115445 -0.123888 -0.111776 -0.112253
internal_weight=0 57810.5 55660.4 16894.2 13045.2 3849.02 3485.84 10968.4 38766.2 20237.4 18528.8 17536.6 15377.4 2700.87 3151.38 2076.82 13255.5 2150.09 478.899 1671.19 363.187 1367.43 1035.25 332.176 303.76 235.023 199.369 91.502 243.877 154.622 89.2545 41.6951 102.94 143.521 91.5058 13.7288 96.4291 43.4948 52.9343 77.777 13056.1 93.2879 81.8678 17.0356 12962.8 12553.9 255.727 408.891 31.1852 12298.2 377.706 18.0237 25.4711 11.4201 262.065 64.8322 11.4345 7.77834 47.211 7.55946
internal_count=268644 260076 246111 89651 76873 12778 9297 59628 156460 92371 64089 76560 49415 15811 14674 17245 8568 13965 2671 11294 3481 8331 6053 2278 2963 1675 1145 517 996 541 455 310 375 1158 267 81 770 233 537 186 7423 173 109 55 7250 6668 915 582 118 5753 464 43 190 64 2653 54 108 55 513 80
is_linear=0
shrinkage=0.1


Tree=3
num_leaves=55
num_cat=0
split_feature=45 74 97 31 127 106 30 30 75 115 53 0 95 36 103 100 116 35 73 98 30 9 114 130 96 76 115 97 104 100 55 110 90 99 31 112 30 74 112 30 104 109 50 127 105 87 97 77 32 75 74 114 31 110
split_gain=10909 2134.29 2470.22 1815.52 1760.36 2696.43 1262.53 1153.86 695.466 1532.16 750.703 677.86 647.208 517.887 603.943 552.031 382.156 370.069 304.873 338.354 275.925 354.798 251.169 234.276 226.122 129.184 127.054 126.707 123.44 73.0905 69.0628 65.0811 46.414 41.7694 32.9077 75.0532 28.1013 99.1766 79.1838 25.6446 23.7487 17.9493 40.2674 17.8854 26.1182 16.6391 15.898 10.4656 9.56851 0.170711 0.0343491 0.0108508 0.00527706 0.00401282
threshold=0.73831486701965343 -1.0141252875328062 -0.98351120948791493 1.000613331794739 -1.9500133395195005 -0.94027701020240773 1.0948074460029604 1.0791054368019106 -1.0873188376426695 -0.96284762024879444 1.0664120316505434 0.55855777859687816 -1.0343569517135618 0.91257461905479442 -0.8214491307735442 -0.9091089367866515 -0.97041347622871388 0.91514486074447643 -0.93972888588905323 -0.98525044322013844 1.0673704147338869 0.72839355468750011 -0.94773933291435231 1.0000000180025095e-35 -1.0101597905158994 -1.1454667448997495 -0.98383823037147511 -0.94267007708549488 -0.9260457158088683 -0.99819505214691151 0.69540870189666759 -0.92264077067375172 -1.1609467864036558 -1.038791239261627 0.92830157279968273 -0.91407087445259083 1.0629283189773562 -1.0006644129753111 -0.90873193740844715 1.0994179248809817 -0.89021256566047657 -0.82066401839256276 0.71341726183891307 -1.1690322160720823 -0.92001804709434498 -1.1285169124603269 -0.97808089852333058 -1.0841179490089414 0.82595813274383556 -1.1002872586250303 -1.0233781337738035 -0.95178455114364613 0.99615779519081127 -0.90028879046440113
decision_type=2 2 2 2 2 2 2 2 2 2 2 2 2 2 2 2 2 2 2 2 2 2 2 2 2 2 2 2 2 2 2 2 2 2 2 2 2 2 2 2 2 2 2 2 2 2 2 2 2 2 2 2 2 2
left_child=22 6 16 4 5 -4 12 -6 9 -5 -10 49 13 15 -15 -2 25 23 29 -20 21 -18 28 -14 -22 32 -27 -19 30 -13 33 47 -3 -1 36 43 41 38 -38 -35 51 42 -24 44 -36 53 -39 -30 -43 50 -8 -33 -51 -37
right_child=1 2 3 8 7 -7 11 -9 10 -11 -12 18 17 14 -16 -17 20 27 19 -21 24 -23 34 -25 -26 26 -28 -29 31 -31 -32 40 -34 39 35 45 37 46 -40 -41 -42 48 -44 -45 -46 -47 -48 -49 -50 52 -52 -53 -54 -55
leaf_value=0.38090771455414324 0.10319333062918737 0.20645149307994035 0.089210703249025955 0.015445750835577025 0.10547307015929031 0.18147584286015417 -0.11621964051288787 0.1720281935428373 0.20162117096698193 0.17235194950954993 0.15003117843177347 -0.051257456098141731 -0.030543467561669164 0.38110895763680863 0.011475355085049528 -0.014550300653606888 0.27405249708386831 0.44521868422621175 0.27569347379041953 0.13249277109829036 0.29549732116226235 -0.010563319164692227 0.24563309705996883 0.098653156701756783 0.22747079480325208 0.10057256784757296 0.24561732291366326 0.0050772989107825857 0.39642401884408385 0.12003221494602 0.36765765650927867 -0.1183440632635074 -0.090475424884052663 -0.11406840693877907 0.2990244119803343 -0.12911929133867653 0.21582348045510022 0.34629949950403066 -0.12892110875755555 0.063902040361555432 0.22270748170337271 0.25713763233979031 0.041465725223416419 0.28806576362846725 0.08638640167586753 0.11565945254346728 0.29288240834147533 0.26273573715835841 0.22664427194735659 -0.13262284954078191 -0.12347174625686785 -0.12715803878507806 -0.12847246640873183 -0.13373543818341055
leaf_weight=2.1425131112337104 2355.215740583837 6.4478383362293235 3894.1491179391742 739.40866795927286 12150.281746268272 16974.343915089965 43.653715871274471 3315.7483592405915 13709.790972806513 3930.5577547326684 3551.170687250793 30.782570146024227 827.75407608598471 126.53368053585291 67.935719840228558 479.20626594871283 97.65115612000227 24.714782997965813 616.95300532877445 225.23627312481403 1687.1841758862138 79.421023957431316 43.212596535682678 169.01191666722298 687.84870985150337 127.61058419197798 114.653544023633 8.8944665193557721 10.19302572309971 130.61115629225969 4.3211824297904959 2.9583661332726461 28.682870343327522 33.603773802518845 9.6798038184642774 3.8117967993021011 37.053085744380951 98.518878325819969 8.1232080757617933 10.666563749313353 3.0923939645290375 13243.322477839887 12.441317625343798 29.859651774168018 14.324846789240835 4.2716531604528409 128.24308720231056 13.761214651167391 103.71018351614475 4.6349561959505072 7.6801527738571158 2.6460413336753845 9.0355739593505842 3.7219743877649307
leaf_count=5 13255 19 22493 4040 60921 62836 375 11556 39149 14619 11426 215 5806 321 567 3565 302 45 1326 742 3692 521 49 1022 1717 516 257 70 7 528 7 26 163 353 6 22 90 90 50 41 10 5196 63 24 43 13 176 36 107 25 52 16 53 20
internal_value=0 0.158254 0.163455 0.159024 0.14531 0.164259 0.0962873 0.119742 0.181745 0.147509 0.191007 0.192997 0.0708287 0.0941178 0.251982 0.0832868 0.254701 0.0023678 0.213268 0.237396 0.266818 0.146396 0.255921 -0.00863685 0.275796 0.143229 0.169216 0.328738 0.0828896 0.0873622 -0.0147179 0.234555 -0.0359779 -0.0503183 0.256971 0.186351 0.25731 0.289135 0.153835 -0.0711879 0.000244777 0.256664 0.199992 0.2364 0.172132 -0.0420044 0.31609 0.319623 0.256901 -0.119949 -0.117305 -0.122505 -0.12988 -0.1314
internal_weight=0 66222.8 61095 58265.5 36334.5 20868.5 5127.85 15466 21930.9 4669.97 17261 1068.59 4059.27 3028.89 194.469 2834.42 2829.5 1030.38 1003.58 842.189 2552.11 177.072 13823.7 996.766 2375.03 277.395 242.264 33.6092 83.3851 161.394 50.734 32.651 35.1307 46.4129 13740.3 65.6697 13674.6 271.938 45.1763 44.2703 8.6968 13402.7 55.6539 53.8643 24.0047 11.8054 226.762 23.9542 13347 65.0044 51.3339 5.60441 13.6705 7.53377
internal_count=268644 262194 234227 227040 157806 85329 27967 72477 69234 18659 50575 3316 24651 17708 888 16820 7187 6943 2811 2068 6232 823 6450 6828 5409 955 773 115 501 743 406 95 182 399 5949 128 5821 406 140 394 52 5415 112 73 49 55 266 43 5303 505 427 42 78 42
is_linear=0
shrinkage=0.1


Tree=4
num_leaves=52
num_cat=0
split_feature=45 75 31 75 132 40 30 56 107 73 113 97 116 75 33 134 113 112 91 123 133 128 114 32 106 9 104 115 38 107 13 127 74 82 118 103 99 52 1 135 90 117 125 32 71 56 89 33 31 95 113
split_gain=9822.75 1441.41 1447.01 1580.13 2297.97 1991.43 1420.7 1398.87 1274.39 1143.8 1371.7 1152.16 873.132 825.669 763.273 552.694 569.196 543.339 542.551 454.662 370.959 196.056 192.438 131.564 94.5951 139.056 85.0825 55.2038 49.8167 40.0036 40.0132 30.1156 61.8313 75.1065 46.333 39.0527 29.0072 25.5788 23.9572 23.9261 23.3405 10.4355 32.3334 82.5652 24.9878 25.9826 3.5968 3.04684 0.0382172 0.0273927 0.0191202
threshold=0.73831486701965343 -1.120447516441345 0.98846083879470836 -0.52852895855903614 1.0000000180025095e-35 1.0671610832214358 1.0881572365760805 0.97888949513435375 -0.98256766796112049 -0.74680173397064198 -1.1477577686309812 -0.96991321444511402 -0.93965739011764515 -1.006504952907562 0.94218042492866527 1.0000000180025095e-35 -0.86496275663375843 -1.2993744015693662 -1.2178999781608579 -2.0900764465332027 1.0000000180025095e-35 1.0000000180025095e-35 -0.94773933291435231 0.96979969739913952 -0.87359589338302601 0.68707978725433361 -0.9260457158088683 -0.9332938790321349 0.6429278850555421 -0.9062930941581725 1.289875388145447 -1.1690322160720823 -0.99889624118804921 -1.1583038568496702 -0.93050593137741078 -0.93018016219139088 -1.038791239261627 0.78010767698287975 0.70196041464805614 1.0000000180025095e-35 -1.0918347835540769 -0.89961794018745411 -0.41703537106513971 0.78710368275642406 -0.72775533795356739 0.56378495693206798 -1.086260914802551 0.77040255069732677 1.0048476457595827 -1.0528283715248106 -0.95064440369606007
decision_type=2 2 2 2 2 2 2 2 2 2 2 2 2 2 2 2 2 2 2 2 2 2 2 2 2 2 2 2 2 2 2 2 2 2 2 2 2 2 2 2 2 2 2 2 2 2 2 2 2 2 2
left_child=22 12 3 4 6 8 -3 9 -5 11 -11 -4 23 14 -9 16 18 -7 -14 -6 -15 -18 26 24 25 -2 28 -26 36 -28 -31 32 33 37 35 -34 -1 -24 -36 -38 -35 44 43 -43 45 -33 -46 -44 49 -17 -32
right_child=1 2 7 5 19 17 -8 13 -10 10 -12 -13 15 20 -16 48 21 -19 -20 -21 -22 -23 31 -25 27 -27 29 -29 -30 30 50 41 34 40 38 -37 39 -39 -40 -41 -42 42 47 -45 46 -47 -48 -49 -50 -51 -52
leaf_value=0.27152382527830921 0.54315303260361536 0.097876346296253552 0.19475350010631357 0.25830740072660768 0.10302346471247131 -0.091971411003481149 0.17486304161744509 0.0059068339234638889 0.14498338887279777 0.073737569743697051 0.20341149265699984 0.1356140659455369 0.27831178711885907 0.15444609215060479 0.10599994322731179 -0.11839622906595 0.044231576562819834 0.14008172107322611 0.10347860272735421 -0.012328444219373742 -0.01581385505006358 -0.078103320154509187 -0.13156223451272622 0.23704344744814121 -0.11532622105931156 -0.0071273810715219007 0.26273413095428533 -0.014901589361582621 0.28347969027041403 0.23513672076819964 -0.11609483334213613 0.24345407764089777 0.22805856168164046 0.26699545662830876 0.25702052196286002 -0.13478391661776049 -0.11528514592066255 0.16155967800717139 0.13409664216740716 0.053775359054143448 0.099402732406531663 0.20319066687542869 0.22153554730991898 -0.12306189578750125 0.26225612030290718 0.12391425440683508 0.30009655198459351 0.20686408492565678 -0.12603308341745847 -0.11534274888600782 -0.12681864711756199
leaf_weight=2.6682012453675261 4.8500661849975577 11988.145142994821 3724.9589609280229 1535.9700310379267 413.21091908216476 356.19334545731544 2996.090743035078 1346.3593800067902 2803.6984969899058 937.83695681393147 6265.8706888705492 28491.504220478237 185.6797092333436 1986.8625680655241 1754.8629052713513 53.02416979521513 545.77648874372244 140.78090131282806 4028.0534608587623 1974.2952175289392 136.77731835842133 172.37883247435093 14.86470849812031 14.672884240746496 249.73057597130537 86.373252473771572 23.913381546735764 70.10384214669466 5.0424316190183154 5.8154315799474698 2.9050989001989347 53.930057622492313 5.4404857158660889 15.643932357430456 97.005851984024048 6.5225688219070417 30.278173591941595 3.7225688248872748 18.95254473388195 11.570035569369791 17.725861772894859 40.752479434013367 13785.428943559527 9.5804922431707364 65.307920716702938 27.431112408638 40.819313958287239 143.01638635993004 4.5599247962236396 65.884646251797676 3.8874649330973643
leaf_count=5 4 57454 9408 2489 2282 3114 6848 6817 6497 4222 12226 91641 623 6438 7083 406 3585 768 19063 15236 702 1728 86 35 1908 589 30 414 8 12 28 44 3 15 119 37 323 13 38 70 48 86 5169 67 53 63 20 88 28 586 25
internal_value=0 0.129644 0.133686 0.112827 0.0987519 0.163378 0.11327 0.144062 0.185093 0.150507 0.186529 0.142452 0.0803438 0.0954414 0.0625457 0.0919261 0.0971578 -0.0262363 0.111183 0.00763576 0.14348 0.0148675 0.219999 -0.0571918 -0.0676947 0.0221294 0.0709278 -0.0933144 -0.0144179 0.18674 0.042604 0.220894 0.180234 0.088239 0.217599 0.0302274 -0.0481611 -0.0728572 0.23693 -0.0685439 0.177971 0.22141 0.221096 0.141091 0.244846 0.203151 0.276811 0.221385 -0.117049 -0.116704 -0.122232
internal_weight=0 72334.5 66853.4 22208.4 17371.7 4836.64 14984.2 44645 4339.67 39420.2 7203.71 32216.5 5481.09 5224.86 3101.22 5055.36 4931.89 496.974 4213.73 2387.51 2123.64 718.155 14432.2 425.731 411.058 91.2233 86.0802 319.834 49.5588 36.5214 12.608 14346.1 179.879 51.9571 127.921 11.9631 44.5164 18.5873 115.958 41.8482 33.3698 14166.3 13978.8 50.333 187.488 81.3612 106.127 13928.4 123.469 118.909 6.79256
internal_count=268644 262194 233225 94688 81820 12868 64302 138537 8986 117497 16448 101049 28969 21040 13900 26019 24999 3882 19686 17518 7140 5313 6450 2950 2915 593 501 2322 406 95 65 5949 359 162 197 40 398 99 157 393 63 5590 5410 153 180 107 73 5257 1020 992 53
is_linear=0
shrinkage=0.1


Tree=5
num_leaves=55
num_cat=0
split_feature=45 74 97 30 31 127 133 134 95 36 0 103 36 0 72 74 112 95 112 125 2 100 99 114 122 74 107 31 4 6 127 107 55 110 127 7 83 7 120 5 74 99 110 117 135 103 32 12 43 91 29 74 110 114
split_gain=9213.29 1266.02 1277.39 1130.01 1047.82 1181.43 1624.71 615.517 605.084 472.585 421.539 362.695 342.846 312.639 307.733 283.504 264.156 247.344 245.211 233.53 223.696 218.686 206.952 156.421 149.147 172.308 100.598 90.7542 83.1074 80.3696 76.7738 66.1106 59.7981 51.4929 36.1286 57.5005 54.7295 73.0684 31.3303 30.8398 30.6386 26.9387 20.9005 13.794 13.7763 11.7925 8.63216 71.4708 56.6164 4.90075 3.64539 14.9539 10.0817 0.174446
threshold=0.73831486701965343 -1.0080265402793882 -0.97701278328895558 1.0922417640686037 1.0037759542465212 -1.8786043524742124 1.0000000180025095e-35 1.0000000180025095e-35 -1.0343569517135618 0.9204441010951997 0.54388919472694408 -0.83791944384574879 0.92614674568176281 0.32557208836078649 -0.6458759307861327 -1.0320376157760618 -0.97716909646987904 -1.0364619493484495 -0.90960794687271107 -1.6588159203529356 0.68925940990448009 -0.8671569526195525 -0.87282487750053395 -0.93962883949279774 -1.0966776609420774 -0.97572854161262501 -0.94894734025001515 0.98627692461013805 0.75541490316391002 0.86396196484565746 -1.5681384801864622 -0.90774500370025624 0.69540870189666759 -0.99846774339675892 -1.1690322160720823 0.87140363454818737 -1.1539508700370786 0.85783708095550548 -0.99113705754280079 0.77848836779594432 -1.0099814534187315 -1.038791239261627 -1.0798783302307127 -0.92031946778297413 1.0000000180025095e-35 -0.9237365424633025 0.82595813274383556 1.2073243856430056 0.64520284533500682 -1.0454930663108823 1.2499926686286928 -1.0024847984313963 -0.83823084831237782 -0.95093593001365651
decision_type=2 2 2 2 2 2 2 2 2 2 2 2 2 2 2 2 2 2 2 2 2 2 2 2 2 2 2 2 2 2 2 2 2 2 2 2 2 2 2 2 2 2 2 2 2 2 2 2 2 2 2 2 2 2
left_child=23 3 16 8 5 6 -4 -7 9 11 30 -2 20 19 -15 18 26 -17 -12 -6 -10 -11 -14 29 27 -26 28 -18 -3 31 -5 33 38 42 35 36 37 -25 -33 -28 -32 -31 -1 -37 53 -38 50 -48 -49 -35 52 -52 -36 -43
right_child=1 2 4 10 13 7 -8 -9 12 21 15 -13 22 14 -16 17 24 -19 -20 -21 -22 -23 -24 34 25 -27 39 -29 -30 41 40 32 -34 49 46 43 45 -39 -40 -41 -42 44 -44 -45 -46 -47 47 48 -50 -51 51 -53 -54 -55
leaf_value=0.2052499978539892 0.073226706349560799 0.14326250330368434 0.12534181346408854 0.30015306609862596 0.093484469913007684 0.089409845449072989 0.066558739122285923 0.032141882638156649 -0.024497038751722308 0.31598157165426066 -0.022431914508453929 -0.031833862210327274 0.27258764073880198 0.11780665897328593 0.14720918734300625 0.18867237196613518 0.0081269740909017847 0.10812957786662508 0.13863811607409357 -0.062967429902395719 0.099386769456266677 -0.058543012898172965 -0.072077017471768909 0.15629458254980047 0.18249016210243796 0.28585085569355961 -0.1094687771208841 0.15087736418579489 -0.086154894631688683 0.24174080634086115 -0.12251375648815513 0.23389202914269835 0.32018410967013061 0.26004209701407227 0.15422845026753093 0.078938019759962091 0.14016392836583511 -0.13287647199210245 -0.12542831478881747 0.081468553131710655 0.057836128495890149 -0.11113734538737963 -0.11810490964127927 -0.14250079233345378 0.065744335368980722 0.21792506677839923 0.20702176959104246 -0.1389800257397304 0.20330642669417173 0.19742868730064736 0.14850249899002391 0.22440083004924527 0.1973438958937288 -0.1376272272010296
leaf_weight=2.8330116271972638 3188.0612503066659 84.11607687920332 25901.813729912043 5.0744677931070319 722.06445241719484 16291.042638607323 5744.6911289393902 2121.1586781516671 1508.8130637072027 105.90894283354282 176.8654755204916 366.3562810048461 68.945546090602875 5819.6438044756651 9166.2190603911877 1051.4654161483049 46.658331982791424 598.20664605498314 203.00105933099985 109.93288638442755 161.34324955195189 18.281733371317387 23.31141471862793 28.440189704298973 2300.4040979593992 173.4461804702878 41.290241420269012 979.14298059791327 19.439295619726181 2.8072719871997824 75.682449772953987 2.8076137304306092 4.6503328680992118 25.784157618880272 54.445120126008987 4.4856276363134384 24.693582765758038 12.613676652312277 17.881958022713661 10.638808958232401 10.75879369676113 21.337222527712587 6.7894632518291473 7.544393450021742 5.1626985594630233 92.76372878998518 91.1904456615448 12.013969942927362 8.0840580463409406 24.264047458767891 31.32936330139637 151.44193595647812 13955.284356921911 2.8138331323862102
leaf_count=2 15428 207 80953 13 2036 63573 25027 9942 9413 180 873 2790 126 16636 21108 1732 215 1423 689 578 699 161 184 61 4875 180 211 2201 89 4 558 4 3 14 89 10 37 73 139 61 33 271 57 39 24 102 34 74 3 32 55 101 5205 17
internal_value=0 0.109009 0.113235 0.070151 0.110042 0.102953 0.114671 0.0828123 0.0460155 0.0690978 0.132064 0.062398 -0.00216327 0.132478 0.135791 0.141531 0.170777 0.159466 0.0636441 0.0728123 -0.0125294 0.260849 0.185498 0.195665 0.176443 0.189737 0.0432366 0.144384 0.100197 0.0805688 -0.0778749 0.131486 -0.00383832 0.188954 0.196596 0.150841 0.166838 0.0674476 -0.0766679 -0.0703511 -0.100067 -0.0541879 -0.022904 -0.059933 -0.082528 0.201577 0.197142 0.1694 -0.00130166 0.229686 0.197359 0.211391 0.197176 -0.114224
internal_weight=0 77093.8 69531.7 7562.08 65876.6 50058.7 31646.5 18412.2 5441.02 3678.61 2121.05 3554.42 1762.41 15817.9 14985.9 2029.54 3655.14 1649.67 379.867 831.997 1670.16 124.191 92.257 14591.5 3499.65 2473.85 155.484 1025.8 103.555 117.132 91.5157 85.0106 25.3399 59.6707 14474.3 170.541 158.511 41.0539 20.6896 51.9291 86.4412 32.121 9.62247 12.03 29.3138 117.457 14303.8 111.288 20.098 50.0482 14192.5 182.771 14009.7 24.1511
internal_count=268644 262194 227892 34302 219853 179495 105980 73515 28981 18559 5321 18218 10422 40358 37744 4717 8039 3155 1562 2614 10112 341 310 6450 7471 5055 568 2416 296 567 604 251 146 105 5883 322 273 134 143 272 591 316 59 49 312 139 5561 111 77 46 5450 156 5294 288
is_linear=0
shrinkage=0.1


Tree=6
num_leaves=45
num_cat=0
split_feature=115 75 116 114 75 116 47 126 0 135 34 108 58 38 108 74 132 96 74 130 95 74 5 116 31 122 126 36 76 102 100 131 33 6 74 104 76 72 33 67 47 72 32 125
split_gain=8865.59 1012.5 1882.03 1326.82 1462.79 1533.86 1819.48 1322.41 2047.37 1145.25 1754.68 1308.32 1004.32 956.56 922.679 770.256 768.843 546.606 725.885 449.862 378.49 462.452 280.068 271.811 264.709 271.842 237.365 178.729 119.365 109.224 121.571 18.1582 10.1413 86.4605 5.67317 12.4951 18.4095 1.05802 0.800616 3.67903 0.389161 1.62943 0.294467 0.244563
threshold=-0.82198974490165699 -1.0873188376426695 -0.97239574790000904 -1.1052010059356687 -0.51531940698623646 -1.5009433031082151 1.2050746679306032 -1.8628547191619871 0.33913238346576696 1.0000000180025095e-35 0.82297527790069591 -1.0038111209869383 0.89667508006095897 0.99867647886276256 -1.0489079952239988 -1.0274236798286436 1.0000000180025095e-35 -1.0147700309753416 -1.0070950984954832 1.0000000180025095e-35 -1.0566378235816953 -1.0570744276046751 0.57378926873207103 -0.98486196994781483 1.0071431398391726 -1.1606829166412351 -1.4401344060897825 0.92081317305564891 -1.1891505122184751 -0.89090141654014576 -0.91823324561119068 1.0000000180025095e-35 0.77594193816185009 1.0978075861930849 -1.1572277545928953 -0.77552571892738331 -1.4597102999687193 -0.55690810084342945 0.77040255069732677 -0.002395125105977058 0.76846677064895641 -0.83915850520133961 0.82216772437095653 -0.41703537106513971
decision_type=2 2 2 2 2 2 2 2 2 2 2 2 2 2 2 2 2 2 2 2 2 2 2 2 2 2 2 2 2 2 2 2 2 2 2 2 2 2 2 2 2 2 2 2
left_child=1 2 23 4 9 6 -6 12 13 10 -3 -11 22 -9 -7 20 -10 26 -19 -14 21 -4 -5 29 28 -26 -17 -22 -25 30 -1 -31 37 34 -34 36 -36 38 40 -40 42 -42 -2 -35
right_child=32 3 15 7 5 14 -8 8 16 11 -12 -13 19 -15 -16 17 -18 18 -20 -21 27 -23 -24 24 25 -27 -28 -29 -30 31 -32 -33 33 43 35 -37 -38 -39 39 -41 41 -43 -44 -45
leaf_value=-0.09009799629526366 0.17996663158501913 0.13405716113879754 -0.021837109688096257 0.17311122346862973 0.14149742901321596 0.2264876081160565 -0.085950322563487239 -0.015160407148720932 0.11024506449657326 0.20175627281391445 0.02785487232470861 0.017326588514185556 0.062386744855002764 0.083476868247733468 0.12012414263047017 -0.066650838828266348 -0.02920019218110282 0.030167937613138136 0.095050237949046865 0.16348062445116063 -0.017881022627468459 0.093563588421522043 0.014931377765049781 -0.090234772609627534 0.16311854162843745 -0.052977256711463284 0.13630915665748358 0.21695741582858674 -0.0059872599536302043 -0.11791775142010208 0.23678852159773942 -0.073125589233206154 0.22238545831803616 -0.11892963576318266 0.18017463384543811 0.20988451715853446 -0.1114386523727907 0.16632275789428019 0.13112014613675477 0.18012082839790955 0.17526030794569575 0.20461941522856289 0.17405550852339538 -0.15229545830676935
leaf_weight=25.604796178638935 13547.510119825602 1877.6956097371876 468.27791284769773 5268.4537181407213 734.00763007253408 1215.8156283423305 675.27796710282564 2037.0831436291337 33672.310375519097 1063.5759070962667 9072.5670396536589 602.54401447623968 1619.4517224878073 1900.358266428113 2477.513926576823 58.872630529105663 400.09189718216658 2146.7809744924307 8762.0857112035155 604.48118121922016 1062.1525818221271 1343.6655273735523 114.3633811622858 240.42948587238789 163.01126566529274 90.550016313791275 2714.5084435716271 33.42828020080924 559.61210811138153 345.97399220615625 20.475153148174286 122.56687956303358 26.393208980560299 3.4994519352912903 5.3253152370452863 15.512588102370506 3.6477248594164848 57.593039058148861 18.796106271445751 82.911488249897957 47.370540454983711 31.45718240737915 84.802210472524166 5.901386693120001
leaf_count=138 5101 7089 3095 9549 1060 1821 3933 8470 89698 2777 42827 2441 5656 6501 4989 264 2965 10659 30173 1661 6969 5633 388 1488 351 425 6568 109 2470 2299 48 722 10 29 2 15 44 31 22 32 37 12 46 27
internal_value=0 0.0933459 0.0725285 0.0993141 0.0760908 0.12127 0.0325128 0.108335 0.100718 0.0578182 0.0460659 0.135058 0.146395 0.0324457 0.155138 0.0824269 0.108608 0.0923599 0.0822819 0.0898648 0.0356841 0.0637395 0.169751 -0.0321832 -0.0030871 0.0859479 0.132001 -0.0107156 -0.0313054 -0.0917528 0.0551507 -0.1062 0.179671 0.138743 0.190223 0.155554 0.0616279 0.179848 0.179905 0.171065 0.17997 0.186976 0.17993 -0.139875
internal_weight=0 81493.6 18158 63335.6 17719 5102.62 1409.29 45616.6 38009.8 12616.4 10950.3 1666.12 7606.75 3937.44 3693.33 16589.8 34072.4 13682.2 10908.9 2223.93 2907.52 1811.94 5382.82 1568.22 1053.6 253.561 2773.38 1095.58 800.042 514.621 46.0799 468.541 13930.7 60.2797 50.8788 24.4856 8.97304 13870.4 13812.8 101.708 13711.1 78.8277 13632.3 9.40084
internal_count=268644 263236 71411 191825 66937 11803 4993 124888 107634 55134 49916 5218 17254 14971 6810 63470 92663 47664 40832 7317 15806 8728 9937 7941 4734 776 6832 7078 3958 3207 186 3021 5408 127 71 61 46 5281 5250 54 5196 49 5147 56
is_linear=0
shrinkage=0.1


Tree=7
num_leaves=45
num_cat=0
split_feature=115 106 32 30 74 106 94 58 36 125 130 93 74 70 129 27 3 74 128 83 35 43 96 90 109 22 130 104 33 13 104 74 84 127 71 76 58 72 111 23 73 57 125 32
split_gain=8588.84 874.386 879.717 880.54 1193.3 1178.09 662.266 582.138 751.174 745.976 427.052 424.498 392.097 350.141 271.521 226.719 202.943 193.7 183.644 138.84 158.996 157.484 81.1891 112.298 55.3567 42.4106 37.0845 41.1532 9.43277 70.7333 4.10685 9.17396 15.5882 1.27021 14.9049 31.5496 29.0499 0.683151 0.66997 0.243904 0.19488 0.201779 0.162749 0.0680728
threshold=-0.82198974490165699 -0.78751829266548146 0.95972475409507763 1.0894387364387514 -1.0024847984313963 -0.95742008090019215 -1.0612348914146421 0.89756593108177196 0.97261542081832897 -1.5812510848045347 1.0000000180025095e-35 -1.0029857754707334 -1.0260295271873472 -0.28066036105155939 1.0000000180025095e-35 1.1492348313331606 0.66741621494293224 -0.8840937316417693 1.0000000180025095e-35 -1.4126983880996702 0.96232408285141002 1.1144474148750307 -0.92360785603523243 -1.2259715199470518 -0.87061390280723561 1.1982769370079043 1.0000000180025095e-35 -0.77431103587150563 0.77594193816185009 1.224636495113373 -0.77552571892738331 -1.1572277545928953 -1.6697550415992735 1.0000000180025095e-35 -0.57918757200241078 -1.4597102999687193 0.47649392485618597 -0.80722159147262562 -0.84453791379928578 1.3696727156639101 -0.67187008261680592 0.67700454592704784 -0.41703537106513971 0.82595813274383556
decision_type=2 2 2 2 2 2 2 2 2 2 2 2 2 2 2 2 2 2 2 2 2 2 2 2 2 2 2 2 2 2 2 2 2 2 2 2 2 2 2 2 2 2 2 2
left_child=1 2 3 4 6 -6 -1 9 10 13 -9 -11 16 -4 -14 18 -5 -10 19 21 -21 -3 23 -20 -24 -17 38 -28 33 30 31 -30 -33 34 37 -36 -37 39 -27 -2 41 43 -31 -35
right_child=28 15 7 12 5 -7 -8 8 17 11 -12 -13 14 -15 -16 25 -18 -19 22 20 -22 -23 24 -25 -26 26 27 -29 29 42 -32 32 -34 40 35 36 -38 -39 -40 -41 -42 -43 -44 -45
leaf_value=0.053887697824132254 0.15801168872853188 0.056902928441740122 0.071444471860818759 -0.069401467799852221 0.01597937012767801 0.08057201870781279 -0.015896697717145743 -0.0076406292365352839 -0.13367946241687048 0.088482736271815354 0.094768044222139414 -0.033816797862497965 0.1196270084686134 0.13143437029155955 0.0037657342625916686 0.3268900067008374 0.064937871392481805 0.15226375290080871 -0.1193486417465834 -0.01751505635111816 0.33261866650472061 0.24774883148908031 0.23798476501592636 0.15714205033110004 -0.074196504440720068 -0.12563265940912668 0.054548346322784394 -0.10133665637134757 0.19727116696201311 -0.11689693843914968 0.19466614048200565 0.16695655408171381 -0.11027188892094189 0.16676999935411707 0.17346980129414857 -0.16093013418894223 0.1372848547826436 0.17846906147309216 -0.11372505151779203 0.16765838008491418 0.16097357778109597 0.17288343247301219 -0.14512458788772351 0.17007402596209653
leaf_weight=3842.5920783802867 32.23944603651762 127.13837668299675 1095.5108723342419 133.69125305861235 3007.8250476196408 46118.530058003962 2104.8532068617642 1349.876033782959 24.519188851118088 8233.4971838444471 583.09404158592224 293.94121795892715 6489.7388967722654 8696.1038251668215 208.77440426498652 2.3837988972663871 707.84242372959852 700.75084388256073 22.77152644097805 201.75353803858161 13.860364764928816 65.521684005856514 5.8143090903758994 41.389591038227081 246.09707680344582 95.796092599630356 29.770022220909595 39.28170507401228 10.779485702514647 3.2186603397130966 31.249852336943153 5.179393529891966 3.333731934428215 13052.159204922616 21.384859099984169 7.0825225561857206 6.0627014636993408 57.16543135792017 93.24030414223671 140.13502478599548 57.439896762371063 54.494437456130981 5.589703440666197 62.656522274017334
leaf_count=18256 20 548 2704 863 14232 146195 11511 5824 132 22973 1800 1136 12668 14917 661 5 2467 1667 179 934 15 152 12 137 1286 602 159 235 4 29 21 2 44 5056 9 38 6 26 966 54 27 21 27 24
internal_value=0 0.0807177 0.0818213 0.0758835 0.0714956 0.0766172 0.0291904 0.0995449 0.0558136 0.105891 0.0232517 0.0842671 0.107933 0.124723 0.116016 -0.0129587 0.0435959 0.142597 0.0158135 0.0601164 0.00499268 0.121808 -0.0414131 0.0590123 -0.0669911 -0.0929713 -0.0968493 -0.0341305 0.166474 0.126695 0.172269 0.13599 0.0583942 0.166649 0.159781 0.0985272 -0.0233906 0.168996 -0.119759 0.165854 0.166786 0.166811 -0.13481 0.166786
internal_weight=0 84576 83591.1 62613.8 55073.8 49126.4 5947.45 20977.3 2658.24 18319.1 1932.97 8527.44 7540.05 9791.61 6698.51 984.818 841.534 725.27 724.346 408.274 215.614 192.66 316.073 64.1611 251.911 260.472 258.088 69.0517 13550.2 59.3508 50.5425 19.2926 8.51313 13490.8 264.07 34.5301 13.1452 229.54 189.036 172.374 13226.8 13169.3 8.80836 13114.8
internal_count=268644 263236 258006 206853 190194 160427 29767 51153 9423 41730 7624 24109 16659 17621 13329 5230 3330 1799 3263 1649 949 700 1614 316 1298 1967 1962 394 5408 127 71 50 46 5281 153 53 44 100 1568 74 5128 5101 56 5080
is_linear=0
shrinkage=0.1


Tree=8
num_leaves=43
num_cat=0
split_feature=115 123 55 42 132 115 75 130 109 74 109 68 112 50 80 50 110 44 30 111 36 41 39 106 110 52 44 42 38 33 14 104 74 17 52 1 32 94 48 32 125 88
split_gain=8339.62 695.384 1712.95 1153.44 1229.07 1010.63 873.253 721.471 714.586 656.031 478.482 470.892 359.254 363.614 355.977 279.94 508.074 128.33 121.345 89.0173 85.0804 80.9362 59.1638 54.2559 50.2546 32.9759 22.4291 21.508 10.8722 8.71069 58.9142 3.08949 7.04376 3.73752 1.51312 4.84001 0.798252 1.97011 0.372879 0.256697 0.109848 0.0301149
threshold=-0.82198974490165699 -2.2688248157501216 1.0413886308670046 1.1130469441413882 1.0000000180025095e-35 -1.4581438302993772 -1.0852948427200315 1.0000000180025095e-35 -1.1247598528861997 -0.47110727429389948 -1.1557274460792539 0.11539651826024057 -1.2689046263694761 1.2176477313041689 -1.211531341075897 1.1906752586364748 -1.1778517365455625 1.1672921776771548 0.78203347325325023 -1.2453975081443784 0.89234980940818798 1.093947768211365 1.0128059983253481 -0.96796470880508412 -1.1494694948196409 1.1437241435050967 1.1867886185646059 1.1377864480018618 0.95493721961975109 0.77594193816185009 1.2194281816482546 -0.77552571892738331 -1.1572277545928953 1.0548349618911745 0.8275013566017152 0.32498103380203253 0.82595813274383556 -1.3518684506416319 0.78013506531715404 0.82216772437095653 -0.41703537106513971 -0.2060308754444122
decision_type=2 2 2 2 2 2 2 2 2 2 2 2 2 2 2 2 2 2 2 2 2 2 2 2 2 2 2 2 2 2 2 2 2 2 2 2 2 2 2 2 2 2
left_child=1 12 3 4 6 23 -3 9 -6 -7 17 -12 15 27 -9 16 20 -5 21 -20 -1 -17 28 -4 -24 -25 -18 41 -15 34 31 32 -31 -34 36 -36 38 -38 39 -2 -32 -14
right_child=29 2 5 10 8 7 -8 14 -10 -11 11 -13 13 22 -16 18 26 -19 19 -21 -22 -23 24 25 -26 -27 -28 -29 -30 30 40 -33 33 -35 35 -37 37 -39 -40 -41 -42 -43
leaf_value=0.051555761834615826 0.15648784769970586 0.055368305980643379 0.15506158373531781 0.1484157948238532 0.090066957107601875 -0.0097830745575589115 0.079714215416279668 0.020191657929135493 -0.028173710622215853 0.078761991899407024 0.050580926712898155 0.15993357097522368 -0.17089506520457814 0.11534480752198401 0.14931566949907477 0.16239033097360703 -0.1772536116409662 -0.13538474320473265 0.046327840263280295 0.18372119169391055 0.18182981817875093 -0.076044750800005445 0.20823940699375126 -0.033624656110505628 -0.16057498889374205 -0.12530893250268332 0.043315366162220266 0.031671882846847195 0.19979446996293102 0.17985665373578688 -0.11510671483188391 0.17810508528687619 0.15730792658094439 0.0098842180320725444 0.10029752733136953 0.16300507374833448 0.1586724891774598 0.1254701756330879 0.16364607066739367 0.14938533228965348 -0.1391994685664075 -0.17892266201365883
leaf_weight=75.511311359703541 12713.92058070004 20312.834762245417 7.3857875466346732 19.826962977647781 696.46855720877647 3265.1681123897433 53632.606104917824 314.54926580935717 1920.5602762028575 1125.0650816559792 471.72399631142616 2383.4878411069512 5.023444637656211 22.195813789963722 664.63732217997313 25.505990162491798 69.953989043831825 81.131558701395988 49.255853720009327 1106.5027595460415 149.15675131231546 32.221066929399967 5.5650792866945293 42.693418100476265 10.991699084639547 483.42599400877953 4.9355102926492682 5.2294003516435614 48.678741812705994 10.646303176879881 2.955330528318882 30.762514129281048 2.4968740940093976 5.5248430147767067 19.728311710059643 32.726946115493774 47.731563568115234 28.566896684467793 72.606941223144531 51.090300381183624 5.2617457807064039 67.016020938754082
leaf_count=152 5127 73967 24 27 2648 14463 142495 1173 12423 2620 1601 4080 21 32 1643 26 285 456 115 905 121 103 3 153 53 3320 11 12 32 4 29 21 1 45 34 13 19 34 29 25 27 272
internal_value=0 0.0704034 0.0691512 0.0730094 0.0706428 0.0171768 0.0730264 0.0302195 0.00329362 0.012908 0.134302 0.141867 0.13416 -0.0060944 0.107836 0.149427 0.0628539 -0.0796499 0.170799 0.177866 0.138044 0.0293049 0.133588 -0.114091 -0.0366088 -0.117869 -0.162717 -0.164148 0.173347 0.156198 0.117412 0.15863 0.126537 0.055772 0.156371 0.139421 0.156439 0.146241 0.1565 0.156459 -0.130534 -0.178363
internal_weight=0 87099.3 85421.6 79518.6 76562.5 5902.92 73945.4 5369.42 2617.03 4390.23 2956.17 2855.21 1677.74 164.7 979.187 1513.04 299.558 100.959 1213.49 1155.76 224.668 57.7271 87.4313 533.505 16.5568 526.119 74.8895 77.2689 70.8746 13024 57.6476 49.4305 18.668 8.02172 12966.4 52.4553 12913.9 76.2985 12837.6 12765 8.21708 72.0395
internal_count=268644 263236 261093 237697 231533 23396 216462 19899 15071 17083 6164 5681 2143 425 2816 1718 569 483 1149 1020 273 129 120 3497 56 3473 296 305 64 5408 127 71 50 46 5281 47 5234 53 5181 5152 56 293
is_linear=0
shrinkage=0.1


Tree=9
num_leaves=54
num_cat=0
split_feature=45 32 30 54 74 123 45 114 75 75 59 40 127 59 34 0 130 30 113 106 130 31 35 58 5 133 35 36 118 110 114 5 73 97 91 127 8 113 83 88 99 31 112 105 99 33 64 7 31 71 113 76 23
split_gain=8088.73 628.33 749.258 1816.36 949.559 748.549 1133.61 744.877 973.34 501.721 470.338 517.834 472.207 371.366 659.184 311.538 293.288 307.532 284.171 284.047 243.953 296.905 255.549 205.294 199.456 313.153 187.301 186.098 178.598 136.754 133.398 125.812 107.299 54.3894 54.5755 44.9248 42.4877 51.7755 36.922 51.13 26.7173 24.7135 11.6866 7.16578 8.03752 5.59774 46.0301 37.1874 3.98562 28.9803 4.70381 0.28016 0.139405
threshold=0.73831486701965343 0.96127513051033031 1.0643876194953921 0.97925865650177013 -1.0246900320053098 -2.2688248157501216 1.2055792808532717 -0.96138980984687794 -1.0805952548980711 -1.0936221480369566 0.84328344464302074 1.0684399604797366 -1.9228439927101133 0.81687408685684215 0.92981392145156871 0.35849320888519293 1.0000000180025095e-35 1.0938655138015749 -1.3204168081283567 -0.87459215521812428 1.0000000180025095e-35 1.0016500353813174 0.9410749375820161 0.91585823893547069 0.63855057954788219 1.0000000180025095e-35 0.90046122670173656 0.9806557595729829 -0.88769066333770741 -0.85535436868667591 -0.93962883949279774 0.58158564567565929 -0.7233387529850005 -0.97298389673233021 -0.88529777526855458 -1.1690322160720823 0.91388154029846203 -0.92569801211357106 -1.1539508700370786 -1.1265668272972105 -0.99849852919578541 0.91363555192947399 -0.92170584201812733 -0.92834436893463124 -0.97264167666435231 0.77040255069732677 0.18872544169425967 1.1223744153976443 0.91363555192947399 -0.72775533795356739 -0.91855186223983754 -1.0907739400863645 1.1143318414688113
decision_type=2 2 2 2 2 2 2 2 2 2 2 2 2 2 2 2 2 2 2 2 2 2 2 2 2 2 2 2 2 2 2 2 2 2 2 2 2 2 2 2 2 2 2 2 2 2 2 2 2 2 2 2 2
left_child=30 2 3 24 16 18 -7 8 -6 -9 12 20 19 15 -15 -14 17 -4 -5 26 22 -22 -12 32 25 -2 -3 -25 -26 -18 33 -21 -13 43 40 36 38 -38 39 -32 -35 -42 -40 44 -1 48 47 -47 50 -50 -37 -39 -48
right_child=1 10 4 5 7 6 -8 9 -10 -11 11 23 13 14 -16 -17 29 -19 -20 31 21 -23 -24 27 28 -27 -28 -29 -30 -31 35 -33 -34 34 -36 45 37 51 42 -41 41 -43 -44 -45 -46 46 52 -49 49 -51 -52 -53 -54
leaf_value=0.0096724915466554276 0.055241114336055046 0.2209703205647077 -0.023556141629270513 0.13277493738912613 -0.023881944457191794 0.055283560330460862 -0.029155857475653003 0.074062902655450333 0.068629325314630563 0.1171693351846278 -0.083023371085280573 -0.13755661669829145 -0.092840345860429496 -0.019987379227706145 0.078699540212721353 0.086025517462527595 0.12405581749736355 0.056547550778226222 -0.0061367146926352501 0.11739637267300487 0.038839400208443092 0.24844675516320611 0.014503112941847286 0.0030258816668005603 -0.057824268142081574 -0.045440195324834204 0.051324651376166902 0.13022524260651577 0.045694688363983063 -0.12949338676826266 0.18591892094799359 -0.027102494423885633 0.14601584650525287 0.15134129018845141 0.1530009754701257 0.11691798022923859 0.1218887633374065 -0.14327285802139117 0.090855424329173651 -0.041853680926654362 -0.10187547549079529 0.028655727505006386 0.16550014535002144 0.18232411761169456 0.17349981230838421 0.15255281627731831 0.14776213808784752 -0.14044067788246473 0.045726698018517635 0.16421648096485741 0.1484368516832828 -0.17300201599908893 0.15479751661806804
leaf_weight=6.3464110232889634 619.34546642750502 69.144067108631134 1630.6253466978669 1531.2569319158792 1238.5028679147363 34693.198136676103 1666.2684548273683 5445.4921271577477 13918.24720261246 5355.6229198351502 350.67210471630096 13.671365812420843 98.838330745697021 1108.8989902287722 1737.1562739983201 6585.7885892763734 279.23615523427725 678.78426857292652 162.93592584133148 5137.6612586975098 431.47680811583996 80.12735490500927 1149.0559414848685 305.34758202731609 1615.535056270659 616.37794516980648 1107.5657795220613 184.52872693538666 185.83280060440302 23.026456817984581 15.292217224836348 60.969892993569374 556.32564380764961 6.7758962959051123 19.039482060819864 47.531188249588013 13.498213008046152 8.7116502746939641 27.552906647324562 27.720142237842083 42.558676343411207 22.003855437040329 87.848816618323326 22.909830592572689 5.6703158020973206 7.2975018024444589 66.321229949593544 10.659690275788307 29.73068605363369 67.518506944179535 12338.823965400457 4.9830141216516486 48.953871250152588
leaf_count=36 2645 73 8888 1721 5022 112891 8144 15528 36723 9994 1952 71 376 4045 4374 15034 883 2156 422 7459 1359 109 4229 1107 8897 3076 2461 412 857 135 18 158 993 14 27 61 16 45 45 104 388 80 73 17 5 3 29 72 61 43 5272 21 20
internal_value=0 0.061544 0.0571495 0.0485018 0.0695873 0.0544414 0.0514139 0.0753701 0.06107 0.0954368 0.077675 0.0418476 0.0845927 0.0705006 0.0402485 0.0833808 0.0121116 -1.19744e-05 0.119415 0.105659 0.0120401 0.0716681 -0.0083009 0.0984137 -0.0259197 0.00502135 0.0612931 0.0509399 -0.047145 0.10474 0.146217 0.115702 0.139214 0.0435386 0.0025823 0.147221 0.0983816 -0.0170976 0.118204 0.0391265 -0.0375629 -0.0573885 0.147678 0.149519 0.0869775 0.14794 0.127551 -0.021373 0.148158 0.127992 0.148316 -0.15409 0.15075
internal_weight=0 88637.5 69660.3 41090.8 28569.5 38053.7 36359.5 25957.9 15156.8 10801.1 18977.2 3071.21 15906 9530.68 2846.06 6684.63 2611.67 2309.41 1694.19 6375.34 2011.33 511.604 1499.73 1059.87 3037.09 1235.72 1176.71 489.876 1801.37 302.263 12927.7 5198.63 569.997 125.304 90.3779 12802.4 185.607 27.1929 158.414 43.0124 71.3384 64.5625 115.402 34.9266 12.0167 12616.8 133.232 17.9572 12483.6 97.2492 12386.4 13.6947 115.275
internal_count=268644 262194 217982 138653 79329 123178 121035 67267 41745 25522 44212 10232 33980 23829 8419 15410 12062 11044 2143 10151 7649 1468 6181 2583 15475 5721 2534 1519 9754 1018 6450 7617 1064 567 509 5883 322 82 240 122 482 468 118 58 41 5561 124 75 5437 104 5333 66 49
is_linear=0
shrinkage=0.1


Tree=10
num_leaves=47
num_cat=0
split_feature=115 106 32 30 73 97 57 126 0 118 69 71 131 53 32 130 73 61 26 112 81 128 88 59 54 45 80 36 57 35 4 127 33 6 32 24 23 32 52 44 72 125 32 48 104 74
split_gain=7808 594.265 573.452 635.241 827.532 889.31 483.823 550.964 432.849 407.958 396.277 361.96 295.484 292.009 258.462 238.163 226.079 221.608 192.362 163.969 156.744 131.975 80.5123 76.3884 87.2776 73.4152 63.7624 59.0842 76.0045 57.6602 55.7304 8.90799 61.3159 29.7311 27.6541 7.36051 0.82455 0.63859 0.530639 0.48128 0.223806 0.108219 0.0798635 0.0267455 0.0160049 0.00336655
threshold=-0.82198974490165699 -0.79433557391166676 0.95815792679786693 1.0894387364387514 -0.85546222329139698 -0.94436922669410694 0.93155860900878917 -1.7189114093780515 0.61041757464408886 -1.0559263825416563 -0.12825459241867063 -0.37622122466564173 1.0000000180025095e-35 1.0167092680931094 0.96423700451850902 1.0000000180025095e-35 -0.93972888588905323 0.72951138019561779 1.1750715970993044 -0.93089181184768666 -1.4116966128349302 1.0000000180025095e-35 -1.299426734447479 0.84125667810440075 1.0361212491989138 1.1251450777053835 -1.3347422480583189 0.94263780117034923 0.94288706779479992 0.95017224550247203 0.61526390910148632 1.0000000180025095e-35 0.76451885700225841 1.0978075861930849 0.93803727626800548 1.1441473960876467 1.2863515615463259 0.82595813274383556 0.8275013566017152 0.7149416208267213 -0.80722159147262562 -0.41703537106513971 0.82595813274383556 0.78013506531715404 -0.77431103587150563 -1.0632473230361936
decision_type=2 2 2 2 2 2 2 2 2 2 2 2 2 2 2 2 2 2 2 2 2 2 2 2 2 2 2 2 2 2 2 2 2 2 2 2 2 2 2 2 2 2 2 2 2 2
left_child=1 2 3 4 8 -6 7 10 -1 -9 -4 12 -8 16 15 19 -5 -13 20 26 -17 27 -20 24 -23 -21 -3 44 -29 -25 -15 32 35 34 -34 -2 -37 -35 39 42 -38 -39 43 -33 -16 -36
right_child=31 14 6 13 5 -7 11 9 -10 -11 -12 17 -14 30 21 18 -18 -19 22 25 -22 23 -24 29 -26 -27 -28 28 -30 -31 -32 38 33 37 45 36 40 41 -40 -41 -42 -43 -44 -45 -46 -47
leaf_value=0.0094180120285168797 0.020804571184115703 0.077997217176650604 0.044180626704840055 -0.0088206999352399319 0.088157680742641131 0.047038264707845508 0.011964654914556522 -0.0089840738015773657 0.062741052071606601 0.066610298485934846 0.10426652262687067 0.096435350613922902 0.11977416200413932 -0.12897264145003035 -0.1312982634622247 0.21300521107945136 0.082418063191571744 0.044404367373222599 0.02829400612357624 -0.11732569651312086 -0.14100403796834168 -0.064110988153643286 -0.13301192128316139 -0.10518457169562404 0.10021807120808129 -0.051104404438438771 -0.030199831384082068 0.17824214563598079 0.066318894579893969 0.015351053015748651 0.085932124866661228 0.14165337933162173 0.21365498470975328 -0.17850206971529511 -0.10866217620999459 0.12541342741556416 0.14182880861913796 -0.1137760641577728 0.13110273160609412 0.14977425412246603 0.14987907885274321 -0.13567701716883346 0.14519594788745427 0.14375926156373511 -0.13943463508240714 -0.11427391423361317
leaf_weight=7626.0166338458657 5.1827639192342749 110.46278723329306 1291.369314968586 281.63905391097069 6053.9886476844549 40087.904365770519 2952.5362572222948 772.85255470871925 1902.0029302537441 9358.8185259401798 7316.0477769225836 1516.6158675849438 278.1785868704319 81.072936803102493 5.2818546146154404 87.944490365684032 7605.2866969779134 1778.52155777812 125.75960876792669 256.22683605924249 14.580885782837866 43.589029371738434 41.041019923985004 71.900178514420986 125.01774704456329 482.98869577050209 107.447056312114 109.28747493028641 136.39779057353735 88.580628171563148 14.177158862352369 11234.911570549011 6.7256655693054199 3.099756285548211 2.0871151685714722 28.144044458866119 144.25711908936501 4.048507332801818 47.115499027073383 74.023535013198853 45.403698205947876 5.096342906355857 64.410626411437988 60.634590148925781 4.4583092629909498 2.1915614679455757
leaf_count=33348 13 380 2986 1176 14689 125839 9516 2346 6359 23597 10791 2996 591 465 30 149 14929 5271 556 2044 73 199 231 373 303 2541 435 200 447 308 45 5020 3 14 30 23 65 43 38 32 20 29 28 27 23 23
internal_value=0 0.0545803 0.0557353 0.0506758 0.046893 0.0524333 0.0684821 0.0766485 0.0200625 0.0608439 0.0952518 0.0450323 0.0212475 0.077058 -0.00212936 -0.0282098 0.07916 0.0683521 0.0548628 -0.0515857 0.162659 0.0525938 -0.0113951 0.0107312 0.0577349 -0.074058 0.0246474 0.106529 0.116105 -0.0386525 -0.0969859 0.14129 0.12247 -0.0320724 0.087215 0.138583 0.141386 -0.139277 0.141693 0.141737 0.143756 -0.125981 0.141685 0.141665 -0.135022 -0.111537
internal_weight=0 90728 88917 63652.1 55669.9 46141.9 25264.9 18739.1 9528.02 10131.7 8607.42 6525.85 3230.71 7982.18 1810.96 1226.45 7886.93 3295.14 269.326 957.125 102.525 584.513 166.801 329.088 168.607 739.216 217.91 255.425 245.685 160.481 95.2501 11727.3 246.237 23.2489 11.0043 222.988 217.805 12.2446 11481.1 11434 189.661 9.14485 11360 11295.5 9.74016 4.27868
internal_count=268644 263236 254944 196850 180235 140528 58094 39720 39707 25943 13777 18374 10107 16615 8292 6409 16105 8267 1009 5400 222 1883 787 1183 502 4585 815 700 647 681 510 5408 263 142 56 121 108 86 5145 5107 85 72 5075 5047 53 53
is_linear=0
shrinkage=0.1


Tree=11
num_leaves=47
num_cat=0
split_feature=115 106 56 74 134 123 115 54 115 105 30 92 130 133 35 33 31 4 30 81 99 106 116 25 97 136 102 53 54 28 21 127 33 13 32 24 23 52 77 32 44 72 125 32 48 74
split_gain=7517.53 541.353 614.156 1137.29 1119.54 1072.41 778.659 760.663 594.408 582.175 911.3 714.973 536.382 535.595 1010.96 732.587 303.42 296.919 281.703 275.916 268.807 174.35 166.851 116.577 112.628 90.8455 109.622 107.78 89.491 77.7976 45.3103 8.33537 52.8466 25.7921 23.364 6.88667 0.980485 0.759509 0.730557 0.427124 0.334713 0.175938 0.0764136 0.0526015 0.0198723 0.00244412
threshold=-0.82198974490165699 -0.96013733744621266 0.98860031366348278 -0.91762614250183094 1.0000000180025095e-35 -2.2456482648849483 -1.4641388058662412 1.0276560187339785 -1.0285994410514829 -0.87410762906074513 1.0452263355255129 -1.0574342012405393 1.0000000180025095e-35 1.0000000180025095e-35 0.79183208942413341 0.90293094515800487 1.005974352359772 0.64932984113693248 1.0994179248809817 -0.3177714049816131 -0.7361842393875121 -0.97393968701362599 -1.5009433031082151 1.2140430212020876 -0.84012570977210987 1.0000000180025095e-35 -0.92580196261405934 1.0328856110572817 1.0716889500617983 1.262087404727936 1.2831748127937319 1.0000000180025095e-35 0.76451885700225841 1.224636495113373 0.93803727626800548 1.1441473960876467 1.2863515615463259 0.8275013566017152 -0.42979812622070307 0.82595813274383556 0.7149416208267213 -0.80722159147262562 -0.41703537106513971 0.82595813274383556 0.78013506531715404 -1.0632473230361936
decision_type=2 2 2 2 2 2 2 2 2 2 2 2 2 2 2 2 2 2 2 2 2 2 2 2 2 2 2 2 2 2 2 2 2 2 2 2 2 2 2 2 2 2 2 2 2 2
left_child=1 13 3 4 8 19 28 -6 -3 10 -5 -11 -8 15 17 25 21 29 -19 38 30 -16 -21 -22 -18 27 -27 -1 -7 -15 -17 32 35 34 -34 -2 -37 40 -4 -35 43 -38 -41 44 -33 -36
right_child=31 2 5 9 7 6 12 -9 -10 11 -12 -13 -14 14 16 20 24 18 -20 22 23 -23 -24 -25 -26 26 -28 -29 -30 -31 -32 37 33 39 45 36 41 -39 -40 42 -42 -43 -44 -45 -46 -47
leaf_value=0.028949372055339845 0.018679147918883431 0.0063284503125421781 -0.15846972238601995 -0.0030009025415664754 0.013760796036682059 0.060480434839911404 0.0085889959821062109 -0.11171521008535486 0.052608435240182244 -0.03137650807067676 0.067537941804012389 0.082713523052092286 0.070216719549226772 -0.065248575897649166 -0.10887477154263954 0.18651230941534702 0.08321424158015088 -0.057321506264610071 0.086078553914068281 -0.0018272556123045446 -0.07634529808908104 -0.042281452817330666 0.1062640575034106 0.19918977000964361 -0.14047648328810469 -0.080996879801422561 0.20183610553477577 -0.058128550353232514 -0.11985152135411031 0.15797266724700845 0.26266116805722978 0.13615202744968352 0.19884978974546968 -0.1670876771217995 -0.10777882709683861 0.1175366948062276 0.13619300506996684 0.12323556759938215 -0.18767192489727214 -0.11233658591750138 0.14311992294783521 0.14354673722833727 -0.13149239752712247 0.13911439405886034 0.13802384247763777 -0.1127802926022675
leaf_weight=402.53705979138613 5.1945728212594977 2982.8565945997834 13.431852936744688 2493.1919053606689 5029.8652581647038 29.276871547102928 7155.2801989130676 534.47588934004307 39868.839848272502 566.28616787493229 6900.7906531058252 18290.894195180386 1759.5822956860065 16.384485572576523 634.92308507859707 166.65428507328033 194.47519186139107 223.59938471764326 353.67412313818932 154.43216129392385 50.040738999843597 1032.4643209055066 1896.9854756370187 22.153311252593994 25.454751089215279 19.211875975131989 47.796584725379944 219.73341346532106 458.34042054414749 331.72117677330971 147.11966047435999 10554.957915663719 6.5144984722137469 2.9861362427473059 1.9031861312687399 27.082677602767944 135.64700718224049 45.21052872389555 23.652575075626373 3.7077726274728766 69.929283380508423 42.799897193908691 4.7504747956991187 60.694862604141235 57.024497747421265 2.007921002805233
leaf_count=1785 13 9721 60 11660 17516 68 26626 2393 114756 1699 17664 35420 4788 81 3443 256 423 804 625 424 228 4759 2431 40 127 91 106 1282 3117 588 158 5020 3 14 30 23 65 38 97 43 32 20 29 28 27 23
internal_value=0 0.0483692 0.0499797 0.053211 0.0439074 0.0284204 0.0140225 0.00170835 0.0493869 0.0691554 0.0488167 0.0792874 0.0207528 0.011851 -0.0110973 0.0718806 -0.0530774 0.0745214 0.0305344 0.0932399 0.182186 -0.0676395 0.0981269 0.0082048 0.0573242 0.010114 0.120746 -0.0017992 -0.109024 0.147466 0.222216 0.135766 0.117036 -0.0309231 0.0828565 0.132392 0.135266 0.13617 -0.177095 -0.134574 0.136224 0.137957 -0.123095 0.136179 0.136162 -0.110347
internal_weight=0 92046.1 88158.2 76667.2 48416 11491 9402.48 5564.34 42851.7 28251.2 9393.98 18857.2 8914.86 3887.94 2812.7 1075.25 1887.32 925.379 577.274 2088.5 385.968 1667.39 2051.42 72.1941 219.93 689.279 67.0085 622.27 487.617 348.106 313.774 11020.4 232.594 21.87 10.4256 210.724 205.53 10787.8 37.0844 11.4444 10742.6 178.447 8.45825 10672.7 10612 3.91111
internal_count=268644 263236 248440 210829 144386 37611 34599 19909 124477 66443 29324 37119 31414 14796 10850 3946 8752 2098 1429 3012 682 8202 2855 268 550 3264 197 3067 3185 669 414 5408 263 142 56 121 108 5145 157 86 5107 85 72 5075 5047 53
is_linear=0
shrinkage=0.1


Tree=12
num_leaves=47
num_cat=0
split_feature=115 76 112 106 56 123 127 94 116 114 117 33 34 133 114 110 6 103 118 136 136 90 120 112 134 130 89 84 131 88 112 76 127 23 32 8 130 128 28 52 114 44 32 32 48 33
split_gain=7206.19 485.22 796.006 506.904 583.148 902.786 705.505 794.541 678.863 674.853 513.175 439.31 727.942 496.773 413.672 374.347 343.955 292.008 283.846 221.824 212.065 318.616 198.179 159.482 131.67 101.039 85.8968 84.5449 72.548 54.6172 77.9404 14.9012 7.87103 45.8675 20.3895 24.8751 5.94217 1.06513 2.31766 1.02558 0.243582 0.23618 0.0997375 0.0354508 0.0149965 0.00737783
threshold=-0.82198974490165699 -1.195419132709503 -0.90873193740844715 -0.95742008090019215 0.98560822010040294 -2.1827518939971919 -1.9713104367256162 -0.93685200810432423 -1.1272575855255125 -1.3989484906196592 -1.5493742823600767 0.90785703063011181 0.80544748902320873 1.0000000180025095e-35 -1.1971703171730039 -0.83432406187057484 0.71458241343498241 -0.92517718672752369 -0.88234210014343251 1.0000000180025095e-35 1.0000000180025095e-35 -1.1904891729354856 -1.556634724140167 -0.88499894738197316 1.0000000180025095e-35 1.0000000180025095e-35 -1.2401626110076902 -1.4191023111343382 1.0000000180025095e-35 -1.2465083003044126 -0.91407087445259083 -1.1965842843055723 1.0000000180025095e-35 1.1492287516593935 0.82216772437095653 1.1521226763725283 1.0000000180025095e-35 1.0000000180025095e-35 1.1715953946113589 0.8275013566017152 -0.57311877608299244 0.7149416208267213 0.82947209477424633 0.82216772437095653 0.78013506531715404 0.77040255069732677
decision_type=2 2 2 2 2 2 2 2 2 2 2 2 2 2 2 2 2 2 2 2 2 2 2 2 2 2 2 2 2 2 2 2 2 2 2 2 2 2 2 2 2 2 2 2 2 2
left_child=1 2 20 11 6 10 8 -8 -5 -7 -6 12 17 22 -15 16 18 -3 -4 -14 21 26 -13 -18 -23 28 -1 -27 -17 31 -31 -22 33 40 37 36 -36 38 -35 41 -2 43 -37 44 -34 -45
right_child=32 3 15 4 5 9 7 -9 -10 -11 -12 13 19 14 -16 25 23 -19 -20 -21 29 24 -24 -25 -26 27 -28 -29 -30 30 -32 -33 39 34 35 42 -38 -39 -40 -41 -42 -43 -44 45 -46 -47
leaf_value=0.16704068753628981 -0.12948791190149314 0.019079331032150284 0.04294128481070264 0.049310298578546588 -0.031501400503814149 -0.087517274646045085 0.047506122008868043 -0.018090774923196093 0.087613076158908093 0.018719270697508526 0.085906999630066261 -0.13499620150130445 -0.035734613173019958 -0.11957855625840792 0.13189293936381344 -0.10116640064885021 0.0049643351968044194 0.11610464687624987 0.15727154239059885 0.14315333780377409 -0.14487138790091544 -0.030798593944576676 0.17395153455811216 -0.098314640392772226 -0.12198471725580116 0.049355019526413399 0.040265638926576766 -0.09190269630881899 0.014038902286226894 -0.11895117526687488 0.076394422615192484 -0.059563445164262631 0.13154567087895153 0.093857457917656789 0.046124387877785639 -0.13830760447342899 0.16941470690554641 0.14505322475818999 0.13185501807476424 0.11618294687616303 -0.16816184427647382 0.1375897025912772 -0.11409158965154978 0.13260432227195226 0.13322667745356706 0.13433321876689583
leaf_weight=67.735935516655445 3.2302016168832779 698.1304280012846 7850.2466965168715 9551.7140685394406 424.8333532512188 643.90011003613472 44514.564065992832 1926.4101994670928 8975.1813124269247 8378.1457687243819 3009.307449772954 21.949592545628548 2488.4789534807205 161.1988321095705 110.09018084406853 273.62391045317054 483.56094277650118 558.20604765415192 223.32775225490332 71.304326400160789 209.00197948515415 995.00934444367886 384.04003757238388 216.43814006447792 188.32522070407867 151.7267836406827 253.32422054558992 58.786968261003494 68.30689799040556 52.678812563419342 33.358452714979649 22.699717730283737 9825.274428486824 18.345907419919968 8.9739137105643767 3.8445632830262175 6.9264962151646605 42.67873215675354 128.39805996417999 43.26163250207901 3.2845729291439048 65.684464335441589 3.0501663908362389 49.930601119995117 53.358631134033203 48.812434434890747
leaf_count=177 24 1871 25384 29190 1857 3747 114728 6401 14942 29037 4854 117 11957 867 187 2478 2167 1205 692 164 1011 4247 530 1284 1400 644 902 357 392 269 95 83 4999 20 52 24 7 20 65 38 16 32 35 25 27 24
internal_value=0 0.0430081 0.023435 0.0456718 0.0475669 0.0277467 0.051367 0.0447851 0.0678657 0.0111372 0.0713826 0.0130187 -0.000153874 0.0872395 -0.0175304 0.0352463 0.0402737 0.0621889 0.0461038 -0.0307516 -0.0370176 -0.0213393 0.157248 -0.0269693 -0.0453107 -0.044596 0.0670121 0.00990813 -0.078152 -0.111249 -0.0432116 -0.136514 0.13114 0.112373 0.120396 0.0310433 0.0998318 0.131149 0.127105 0.131547 -0.148986 0.131613 -0.127595 0.131574 0.131555 0.133459
internal_weight=0 93065.6 11148.2 81917.5 77424.1 12456.2 64967.9 46441 18526.9 9022.05 3434.14 4493.4 3816.12 677.279 271.289 9326.02 8773.57 1256.34 8073.57 2559.78 1822.13 1504.39 405.99 699.999 1183.33 552.445 321.06 210.514 341.931 317.739 86.0373 231.702 10305.1 218.733 212.218 22.7951 15.9004 189.423 146.744 10086.3 6.51477 10043.1 6.89473 9977.38 9878.63 98.743
internal_count=268644 263236 41582 221654 204756 39495 165261 121129 44132 32784 6711 16898 15197 1701 1054 33398 29527 3076 26076 12121 8184 6726 647 3451 5647 3871 1079 1001 2870 1458 364 1094 5408 263 223 118 59 105 85 5145 40 5107 59 5075 5026 49
is_linear=0
shrinkage=0.1


Tree=13
num_leaves=44
num_cat=0
split_feature=115 75 56 42 132 115 106 130 74 109 68 60 4 135 112 56 116 44 106 48 55 48 37 117 54 109 117 74 127 33 125 74 25 41 25 52 32 44 106 30 32 48 115
split_gain=6879.01 429.453 759.855 879.806 844.468 597.242 556.799 430.948 485.203 398.647 392.454 346.661 308.371 234.591 164.534 226.338 165.22 186.263 118.18 419.061 114.33 109.506 58.375 51.4025 85.2198 39.9537 32.6516 16.4342 7.73103 40.647 20.1988 17.9981 5.9986 3.21548 1.41558 1.32849 0.260956 0.168517 0.141267 0.109313 0.0243227 0.0112695 0.00592
threshold=-0.82198974490165699 -0.42462104558944697 1.0032500028610232 1.1130469441413882 1.0000000180025095e-35 -1.4480444788932798 -0.97622874379158009 1.0000000180025095e-35 -0.87158527970314015 -1.1247598528861997 0.11539651826024057 0.80968108773231517 0.43377731740474706 1.0000000180025095e-35 -1.2689046263694761 1.0445495247840884 -1.5323507189750669 1.1778014302253725 -0.88919249176979054 1.2055528163909914 1.047546446323395 1.2155658602714541 0.94898042082786571 -1.4954805970191953 1.1157167553901675 -1.1557274460792539 -1.5140063762664793 -0.42503210902214045 1.0000000180025095e-35 0.76451885700225841 -1.2660215497016905 -1.1572277545928953 1.0416110157966616 1.1017332673072817 1.2414178252220156 0.8275013566017152 0.82595813274383556 0.7149416208267213 -0.80129459500312794 0.98457491397857677 0.82595813274383556 0.78013506531715404 -1.4177203178405759
decision_type=2 2 2 2 2 2 2 2 2 2 2 2 2 2 2 2 2 2 2 2 2 2 2 2 2 2 2 2 2 2 2 2 2 2 2 2 2 2 2 2 2 2 2
left_child=1 2 3 4 6 20 -1 8 -7 -6 13 -12 -9 -5 16 38 17 25 21 -20 22 -18 -4 26 -25 -3 -17 -22 29 32 -31 -32 -2 -19 -34 37 -33 40 42 -36 41 -30 -16
right_child=28 14 5 10 9 7 -8 12 -10 -11 11 -13 -14 -15 15 23 18 33 19 -21 27 -23 -24 24 -26 -27 -28 -29 35 30 31 36 34 -35 39 -37 -38 -39 -40 -41 -42 -43 -44
leaf_value=-0.034857878291968326 0.015686535563380299 -0.029656073930217637 0.06663747345519476 -0.011213032120086903 0.047880597122751889 -0.086523336673771378 0.04035897811903142 0.099451750149958204 0.012014435446774059 -0.038410908361522889 0.12637820971832009 0.038964996889233383 -0.045664343525567426 0.15235422060141901 -0.18653593858422704 -0.0045007330667073192 0.16977405375524268 -0.16312583306563011 -0.13175062217557529 0.10015851891195643 -0.12651164666969864 -0.046769751399702998 -0.13395720454105961 0.21387531743772079 -0.15748751910348541 0.14735674352843586 0.13702124039676586 -0.069637724472319848 0.12766128540623789 0.22140703378069093 0.12770889409624278 -0.15016949136103941 0.10235957687400039 -0.11811850126735696 0.13338974098293524 0.10974606013368245 -0.11540005758002021 0.1329376308621463 -0.16633837531542028 0.12740405958911058 0.12981605528928106 0.12917090666954623 -0.18377016234231824
leaf_weight=996.49712287634611 5.1057145446538916 17.251871481537819 55.315381273627281 495.59773252904415 719.50869330763817 594.89125344902277 79531.739743430167 767.50598494708538 3123.2437330856919 2091.8827715888619 2064.9578487947583 581.4223839789629 180.95993773639202 106.53204115480185 9.6896105110645276 21.392674848437309 305.91342620551586 27.56106361746788 82.564277842640877 1384.802408427 397.07806209474802 25.283270493149757 19.664739593863487 8.7539962977170962 21.010411530733109 48.875969372689724 68.517146185040474 58.261485174298286 9185.945539355278 2.7919303923845318 3.6630015373230025 2.7040831893682453 22.884726166725159 37.433464221656322 41.365931153297424 41.321118369698524 10.700675889849661 61.404963254928589 4.801087260246276 116.25893950462341 53.08619749546051 49.717831134796143 38.444487273693085
leaf_count=4284 13 44 106 1751 2654 3037 214006 1698 10666 12581 3337 1535 681 191 39 50 161 124 293 1655 2982 167 139 9 104 30 61 319 5020 3 2 14 22 353 22 38 123 32 24 64 28 27 155
internal_value=0 0.038332 0.0373084 0.0395375 0.0375474 0.000168961 0.0394282 0.011597 -0.00375133 -0.0163267 0.0905936 0.107173 0.0717647 0.0177262 0.0830202 -0.0105186 0.0913872 -0.0169836 0.0992879 0.0871097 -0.100393 0.153243 0.0140283 0.0656399 -0.0482662 0.101176 0.103348 -0.119235 0.127217 0.108029 -0.027945 -0.0687338 0.122577 -0.137204 0.125601 0.127637 -0.122414 0.127716 -0.182695 0.128975 0.127682 0.127669 -0.184327
internal_weight=0 93887.4 91785.1 86588.1 83339.6 5196.92 80528.2 4666.6 3718.13 2811.39 3248.51 2646.38 948.466 602.13 2102.3 172.609 1929.69 131.122 1798.56 1467.37 530.32 331.197 74.9801 119.674 29.7644 66.1278 89.9098 455.34 9596.95 205.475 19.8597 17.0678 185.615 64.9945 180.51 9391.48 13.4048 9350.15 52.9352 157.625 9288.75 9235.66 48.1341
internal_count=268644 263236 259967 240339 233525 19628 218290 16082 13703 15235 6814 4872 2379 1942 3269 442 2827 551 2276 1948 3546 328 245 224 113 74 111 3301 5408 263 142 139 121 477 108 5145 137 5107 218 86 5075 5047 194
is_linear=0
shrinkage=0.1


Tree=14
num_leaves=46
num_cat=0
split_feature=115 76 116 111 114 75 118 105 57 30 75 31 58 33 75 115 30 136 75 74 114 123 84 94 31 76 56 87 131 131 113 85 54 45 84 127 71 128 32 34 103 97 41 51 32
split_gain=6543.31 440.953 999.706 566.639 536.704 1528.8 994.184 780.039 570.064 554.742 411.675 567.927 462.159 416.928 401.052 583.727 403.211 377.136 344.975 317.17 313.388 253.461 240.344 220.167 211.923 208.246 192.201 144.593 108.775 47.0206 62.0002 54.1062 8.05566 23.4778 14.8284 4.28925 26.3531 49.6577 0.552638 0.253016 0.265239 0.162778 0.117833 0.0300282 0.0159289
threshold=-0.82198974490165699 -1.1691740751266477 -0.97718429565429676 -0.92601987719535817 -0.97580870985984791 -1.0562142729759214 -1.0470559000968931 -0.85549414157867421 0.9547807276248933 1.0617364048957827 -1.0859714746475218 0.97194606065750133 0.86170166730880748 0.94218042492866527 -1.1129569411277769 -0.93142005801200856 1.0622100234031679 1.0000000180025095e-35 -1.06784051656723 -1.0375111699104307 -0.95499271154403675 -1.2734135389328001 -1.2704095244407652 -1.0867448449134824 0.99136006832122814 -1.2050873041152952 0.97951751947402965 -1.1551913022994993 1.0000000180025095e-35 1.0000000180025095e-35 -0.94847509264945973 -1.267383277416229 0.76928517222404491 0.86088910698890697 -1.4738147258758543 1.0000000180025095e-35 -0.57693922519683827 1.0000000180025095e-35 0.8183460831642152 0.65011334419250499 -0.9513743221759795 -0.42986011505126948 0.70074331760406505 0.82009395956993114 0.82216772437095653
decision_type=2 2 2 2 2 2 2 2 2 2 2 2 2 2 2 2 2 2 2 2 2 2 2 2 2 2 2 2 2 2 2 2 2 2 2 2 2 2 2 2 2 2 2 2 2
left_child=1 2 3 29 5 6 27 9 -9 -7 11 23 22 -14 15 25 17 -16 -8 -17 -13 26 -12 -6 -18 -4 -5 -3 -23 30 -1 -31 35 -34 -35 36 39 38 -38 40 -2 -36 43 44 -37
right_child=32 4 14 21 10 7 18 8 -10 -11 12 20 13 -15 16 19 24 -19 -20 -21 -22 28 -24 -25 -26 -27 -28 -29 -30 31 -32 -33 33 34 41 42 37 -39 -40 -41 -42 -43 -44 -45 -46
leaf_value=-0.12666362766791761 0.12458538284753642 -0.10714013082592765 -0.083921514495491192 0.031496874117185499 0.23587950669421681 0.010136241550219895 -0.020229817588494289 0.058154886860625671 0.02541226022916683 0.040817890997391221 0.098390761647347252 -0.0027753408759136969 -0.02527595172147673 0.072114522098082237 0.039620459959967942 -0.01157376796350291 0.0018321044696997459 -0.022921928798031413 0.033390333177116087 0.036914633943306158 0.072155025123080349 -0.097615900413593248 0.063077259227155832 -0.04623639356824373 0.072507473174674375 -0.0090746826301554406 -0.04964070821923227 -0.024962255506035747 0.032596519557714719 0.0047708637920211407 0.10618453898200814 -0.10780182434459502 0.12771919267002821 0.11069165461091564 -0.10980292698208881 0.12433984737483886 -0.17698624021166079 0.13018680532171201 -0.12492880855818284 0.1178536782218491 0.13512690572899641 -0.14154387648282385 0.13020961305573592 0.12702644973210625 0.12568523374549076
leaf_weight=565.63794942200184 87.09006130695343 1049.5586776062846 664.44089688360691 1206.4064042121172 28.493157103657722 11535.24869293347 2308.0058842897415 22107.525286354125 7001.3455396667123 12047.74005516991 3093.6062334775925 781.06769304722548 945.33003276586533 821.61223261058331 4187.2644372805953 1742.254575598985 472.24668877571821 1252.5788197219372 2499.0297327786684 5976.8387391902506 1955.910485342145 357.29341672360897 5112.194993339479 949.31538467109203 4176.140650972724 843.82167334109545 385.16175980865955 268.98183365166187 78.194598637521267 70.677413269877434 11.671243771910666 107.84053967893124 27.624829456210136 3.9613777063786966 2.4707006998360139 8517.279664516449 2.6216678917408016 17.099300503730774 9.1798524558544141 35.401509836316109 32.880350232124329 4.6687524914741534 34.654461622238159 42.243012547492981 88.920340061187744
leaf_count=2930 51 4442 3439 3166 45 42786 8381 44912 21289 30359 5381 2527 2977 1805 12236 8483 1708 4083 6548 19972 3799 1552 10538 4060 8301 3823 1626 1005 260 239 21 543 17 17 39 5018 11 9 84 27 18 23 19 24 51
internal_value=0 0.0342124 0.0218459 -0.0341894 0.0379815 0.0338311 -0.0134536 0.039328 0.0502795 0.0258104 0.0558165 0.0274011 0.0664011 0.0200097 0.0299192 0.0148526 0.0437001 0.0252194 0.00764565 0.0259705 0.0507717 -0.0066354 0.0763905 -0.0380156 0.0653273 -0.0420473 0.0118615 -0.0903759 -0.0742354 -0.108086 -0.121956 -0.0632329 0.123871 0.0783612 -0.044468 0.12407 0.108972 0.0212892 -0.136493 0.125282 0.127475 -0.13056 0.12439 0.124367 0.124354
internal_weight=0 94603.4 22098.5 2782.88 72505 58817.4 6125.58 52691.9 29108.9 23583 13687.5 3714.79 9972.74 1766.94 19315.6 9227.36 10088.2 5439.84 4807.04 7719.09 2736.98 2027.06 8205.8 977.809 4648.39 1508.26 1591.57 1318.54 435.488 755.827 577.309 178.518 8906.1 38.7257 11.1008 8867.37 184.273 28.9008 11.8015 155.372 119.97 7.13945 8683.1 8648.44 8606.2
internal_count=268644 263236 72382 10337 190854 159722 20376 139346 66201 73145 31132 10431 20701 4782 62045 35717 26328 16319 14929 28455 6326 6604 15919 4105 10009 7262 4792 5447 1812 3733 2951 782 5408 96 79 5312 200 104 95 96 69 62 5112 5093 5069
is_linear=0
shrinkage=0.1


Tree=15
num_leaves=45
num_cat=0
split_feature=115 73 114 135 35 124 127 0 37 0 34 102 106 45 81 116 114 6 108 112 4 122 111 53 108 55 45 93 119 40 126 54 45 24 127 71 128 32 32 29 97 41 51 32
split_gain=6194.78 408.506 734.854 1240.08 1168.53 975.39 848.103 1037.06 763.334 657.484 560.942 544.955 528.982 834.826 816.047 482.068 473.819 465.084 314.29 303.532 273.906 166.775 169.026 158.603 157.215 130.3 129.65 93.9057 65.9085 35.5147 34.183 7.88085 20.5969 13.7531 4.01805 23.2615 43.535 0.354995 0.268682 0.183097 0.0967065 0.0843354 0.0217336 0.0110883
threshold=-0.82198974490165699 -0.4194978773593902 -1.1881803870201109 1.0000000180025095e-35 0.83005014061927807 -2.3042528629302974 -2.0441937446594234 0.33257529139518743 0.98030075430870067 0.2980093657970429 0.8602755367755891 -0.83885022997856129 -0.90201658010482777 1.2032062411308291 -0.29083199799060816 -1.4858551025390623 -1.1362417340278623 0.51821669936180126 -1.038682162761688 -1.3347851037979124 0.56071573495864879 -2.0481481552124019 -1.2227901816368101 1.0618271827697756 -1.0458881855010984 1.0947863459587099 1.1866157054901125 -0.66010323166847218 -1.6274051666259763 1.0581690073013308 -2.8842660188674922 0.76928517222404491 0.86088910698890697 1.2677789330482485 1.0000000180025095e-35 -0.57693922519683827 1.0000000180025095e-35 0.8183460831642152 0.79802617430686962 1.1043724417686465 -0.42986011505126948 0.70074331760406505 0.82009395956993114 0.82216772437095653
decision_type=2 2 2 2 2 2 2 2 2 2 2 2 2 2 2 2 2 2 2 2 2 2 2 2 2 2 2 2 2 2 2 2 2 2 2 2 2 2 2 2 2 2 2 2
left_child=1 2 3 4 11 -6 9 8 -8 17 30 -1 13 19 15 24 -9 -4 -17 26 -11 22 -16 -12 -14 -21 -3 -15 -23 -29 -5 34 -33 40 35 38 37 -37 39 -2 -34 42 43 -36
right_child=31 12 6 10 5 -7 7 16 -10 20 23 -13 14 27 21 18 -18 -19 -20 25 -22 28 -24 -25 -26 -27 -28 29 -30 -31 -32 32 33 -35 41 36 -38 -39 -40 -41 -42 -43 -44 -45
leaf_value=-0.024667070312321487 0.13045562580403061 0.071351958343685809 0.037089007589864768 0.091706496791217396 0.043536648537953582 -0.05268016213132122 -0.054467706008510558 -0.049499731907649447 0.034807937085911331 0.082082732236506473 0.16396632007513684 0.11292828289956279 -0.043914567817805721 0.16375020185067449 0.094022061936613777 0.12376007890391796 0.031630311079655908 -0.13064244423059965 -0.02690761723571071 0.14857292747985115 -0.013075815129431248 -0.14537366895994713 0.018355075384563539 0.083996556156007082 -0.15822879862588721 -0.077303993069681498 -0.15811557205646615 0.046139112390682087 0.13452792170767977 -0.12154069044214454 -0.10610022613332296 0.12298650127351195 -0.11134877388488865 0.10815652586149882 0.12149406205714515 -0.16506171962923477 0.12652206895772874 -0.1224013017385782 0.11405773232523141 0.12164114901882368 -0.13615214960913094 0.12664625192139936 0.12386813829442954 0.12266056600836239
leaf_weight=414.65700706467032 33.909137368202209 51.904765769839287 6279.1238112151623 9.3913280218839628 1347.8183639273047 4826.5770553126931 2568.3181779459119 728.0718337893486 1527.2720333039761 6310.9999409765005 511.6386307477951 941.17063558846712 214.54741714894772 13.598602190613745 1501.7801598310471 211.64893789589405 63841.698525965214 169.78096766769886 400.31025774031878 1311.8217646181583 317.71409782022238 46.539022780954838 367.44901233911514 481.3059965968132 273.89289551228285 26.045826241374016 46.843863993883133 13.670737117528914 10.268851935863493 166.11766808480024 125.25676156580448 25.907956004142761 2.4509551338851434 3.8966717608273029 7877.9191877841949 2.5343425273895273 15.896923303604126 8.4689659774303419 33.029633827507496 77.260509610176086 4.3829791694879532 32.193080067634583 39.14709746837616 82.339588403701782
leaf_count=1927 20 71 16587 29 4399 24638 9645 3098 4453 11409 738 2513 994 25 1773 294 170513 678 1212 1018 1203 328 724 1167 1295 106 243 30 18 1528 580 17 35 21 5018 11 9 84 27 49 23 19 24 51
internal_value=0 0.0306192 0.0291314 0.00142785 -0.0132173 -0.0316768 0.0320656 0.0276204 -0.0211762 0.0554058 0.09923 0.0708471 0.0595038 0.10543 0.0347682 -0.0339306 0.0307155 0.0326731 0.0252015 0.131688 0.0775218 0.0740177 0.0791476 0.125203 -0.108016 0.144176 -0.0375017 -0.0896261 -0.0947774 -0.108791 -0.0923038 0.121009 0.0747332 -0.0417695 0.121215 0.106051 0.020683 -0.132227 0.121977 0.12433 -0.127257 0.121538 0.121518 0.121506
internal_weight=0 95057.2 90400.8 8657.82 7530.22 6174.4 81743 68665.4 4095.59 13077.6 1127.59 1355.83 4656.44 1630 3026.44 1100.4 64569.8 6448.9 611.959 1436.62 6628.71 1926.04 1869.23 992.945 488.44 1337.87 98.7486 193.387 56.8079 179.788 134.648 8239.34 36.6386 10.7306 8202.7 171.1 26.9002 11.0033 144.199 111.17 6.83393 8031.6 7999.41 7960.26
internal_count=268644 263236 253577 35991 33477 29037 217586 187709 14098 29877 2514 4440 9659 3021 6638 3795 173611 17265 1506 1438 12612 2843 2497 1905 2289 1124 314 1583 346 1558 609 5408 96 79 5312 200 104 95 96 69 58 5112 5093 5069
is_linear=0
shrinkage=0.1


Tree=16
num_leaves=44
num_cat=0
split_feature=115 106 73 30 73 106 97 129 105 100 27 25 2 128 106 94 75 32 129 106 29 96 58 36 109 40 130 104 54 45 126 127 73 128 72 112 28 98 41 29 50 32 74
split_gain=5843.99 384.504 362.539 438.623 517.727 452.113 446.491 232.383 186.393 178.959 155.201 128.603 114.803 112.095 101.644 90.5113 177.897 86.6516 98.2827 79.5452 78.698 56.6338 67.1247 45.9948 37.4925 29.3413 25.2921 27.0665 7.70201 18.1221 12.5875 3.7724 20.7341 34.2329 5.01852 1.13616 0.135297 0.07984 0.0607262 0.0482187 0.0158332 0.00783077 0.00189011
threshold=-0.82198974490165699 -0.78751829266548146 -0.93007582426071156 1.0907212495803835 -0.85546222329139698 -0.95742008090019215 -0.97701278328895558 1.0000000180025095e-35 -0.91702333092689503 -0.9535754621028899 1.1492348313331606 1.4470579624176028 0.61266651749610912 1.0000000180025095e-35 -0.93297642469406117 -1.0761291980743406 -1.124219477176666 0.96465072035789501 1.0000000180025095e-35 -0.79227301478385914 1.2351629137992861 -0.92360785603523243 0.8893992304801942 0.95406112074852001 -0.87061390280723561 1.0627298355102541 1.0000000180025095e-35 -0.77431103587150563 0.76928517222404491 0.86088910698890697 -1.3874842524528501 1.0000000180025095e-35 -0.95364519953727711 1.0000000180025095e-35 -0.75061944127082814 -0.86087107658386219 1.1663142442703249 -0.49435831606388086 0.70074331760406505 1.1048042774200442 0.82321652770042431 0.82595813274383556 -1.0632473230361936
decision_type=2 2 2 2 2 2 2 2 2 2 2 2 2 2 2 2 2 2 2 2 2 2 2 2 2 2 2 2 2 2 2 2 2 2 2 2 2 2 2 2 2 2 2
left_child=1 2 8 4 6 -6 -4 9 12 -5 13 -9 19 17 -14 16 -10 18 -3 -1 -17 22 -15 -19 -23 26 35 -28 31 -30 -31 32 36 34 -34 -12 -2 42 40 -38 41 -33 -32
right_child=28 10 3 7 5 -7 -8 11 15 -11 25 -13 14 21 -16 20 -18 23 -20 -21 -22 24 -24 -25 -26 -27 27 -29 29 30 37 38 33 -35 -36 -37 39 -39 -40 -41 -42 -43 -44
leaf_value=-0.11677941737476089 0.12591937438441839 0.058350493337666759 0.025593652160908493 0.083585719573936554 -0.0056928271301061335 0.031563159402563649 -0.015357501986210071 0.0040988430306484972 -0.054764954824387826 0.046527782610616499 -0.12935099564406033 -0.16535658752583252 -0.054232066963900254 0.10434774036906876 0.0580112363315127 -0.11289381757339229 0.10126617054294729 -0.066495333446912122 -0.047631718196311637 0.29448606642754133 -0.018730327449808376 0.15384280825887864 -0.090806196637583977 0.12700677419984852 -0.08170666479168627 0.21482333058189818 0.0098801021324102841 -0.10773184370212496 0.11873975684942784 0.11145025295952904 -0.10626294953940772 0.11903762555759595 0.038852237532244413 0.12970638656573222 -0.12870722117990224 -0.11379067474212 0.1141660257417134 -0.13059124120920224 0.12357803707979152 0.11917736807849022 0.12114275800066121 0.12038068454180534 -0.1110837368283783
leaf_weight=75.308561772108078 26.920201778411865 154.36587994918227 5669.7900833263993 1795.7197345122695 3411.524664439261 72041.496287178248 5019.5342375673354 134.61850991100073 318.02639742195606 4750.6594759821892 88.18137564510107 67.113198757171631 99.102151528000832 42.875263743102551 433.98727098107338 296.64581352844834 94.868312038481236 14.175889909267424 202.00485914200544 5.0161928683519355 126.64957693219185 6.9400463849306098 29.927284076809883 92.039718136191368 256.77101708948612 2.970897063612937 36.255789525806904 42.509668089449406 24.237570568919182 3.6055711060762388 1.5383263230323776 7300.242830991745 2.1697925776243219 13.921351432800293 10.144260942935942 100.29731727018952 25.257984459400177 3.4752512127161044 29.815259695053101 80.056866765022278 36.178027629852295 43.672147274017334 1.7256268970668314
leaf_count=432 17 403 19116 2648 14530 185982 19700 360 1755 9315 518 265 384 113 1286 1685 183 62 999 7 358 12 203 185 1286 4 158 235 17 6 30 5040 6 8 94 1052 20 20 19 55 24 29 23
internal_value=0 0.0274337 0.0281096 0.028884 0.0269607 0.0298787 0.00636365 0.0534355 -0.0215142 0.056693 -0.0321943 -0.0522765 0.0203522 -0.0100405 0.037145 -0.0522267 -0.0189146 0.0219041 -0.00172437 -0.0910963 -0.0847202 -0.0539529 0.0241249 0.101181 -0.0755077 -0.0977091 -0.101183 -0.053595 0.118532 0.0714472 -0.0393582 0.118748 0.103481 0.0222733 -0.0991825 -0.121071 0.119593 -0.120043 0.119074 0.117975 0.119056 0.119046 -0.108812
internal_weight=0 95409.4 94340.1 92890.5 86142.3 75453 10689.3 6748.11 1449.6 6546.38 1069.32 201.732 613.414 799.1 533.089 836.19 412.895 462.586 356.371 80.3248 423.295 336.514 72.8025 106.216 263.711 270.215 267.244 78.7655 7602.96 34.5823 10.3448 7568.38 158.47 26.2354 12.3141 188.479 132.235 6.7392 7409.91 105.315 7380.09 7343.91 3.26395
internal_count=268644 263236 258006 251916 239328 200512 38816 12588 6090 11963 5230 625 2109 3263 1670 3981 1938 1649 1402 439 2043 1614 316 247 1298 1967 1963 393 5408 96 79 5312 200 108 100 1570 92 73 5112 75 5093 5069 53
is_linear=0
shrinkage=0.1


Tree=17
num_leaves=44
num_cat=0
split_feature=115 75 116 57 37 105 74 34 130 41 107 52 133 109 116 114 113 63 34 124 49 75 62 44 109 46 122 118 53 2 49 55 127 73 128 72 75 89 28 106 54 34 51
split_gain=5497.61 350.251 767.395 424.033 725.108 754.221 406.813 364.869 310.24 276.178 380.503 524.137 274.051 273.631 269.581 265.42 203.663 128.02 187.036 98.0141 68.3227 53.6795 137.146 48.854 72.7685 40.1642 17.0778 16.7038 8.33586 17.7335 7.78963 6.17958 3.53837 18.6123 30.0487 4.53721 1.45905 2.32635 0.110339 0.0577083 0.050113 0.0134636 0.0120284
threshold=-0.82198974490165699 -0.47119110822677607 -1.4953348040580747 0.93780830502510082 0.95573019981384288 -0.82998949289321888 -0.88807296752929676 0.9357992708683015 1.0000000180025095e-35 1.1002036333084109 -0.97678178548812855 1.1378180384635928 1.0000000180025095e-35 -1.1247598528861997 -1.4953348040580747 -1.4029889702796934 -1.3892866969108579 0.67525342106819164 0.83111751079559337 -2.4487086534500118 1.2065274715423586 -0.48207457363605494 0.67676132917404186 1.1867886185646059 -1.1475369930267332 1.1051731705665591 -2.0925484895706172 -1.5789251923561094 0.80485469102859508 0.51635414361953746 1.1967658400535586 1.0705066919326784 1.0000000180025095e-35 -0.95364519953727711 1.0000000180025095e-35 -0.75061944127082814 -1.1901457905769346 -1.5484579205512998 1.1663142442703249 -0.87068030238151539 0.74980697035789501 0.74047744274139415 0.82009395956993114
decision_type=2 2 2 2 2 2 2 2 2 2 2 2 2 2 2 2 2 2 2 2 2 2 2 2 2 2 2 2 2 2 2 2 2 2 2 2 2 2 2 2 2 2 2
left_child=1 2 21 4 5 -4 7 -5 -8 10 16 13 -6 -12 23 -13 19 -16 -19 -3 -18 25 -23 24 -11 -1 -25 -24 32 31 -27 -30 33 38 35 -35 37 -31 -2 -40 41 42 -34
right_child=28 9 3 6 12 -7 8 -9 -10 14 11 15 -14 -15 17 -17 20 18 -20 -21 -22 22 27 26 -26 30 -28 -29 29 36 -32 -33 40 34 -36 -37 -38 -39 39 -41 -42 -43 -44
leaf_value=0.24949475444171948 0.12312941818050266 0.11033873266592763 0.026715498054494358 -0.04390817725880547 0.053355482168429828 -0.0057034481805004131 0.010768885566127359 0.019103651967191059 0.065101820526147797 -0.13090895275844969 0.1082282395895879 -0.051073851582848689 -0.08229073051210771 -0.17269747538744581 0.20605582010454615 0.071179950113941376 0.13348844744568272 0.094392293749778353 -0.044677460586958567 -0.10134865373413023 -0.024264581375733684 0.12054274203863816 -0.13086739925837124 0.024414663780936933 0.1650542211828146 -0.15429009181590464 -0.11627326785849841 0.070896272754654141 -0.13421303727441464 0.12824837944223194 -0.12204221286838185 0.041741318566750119 0.1169027472206432 0.035369041120725898 0.12632237209452565 -0.12580039005734547 0.13261146287282441 0.029227421972152268 0.11133411587081909 0.11703769784538696 0.12117324608567122 0.11881003107023423 0.11893532976486652
leaf_weight=2.7307867705821982 24.88181459903717 34.279526218771935 61317.86276704073 2431.6913447789848 10140.976256661117 8127.5024339780211 6664.5848406255245 1477.189514786005 1247.6648994088173 16.180429689586163 44.412504017353058 198.59498824179173 151.16189286112785 158.09614980220795 43.071806646883488 1678.7262634299695 942.77430747449398 191.90345066785812 194.95058568567038 60.431915901601315 28.277700617909431 32.831726983189583 79.708493180572987 9.0382819175720197 17.073362648487091 130.06224907189608 190.13825842738152 4.3259537220001212 4.8150476980954426 4.9594593048095721 176.63168009370565 3.409230038523674 6728.4905397891998 2.1464169397950181 12.916505336761475 9.3800747171044332 12.777345538139341 4.5486260242760181 23.359115585684776 73.739036560058594 27.842060804367065 37.562345266342163 29.241139769554138
leaf_count=3 17 31 168230 9870 19790 26099 21185 4676 2677 109 41 632 602 630 30 2218 680 259 706 220 90 35 563 18 15 590 1853 9 39 3 1375 8 5046 6 8 94 8 37 20 55 19 27 21
internal_value=0 0.0245793 0.023349 0.0239722 0.0265925 0.0229214 0.00629754 -0.0200956 0.0193365 0.0542984 0.0666563 0.0417594 0.0513632 -0.111087 -0.00439032 0.0582472 0.115242 0.0425178 0.0243097 -0.0247313 0.128895 -0.11051 -0.0527691 -0.0911562 0.0210462 -0.132318 -0.109889 -0.120481 0.116381 0.0642246 -0.135718 -0.0612742 0.116609 0.101228 0.0215826 -0.0957881 0.110539 0.0808772 0.117188 0.115666 0.116939 0.116922 0.116912
internal_weight=0 95792.9 91984.9 91558.6 79737.5 69445.4 11821.1 3908.88 7912.25 3807.95 3145.59 2079.83 10292.1 202.509 662.356 1877.32 1065.76 429.926 386.854 94.7114 971.052 426.291 116.866 232.43 33.2538 309.425 199.177 84.0344 7000.07 30.5097 306.694 8.22428 6969.56 146.423 24.443 11.5265 22.2854 9.50809 121.98 97.0982 6823.14 6795.29 6757.73
internal_count=268644 263236 255704 253129 214721 194329 38408 14546 23862 7532 4542 3521 20392 671 2990 2850 1021 995 965 251 770 2575 607 1995 124 1968 1871 572 5408 95 1965 47 5313 200 108 100 48 40 92 75 5113 5094 5067
is_linear=0
shrinkage=0.1


Tree=18
num_leaves=46
num_cat=0
split_feature=115 31 30 127 117 75 36 133 74 75 53 136 76 124 131 77 69 21 103 103 72 133 97 75 131 75 124 111 22 52 2 55 127 73 128 28 97 116 2 106 26 44 32 51 32
split_gain=5151.93 329.76 499.891 641.919 645.839 605.449 488.87 804.418 466.137 397.672 223.865 296.65 281.029 271.597 260.736 262.354 256.949 172.232 162.044 149.619 192.282 145.934 100.07 92.858 82.8205 183.347 93.7146 51.0922 68.4853 8.17062 15.3927 5.79816 3.32478 16.7403 26.4382 4.29923 1.17234 1.86372 0.129951 0.1019 0.0447898 0.0356952 0.0262068 0.00877793 0.00428959
threshold=-0.82198974490165699 1.0038905739784243 1.0968313217163088 -1.8923783302307127 -1.0289727449417112 -1.0546449422836301 0.79660999774932872 1.0000000180025095e-35 -1.0355232357978819 -1.0852948427200315 1.0598841309547427 1.0000000180025095e-35 -1.12635201215744 -1.3159670829772947 1.0000000180025095e-35 -1.3090916275978086 -0.17478127032518384 1.2660569548606875 -0.9513743221759795 -0.91623497009277333 -0.7858879268169402 1.0000000180025095e-35 -1.0027341246604917 -1.1334272623062132 1.0000000180025095e-35 -1.1619469523429868 -1.1277471780776975 -0.90759658813476551 1.5498793721199038 0.84149426221847545 0.51635414361953746 1.0947863459587099 1.0000000180025095e-35 -0.95364519953727711 1.0000000180025095e-35 1.1134817004203799 -0.97298389673233021 -0.523889660835266 0.017857531085610393 -0.87021794915199269 1.2810461521148684 0.7149416208267213 0.95989671349525463 0.82009395956993114 0.82216772437095653
decision_type=2 2 2 2 2 2 2 2 2 2 2 2 2 2 2 2 2 2 2 2 2 2 2 2 2 2 2 2 2 2 2 2 2 2 2 2 2 2 2 2 2 2 2 2 2
left_child=1 2 3 6 5 -5 21 -8 17 -6 14 13 -13 -12 15 -10 -16 22 27 23 -21 -1 -3 -20 25 -19 -26 28 -4 32 31 38 33 39 35 -35 37 -32 -31 -2 -41 43 -24 44 -34
right_child=29 8 18 4 9 -7 7 -9 10 -11 11 12 -14 -15 16 -17 -18 24 19 20 -22 -23 42 -25 26 -27 -28 -29 -30 30 36 -33 41 34 -36 -37 -38 -39 -40 40 -42 -43 -44 -45 -46
leaf_value=-0.0058623279789359745 0.10909145653222817 0.24396674539331609 -0.17073375411005753 -0.094642408044866982 0.0015826644040109229 -0.0086655032126318737 0.031436480971223167 -0.0070171075944231338 -0.06228476641271196 0.025592867997088965 0.032625246039842369 -0.12072770498332036 0.0051131091278156585 -0.13237496055412842 -0.015332193073251885 0.047176810263298757 0.043344173049259895 -0.12020169008657702 -0.1400432483430667 -0.10379237770332295 0.045536298542397921 0.13289136942782012 -0.12859310562620499 0.07864662191794855 -0.10889040847692821 0.074232365649750193 -0.0079712222068891465 0.17229070601121382 -0.0091168934691261954 -0.14896777468808289 0.044117346594160521 0.043517275020192196 0.11503490118738445 -0.12389284796086308 0.1233883511156873 0.03475617917843607 0.13290202848426835 0.12363885543119429 -0.11516504553455911 0.11999831931907848 0.11511195228464483 0.11798072061557269 -0.13943022613544995 0.11685407371651524 0.11587069100556045
leaf_weight=88.155055031180382 22.84916415810585 30.208035163581371 29.893871560692787 1010.4225331246853 14439.389347393066 4324.6756250411272 30311.933445110917 6630.0072914585471 222.30857049673796 13208.066882520914 3003.0456532686949 286.71547156572342 465.72428222000599 103.18760009109974 1538.304171435535 14535.929193638265 1449.5807241648436 81.982873357832432 19.586915902793407 101.60700010508299 569.72643253207207 540.8216445595026 3.9552756547927839 2226.2624248340726 344.28739079833031 118.74317856878042 125.57737805694342 13.301807105541227 213.31334349513054 2.1177709102630642 5.6996315196156528 3.2728052735328674 6138.1534925699234 8.6542170904576761 11.950869917869568 2.1281467303633699 9.1684907674789393 6.1029987335205087 2.4565441012382507 26.767247200012207 62.699936985969543 41.868888258934021 5.1199605315923691 26.885931372642517 62.028094887733459
leaf_count=351 21 35 131 4315 52427 13284 77839 23790 805 35336 6457 1044 995 560 4802 28446 3116 461 102 335 1010 963 24 3195 1813 357 653 29 535 12 38 7 5011 94 8 6 6 4 28 20 51 32 26 21 49
internal_value=0 0.0220566 0.0188329 0.0170865 0.0069061 -0.0249488 0.0260236 0.0245352 0.0327075 0.0130531 0.0353273 0.0134975 -0.0428382 0.027144 0.040074 0.045528 0.0131348 -0.047027 0.0576569 0.0643574 0.0229353 0.113444 0.156485 0.0767393 -0.0589488 -0.00518066 -0.0819185 -0.0185447 -0.0289821 0.114497 0.0613697 -0.0581059 0.114736 0.0992121 0.0209547 -0.0925798 0.106076 0.085237 -0.130815 0.115052 0.116574 0.115071 -0.134707 0.115051 0.115043
internal_weight=0 96041.8 73727.2 70553.5 32982.6 5335.1 37570.9 36941.9 22314.7 27647.5 21604.8 3858.67 752.44 3106.23 17746.1 14758.2 2987.88 709.874 3173.69 2917.18 671.333 628.977 39.2833 2245.85 670.591 200.726 469.865 256.509 243.207 6432.8 28.8182 7.84712 6403.99 135.05 22.7332 10.7824 20.9711 11.8026 4.57432 112.316 89.4672 6268.94 9.07524 6227.07 6200.18
internal_count=268644 263236 213642 208305 105362 17599 102943 101629 49594 87763 46225 9056 2039 7017 37169 29251 7918 3369 5337 4642 1345 1314 85 3297 3284 818 2466 695 666 5408 95 47 5313 200 108 100 48 42 40 92 71 5113 50 5081 5060
is_linear=0
shrinkage=0.1


Tree=19
num_leaves=44
num_cat=0
split_feature=115 77 132 40 107 115 47 57 36 105 72 75 70 49 131 116 116 77 31 115 110 33 2 49 51 47 53 2 46 32 52 127 73 128 75 16 34 32 33 74 97 47 67
split_gain=4812.78 302.884 857.83 547.643 455.022 564.598 542.55 376.425 604.125 516.685 486.294 375.492 367.546 352.68 336.698 286.344 284.58 426.303 476.845 206.721 149.395 117.362 91.7272 42.2999 14.4365 13.727 8.08661 13.3172 5.81597 4.96322 3.24266 3.13397 16.431 24.6086 1.57023 2.62001 0.338613 0.0974159 0.0331069 0.0323988 0.029232 0.0181352 0.000977861
threshold=-0.82198974490165699 -0.5261704921722411 1.0000000180025095e-35 1.0714439153671267 -0.98256766796112049 -1.4480444788932798 1.2100704908370974 0.93289256095886242 0.93114954233169567 -0.82998949289321888 -0.59439608454704274 -0.40582536160945887 -0.2704466432332992 1.1846050620079043 1.0000000180025095e-35 -1.4815154671669004 -1.4682610034942625 -0.5624161660671233 0.88750976324081432 -1.4058793187141416 -1.1971645355224607 0.89493218064308178 0.036489291116595275 1.2039374709129336 1.1091843247413637 1.207446336746216 0.80485469102859508 0.51635414361953746 0.86514022946357738 0.88791152834892284 1.1471686959266665 1.0000000180025095e-35 -0.93972888588905323 1.0000000180025095e-35 -1.1901457905769346 1.5463197827339175 0.66273975372314464 0.82595813274383556 0.77594193816185009 -0.85994505882263172 -1.140532851219177 0.76846677064895641 0.19313406199216845
decision_type=2 2 2 2 2 2 2 2 2 2 2 2 2 2 2 2 2 2 2 2 2 2 2 2 2 2 2 2 2 2 2 2 2 2 2 2 2 2 2 2 2 2 2
left_child=1 2 7 4 6 11 15 8 9 -1 21 -6 -10 -7 -12 -3 24 19 -19 -18 -8 -9 25 -24 -4 -5 31 28 -28 -26 -27 32 36 37 35 -29 40 -34 41 -30 -2 42 -33
right_child=26 3 16 22 5 13 20 10 12 -11 14 -13 -14 -15 -16 -17 17 18 -20 -21 -22 -23 23 -25 29 30 27 34 39 -31 -32 38 33 -35 -36 -37 -38 -39 -40 -41 -42 -43 -44
leaf_value=0.022191093068302265 0.11349613065756432 0.083888841750010573 0.012398089758031292 0.033239242203519488 -0.10954505314456633 -0.14005431481802297 -0.12226068124881982 0.019989236524244919 -0.0093527094254703975 -0.008022557250694607 0.0092405132423509419 0.041114634574168162 0.050431887877742769 0.056380295973670995 0.11290840648908716 0.17776496449497789 -0.10997644839466043 -0.0762747110862039 0.18732133108559512 -0.024797616967880701 0.046533561136681383 -0.053866215383072381 -0.062294005396164753 0.20092679185677081 -0.13091198185990216 -0.080222927058649682 0.060984365010297997 0.01269712050171766 -0.11274073343212683 -0.085943284364503728 -0.11651544018333526 0.11340426335790335 -0.13154356866383712 0.12245032913811159 0.12642720475060351 0.12281522557969921 0.10113772166893252 -0.10945224778494145 0.11732169491979688 -0.12938535587235245 0.11768315594460155 0.11615718968708702 0.11407790612651179
leaf_weight=57392.266827858984 60.978843331336975 1226.5718409121037 7.629704311490058 6.619455322623252 432.94840111583471 94.871200501918793 137.01331017538905 249.58876156061888 1144.8271314874291 6279.306310787797 10442.086891599 267.72181543707848 10105.585220675915 2497.8150079213083 322.98398827016354 442.01026694476604 325.172727227211 108.01288750767708 188.20968997478485 2301.59946192801 84.942121043801308 1559.8252169825137 10.476129814982416 14.63273926079273 274.29364122450352 27.585982721298933 2.7362495660781887 4.1818937137723005 2.0872151870280504 26.955875173211098 228.88483504578471 5682.5652015209198 4.2643283903598785 8.5828899145126343 11.093537211418148 4.4703543186187744 23.846928291022778 3.752790242433548 21.812278270721436 2.6595882475376129 22.949783563613892 24.075097680091858 21.630572021007538
leaf_count=151732 54 1636 37 36 2083 379 856 839 3112 20834 30108 496 18954 4218 538 323 1958 503 347 13400 200 6258 39 15 1603 259 4 37 27 159 2314 5057 27 6 8 3 27 67 17 16 19 20 19
internal_value=0 0.0198081 0.0184301 0.0426559 0.0501151 0.0276679 0.0892185 0.0202989 0.022986 0.0192114 0.00428845 -0.0519789 0.0443483 0.0491924 0.0123509 0.108757 -0.0321637 -0.0225175 0.0912052 -0.0353421 -0.0576633 -0.0436787 -0.0915135 0.0911036 -0.123448 -0.108942 0.112841 0.0584708 -0.0551322 -0.126888 -0.112612 0.113093 0.0973887 0.00477599 0.101523 0.0695918 0.111653 -0.121203 0.113433 -0.122067 0.114641 0.113418 0.113407
internal_weight=0 96200.4 90728.3 5472.09 5183.89 3293.36 1890.54 87496.5 74922 63671.6 12574.5 700.67 11250.4 2592.69 10765.1 1668.58 3231.87 2922.99 296.223 2626.77 221.955 1809.41 288.199 25.1089 308.879 263.09 5901.69 27.2288 7.48305 301.25 256.471 5874.46 124.376 16.6 19.7458 8.65225 107.776 8.01712 5750.08 4.7468 83.9286 5728.27 5704.2
internal_count=268644 263236 250382 12854 10191 7176 3015 232375 194632 172566 37743 2579 22066 4597 30646 1959 18007 16208 850 15358 1056 7097 2663 54 1799 2609 5408 95 47 1762 2573 5313 200 100 48 40 100 94 5113 43 73 5096 5076
is_linear=0
shrinkage=0.1


Tree=20
num_leaves=47
num_cat=0
split_feature=115 130 75 116 95 56 69 103 75 31 115 106 114 106 127 112 74 89 52 76 127 73 46 9 111 105 34 128 112 103 91 114 52 45 130 127 73 128 34 32 20 33 97 47 42 53
split_gain=4482.54 323.564 450.715 966.148 524.968 348.331 780.892 555.023 325.41 454.36 363.486 252.791 233.139 228.148 222.71 181.795 180.017 163.558 145.473 169.203 136.553 118.159 142.216 97.4054 90.4715 149.416 87.8643 69.1156 61.8312 55.7098 49.0235 41.5582 7.86276 12.0502 9.37385 2.98598 14.6221 21.812 0.394424 0.068749 0.0432111 0.0239157 0.0224866 0.0137143 0.00417843 0.000909034
threshold=-0.82198974490165699 1.0000000180025095e-35 -1.0873188376426695 -0.97239574790000904 -1.0312413573265073 0.98560822010040294 -0.003596987458877265 -0.81211379170417775 -1.1110861897468565 0.97410824894905101 -0.93142005801200856 -0.84326788783073414 -0.92495009303092945 -0.89528864622116078 -2.1337890624999996 -0.95494520664215077 -1.0033721923828123 -1.1339118480682371 1.0675256848335268 -1.1921957135200498 -1.6301750540733335 -0.64198783040046681 1.1058246493339541 0.72259780764579784 -0.95456957817077626 -0.88673934340476979 0.89511424303054821 1.0000000180025095e-35 -1.1269081830978391 -0.81318706274032582 -1.12615430355072 -0.91808375716209401 0.84149426221847545 0.86088910698890697 1.0000000180025095e-35 1.0000000180025095e-35 -0.93972888588905323 1.0000000180025095e-35 0.66273975372314464 0.82595813274383556 1.1532928347587588 0.77594193816185009 -1.140532851219177 0.76846677064895641 0.98580926656723034 0.7579881250858308
decision_type=2 2 2 2 2 2 2 2 2 2 2 2 2 2 2 2 2 2 2 2 2 2 2 2 2 2 2 2 2 2 2 2 2 2 2 2 2 2 2 2 2 2 2 2 2 2
left_child=1 2 3 18 15 7 -7 -6 10 -10 -5 13 14 24 26 27 20 -16 29 -20 -14 22 -15 -18 25 -3 -13 -4 -23 -1 -26 -17 35 -34 40 36 38 39 42 -38 -35 43 -2 45 -42 -37
right_child=32 11 4 8 5 6 -8 -9 9 -11 -12 12 16 21 17 31 23 -19 19 -21 -22 28 -24 -25 30 -27 -28 -29 -30 -31 -32 -33 33 34 -36 41 37 -39 -40 -41 44 -43 -44 -45 -46 -47
leaf_value=-0.10142751150661677 0.11204821440533029 -0.081052234828061148 -0.068194028743480864 -0.047413003290800115 0.014821206175481364 -0.026827497209893015 0.02680024251076666 0.036818082987320117 -0.034067223435619118 0.031265801313142431 0.0051016174040016517 -0.05090678300496379 -0.13825447138359132 0.060772819906619591 0.0032037524577168183 0.1073801525728993 0.074129930121552098 -0.053236395939460959 -0.12486241758608144 -0.0034223407085616012 0.018314922254167029 0.0088463234054474271 0.031914019402256584 -0.16810096142498387 -0.020320448308855189 0.019931951005662769 0.11156940418907815 0.13196047869709543 0.21020856579339067 0.061276855082414684 0.094762903158208983 -0.039205021397673762 0.10578536692485319 -0.12591057155835442 0.099198308896698908 0.1119658929453598 -0.12787789478497427 0.12001376448053343 0.09797761247225252 -0.10853096953504338 -0.11360433749774544 0.11544104219420265 0.11588192899485786 0.11459975456503446 -0.10580070842568333 0.11238898534471564
leaf_weight=938.28586541861296 55.852309226989746 272.14690992981195 91.183736599981785 1671.0868635699153 37148.961909003556 5046.7046001628041 5877.5429964922369 16594.707900732756 1240.4259066581726 7504.2875757738948 6238.6108803898096 39.507273562252522 60.400087684392929 3877.3105736151338 1807.4751569330692 912.05496810376644 998.10983451455832 717.17128241807222 154.90969909727573 442.36409835517406 716.49265410006046 19.667961195111275 3051.581525631249 16.881371080875397 55.332322582602501 317.39966930449009 211.28948013484478 21.278114452958107 67.87746424973011 21.527040652930737 111.81515572965145 19.759935304522514 16.770980879664425 2.4613439813256246 3.158965989947319 5175.1609462499619 3.9633865579962713 7.9156569838523865 22.23817653208971 3.4230169393122196 1.0020772442221644 20.04154247045517 21.072016716003418 19.907203733921051 2.1763819847255945 51.285220563411713
leaf_count=4586 54 955 306 7675 99045 19052 16185 36512 4996 17961 23042 131 324 8137 5213 1047 2274 2298 813 1524 2789 57 6615 72 175 720 330 35 48 78 188 53 16 16 7 5029 27 6 27 67 10 17 19 18 46 49
internal_value=0 0.0178054 0.0155822 0.0016616 0.0194402 0.0183044 0.00202569 0.0216133 0.00870433 0.0219984 -0.00599318 0.0329245 0.0142528 0.0438955 -0.00390088 0.0897766 0.042371 -0.0128291 -0.0736666 -0.0349192 0.00614232 0.0495217 0.048063 0.0701011 -0.00827305 -0.0266844 0.085975 -0.0303242 0.164971 -0.0977783 0.0566658 0.104272 0.111383 0.0560614 -0.0387154 0.111646 0.0956673 0.0046827 0.109707 -0.118912 -0.115964 0.111993 0.113098 0.11198 -0.108261 0.11197
internal_weight=0 96264.2 83923.7 18211.5 65712.2 64667.9 10924.2 53743.7 16654.4 8744.71 7909.7 12340.5 4567.33 7773.13 2775.44 1044.28 1791.88 2524.65 1557.09 597.274 776.893 7016.44 6928.89 1014.99 756.694 589.547 250.797 112.462 87.5454 959.813 167.147 931.815 5406.43 25.5698 8.79877 5380.86 114.465 15.3021 99.1625 7.3864 5.6398 5266.39 76.9243 5246.35 3.17846 5226.45
internal_count=268644 263236 232910 60675 172235 170794 35237 135557 53674 22957 30717 30326 13431 16895 7972 1441 5459 7511 7001 2337 3113 14857 14752 2346 2038 1675 461 341 105 4664 363 1100 5408 95 79 5313 200 100 100 94 72 5113 73 5096 56 5078
is_linear=0
shrinkage=0.1


Tree=21
num_leaves=47
num_cat=0
split_feature=115 106 73 0 72 112 30 29 31 107 1 6 53 32 130 34 120 30 83 131 112 128 60 117 31 6 36 130 35 51 2 90 119 127 73 128 105 1 34 20 111 32 47 33 97 73
split_gain=4165.08 280.585 297.359 372.325 644.792 431.51 276.793 267.784 249.764 220.695 191.952 159.866 145.467 116.615 139.492 96.5424 95.3849 91.5751 186.34 98.9762 84.2714 66.0187 78.1553 60.5851 56.8691 56.9694 40.2988 26.1169 52.7952 7.85297 9.82494 5.14857 3.77131 2.8564 13.0092 19.3751 1.84661 1.84987 0.458325 0.151699 0.140293 0.0487911 0.0258642 0.0175117 0.0172786 0.00594002
