tree
version=v4
num_class=1
num_tree_per_iteration=1
label_index=0
max_feature_idx=136
objective=binary sigmoid:1
feature_names=Column_0 Column_1 Column_2 Column_3 Column_4 Column_5 Column_6 Column_7 Column_8 Column_9 Column_10 Column_11 Column_12 Column_13 Column_14 Column_15 Column_16 Column_17 Column_18 Column_19 Column_20 Column_21 Column_22 Column_23 Column_24 Column_25 Column_26 Column_27 Column_28 Column_29 Column_30 Column_31 Column_32 Column_33 Column_34 Column_35 Column_36 Column_37 Column_38 Column_39 Column_40 Column_41 Column_42 Column_43 Column_44 Column_45 Column_46 Column_47 Column_48 Column_49 Column_50 Column_51 Column_52 Column_53 Column_54 Column_55 Column_56 Column_57 Column_58 Column_59 Column_60 Column_61 Column_62 Column_63 Column_64 Column_65 Column_66 Column_67 Column_68 Column_69 Column_70 Column_71 Column_72 Column_73 Column_74 Column_75 Column_76 Column_77 Column_78 Column_79 Column_80 Column_81 Column_82 Column_83 Column_84 Column_85 Column_86 Column_87 Column_88 Column_89 Column_90 Column_91 Column_92 Column_93 Column_94 Column_95 Column_96 Column_97 Column_98 Column_99 Column_100 Column_101 Column_102 Column_103 Column_104 Column_105 Column_106 Column_107 Column_108 Column_109 Column_110 Column_111 Column_112 Column_113 Column_114 Column_115 Column_116 Column_117 Column_118 Column_119 Column_120 Column_121 Column_122 Column_123 Column_124 Column_125 Column_126 Column_127 Column_128 Column_129 Column_130 Column_131 Column_132 Column_133 Column_134 Column_135 Column_136
feature_infos=[-1.8014661073684692:2.1475074291229248] [-1.7160434722900391:2.0597634315490723] [-1.6382262706756592:1.9801409244537354] [-1.5680137872695923:1.9086390733718872] [-1.5054070949554443:1.8452587127685547] [-1.4504051208496094:1.7899996042251587] [-1.4123568534851074:1.7937201261520386] [-1.3844102621078491:1.9274762868881226] [-1.3517893552780151:1.9831451177597046] [-1.3099035024642944:2.0064544677734375] [-1.2559221982955933:2.0165181159973145] [-1.1870334148406982:2.073509693145752] [-1.1039742231369019:2.1457490921020508] [-1.0067610740661621:2.2142360210418701] [-0.90047705173492432:2.2825961112976074] [-0.78966546058654785:2.3805651664733887] [-0.67814630270004272:2.4481546878814697] [-0.65620064735412598:2.4998569488525391] [-0.66012513637542725:2.5653238296508789] [-0.66667592525482178:2.5221147537231445] [-0.66619455814361572:2.4413206577301025] [-0.67410272359848022:2.3840618133544922] [-0.67701548337936401:2.2409591674804688] [-0.7797551155090332:2.1797337532043457] [-1.0841877460479736:2.1696581840515137] [-1.4308524131774902:2.0883691310882568] [-1.6366665363311768:1.9448176622390747] [-1.8254417181015015:1.7018531560897827] [-1.9454965591430664:1.5409636497497559] [-2.2033448219299316:1.3462176322937012] [-2.6534385681152344:1.1459542512893677] [-2.9375624656677246:1.0691677331924438] [-2.8855924606323242:1.0182701349258423] [-2.1581358909606934:1.0153312683105469] [-1.5155016183853149:1.0222163200378418] [-0.8696785569190979:1.0987448692321777] [-0.66342759132385254:1.3781088590621948] [-0.67050886154174805:1.4172744750976562] [-0.67336314916610718:1.4165236949920654] [-0.67729061841964722:1.3777114152908325] [-0.67391806840896606:1.3165556192398071] [-0.67623704671859741:1.2273765802383423] [-0.67480045557022095:1.2687077522277832] [-0.67821109294891357:1.5027958154678345] [-0.67481738328933716:1.6759111881256104] [-0.67939788103103638:1.7528411149978638] [-0.67687302827835083:1.7343066930770874] [-0.68056988716125488:1.8940913677215576] [-0.67851173877716064:2.0411467552185059] [-0.68057990074157715:2.1347439289093018] [-0.67672491073608398:2.1180493831634521] [-0.68208664655685425:2.1010029315948486] [-0.68785721063613892:2.3278176784515381] [-0.69603323936462402:2.41339111328125] [-0.68564701080322266:2.0181429386138916] [-0.66322332620620728:1.663224458694458] [-0.63047897815704346:1.3939603567123413] [-0.61600887775421143:1.3641012907028198] [-0.88048118352890015:1.3483799695968628] [-0.69688475131988525:1.3266682624816895] [-0.62303602695465088:1.3006186485290527] [-0.62908732891082764:1.6912268400192261] [-0.65896600484848022:1.8743280172348022] [-0.67422842979431152:1.7138135433197021] [-0.93073725700378418:1.3433690071105957] [-1.1747497320175171:1.0728911161422729] [-1.3727543354034424:0.99044626951217651] [-1.6713657379150391:0.88485002517700195] [-1.7223098278045654:0.75389385223388672] [-1.8947262763977051:0.60495084524154663] [-1.6767393350601196:0.45876148343086243] [-1.7446892261505127:0.33052113652229309] [-1.674402117729187:0.23037496209144592] [-1.5674382448196411:0.15855956077575684] [-1.4517455101013184:0.2961885929107666] [-1.6804615259170532:0.9557119607925415] [-1.8599822521209717:1.3625956773757935] [-1.985605001449585:1.0853415727615356] [-2.0616223812103271:0.99276179075241089] [-2.1171634197235107:0.52897804975509644] [-2.168381929397583:0.2406151294708252] [-2.1978850364685059:0.28676301240921021] [-2.2107267379760742:0.33890664577484131] [-2.208972692489624:0.39074629545211792] [-2.1915850639343262:0.43792322278022766] [-2.1574652194976807:0.47703936696052551] [-2.1063995361328125:0.50853937864303589] [-2.0390708446502686:0.53271615505218506] [-1.9571486711502075:0.59374678134918213] [-1.8642418384552002:0.56802195310592651] [-1.7650643587112427:0.64887344837188721] [-1.7074116468429565:1.0685811042785645] [-1.6520191431045532:1.4172115325927734] [-1.5958865880966187:1.6290324926376343] [-1.5394163131713867:1.6649528741836548] [-1.4922878742218018:1.6171708106994629] [-1.4547033309936523:1.5604556798934937] [-1.4384253025054932:1.5581008195877075] [-1.4264529943466187:1.5630311965942383] [-1.522296667098999:1.5628886222839355] [-2.0638625621795654:1.5685317516326904] [-2.4396805763244629:1.5680602788925171] [-2.5584738254547119:1.5700795650482178] [-2.4521515369415283:1.5662518739700317] [-2.0341367721557617:1.5664080381393433] [-1.4475361108779907:1.5610309839248657] [-1.2213733196258545:1.5632989406585693] [-1.1215335130691528:1.560712456703186] [-1.168958306312561:1.5697338581085205] [-1.225764274597168:1.5736351013183594] [-1.369315505027771:1.5825309753417969] [-1.6010570526123047:1.5861003398895264] [-2.1400496959686279:1.5904537439346313] [-2.4733853340148926:1.5886306762695312] [-2.4821960926055908:1.5883719921112061] [-1.8389110565185547:1.5865405797958374] [-1.6131480932235718:1.5868538618087769] [-1.6321159601211548:1.611059308052063] [-1.6864286661148071:1.9321181774139404] [-1.7459897994995117:2.1939568519592285] [-1.820858359336853:2.1617026329040527] [-1.9280952215194702:1.6493175029754639] [-2.15055251121521:1.6308574676513672] [-2.3786196708679199:1.6220458745956421] [-2.6580204963684082:1.8138364553451538] [-2.9761693477630615:2.1341862678527832] [-3.3559722900390625:2.4851961135864258] [-3.8750591278076172:3.2750210762023926] [0:1] [0:1] [0:1] [0:1] [0:1] [0:1] [0:1] [0:1] [0:1]
tree_sizes=4472 5630 5819 6275 5755 4611 4642 4645 4421 4449 4634 4189 4642 4688 4942 4910 4871 5297 4956 5281 5273 5333 5176 5027 5241 5519 4851 5316 5177 4843 5178 5081 5086 4930 4939 5196 4964 4854 4774 4866 5230 5049 4943 5096 5200 4430 5194 4767 5100 4902 5221 5061 5240 5243 5121 4733 5127 4812 4915 3999 5430 5474 4755 4600 5322 5419 6948 4983 6703 6866 6491 5905 6081 6335 6734 6528 6492 5596 6904 5015 6571 4901 6684 6496 6963 5425 6960 6851 6670 6226 6912 6292 6592 6234 6102 6484 5849 6898 6543 6823 6895 6924 5443 5817 6692 6361 6800 6677 6440 6683 6918 5676 6086 6165 6939 6829 6915 6805 6820 6856 5703 6671 6056 6223 6434 5885 6649 6914 6931 6761 6963 5328 6001 6480 6509 6022 6929 6318 6795 6903 6819 6257 5348 5970 6780 6976 6070 6606 6731 6917 6084 6882 6886 5043 5944 6194 6245 6566 6860 6762 6860 6799 7005 5667 6606 6732 6542 6781 6681 6198 6552 6458 6116 5685 6302 6643 6472 6281 5252 6756 6717 6693 5746 6379 6563 5864 6386 6904 6699 6566 6922 6709 6463 5699 6408 6911 5703 6072 6316 6913

Tree=0
num_leaves=41
num_cat=0
split_feature=125 75 31 123 30 33 74 55 134 113 56 40 31 74 30 54 79 114 95 115 134 36 136 52 75 30 31 89 53 113 94 74 94 131 2 63 24 22 22 0
split_gain=198173 15325.3 16159.7 14220.5 17057.6 7810.26 6344.95 6005.32 5547.83 5273.13 4960.48 4684.85 3012.66 3947.32 2811.13 2512.69 2064.22 1953.22 1755.08 1636.05 1630.26 1461.71 927.554 827.402 734.097 640.373 593.94 507.389 456.665 466.704 412.176 424.488 106.273 96.5033 55.7077 0.526452 0.0591938 1.16415e-10 9.09495e-13 8.88178e-16
threshold=-0.29286044836044306 -1.1015055775642393 0.99478301405906688 -2.1965293884277339 1.0838482379913332 0.91376855969429027 -0.91723129153251637 1.0211546421051028 1.0000000180025095e-35 -1.0897223949432371 0.96825319528579723 1.0629336237907412 1.0048291683197024 -1.0336388349533079 1.0939146280288699 1.0258153676986697 -0.40317974984645838 -0.95507770776748646 -0.33756785094738001 -0.94996231794357289 1.0000000180025095e-35 0.61098945140838634 1.0000000180025095e-35 1.0918688774108889 -1.1296511292457578 1.0768870711326601 1.0116165876388552 -1.1576228737831114 0.81998077034950267 -1.043998062610626 -1.1032201647758482 -1.0524094104766843 -1.1174709200859068 1.0000000180025095e-35 0.47705788910388952 0.41357885301113134 1.4874095916748049 1.5585650801658633 1.6397264599800112 0.22229313850402835
decision_type=2 2 2 2 2 2 2 2 2 2 2 2 2 2 2 2 2 2 2 2 2 2 2 2 2 2 2 2 2 2 2 2 2 2 2 2 2 2 2 2
left_child=1 12 3 11 5 -5 8 9 10 -8 -4 16 14 30 20 -10 -3 -6 -13 26 21 -1 -9 -21 32 -22 -15 -26 35 34 31 -14 -16 -32 39 36 37 -2 -39 -30
right_child=28 2 6 4 17 -7 7 22 15 -11 -12 18 13 19 24 -17 -18 -19 -20 23 25 -23 -24 -25 27 -27 -28 -29 29 -31 33 -33 -34 -35 -36 -37 -38 38 -40 -41
leaf_value=-1.2220310244878216 -1.1996810418575912 -1.9775787553542368 -1.8021825620364422 -2.0996506153887262 -1.8257939095891871 -1.9113663884001122 -1.9137452254532823 -1.9473966588432268 -1.9960399635502362 -1.6554386069823139 -2.0705254734518439 -1.5844200929675178 -2.3500047067311467 -2.3067270665000192 -1.9416717933862151 -2.3912431516347059 -1.5112244834894066 -1.6204929991266903 -2.2708915406817463 -1.8161645663310022 -2.4308693532874819 -2.1280761355227318 -2.2384260473273039 -2.4871158711613144 -1.6693150324996746 -2.0143519928314273 -1.8846814625931807 -2.117770071550833 -2.4871158711613144 -1.2714343626401547 -2.259496295597248 -2.0389320639794746 -2.4284938934460909 -2.4871158711613144 -1.8191881605838467 -1.2173468225763582 -1.2056240003841203 -1.1996810418575912 -1.1996810418575912 -2.4871158711613144
leaf_weight=17.89710459113121 4167.9789971709251 105.79796519130468 5668.3671112060547 8047.2715877518058 903.19173469394445 3033.6438497155905 968.40028624981642 693.17793836444616 1519.2897281572223 4297.459956780076 784.18134803324938 50.163867749273777 86.497389607131481 107.58359672874212 5.9299927055835751 179.93186068534851 922.50371821224689 951.73145581036806 144.60275656729937 1012.3546517267823 249.19013550877571 3492.3706874474883 130.06078626960516 18.71939305216074 185.88943020254374 43.330375172197819 48.321135394275188 29.191067069768906 3.8060176745057133 9.7556454762816411 23.683371655642986 89.007929317653179 18.391733661293983 87.227711193263531 1.6141863614320753 16.981982700526714 16.826635040342808 36.84771466255188 20.098753452301025 1.7088242620229719
leaf_count=25 4977 873 37753 75315 6209 23210 7430 5530 12791 22901 7132 235 1006 1209 47 2160 3709 4770 1578 6871 3081 33586 1381 241 1014 372 358 278 49 18 256 784 227 1123 11 23 21 44 24 22
internal_value=-2.37784 -1.92428 -1.89465 -1.97031 -2.00112 -2.0481 -1.81944 -1.74221 -1.87713 -1.70294 -1.83479 -1.64438 -2.07681 -1.9544 -2.12143 -2.03789 -1.55921 -1.72046 -2.09408 -1.874 -2.14236 -2.12346 -1.99338 -1.82835 -1.78907 -2.36917 -2.17592 -1.73018 -1.20183 -1.72086 -2.28761 -2.19224 -2.3098 -2.43851 -2.33588 -1.19977 -1.1997 -1.19968 -1.19968 -2.48712
internal_weight=0 33915.4 28399.8 14158.9 12935.8 11080.9 14240.9 6089.1 8151.77 5265.86 6452.55 1223.07 5515.59 1473.4 4042.19 1699.22 1028.3 1854.92 194.767 1186.98 3802.79 3510.27 823.239 1031.07 239.402 292.521 155.905 215.08 4275.62 16.8847 286.416 175.505 24.3217 110.911 7.12903 4258.73 4241.75 4224.93 56.9465 5.51484
internal_count=268644 263455 212977 115899 109504 98525 97078 37242 59836 30331 44885 6395 50478 11848 38630 14951 4582 10979 1813 8679 37064 33611 6911 7112 1566 3453 1567 1292 5189 100 3169 1790 274 1379 82 5089 5066 5045 68 71
is_linear=0
shrinkage=1


Tree=1
num_leaves=52
num_cat=0
split_feature=45 74 31 30 105 75 132 75 116 30 132 0 76 127 75 95 127 83 75 129 110 96 113 24 36 100 73 103 34 81 23 109 33 1 32 9 110 2 117 53 58 68 110 94 78 119 31 31 30 76 0
split_gain=20761.8 4787.05 4867.95 4021.67 5075.27 5649.61 3027.82 1473.1 3780.27 1361.98 1290.69 1148.73 911.277 893.409 827.596 920.102 687.958 592.008 758.895 544.38 523.413 462.344 442.433 428.382 341.43 331.068 283.902 257.047 304.002 198.254 167.296 265.903 162.092 159.263 117.922 117.071 116.382 102.265 83.1349 60.9199 321.506 226.001 59.7983 78.7135 58.1518 17.5085 39.2933 0.0091746 0.00581592 0.000489347 7.10543e-15
threshold=0.79689618945121776 -1.0273397564887998 0.99995616078376781 1.0900877714157107 -0.8642168641090392 -1.027565538883209 1.0000000180025095e-35 -1.0506736636161802 -1.0127378702163694 1.0630890727043154 1.0000000180025095e-35 0.31390507519245153 -1.147000730037689 -1.9909871220588682 -1.1807013750076292 -1.056480824947357 -2.041713953018188 -1.3585571646690366 -1.1281105875968931 1.0000000180025095e-35 -0.8554067313671111 -1.0133849978446958 -0.96087324619293202 1.7282776832580569 0.92098623514175426 -0.96859630942344654 -0.93276739120483387 -0.9212607443332671 0.6618311107158662 -1.158913195133209 1.7208710908889773 -0.90340334177017201 0.84645977616310131 0.50344562530517589 0.80619657039642345 0.96155217289924633 -0.88437625765800465 0.74613630771636974 -0.93113055825233448 1.0309019088745119 0.83252400159835827 -0.061247168108820908 -0.96169278025627125 -0.98279571533203114 -1.3797085285186765 -0.91708356142044056 1.0027284026145937 1.0048291683197024 1.0838482379913332 -0.83389469981193531 0.76936718821525585
decision_type=2 2 2 2 2 2 2 2 2 2 2 2 2 2 2 2 2 2 2 2 2 2 2 2 2 2 2 2 2 2 2 2 2 2 2 2 2 2 2 2 2 2 2 2 2 2 2 2 2 2 2
left_child=10 14 3 4 6 -6 -3 8 12 -10 22 16 -4 -13 39 17 -9 20 -19 21 -16 -5 27 30 25 -17 37 28 36 -28 38 -32 -21 -26 48 -30 -1 -25 -24 45 41 -41 -29 -44 -42 46 -2 -47 49 50 -12
right_child=1 2 7 19 5 -7 -8 11 9 -11 34 13 -14 -15 15 24 -18 18 -20 32 -22 -23 23 26 33 -27 29 42 35 -31 31 -33 -34 -35 -36 -37 -38 -39 -40 40 44 -43 43 -45 -46 47 -48 -49 -50 -51 -52
leaf_value=-0.046504289939388266 -0.11190661557267552 0.20921571373876968 -0.019959547623172799 0.45344689896205725 0.20575318348066518 0.32597588279258671 0.054431837427365654 0.28579344286403913 0.2740231366735803 0.35229149939169552 -0.11224992367123576 0.42895258780491563 0.18056102148257236 0.34533500775252779 0.47547634140134598 0.21001528159679014 0.056148389444658699 0.099200351538793627 0.3415725650475161 -0.082817707292568793 0.1961843935941564 0.35644700898266168 0.52642732631774292 -0.11506354382855713 0.19517539458135003 0.029465978532258977 0.25189459715486134 0.74416962595136416 0.57057183359642394 0.63369038046549697 0.44249938709179432 0.18462211853222718 0.41877795564084663 0.85094045379241146 0.47670285263972856 0.060931873439560393 0.42012880616087173 0.44527763020647254 0.43008791618452191 -0.11187350649136577 -0.098839812580443623 0.66289503204849787 0.55838695669908645 -0.11282629847965205 0.20547739578354487 -0.11190416913251899 0.42348436890563645 -0.10977184592532221 -0.11674555938237069 -0.11387876025964645 -0.11224992367123576
leaf_weight=47.783654727041721 4.2784777656197539 8035.6314078718424 352.57027561217546 744.31366887688637 6609.5508164092898 9566.1143164336681 1499.6586963385344 563.53560399264097 4227.7739678546786 4689.2862473800778 28.680270314216614 1640.8992489278316 634.51288168132305 5774.1065687686205 135.64040195941925 119.82302616536617 169.74487514793873 500.70114853978157 174.10791851580143 32.097033053636551 132.79311312735081 1446.0431890636683 90.378384597599506 7.5434453561902028 7.0255772024393064 666.36159929633141 14.712758041918276 8.8028340265154856 17.277027219533924 179.93213960528374 90.495839096605778 71.637440040707588 8.0603712946176511 7.8323947340250015 3.6540342047810546 6.0983696952462187 6.0179915055632582 5.7319311052560806 10047.488996505737 5.6890447512269047 82.554617680609226 11.13248425722122 6.4218737035989761 2.4001202210783941 6.796224243938922 94.486055001616478 2.0170703381299973 25.657461307942867 3.1802750676870337 1.9273395389318455 14.194303274154661
leaf_count=416 45 54104 2882 1811 43629 44546 13076 2774 22710 20827 295 4857 3937 21775 653 810 1256 4492 749 256 998 5516 200 69 56 5961 89 18 39 405 280 422 28 11 16 42 25 14 5980 60 859 39 24 24 53 994 13 318 26 19 146
internal_value=0 0.273514 0.280064 0.253914 0.24274 0.276852 0.184872 0.320538 0.294628 0.315183 0.427835 0.352032 0.108938 0.363839 0.121143 0.144771 0.232634 0.211702 0.161735 0.38272 0.337312 0.389409 0.430263 0.432204 0.0659588 0.0569836 0.574315 0.215201 0.136512 0.604831 0.429335 0.328558 0.0178623 0.540863 -0.0709104 0.437613 0.00569103 0.126876 0.430947 -0.0560353 -0.000188348 0.400868 0.559773 0.375776 -0.0756928 -0.102931 0.0596307 -0.111449 -0.112613 -0.11232 -0.11225
internal_weight=0 47970.8 45993.9 27941.5 25711 16175.7 9535.29 18052.4 9904.14 8917.06 10654.4 8148.29 987.083 7415.01 1976.9 1744.29 733.28 943.243 674.809 2230.51 268.434 2190.36 10602.7 10507.9 801.043 786.185 207.92 94.8019 77.177 194.645 10300 162.133 40.1574 14.858 51.6362 23.3754 53.8016 13.2754 10137.9 232.611 106.172 16.8215 17.6248 8.82199 89.3508 126.439 6.29555 120.144 47.9822 44.8019 42.8746
internal_count=268644 260095 243984 162966 155355 88175 67180 81018 50356 43537 8549 30662 6819 26632 16111 13730 4030 6892 5241 7611 1651 7327 8047 7459 6838 6771 577 588 522 494 6882 702 284 67 502 81 441 83 6180 2381 1011 99 66 48 912 1370 58 1312 486 460 441
is_linear=0
shrinkage=0.1


Tree=2
num_leaves=54
num_cat=0
split_feature=45 74 56 40 114 127 123 135 116 74 30 126 108 114 95 73 0 75 114 33 48 113 50 50 66 73 99 97 8 4 106 110 31 84 96 26 49 125 19 90 118 113 120 74 71 89 72 5 74 51 68 30 15
split_gain=13025.4 2965.94 2379.8 3209.01 4112.27 3386.91 3118.53 2748.08 2084.83 1664.33 1576.13 1308.36 1261.75 1102.19 760.912 688.504 653.408 620.403 450.294 410.795 360.278 355.586 586.878 396.476 267.952 239.83 357.318 223.07 206.807 188.5 121.772 72.9875 55.7958 55.8081 54.5236 37.9748 99.3596 96.8282 170.001 98.8451 77.0496 49.8121 46.054 41.2155 37.0906 21.1685 20.6551 14.7352 0.149868 0.140456 0.117469 0.0319212 0.00105086
threshold=0.74043998122215282 -1.0120052099227903 0.98878514766693126 1.0465751290321352 -1.1662821769714353 -1.9909871220588682 -2.2696745395660396 1.0000000180025095e-35 -1.5074254274368284 -0.47037976980209345 1.0948333144187929 -2.7805595397949214 -1.0502629876136778 -1.3240140080451963 -1.0341861844062803 -0.92757275700569142 0.55208709836006176 -1.1746966838836668 -0.94794559478759755 0.93063274025917064 1.2035484910011294 -1.320082902908325 1.2100973725318911 1.1908746957778933 -0.27709232270717615 -0.93978860974311818 -0.97252166271209706 -0.98895290493965138 0.91326594352722179 0.59569340944290172 -0.91244834661483754 -0.92006993293762196 0.9358830749988557 -1.1756951808929441 -1.0629416108131406 1.6099212169647219 0.72522866725921642 -0.29286044836044306 1.4095054268836977 -1.1048430800437925 -0.8994670808315276 -0.92677000164985646 -0.94812485575675953 -1.0014845132827757 -0.70706135034561146 -1.0308812260627744 -0.81924012303352345 0.77820712327957164 -1.0336388349533079 0.8397999405860902 0.12580919265747073 1.0881888866424563 1.325415372848511
decision_type=2 2 2 2 2 2 2 2 2 2 2 2 2 2 2 2 2 2 2 2 2 2 2 2 2 2 2 2 2 2 2 2 2 2 2 2 2 2 2 2 2 2 2 2 2 2 2 2 2 2 2 2 2
left_child=18 10 3 4 7 -6 21 -3 20 -10 14 12 -5 -13 15 27 34 -17 28 24 -8 23 -23 -4 -16 30 -27 -2 31 -21 -18 44 33 -30 -12 37 41 38 52 -40 42 -37 -38 -42 46 -33 -1 -43 -36 50 -39 -35 -20
right_child=1 2 6 11 5 -7 8 -9 9 -11 16 13 -14 -15 19 17 25 -19 35 29 -22 22 -24 -25 -26 26 -28 -29 32 -31 -32 45 -34 51 48 36 40 49 39 -41 43 47 -44 -45 -46 -47 -48 -49 -50 -51 -52 -53 -54
leaf_value=0.37236355131457188 -0.025735259519696515 0.091134457222635773 0.19701088216693596 0.48556712660099355 0.28611242899170958 0.20720327145097756 0.1599745742533262 0.3378430751672043 0.12292723938470784 0.25864285422393879 0.41218706986462117 0.034862141957005231 -0.05264115886975812 0.30266413442654871 0.42498059727038684 0.0082055599769346229 0.18386630686383887 0.1636112722648182 -0.11830514163563764 0.41035098597307285 -0.10993117867032497 -0.13030298535989066 0.31739540682275236 0.35508797629212013 0.011009701711740653 0.31797914225271917 0.19115137248111061 0.31959188585305409 0.43251331152320094 -0.11859489092976294 -0.030467285249670534 -0.12030334759941819 0.23535528793458591 -0.11231263513254371 -0.11053699239700737 0.25669219977697028 0.15763072964950564 0.31590603039014631 0.34487273793759299 0.11281474834562483 -0.12192063417019564 0.52515343259914093 0.34073043079291288 0.25420004451275363 0.46190791295368244 0.2165991742903641 0.079427354503822711 0.43407768535263203 -0.12111518362589542 0.32140997747312455 0.31090681369266177 -0.11942120781774697 -0.12055967864753277
leaf_weight=4.3525471687316886 325.00253739207983 3954.8287239074707 194.21436280012131 586.84614078700542 6562.3819521963596 31785.149429172277 56.541333392262459 509.69144371896982 5223.4379307627678 1092.6204871535301 2.0218982622027388 165.70312961935997 47.050662562251091 2118.6688402369618 15.865948900580404 291.67781385779381 95.19575772434473 2153.5829305574298 10.593778386712073 38.910465814173222 394.62169923633337 47.205516338348389 77.109296083450317 866.79796320199966 1077.4892846718431 566.42076915502548 365.46986325085163 19.848364464938641 1.9598927572369564 8.1482069194316846 36.736872233450413 4.7798990458250046 6.053380385041236 33.390845492482185 23.345529548823833 13.949836120009421 14.985205911099909 11772.407754898071 55.489744894206524 27.428263299167156 6.0144965723156929 24.948198318481445 164.91940528154373 5.650608651340006 14.728120408952236 3.0582936480641356 5.3850378543138513 61.692967191338539 31.417292557656765 46.210722923278809 47.190734967589378 7.7909878790378562 2.5687355101108542
leaf_count=11 2829 26887 508 929 20611 135666 215 2055 28859 3583 5 1272 308 6650 50 2642 438 12769 81 144 3113 266 126 1125 7876 1177 1157 98 6 63 288 36 26 356 283 34 50 5047 43 134 46 17 264 15 19 8 31 78 226 20 23 62 19
internal_value=0 0.201375 0.208268 0.217048 0.210132 0.220707 0.157778 0.1193 0.13157 0.146405 0.128116 0.31851 0.445619 0.283238 0.0982895 0.126419 0.232732 0.145074 0.31441 0.0294684 -0.0761056 0.307405 0.147393 0.326153 0.0170169 0.250374 0.26824 -0.00585948 0.0801313 0.318764 0.124185 0.276712 -0.048953 -0.0888454 -0.0977773 0.315968 0.351588 0.315098 0.215114 0.268111 0.30933 0.432066 0.325479 0.0602732 0.361792 0.0111487 0.210365 0.460303 -0.116606 0.315908 0.315886 -0.113657 -0.118745
internal_weight=0 58734 53682.9 45730.3 42812.1 38347.5 7952.55 4464.52 6767.22 6316.06 5051.13 2918.27 633.897 2284.37 3930.53 2790.11 1120.61 2445.26 12335.5 1140.41 451.163 1185.33 124.315 1061.01 1093.36 1063.82 931.891 344.851 81.499 47.0587 131.933 32.3039 49.1951 43.1417 56.7847 12254.1 292.161 11961.9 96.0805 82.918 191.57 100.591 179.905 11.6651 24.4657 7.83819 9.73759 86.6412 54.7628 11865.8 11819.6 41.1818 13.1625
internal_count=268644 262218 232173 194378 185219 156277 37795 28942 35770 32442 30045 9159 1237 7922 26471 18338 3574 15411 6426 8133 3328 2025 392 1633 7926 3060 2334 2927 555 207 726 105 450 424 514 5871 504 5367 277 177 375 129 314 61 61 44 42 95 509 5090 5070 418 100
is_linear=0
shrinkage=0.1


Tree=3
num_leaves=58
num_cat=0
split_feature=45 32 75 41 75 132 106 107 126 134 130 56 35 31 105 110 126 0 130 32 114 130 125 68 4 37 56 22 75 6 30 98 97 106 118 55 30 114 114 29 125 19 75 84 127 102 73 108 112 85 72 30 73 101 83 30 30
split_gain=10637.1 2286.78 1906.21 1889.76 2423.79 4885.56 1825.07 1192.82 864.435 829.104 636.984 631.247 973.195 938.93 633.187 594.952 533.302 433.568 311.096 418.476 304.382 295.649 280.206 249.619 201.117 183 170.369 266.231 172.479 157 122.454 157.086 113.168 61.8504 69.0674 55.4811 34.1442 81.4943 34.1708 32.2617 60.0843 122.3 26.5996 25.9789 45.3617 21.8057 52.2455 20.3032 15.3945 8.68609 0.0846775 0.0448539 0.0391272 0.00636321 0.0061539 0.00442389 0.000610543
threshold=0.74043998122215282 0.96073320508003246 -1.1135445237159727 1.1053421497344973 -0.52858343720436085 1.0000000180025095e-35 -0.90625435113906849 -0.81683436036109913 -2.5983916521072383 1.0000000180025095e-35 1.0000000180025095e-35 0.97906571626663219 0.95564332604408275 0.99852001667022716 -0.80105930566787709 -0.83833953738212574 -1.6426659822463987 0.50385117530822765 1.0000000180025095e-35 0.96438738703727733 -0.94794559478759755 1.0000000180025095e-35 -2.776452779769897 0.10880597680807115 0.52324020862579357 0.97425395250320446 0.96998354792594921 1.2379879951477053 -1.1177201867103574 0.86233997344970714 1.0843304991722109 -0.97626924514770497 -0.99131792783737172 -0.94042417407035817 -0.93560770153999318 0.68446859717369091 1.0853982567787173 -0.91625481843948353 -0.91506040096282948 1.2417126297950747 -0.29286044836044306 1.4095054268836977 -1.1145719289779661 -1.1456331610679624 -1.1642611026763914 -0.93314102292060841 -0.91573539376258839 -0.94138062000274647 -0.9212549328804015 -1.1418338418006895 -0.5536205768585204 1.0994139313697817 -0.92757275700569142 -0.91943407058715809 -1.1778085827827451 1.0853982567787173 1.0930678248405459
decision_type=2 2 2 2 2 2 2 2 2 2 2 2 2 2 2 2 2 2 2 2 2 2 2 2 2 2 2 2 2 2 2 2 2 2 2 2 2 2 2 2 2 2 2 2 2 2 2 2 2 2 2 2 2 2 2 2 2
left_child=20 2 9 4 5 -4 -6 11 22 10 15 13 14 24 -13 -2 -15 -12 19 32 29 -10 -5 -14 -3 -21 27 -20 -28 33 42 -32 -9 53 47 -36 39 45 -39 40 41 -22 -11 44 -41 49 -47 -35 -45 -38 -42 54 -40 56 -31 -56 -1
right_child=1 7 3 8 6 -7 -8 18 21 30 17 12 23 16 -16 -17 -18 -19 26 25 36 -23 -24 -25 -26 -27 28 -29 -30 51 31 -33 -34 34 35 -37 37 38 52 43 50 -43 -44 48 -46 46 -48 -49 -50 -51 -52 -53 -54 -55 55 -57 -58
leaf_value=-0.11274357493128728 0.092516785047637135 0.31111139285419487 0.15889226300019044 0.22911333141017748 0.32842373451728074 0.010693963342526961 0.18482210383466588 0.60996588608084912 0.074551047814284635 -0.10940659296337614 0.12184181196709827 0.16692441318746293 -0.038991004282701511 0.21637390664263001 0.059345522345913441 -0.042407407875755684 0.16471034605882628 0.25190180419246971 0.45133503674016873 0.05562357288097506 -0.11665938741731226 0.28897100365766976 -0.080469658067735303 0.27912623045921675 0.21033947260735505 0.179862489608518 -0.11784598916200406 0.0019238567058843291 0.23437201183520051 -0.11731073153480892 -0.1180349647021046 0.58039057980706177 -0.0098977437991801549 0.39080863342837596 -0.11564968089902986 0.29842978385536717 0.30562799732155099 0.16125490096941975 -0.12748337469193793 0.0026724704257347662 0.2574356956371382 0.22030602085785939 0.030431630100899255 0.25346985869127819 0.32926901491684407 -0.0304787930653963 0.26512763261116085 0.22888496207499498 0.3224174355579198 0.23847904145368989 0.25338480138826308 -0.12165382674972772 -0.14094987565335745 -0.12057795514554435 -0.11017986855288658 -0.11469025673136253 -0.1150935263712279
leaf_weight=2.0772202387452126 3296.2967735975981 1044.452037602663 39117.088945180178 30.915298745036125 1314.9421725422144 2358.6029553115368 2707.0143546015024 2.9665367007255545 180.8624044880271 228.24143693596125 793.69585738331079 1718.4240169525146 25.627034232020378 6757.5638268217444 802.66932342946529 362.78368179500103 2836.8210447728634 378.56460434943438 52.85833740234375 196.19877057522535 12.111887887120245 99.782743781805038 538.35776595771313 657.93159480392933 244.38773301243782 299.60465621203184 21.392529144883156 17.561036840081215 39.712998017668724 1.4538974091410697 6.7533988878130913 6.1555461436510068 411.41113172471523 12.33641944080591 9.4227855429053289 4.9280566722154608 26.65200586616993 7.0191641747951534 5.4946823269128808 7.8922982066869745 12977.743920326233 97.293811552226543 14.464679591357706 41.46864428371191 9.221843846142292 9.6383631527423876 15.747303903102873 20.799470230937004 147.8182984739542 69.493919491767883 51.807967334985733 4.6376518234610549 3.5525758862495396 2.1930549740791312 22.431323319673542 2.4080286249518386 2.3636599481105804
leaf_count=21 19112 1744 152226 131 2725 17147 6663 5 903 2214 4493 6802 152 16542 3991 2949 10255 1524 115 1108 100 315 4036 1840 831 1211 167 105 175 13 54 5 2580 9 89 8 27 14 34 36 5067 200 98 73 9 38 16 50 143 73 23 34 18 17 271 22 21
internal_value=0 0.158567 0.148514 0.154892 0.157652 0.150465 0.231771 0.192742 0.00715297 0.0904056 0.0996917 0.200377 0.161368 0.211864 0.132673 0.0791396 0.201098 0.163843 0.0894836 0.0687098 0.255716 0.150788 -0.0636573 0.2672 0.292003 0.130699 0.233242 0.339262 0.111063 0.0671326 -0.0851102 0.215005 -0.00546013 0.169845 0.209802 0.0265446 0.256905 0.207346 -0.0043159 0.257416 0.2568 0.183002 -0.101073 0.296645 0.178657 0.235327 0.152893 0.289169 0.307313 0.257093 0.25742 -0.112587 -0.132771 -0.116171 -0.110987 -0.110617 -0.113994
internal_weight=0 66564.1 51434.5 46347.6 45497.6 41475.7 4021.96 15129.6 849.918 5086.96 4831.34 14087.9 3204.65 10883.2 2521.09 3659.08 9594.38 1172.26 1041.71 910.181 13568 280.645 569.273 683.559 1288.84 495.803 131.525 70.4194 61.1055 85.0516 255.615 12.9089 414.378 54.1207 47.4867 14.3508 13483 137.598 16.0664 13345.4 13139 109.406 242.706 206.401 17.1141 121.532 25.3857 33.1359 189.287 96.1459 13029.6 30.9309 9.04726 6.63394 26.2932 24.8394 4.44088
internal_count=268644 262218 214595 184146 178761 169373 9388 47623 5385 30449 28078 42157 12785 29372 10793 22061 26797 6017 5466 4904 6426 1218 4167 1992 2575 2319 562 220 342 555 2371 59 2585 215 156 97 5871 220 66 5651 5390 300 2312 261 45 154 54 59 216 100 5090 340 52 59 306 293 42
is_linear=0
shrinkage=0.1


Tree=4
num_leaves=53
num_cat=0
split_feature=46 32 30 74 106 133 30 94 59 36 127 74 94 60 75 106 0 125 3 130 31 33 71 1 113 31 115 73 57 30 26 6 38 49 106 108 125 32 74 97 80 66 98 34 79 68 54 12 30 119 105 91
split_gain=9601.73 1468.88 1713.92 1985.51 1615.41 1478.98 1395.28 954.413 706.931 937.939 814.15 539.784 488.844 468.397 439.149 438.42 349.881 342.869 339.806 316.54 400.329 344.123 282.917 277.453 239.621 238.804 230.386 223.891 213.591 160.322 102.199 69.2082 62.5392 62.0464 37.976 57.1099 35.8366 103.188 53.3794 70.651 32.7836 31.3432 23.7586 0.340918 0.112796 0.0880908 0.0226208 0.0101213 0.00458122 0.00436872 0.00172254 0.00164302
threshold=0.75623273849487316 0.96158489584922802 1.0894511938095095 -1.003324508666992 -0.95744627714157093 1.0000000180025095e-35 1.067013204097748 -1.0600319504737852 0.8436221480369569 0.97047904133796703 -1.9176438450813291 -1.031972289085388 -0.95098158717155445 0.75305995345115673 -1.1746966838836668 -0.8771754503250121 0.47444719076156622 -1.47034215927124 0.71457356214523327 1.0000000180025095e-35 1.0014297962188723 0.94461756944656383 -0.44212587177753443 0.62751519680023204 -0.96010881662368763 0.9961247742176057 -0.98391178250312794 -0.72322264313697804 0.96253997087478649 1.0957670807838442 1.3422728776931765 0.86233997344970714 0.94515714049339306 1.1561437845230105 -0.94042417407035817 -0.94138062000274647 -0.29286044836044306 0.80619657039642345 -1.0005854964256284 -0.98784151673316944 -1.1634548306465147 -0.19742491096258161 -1.1134458780288694 0.74041923880577099 -1.4198152422904966 0.12580919265747073 0.75184631347656261 1.2086389660835268 1.0853982567787173 -1.0913592576980589 -0.94443878531455983 -1.0703245997428892
decision_type=2 2 2 2 2 2 2 2 2 2 2 2 2 2 2 2 2 2 2 2 2 2 2 2 2 2 2 2 2 2 2 2 2 2 2 2 2 2 2 2 2 2 2 2 2 2 2 2 2 2 2 2
left_child=24 2 3 7 5 -5 -6 14 10 19 15 23 13 -12 -2 22 17 -13 -9 21 -21 -10 -3 30 31 -17 -18 33 -29 -25 -4 34 -14 -11 49 -36 37 38 39 -26 -37 -40 -39 45 -44 46 -38 50 51 -1 -33 -49
right_child=1 8 11 4 6 -7 -8 18 9 27 12 16 32 -15 -16 25 26 -19 -20 20 -22 -23 -24 29 36 -27 -28 28 -30 -31 -32 47 -34 -35 35 40 43 42 41 -41 -42 -43 44 -45 -46 -47 -48 48 -50 -51 -52 -53
leaf_value=-0.11784390768343966 -0.01251912495731421 0.042391506485380794 0.093578366556741732 0.15277696745425007 0.11769938557012052 -0.0053071895192300066 0.15962027402060819 -0.017788165370103061 -0.069672291522915958 0.22925513397236497 0.16570201376367119 0.1312448569073808 0.18478167857511998 0.10998370162176521 0.10084518870900877 0.26651064052520668 0.15863464236893782 -0.11305474992252036 0.11918309773780751 0.095278767305805867 0.37659887170052203 0.063292035130994129 0.16794802981682089 0.00014621078576718686 0.20059873957603652 0.19972912047444769 0.20126598966680243 0.23803679424115401 0.13544702717273643 0.15687384614248578 -0.11727052347960137 -0.117260736088453 -0.076669228993719057 -0.12432563050754092 0.29467706670430138 0.30459196662040838 0.22169261422765874 0.19942169949379387 0.21694130686542926 0.054196335096904892 -0.1154216292806038 0.35349401794229141 -0.11446712763288956 0.22888917232125189 -0.13899427525145122 0.21765621708221353 0.22375698717087036 -0.11211487436380084 -0.11334495606145079 -0.11228569313648476 -0.11325563409399414 -0.10901155678486962
leaf_weight=2.3480963185429573 383.57529865205288 253.62540081143379 30.819050692021847 888.96470562368631 32858.83720972389 1770.4853578433394 10469.295350298285 1551.5592667609453 247.69570211321115 6.0280600786209098 4893.6832184493542 361.92146079242229 9.9780611246824247 2181.241419069469 3130.9126480519772 619.50339630246162 1968.2798621580005 68.288826934993267 205.05999671667814 313.58522032946348 60.313385799527168 908.80823975801468 613.76831560581923 90.265528239309788 100.49787972122431 3947.1289194226265 3561.163681730628 537.97255231440067 325.8763781785965 235.68215137720108 90.469898641109467 2.2594782114028931 110.10614600777626 28.087872259318829 14.571687728166584 2.4484166577458408 13396.007771492004 2.8817398175597182 343.56491860747337 49.051098771393299 7.7111795023083625 17.673702716827393 10.268415257334707 66.001113414764404 2.2938397452235213 54.06631675362587 53.291152477264404 1.9207797199487746 3.4639247283339492 3.5551711693406132 2.0464448928833034 15.260622948408125
leaf_count=20 3356 833 215 4151 126029 10102 32661 9836 1593 16 13423 1057 20 8263 16415 929 5330 400 836 1364 119 4182 1390 626 118 7210 7219 1226 1091 804 814 19 527 181 9 4 5018 3 472 179 75 19 93 25 12 23 20 22 34 37 21 203
internal_value=0 0.129879 0.122617 0.116522 0.123185 0.047535 0.127829 0.0583892 0.157692 0.108279 0.167193 0.171381 0.145128 0.148524 0.0884725 0.196409 0.179332 0.0924663 -0.00179874 0.0606734 0.140658 0.0348142 0.131235 0.0654242 0.21991 0.208789 0.186091 0.189413 0.199336 0.113471 -0.0636946 0.0126921 -0.0549447 -0.0618502 0.113394 0.16779 0.220727 0.195122 0.202822 0.15258 -0.0142003 0.223622 -0.0595406 0.22172 -0.118946 0.221685 0.221701 -0.110947 -0.110027 -0.114497 -0.115357 -0.109358
internal_weight=0 72723 57665.6 51258.7 45987.6 2659.45 43328.1 5271.11 15057.4 2428.37 12629 6406.89 7195.01 7074.92 3514.49 5434.03 5959.65 430.21 1756.62 1530.4 373.899 1156.5 867.394 447.237 14151.2 4566.63 5529.44 897.965 863.849 325.948 121.289 55.5858 120.084 34.1159 30.6346 24.7313 14095.6 526.232 510.788 149.549 10.1596 361.239 15.444 13569.4 12.5623 13503.4 13449.3 24.9513 20.6453 5.90327 4.30592 17.1814
internal_count=268644 262218 219851 203386 172943 14253 158690 30443 42367 9772 32595 16465 22233 21686 19771 10362 14006 1457 10672 7258 1483 5775 2223 2459 6426 8139 12549 2514 2317 1430 1029 444 547 197 145 88 5982 896 788 297 79 491 108 5086 105 5061 5038 299 259 57 40 225
is_linear=0
shrinkage=0.1


Tree=5
num_leaves=42
num_cat=0
split_feature=115 107 32 30 75 132 40 56 126 74 117 70 35 57 115 1 130 33 32 105 67 36 87 69 29 3 62 102 68 33 73 125 22 31 57 63 48 58 78 75 29
split_gain=9072.55 1288.17 1268.89 1219.59 1435.84 2431.18 2198.52 649.289 747.92 524.547 517.184 512.54 480.097 465.361 351.958 341.844 333.115 385.996 372.428 322.87 327.443 193.744 152.216 147.883 142.205 122.241 218.755 112.756 296.171 121.78 92.4139 33.6263 132.599 54.0096 2.72539 0.236062 0.178775 0.0708675 0.0394396 0.00491397 0.00390395
threshold=-0.82540583610534657 -0.81683436036109913 0.95763844251632702 1.0864827036857607 -0.51511123776435841 1.0000000180025095e-35 1.0674767494201662 0.97839635610580455 -1.7201585769653318 -1.024595260620117 -1.0382162332534788 -0.28232571482658381 0.95366892218589794 0.95501193404197704 -0.98391178250312794 0.62383815646171581 1.0000000180025095e-35 0.93221658468246471 0.96438738703727733 -0.79561176896095265 0.16851576417684558 0.94723612070083629 -1.3043558001518247 -0.044991651549935334 1.0672023892402651 0.49338930845260626 0.65590745210647594 -0.819476157426834 0.036934111267328269 0.89321294426918041 -0.76936906576156605 -0.29286044836044306 1.3741763234138491 0.99908435344696056 0.68488988280296337 0.40648709237575537 0.81407591700553905 0.63927760720253002 -1.3992964029312132 -1.1015055775642393 1.0672023892402651
decision_type=2 2 2 2 2 2 2 2 2 2 2 2 2 2 2 2 2 2 2 2 2 2 2 2 2 2 2 2 2 2 2 2 2 2 2 2 2 2 2 2 2
left_child=1 2 3 4 5 -1 -6 8 11 15 -10 -4 13 -9 -11 -5 18 27 19 20 -3 -21 24 -14 -19 26 -20 28 -18 -29 -27 32 33 38 35 36 37 -33 40 -24 -2
right_child=31 16 7 9 6 -7 -8 12 10 14 -12 -13 23 -15 -16 -17 17 22 25 21 -22 -23 39 -25 -26 30 -28 29 -30 -31 -32 34 -34 -35 -36 -37 -38 -39 -40 -41 -42
leaf_value=0.097266050020611006 -0.11319798064573534 0.025078476002900876 0.099801342898147488 -0.028215817126888428 0.17108403077329618 0.0023557538690386357 -0.042862025710780099 0.098551745270817975 0.04293841561722804 0.12127022107777237 0.12767143436299436 0.17094838696943992 -0.12575167039919918 0.0080626461284834718 0.16488551388709627 0.10471719159598809 0.021197145726546813 0.3922140457056536 0.23870176649442143 -0.075715052485226697 0.23665597554052586 0.010744243203900744 -0.12362151713270852 0.16006398093031748 0.18179990863076823 0.077379839903103986 0.07319353515368883 0.29430570403449002 0.36517943147470761 -0.06186139316260824 -0.065336374367165481 0.19748902140348046 0.21418588374977016 0.43126399412542399 0.21978111915264972 0.1911292282164592 0.20243779391081038 0.20112940157405054 -0.12680122653843964 -0.12808904961137638 -0.11037586766318455
leaf_weight=36581.136923130602 9.9386045038700157 397.95427332818508 1170.2882955372334 263.88433105498552 4373.477916136384 2913.9088273271918 539.56866585463285 2834.6750684902072 788.80753906071186 3177.6856449395418 8299.5031257420778 7511.9455050230026 18.403841659426689 710.84294579178095 4428.8011818081141 724.72544667124748 129.63089502602816 37.613377824425697 117.10616413503885 545.88029251992702 89.619800634682178 493.4867997020483 3.1965139210224143 1106.5522032678127 219.88747352361679 134.26701517403126 251.06975923478603 10.372565314173697 31.020296327769756 128.8761678263545 68.530486419796944 13493.805516093969 58.274119526147842 1.9907257556915272 55.134387969970703 57.859737515449524 73.825684025883675 53.688141345977783 1.9262995421886469 10.715269804000853 9.6722087338566762
leaf_count=138153 97 2382 3134 1826 8196 18835 3479 9868 2713 8539 24134 12827 117 3459 8613 2721 799 69 297 3714 288 2551 21 2716 744 638 1016 33 78 878 368 5008 23 14 21 28 38 20 12 63 114
internal_value=0 0.109302 0.111718 0.103279 0.0966056 0.0902637 0.147588 0.131649 0.140369 0.137759 0.120317 0.161358 0.0984693 0.0804095 0.146665 0.0692341 0.04103 0.108726 0.0225949 -0.00316978 0.063968 -0.0346646 0.195129 0.155388 0.212535 0.0914967 0.125837 0.0305303 0.087617 -0.0353307 0.0291524 0.197212 0.133287 -0.0670838 0.197593 0.197503 0.19753 0.197503 -0.113147 -0.127063 -0.111806
internal_weight=0 78113.4 75444.2 53003.2 44408.1 39495 4913.05 22441 17770.5 8595.1 9088.31 8682.23 4670.47 3545.52 7606.49 988.61 2669.23 571.313 2097.91 1526.94 487.574 1039.37 271.413 1124.96 257.501 570.973 368.176 299.9 160.651 139.249 202.798 13816.1 81.802 23.5278 13734.3 13679.2 13621.3 13547.5 21.5371 13.9118 19.6108
internal_count=268644 263269 249330 190362 168663 156988 11675 58968 42808 21699 26847 15961 16160 13327 17152 4547 13939 2685 11254 8935 2670 6265 897 2833 813 2319 1313 1788 877 911 1006 5375 260 237 5115 5094 5066 5028 223 84 211
is_linear=0
shrinkage=0.1


Tree=6
num_leaves=42
num_cat=0
split_feature=115 75 116 114 75 32 75 30 116 56 75 31 115 111 84 60 60 105 37 117 76 76 33 82 107 32 34 75 122 31 125 125 22 32 94 57 63 104 48 78 51
split_gain=8710.87 1176.11 2544.88 1260.08 1666.14 1456.35 1749.6 1300.06 986.233 810.562 763.917 1079.94 828.659 622.379 494.998 463.699 433.793 407.805 406.788 400.908 349.149 314.936 436.568 275.609 246.51 204.025 146.28 141.674 100.597 54.5075 115.309 27.8116 107.37 54.2981 26.9551 1.63327 0.239086 0.0977729 0.192255 0.0259718 0.001517
threshold=-0.82540583610534657 -1.0865982770919798 -0.97241091728210438 -0.96618086099624623 -1.0725308656692503 0.93316581845283519 -0.52858343720436085 1.0589173436164858 -0.99670854210853566 0.98653948307037365 -1.1135445237159727 0.97604534029960643 -0.93080624938011158 -0.84487420320510853 -1.2748522758483884 0.79414743185043346 0.70613381266593944 -0.8371731936931609 0.95794546604156505 -0.9988873004913329 -1.2033346891403196 -1.1842196583747862 0.91767373681068432 -1.3664041161537168 -0.90419551730155934 0.90057155489921581 0.94100677967071544 -1.0799213051795957 -1.177281320095062 1.0111553668975832 -1.47034215927124 -0.29286044836044306 1.3741763234138491 0.9557081162929536 -1.0292022824287412 0.68488988280296337 0.40648709237575537 -1.0076847672462461 0.81407591700553905 -1.3669498562812803 1.0501007437705996
decision_type=2 2 2 2 2 2 2 2 2 2 2 2 2 2 2 2 2 2 2 2 2 2 2 2 2 2 2 2 2 2 2 2 2 2 2 2 2 2 2 2 2
left_child=1 2 19 4 8 6 -6 15 27 -7 12 23 20 -14 17 18 -13 -9 -5 29 -4 28 -23 -12 -16 -10 -17 -3 -21 34 -31 32 33 39 -1 36 37 -33 -39 40 -2
right_child=31 3 10 7 5 9 -8 14 25 -11 11 16 13 -15 24 26 -18 -19 -20 21 -22 22 -24 -25 -26 -27 -28 -29 -30 30 -32 35 -34 -35 -36 -37 -38 38 -40 -41 -42
leaf_value=0.021617136860477223 -0.11182682894035284 -0.12029439609567268 -0.065233668103165499 0.066315009735251687 0.057756856917928569 0.11727778611246353 0.12460891628757043 0.21952439233757623 0.00076302092210349794 0.072148359161432377 0.14940742765209802 0.13544243732034186 0.085744575447844043 -0.024232410322442575 0.17181213478680588 -0.084102240997920658 0.085785186942555103 0.063662632449226611 0.13959023833107492 -0.031157425609882668 0.038049765910255232 -0.015166279162502329 0.14510811431060755 0.0073075199386969936 0.11789805150231503 0.087220041443434426 0.043852270954383911 -0.03826035935944231 -0.12522159260325855 0.23030967630041033 -0.10923766818405647 0.17616242156413875 0.19289952567693497 0.44172794448588759 -0.12162440683787555 0.19723682727607639 0.17356950080328631 0.18003054171658037 0.18526494104335886 -0.12357711083018613 -0.11002940954531198
leaf_weight=13.486531779170035 9.4015470668673569 304.11325973272324 637.27457882463932 1685.3448291942477 14058.444476172328 28140.623522937298 5425.6776791960001 1807.8223299384117 362.91581999510527 4635.4253687784076 153.1214727088809 4988.4671455025673 5516.7906259074807 567.51238785684109 1552.3166515901685 181.4691488519311 2717.5750106647611 185.05360904335976 1376.3411527052522 239.50442668795586 672.90656433999538 653.19594985246658 229.72032245993614 1256.7683317512274 1869.3133463189006 1101.055742919445 175.99638207256794 684.08886408805847 216.43646049499512 14.391294106841086 32.788143157958984 64.735651358962059 58.225113153457642 1.9376312643289555 507.2155122756958 55.273292541503906 57.360033199191093 13321.527304887772 70.54047591984272 1.7771374881267572 9.3807376027107221
leaf_count=50 100 1595 3704 5517 61180 68686 12811 3058 1702 16660 582 12969 23779 4122 2267 1060 9467 567 3778 1060 3433 2787 523 5804 4720 3402 780 3096 1278 19 149 29 23 8 2664 21 28 5004 33 12 117
internal_value=0 0.0934536 0.0712027 0.0999025 0.0942442 0.0980243 0.0763729 0.134948 0.0136835 0.110895 0.0838352 0.103208 0.0599521 0.0754865 0.165433 0.0866716 0.117931 0.205051 0.0992549 -0.0381818 -0.0121875 -0.00831838 0.0265345 0.0227403 0.142358 0.0657875 -0.0211045 -0.0635058 -0.07581 -0.108589 -0.00566446 0.179734 0.121211 -0.0643289 -0.117914 0.180082 0.180012 0.180039 0.180058 -0.112022 -0.110929
internal_weight=0 81963.2 18417.2 63546 54712.3 52260.2 19484.1 8833.66 2452.17 32776 16510.4 9115.93 7394.48 6084.3 5414.51 3419.15 7706.04 1992.88 3061.69 1906.74 1310.18 1338.86 882.916 1409.89 3421.63 1463.97 357.466 988.202 455.941 567.881 47.1794 13650.2 80.7222 22.4971 520.702 13569.4 13514.2 13456.8 13392.1 20.5594 18.7823
internal_count=268644 263269 72390 190879 169132 159337 73991 21747 9795 85346 63860 28822 35038 27901 10612 11135 22436 3625 9295 8530 7137 5648 3310 6386 6987 5104 1840 4691 2338 2882 168 5375 260 237 2714 5115 5094 5066 5037 229 217
is_linear=0
shrinkage=0.1


Tree=7
num_leaves=42
num_cat=0
split_feature=115 75 116 115 75 32 75 30 56 74 30 136 95 136 116 74 55 37 117 1 75 130 31 35 75 87 52 76 30 97 11 125 22 32 126 57 54 72 60 78 76
split_gain=8443.37 890.588 1948.69 918.029 2078.23 1283.11 1168.57 975.74 709.358 633.253 589.936 558.281 517.08 494.194 442.598 402.874 389.26 502.555 362.584 340.625 338.926 318.428 315.655 272.227 261.194 220.24 216.137 137.086 116.096 27.5758 81.5258 23.5812 89.0807 36.5609 16.7344 1.04138 0.277842 0.103126 0.0412525 0.0184051 0.00112789
threshold=-0.82540583610534657 -1.0872774124145506 -0.97145745158195485 -0.9848080277442931 -1.067180812358856 0.94471213221549999 -0.51511123776435841 1.0589173436164858 0.98653948307037365 -1.014063775539398 1.062125623226166 1.0000000180025095e-35 -1.0363160967826841 1.0000000180025095e-35 -1.0116841793060301 -1.0629000663757322 1.0237424969673159 0.95744970440864574 -0.9988873004913329 0.46188510954380041 -1.0759169459342954 1.0000000180025095e-35 1.007506310939789 0.94528189301490795 -1.0745828747749326 -1.2294597029685972 1.0124884247779848 -1.1898872852325437 1.068514943122864 -0.9469313621520995 0.75715225934982311 -0.29286044836044306 1.3741763234138491 0.9557081162929536 -1.6363712549209593 0.68488988280296337 0.75184631347656261 -0.55668655037879933 0.55627715587615978 -1.3669498562812803 -1.3094601035118101
decision_type=2 2 2 2 2 2 2 2 2 2 2 2 2 2 2 2 2 2 2 2 2 2 2 2 2 2 2 2 2 2 2 2 2 2 2 2 2 2 2 2 2
left_child=1 2 18 4 14 6 -6 16 -7 12 11 -11 15 24 28 -4 17 -5 29 -12 -16 -14 27 -18 -9 -24 -15 -20 -3 30 -1 32 33 39 -31 36 37 38 -33 40 -2
right_child=31 3 9 7 5 8 -8 13 -10 10 19 -13 21 26 20 -17 23 -19 22 -21 -22 -23 25 -25 -26 -27 -28 -29 -30 34 -32 35 -34 -35 -36 -37 -38 -39 -40 -41 -42
leaf_value=0.25010586712966953 -0.10949270747265266 -0.10643382234004539 -0.057168368749425207 0.058485915141128213 0.056254372299643876 0.10633945739980846 0.10922716804549018 0.096292974000324022 0.06071267635543906 0.077886925712951763 -0.093922780970182473 -0.0044454263923499847 -0.037310042450849269 0.22004492383694313 -0.040889426352146471 0.068714151238493434 -0.041791469494234762 0.13259054514687246 -0.09514316312469924 0.11232163403990821 0.048043725753215652 0.091150789975385352 -0.057357916803149216 0.084573994420353543 0.13838370021849053 0.1269252959457966 0.151120929144962 -0.013874275288742686 0.0013731623492037371 -0.077087172936230838 -0.092223100150131965 0.16684655038993265 0.17715335235437546 0.28743749697456666 -0.12773863588136 0.18068403450619161 0.15955917248811302 0.16242656248023013 0.16927979634084606 -0.12086906413976095 -0.11201681208432801
leaf_weight=8.0635878294706327 15.158147081732755 478.21808066219091 270.93743418157101 2419.2086881101131 18757.62042081356 23313.915238961577 5352.7029973268509 2973.0081516802311 3990.6712340340018 4670.7185671702027 81.273670926690102 999.90528032183647 992.79936225712299 685.04494190961123 684.6128776371479 4124.4413029178977 445.57964716851711 1471.9782294034958 284.787648037076 5442.0045566782355 1145.6080040708184 239.5128136575222 89.198906347155571 276.12757325172424 2924.6440228447318 237.59787910431623 1354.7241104841232 765.4105501100421 126.26438204944134 80.199553065001965 50.682884313166142 12968.007586956024 57.112065821886063 2.6281083002686492 349.38184323906898 54.345094203948975 52.597600199282169 52.688082247972488 70.051663875579834 1.6421837806701649 2.0044230297207859
leaf_count=7 195 2715 2228 7953 74001 51062 11740 7189 13767 17550 436 4261 5833 1048 3158 16813 2278 3479 1632 14549 3863 1130 374 1049 5619 550 2521 3301 512 420 255 5009 23 8 1976 21 35 23 27 12 22
internal_value=0 0.0808003 0.0615152 0.0862277 0.0805512 0.0848262 0.0680148 0.110584 0.0996709 0.0722686 0.0860258 0.0633692 0.0449045 0.13184 -0.00972576 0.0609546 0.0740082 0.0865186 -0.0354595 0.109287 0.0147774 -0.0123423 -0.00920424 0.00655638 0.117166 0.0766253 0.174269 -0.0359124 -0.0839151 -0.109495 -0.0452348 0.166545 0.111914 -0.0619286 -0.118282 0.16687 0.166813 0.166842 0.16686 -0.110755 -0.109787
internal_weight=0 85086.8 18686.9 66399.9 53849.6 51414.9 24110.3 12550.3 27304.6 16821.6 11193.9 5670.62 5627.69 7937.42 2434.7 4395.38 4612.89 3891.19 1865.32 5523.28 1830.22 1232.31 1376.99 721.707 5897.65 326.797 2039.77 1050.2 604.482 488.328 58.7465 13276.2 78.5449 21.4329 429.581 13197.7 13143.3 13090.7 13038.1 18.8048 17.1626
internal_count=268644 263269 71315 191954 160818 150570 85741 31136 64829 62800 36796 21811 26004 16377 10248 19041 14759 11432 8515 14985 7021 6963 5857 3327 12808 924 3569 4933 3227 2658 262 5375 260 237 2396 5115 5094 5059 5036 229 217
is_linear=0
shrinkage=0.1


Tree=8
num_leaves=40
num_cat=0
split_feature=115 107 32 41 75 132 107 113 56 5 126 136 60 29 53 106 36 74 92 85 38 130 2 34 69 130 83 125 22 131 104 35 57 54 75 67 60 32 78
split_gain=8191.27 741.963 803.727 870.995 1081.95 1899.92 783.832 554.052 294.258 449.105 438.393 447.024 388.26 330.534 254.214 299.31 221.165 255.833 201.518 201.467 231.392 174.462 155.171 153.42 133.04 99.689 38.543 20.2172 74.9313 30.6073 17.556 86.7268 0.693225 0.460491 0.440146 0.115356 0.0325002 0.0182148 0.013039
threshold=-0.82540583610534657 -0.81683436036109913 0.96056726574897777 1.1053421497344973 -0.52858343720436085 1.0000000180025095e-35 -0.98264023661613453 -1.3287725448608396 0.97114658355712902 0.56646457314491283 -1.8686643242835996 1.0000000180025095e-35 0.75305995345115673 1.0967745184898379 1.0458580255508425 -0.78757923841476429 0.95431637763977062 -0.92427459359168995 -0.99193537235259999 -1.3904576897621153 0.95823654532432567 1.0000000180025095e-35 0.62463161349296581 0.9298786222934724 -0.085950762033462511 1.0000000180025095e-35 -1.2932779788970945 -0.29286044836044306 1.3741763234138491 1.0000000180025095e-35 -0.80792781710624684 0.9099942445755006 0.68488988280296337 0.75184631347656261 -1.1652923226356504 0.19061013311147693 0.55627715587615978 0.95493176579475414 -1.3669498562812803
decision_type=2 2 2 2 2 2 2 2 2 2 2 2 2 2 2 2 2 2 2 2 2 2 2 2 2 2 2 2 2 2 2 2 2 2 2 2 2 2 2
left_child=1 2 3 4 5 -1 -6 24 9 13 18 -12 -11 -4 22 19 25 -18 -10 20 -16 -9 30 -21 -5 -17 -24 28 29 37 31 -3 33 35 -32 36 -29 38 -2
right_child=27 14 8 7 6 -7 -8 21 10 12 11 -13 -14 -15 15 16 17 -19 -20 23 -22 -23 26 -25 -26 -27 -28 32 -30 -31 34 -33 -34 -35 -36 -37 -38 -39 -40
leaf_value=0.068588797838525811 -0.10875693239067273 -0.087819641719098618 0.14324841173823752 0.34508689164564327 0.16288920340524679 -0.015331620991412973 0.082517679480678049 0.014768994869562397 -0.039679551895313421 0.088435873862043241 0.065097893243913366 -0.039362796234613591 -0.0093233757490675754 0.09439644506354658 -0.01712912667325607 -0.084621279388590029 0.11407966995456853 -0.033980688655422767 0.11200087010927502 0.0013647121458437391 0.14543245565793941 0.1470408870074616 0.36817125093048508 0.072680596920551399 -0.10066332079195131 0.021261215517239678 0.043575223052431937 0.15657363316281722 0.16503225330577184 0.23582989087477046 -0.11391560389664053 0.3765332767905627 0.16802339870267688 0.14708328899232015 -0.12525431909194282 0.15180754479059205 0.15869709175140601 -0.12103500994041372 -0.1185188042993529
leaf_weight=56507.067398749292 14.230062231421472 69.231601022183895 2974.7374898046255 6.7818823754787436 1919.2330066412687 2832.9837946072221 3299.6638310849667 353.67500765621662 90.886765703558922 6361.0518181174994 3728.4093494489789 460.2288880944252 433.97918166220188 2591.6530822888017 113.39558466523886 390.24972843378782 218.08179131150246 251.04337346553802 2414.8442822247744 681.5347822457552 384.34137557446957 138.86928126215935 8.7036469131708127 541.18802886456251 527.05769806355238 115.15937936306 6.3103758841752997 12457.51263999939 55.268441006541252 2.9889235869050017 55.770105101168156 4.2702270522713652 52.678999185562134 51.412354223430157 88.658631764352322 50.72663576900959 72.496703863143921 1.5566455796360958 1.5138537213206316
leaf_count=174214 197 559 3940 8 2834 17403 6462 1518 359 14824 10676 1694 1528 4764 718 2550 725 1176 5305 3288 1316 322 14 1882 3479 549 39 5007 23 15 549 6 21 35 568 23 29 13 12
internal_value=0 0.070509 0.072221 0.0669685 0.0684215 0.0645823 0.112074 -0.0244277 0.0902992 0.0994439 0.073413 0.0536202 0.0821923 0.120503 0.0210181 0.0296811 -0.0145987 0.034848 0.106499 0.0547629 0.108397 0.0520621 -0.0792058 0.0329298 -0.0950005 -0.0604956 0.231744 0.156269 0.104695 -0.0596649 -0.100628 -0.0608422 0.156576 0.156528 -0.120876 0.156567 0.156586 -0.110716 -0.109696
internal_weight=0 87569.1 84641.1 65585.3 64558.9 59340.1 5218.9 1026.38 19055.8 12361.4 6694.37 4188.64 6795.03 5566.39 2927.94 2694.99 974.534 469.125 2505.73 1720.46 497.737 492.544 232.945 1222.72 533.84 505.409 15.014 12760.4 75.5579 20.2895 217.931 73.5018 12684.8 12632.1 144.429 12580.7 12530 17.3006 15.7439
internal_count=268644 263269 249330 206240 200913 191617 9296 5327 43090 25056 18034 12370 16352 8704 13939 12204 5000 1901 5664 7204 2034 1840 1735 5170 3487 3099 53 5375 260 237 1682 565 5115 5094 1117 5059 5036 222 209
is_linear=0
shrinkage=0.1


Tree=9
num_leaves=40
num_cat=0
split_feature=115 75 117 114 75 116 72 32 123 55 96 31 75 116 115 108 56 31 0 35 97 104 95 131 130 24 115 32 119 68 125 22 32 52 44 72 48 32 31
split_gain=7941.6 698.276 1304.1 782.046 1403.69 863.701 852.134 804.48 1021.19 565.448 494.946 465.812 621.446 761.94 399.929 391.606 323.867 268.851 401.14 240.039 214.468 208.836 181.906 114.372 101.912 95.3897 94.3126 87.4107 81.2746 68.8055 17.6803 63.8664 24.9995 0.679839 0.9075 0.151331 0.0144032 0.00887408 0.00157921
threshold=-0.82540583610534657 -1.0934981703758238 -0.97926330566406239 -0.96227222681045521 -1.0745828747749326 -0.99573037028312672 -0.61449754238128651 0.93102076649665844 -2.2696745395660396 1.0162492990493777 -0.95226326584815968 0.97411188483238231 -1.1188715696334837 -0.94192388653755177 -0.9382396638393401 -0.85551035404205311 0.97771537303924572 0.9688687026500703 0.61014828085899364 0.77696779370307933 -0.9572106897830962 -0.91678249835968006 -1.0320649147033689 1.0000000180025095e-35 1.0000000180025095e-35 1.2248876094818117 -0.97242987155914296 0.97171697020530712 -0.92953133583068837 -0.0229463642463088 -0.29286044836044306 1.3741763234138491 0.9557081162929536 0.82792550325393688 0.71641594171524059 -0.5536205768585204 0.78170907497406017 0.81031388044357311 0.99806025624275219
decision_type=2 2 2 2 2 2 2 2 2 2 2 2 2 2 2 2 2 2 2 2 2 2 2 2 2 2 2 2 2 2 2 2 2 2 2 2 2 2 2
left_child=1 2 20 4 5 23 17 8 -6 -9 25 15 13 -13 -14 21 -12 18 -5 -7 24 -4 -19 -3 26 -8 -1 29 -17 -22 31 32 37 34 35 36 -32 -2 -39
right_child=30 3 11 6 7 19 10 9 -10 -11 16 12 14 -15 -16 28 -18 22 -20 -21 27 -23 -24 -25 -26 -27 -28 -29 -30 -31 33 -33 -34 -35 -36 -37 -38 38 -40
leaf_value=-0.099099457874660235 -0.11596251383102607 -0.098373506347832679 0.048394637841461211 -0.023248795202524195 0.12269057988694457 -0.051764681584164057 0.20433334298326877 0.080936055469827017 0.042744702237751286 0.052475898294678684 0.086824910046470971 -0.088796705551104471 0.052757267131793177 0.042887437433216442 0.098475677951638613 -0.0064207989539008907 0.014258033327137563 0.15784832316872485 0.095254700200438233 0.043488135410713905 -0.1107814494797686 -0.070346979543399621 0.11085575504299745 -0.016739457318612424 0.23358238419876912 -0.076703629069059309 0.059342473990512672 0.23900078706631717 0.10419220291872647 -0.055860496161224876 0.14836511182141207 0.15541706402678679 0.19500712517916818 0.1369599237340057 0.16198381517176461 0.14276070747000175 0.14981165774242131 -0.10772651820070328 -0.11124198864295037
leaf_weight=55.537367396056652 1.5823430642485643 760.83333190530539 189.30255583673716 327.35303860902786 1744.6991464793682 302.95622503012419 12.522206366062163 28606.460928991437 18972.564869873226 9234.5742749720812 1632.5678218156099 474.20193773508072 3873.9365105479956 5985.9791965931654 3780.7014088630676 86.751959219574928 986.74943120032549 1000.5112266093493 2242.2030586972833 2087.5020642504096 470.38823200762272 680.76282843947411 4662.168794631958 221.61384436488152 22.690485611557961 340.02582108974457 116.11982367932796 8.448095038533209 283.52132976055145 442.88558426499367 11861.170656919479 52.937931656837463 3.2601770609617224 52.111560314893723 49.027924060821533 48.230426788330078 69.234550714492798 12.973935432732103 1.4174403585493554
leaf_count=282 14 4030 749 1370 2113 1345 23 63492 70216 27343 3910 2841 11827 25557 9995 396 4005 1176 4343 6575 2691 3870 9293 889 37 1325 372 12 1141 2051 5007 23 8 36 20 23 29 198 17
internal_value=0 0.061914 0.0433127 0.0661033 0.061705 -0.00102475 0.0904152 0.0653182 0.0494773 0.0739908 0.0445155 0.0508986 0.0560617 0.0332213 0.075338 -0.00785647 0.0594875 0.106985 0.0801577 0.0314162 -0.0610569 -0.044512 0.119159 -0.079959 0.0344085 -0.0667214 0.00808073 -0.0811861 0.0782765 -0.0841479 0.148062 0.0987145 -0.0573493 0.148357 0.148406 0.148351 0.148374 -0.108854 -0.108073
internal_weight=0 89606.5 16471.2 73135.3 61931.2 3372.91 11204.1 58558.3 20717.3 37841 2971.87 15355.2 14114.8 6460.18 7654.64 1240.34 2619.32 8232.24 2569.56 2390.46 1116.07 870.065 5662.68 982.447 194.348 352.548 171.657 921.722 370.273 913.274 12151.9 72.1718 19.2339 12079.8 12027.7 11978.6 11930.4 15.9737 14.3914
internal_count=268644 263269 61821 201448 176003 12839 25445 163164 72329 90835 9263 56376 50220 28398 21822 6156 7915 16182 5713 7920 5445 4619 10469 4919 691 1348 654 4754 1537 4742 5375 260 237 5115 5079 5059 5036 229 215
is_linear=0
shrinkage=0.1


Tree=10
num_leaves=42
num_cat=0
split_feature=115 30 73 106 133 54 114 109 33 34 100 71 130 36 129 74 36 0 0 115 108 82 14 4 102 2 114 32 52 104 77 79 125 22 131 52 44 69 32 48 78
split_gain=7670.98 658.672 1189.76 958.731 1036.58 904.867 1464.38 1120.9 766.218 632.989 498.094 554.668 345.237 308.387 258.86 243.471 209.293 203.576 184.767 147.406 140.867 130.947 122.73 121.618 108.803 177.433 108.075 45.4244 33.6553 52.7581 30.01 21.7642 15.5559 54.8885 22.1125 0.904697 0.613947 0.156084 0.0354139 0.00939072 0.00671894
threshold=-0.82540583610534657 1.0894511938095095 -0.84669652581214894 -0.95482915639877308 1.0000000180025095e-35 1.0738628506660464 -1.407624304294586 -1.1270009279251096 0.90030357241630565 0.82129436731338512 -0.89531004428863514 -0.50562056899070729 1.0000000180025095e-35 0.92253899574279796 1.0000000180025095e-35 -1.031972289085388 0.91270542144775402 0.44299830496311193 0.63109833002090465 -1.1485491991043089 -0.90212935209274281 -0.94024765491485585 0.9102129638195039 0.7550964653491975 -0.90723577141761769 0.57920104265213024 -0.91506040096282948 0.95375153422355663 1.0139157772064211 -0.92625990509986866 -1.2586712241172788 -1.2071765065193174 -0.29286044836044306 1.3741763234138491 1.0000000180025095e-35 0.82792550325393688 0.71641594171524059 0.025505882687866691 0.95513358712196361 0.78170907497406017 -1.3669498562812803
decision_type=2 2 2 2 2 2 2 2 2 2 2 2 2 2 2 2 2 2 2 2 2 2 2 2 2 2 2 2 2 2 2 2 2 2 2 2 2 2 2 2 2
left_child=1 2 10 4 8 7 -7 -5 -4 -6 11 12 -1 17 15 18 -13 -12 26 21 -21 -17 -15 -20 28 27 -3 -26 30 -30 -16 -27 33 34 38 36 37 39 40 -34 -2
right_child=32 14 3 5 9 6 -8 -9 -10 -11 13 16 -14 22 24 19 -18 -19 23 20 -22 -23 -24 -25 25 31 -28 -29 29 -31 -32 -33 35 -35 -36 -37 -38 -39 -40 -41 -42
leaf_value=0.020932252823333247 -0.10706553325415907 -0.090890886366306961 0.016360191996057896 0.1465662604429179 0.06911202163662597 -0.091740072366515782 0.043647546608581188 0.062041364116818598 0.17103157060716201 -0.055278677165610718 -0.099545511782783702 0.09967442182117342 0.080019755608953774 -0.011828615743621623 0.14395375155207202 -0.11787872220922851 0.25464717285376731 -0.015213882897173873 0.14132066822325415 0.097761091449992732 0.057552879789190742 0.067257118034254368 0.24833198380881691 -0.0050684767892660229 -0.12610465049175762 0.1110139458269718 0.032096211180045332 0.081051900037066374 0.19243380813648589 -0.14665986890393576 -0.13295173549528949 0.23715306130785066 0.14169659725721395 0.14760739721263935 0.17057786342355427 0.12827009795590036 0.15315934197892586 0.13584802963681283 -0.12487267106015476 0.14289730504311621 -0.1146858630296837
leaf_weight=8963.6650439053774 12.010739788413046 155.87728622555733 779.86438085138798 1613.8074090629816 515.54779858142138 887.48194231837988 8004.8267177119851 56393.60047391057 543.48589441180229 1981.1465549767017 352.15818881243467 309.16289842128754 1111.4529623389244 26.618318006396294 4.0986972600221625 62.583976730704308 121.35109899193048 1529.4743099063635 146.09612523019314 6083.569880053401 1016.9790201410651 98.073940455913544 56.882598988711834 92.801425963640213 44.499743692576885 27.479344598948956 131.91875077784061 13.888682402670382 9.4587311968207377 8.9107436239719373 86.776851952075958 27.236407220363617 11210.895761013031 50.300435900688171 3.4961044713854781 50.17812779545784 46.782415628433228 45.706760123372078 1.3371608294546593 65.517102479934692 1.2803997471928621
leaf_count=35175 200 983 3902 2697 1942 4567 24279 149440 915 9340 2015 934 3487 133 22 259 159 7422 328 10917 2209 241 62 377 199 50 680 37 15 44 419 20 5007 23 15 36 20 23 10 29 12
internal_value=0 0.0546723 0.0520352 0.0570571 0.00833167 0.0598394 0.0301354 0.0643929 0.0798821 -0.029593 0.0235568 0.0322004 0.0274506 -0.0226519 0.0820596 0.0850971 0.143357 -0.030997 0.0194464 0.0898591 0.0920023 -0.00486219 0.165398 0.0844548 -0.0243307 0.0444181 -0.0345166 -0.0768289 -0.095508 0.0279448 -0.120463 0.173803 0.141383 0.0938449 -0.0553616 0.141668 0.141727 0.14168 -0.10936 0.141704 -0.1078
internal_weight=0 91200.8 83190.5 70719.8 3820.04 66899.7 8892.31 58007.4 1323.35 2496.69 12470.8 10505.6 10075.1 1965.13 8010.25 7787.9 430.514 1881.63 526.694 7261.21 7100.55 160.658 83.5009 238.898 222.349 113.104 287.796 58.3884 109.245 18.3695 90.8755 54.7158 11487.5 68.4248 18.1244 11419.1 11368.9 11322.1 14.6283 11276.4 13.2911
internal_count=268644 263269 246469 197082 16099 180983 28846 152137 4817 11282 49387 39755 38662 9632 16800 15994 1093 9437 2368 13626 13126 500 195 705 806 306 1663 236 500 59 441 70 5375 260 237 5115 5079 5059 222 5036 212
is_linear=0
shrinkage=0.1


Tree=11
num_leaves=38
num_cat=0
split_feature=115 123 47 126 132 107 116 116 75 116 125 78 40 130 79 122 113 50 30 113 118 45 72 114 125 22 32 50 113 44 72 37 56 125 48 79 131
split_gain=7390.81 587.453 1285.14 751.338 1586.72 841.776 717.569 661.59 659.041 655.764 353.788 287.028 163.016 147.89 299.999 107.767 103.128 244.431 103.189 102.979 95.9466 35.5649 85.577 16.8665 13.9067 47.5806 18.8943 1.18021 0.504182 0.314174 0.167056 0.0859497 0.0765508 0.00892444 0.00807015 0.00453823 0.00269196
threshold=-0.82540583610534657 -2.2696745395660396 1.2203595638275149 -2.8040574789047237 1.0000000180025095e-35 -0.97571408748626698 -1.4810962677001951 -1.5218425989150999 -1.0865982770919798 -1.490424573421478 -2.5047658681869502 -0.36802166700363154 1.0434840917587282 1.0000000180025095e-35 -0.46388630568981165 -2.0926575660705562 -1.320082902908325 1.2100973725318911 0.78017282485961925 -1.1600202918052671 -1.5837939977645872 1.2079465985298159 -0.31372438371181482 -1.3869273066520689 -0.29286044836044306 1.3741763234138491 0.9557081162929536 0.85876554250717174 -1.320082902908325 0.71641594171524059 -0.5536205768585204 0.93353620171546947 0.98878514766693126 -2.776452779769897 0.78170907497406017 -1.3912271261215208 1.0000000180025095e-35
decision_type=2 2 2 2 2 2 2 2 2 2 2 2 2 2 2 2 2 2 2 2 2 2 2 2 2 2 2 2 2 2 2 2 2 2 2 2 2
left_child=1 11 3 5 8 7 21 -3 -5 -7 -6 28 15 14 -8 20 18 -18 -14 -15 -13 22 -4 -23 25 26 35 29 32 30 34 -30 -1 -34 -26 36 -2
right_child=24 2 6 4 10 9 13 -9 -10 -11 -12 12 16 19 -16 -17 17 -19 -20 -21 -22 23 -24 -25 27 -27 -28 -29 31 -31 -32 -33 33 -35 -36 -37 -38
leaf_value=-0.18460472231154196 -0.10635719420973222 -0.017036888764366938 -0.1424416601881193 0.034499039629027506 0.06187241989706993 -0.14079501600512831 -0.053905520233793726 0.15673326607520763 0.055060037157158286 0.06479272728062703 -0.038799046571446581 0.081540764470962424 0.0041481045327121362 -0.042531255954736676 0.054282274316439227 0.12401583308946135 -0.16981968532777625 0.12067752181586833 0.13310187149947497 0.13429382946192278 -0.17052414347084974 -0.12883227438644973 0.060605334781206638 0.051274634656376598 0.13619034420820303 0.14114139970552 0.15047922574024003 0.11967111695699435 -0.17224357592179029 0.14458992594171324 0.12995422110743657 -0.15482355353445695 -0.19968341542554138 -0.19424679305832609 0.13735718190616228 -0.11310113584631361 -0.11143759766169721
leaf_weight=9.1730166673660296 11.104230407625435 250.37292131781578 49.955786123871803 20789.138477891684 404.97618449479342 201.45896987617016 552.29751624166965 1754.0126387551427 62324.95043899864 674.95967017114162 2529.3394355997443 22.861676290631294 64.93118879199028 42.853289917111397 478.25609953701496 38.95043084025383 40.431354537606239 102.13148540258408 1399.9581418782473 142.30749815702438 44.484742313623428 571.72592411190271 35.512739047408104 5.2472417354583731 10539.43573141098 47.489122092723846 3.5953992307186118 43.338927671313286 8.2471216917037946 44.518166422843933 43.040753796696663 4.313892349600791 5.4961793869733793 6.7003602236509323 59.608758211135864 1.2758871242403991 1.1510874480009086
leaf_count=37 203 740 262 72292 1483 819 2630 2115 158330 1629 15435 33 134 172 1163 39 167 109 1321 311 170 3691 69 15 5010 23 8 33 34 21 23 20 22 27 28 13 13
internal_value=0 0.0484239 0.0473186 0.0490475 0.0473657 0.0992829 -0.0345413 0.135027 0.0499172 0.0175351 -0.024905 0.105851 0.111553 0.011086 -0.00369807 -0.00838307 0.119484 0.0382914 0.127386 0.0933697 -0.0849572 -0.118276 -0.0580743 -0.127194 0.135861 0.0896085 -0.0532832 0.13614 -0.18216 0.136207 0.136172 -0.166261 -0.191506 -0.196697 0.136197 -0.107425 -0.106834
internal_weight=0 92555 90807.4 88929.2 86048.4 2880.8 1878.16 2004.39 83114.1 876.419 2934.32 1747.68 1713.75 1215.71 1030.55 106.297 1607.45 142.563 1464.89 185.161 67.3464 662.442 85.4685 576.973 10794.6 64.6157 17.1266 10729.9 33.9306 10686.6 10642.1 12.561 21.3696 12.1965 10599 13.5312 12.2553
internal_count=268644 263269 261156 252843 247540 5303 8313 2855 230622 2448 16918 2113 1973 4276 3793 242 1731 276 1455 483 203 4037 331 3706 5375 260 237 5115 140 5082 5061 54 86 49 5038 229 216
is_linear=0
shrinkage=0.1


Tree=12
num_leaves=42
num_cat=0
split_feature=115 31 30 127 106 55 70 117 75 131 69 54 77 74 130 101 69 101 32 5 103 105 0 38 24 100 64 70 30 73 111 37 125 22 131 52 44 65 32 48 78
split_gain=7087.49 548.088 814.039 1034.96 933.952 1136.8 931.856 807.869 823.131 586.096 743.693 671.913 514.976 499.43 366.528 356.39 486.13 272.847 203.222 183.345 153.563 181.799 182.031 127.683 116.322 105.027 88.7148 77.9506 65.5551 94.4042 51.9855 33.2074 12.4744 41.4611 17.1333 1.4452 0.300159 0.17765 0.051508 0.00473009 0.00349404
threshold=-0.82540583610534657 1.0029463768005373 1.0957670807838442 -1.9137547612190244 -0.93942925333976735 1.0344694852828982 -0.4315993040800094 -1.0266548395156858 -1.0538585186004636 1.0000000180025095e-35 -0.12152956053614615 1.0312313437461855 -1.3089712858200071 -1.007004916667938 1.0000000180025095e-35 -0.83985456824302662 -0.1747951805591583 -0.82357677817344654 0.95936506986618053 0.74073109030723583 -0.95200258493423451 -0.91359445452690113 0.52832356095314037 0.94125550985336315 1.5430853366851809 -0.87615343928337086 0.37883797287940985 -0.24296832084655759 1.1061382889747622 -0.92530396580696095 -0.90783399343490589 0.9387369453907014 -0.29286044836044306 1.3741763234138491 1.0000000180025095e-35 0.82792550325393688 0.71641594171524059 0.29809884727001196 0.95626670122146618 0.78170907497406017 -1.3669498562812803
decision_type=2 2 2 2 2 2 2 2 2 2 2 2 2 2 2 2 2 2 2 2 2 2 2 2 2 2 2 2 2 2 2 2 2 2 2 2 2 2 2 2 2
left_child=1 2 3 4 6 -6 -1 8 -5 11 15 12 26 -9 17 16 -11 -13 -16 -14 28 24 -23 -17 -22 31 -3 -27 30 -30 -4 -12 33 34 38 36 37 39 40 -34 -2
right_child=32 9 20 7 5 -7 -8 13 -10 10 25 14 19 -15 18 23 -18 -19 -20 -21 21 22 -24 -25 -26 27 -28 -29 29 -31 -32 -33 35 -35 -36 -37 -38 -39 -40 -41 -42
leaf_value=0.14679356490473874 -0.1057182903832436 -0.11267875375657455 -0.08847267794094392 -0.088048508475201043 0.068688331816143922 0.02588906203922834 -6.9641748619812008e-05 0.0031138056173250529 0.0072260113404101897 -0.018470536391502129 0.11016210983393658 -0.039622433244140956 0.074431146217784933 0.037962567511558118 -0.061295695680886553 0.10715353804956079 0.061651720621922805 0.028208755902121352 0.083409765700423855 -0.058022742947886258 0.075361372264819704 -0.11358446991269436 0.070803896939306332 -0.11842767857474734 0.12839040246942499 0.07795877987372446 -0.0096694000594677761 0.15637151527806661 -0.05653835198663279 0.1028355621590079 0.21176248295171785 0.24999193054043201 0.13158090294616864 0.13570160250598823 0.13555361834257965 0.11381114841966909 0.14005781568513828 0.12493891407896481 -0.12836726727819311 0.13248896301797194 -0.11171564242504517
leaf_weight=469.17925022542477 10.10514337942004 131.03823168575764 74.053372591733932 1115.0377865508199 19630.956307254732 9074.8037817999721 5457.7425955533981 5237.7842610776424 4855.8234566599131 1988.4736207574606 23.56569167971611 954.68899664282799 16615.224969811738 19140.918388642371 106.78758293390274 27.463582009077072 1223.0196229293942 1565.2917619198561 1064.426999643445 105.16689781099558 610.49256310611963 55.887224897742271 1274.8301070854068 290.50952652096748 1282.9129269346595 635.90166799724102 230.98139971494675 158.34821997582912 58.061923533678055 103.27773360908031 6.2541798949241629 60.808657482266426 9846.846075296402 44.602289363741875 3.7549310624599448 45.907144650816917 41.732550859451294 40.368725135922432 1.1676627844572056 57.700246930122375 1.0747394338250185
leaf_count=1114 203 709 278 5008 44330 28107 23120 23601 15324 7672 42 3118 34021 58532 376 54 2822 3579 1965 397 1206 250 2208 1137 1606 1224 841 189 204 180 15 40 5007 23 15 36 20 23 7 29 12
internal_value=0 0.0430414 0.0384007 0.0358822 0.0476962 0.0551581 0.0115562 0.0224009 -0.0105662 0.0556555 0.0225369 0.0626832 0.0710432 0.0304753 0.0239938 0.00204324 0.0120421 0.00251106 0.070216 0.073598 0.0856222 0.0913849 0.06306 -0.0989441 0.111292 0.104861 -0.0469551 0.0935918 0.00873422 0.0454811 -0.065091 0.210938 0.13124 0.086045 -0.0514988 0.131513 0.131595 0.131559 -0.108382 0.131586 -0.106295
internal_weight=0 93629.7 68448 64982.2 34632.7 28705.8 5926.92 30349.6 5970.86 25181.7 4408.09 20773.6 17082.4 24378.7 3691.2 3529.47 3211.49 2519.98 1171.21 16720.4 3465.77 3224.12 1330.72 317.973 1893.41 878.624 362.02 794.25 241.647 161.34 80.3076 84.3743 10093.3 60.7048 16.1025 10032.6 9986.65 9944.92 12.3475 9904.55 11.1799
internal_count=268644 263269 205083 199136 96671 72437 24234 102465 20332 58186 13180 45006 35968 82133 9038 11685 10494 6697 2341 34418 5947 5270 2458 1191 2812 1495 1550 1413 677 384 293 82 5375 260 237 5115 5079 5059 222 5036 215
is_linear=0
shrinkage=0.1


Tree=13
num_leaves=43
num_cat=0
split_feature=115 77 49 116 106 69 114 107 33 39 81 130 117 45 121 117 51 58 45 11 117 43 115 46 124 65 110 44 42 47 51 45 32 5 125 64 33 28 63 54 64 41
split_gain=6765.47 538.309 944.315 583.747 513.701 481.215 817.285 694.34 295.965 251.633 227.686 335.993 190.861 169.394 134.246 255.922 253.699 123.622 116.368 96.0904 59.8784 234.815 62.7558 58.346 56.2312 36.8693 38.2907 30.1483 53.1811 23.9377 13.1789 29.2839 18.164 2.71426 1.91905 15.8921 7.02413 0.245189 0.244097 0.142449 0.00421634 8.75352e-06
threshold=-0.82540583610534657 -0.39291501045227045 1.2089086174964907 -1.4768616557121275 -0.79430839419364918 0.0066614341922104367 -1.1837577819824217 -0.97571408748626698 0.94095402956008922 1.0229998230934145 -0.42077092826366419 1.0000000180025095e-35 -1.5021873116493223 1.196272671222687 -1.8917582631111143 -1.5277696251869199 1.1950266361236574 0.9175974726676942 1.1808078289031985 1.0000000180025095e-35 -1.5376741886138914 1.1620947122573855 -1.4114913344383238 1.2314602136611941 -2.5516992807388301 0.49243116378784185 -1.218223989009857 1.1892263293266299 1.1360386013984682 1.2203595638275149 0.86790558695793163 1.038530230522156 0.9557081162929536 0.80527067184448253 -0.29286044836044306 0.016398453153669838 0.74463859200477611 1.0000000180025095e-35 0.41357885301113134 0.75184631347656261 0.33338703215122228 0.61438745260238659
decision_type=2 2 2 2 2 2 2 2 2 2 2 2 2 2 2 2 2 2 2 2 2 2 2 2 2 2 2 2 2 2 2 2 2 2 2 2 2 2 2 2 2 2
left_child=1 2 4 27 5 6 -1 -7 18 14 11 -5 -12 25 15 23 -17 -10 -6 -15 21 -16 -22 -3 -21 26 -11 28 -4 -29 34 -32 33 37 35 -2 -37 -33 39 40 -36 -38
right_child=30 9 3 10 8 7 -8 -9 17 13 12 -13 -14 19 20 16 -18 -19 -20 24 22 -23 -24 -25 -26 -27 -28 29 -30 -31 31 32 -34 -35 38 36 41 -39 -40 -41 -42 -43
leaf_value=0.0072944726795732958 0.1306423534501322 0.098099390708825535 -0.084518333366033135 -0.057729027184795917 -0.06804479988892885 0.12551807538754203 0.041516640975368231 0.026630063409255098 0.036742469225484402 -0.12268391453772685 0.0094840138710982486 0.074277192965638505 0.14484698054793457 0.26585068857985006 0.1172055429683137 -0.1866055066199388 0.11617645484479305 -0.052696092565857014 0.14189794803223882 0.20368572714537758 0.13211369300795181 -0.14364547968494204 0.030530210315417961 -0.090673333440189033 -0.10531367875553276 0.16495187942863992 0.14654998946826592 0.11318151198557652 0.22168209951572312 -0.12668200397672275 0.12276710702055704 -0.1569678158224671 0.1239655681574498 -0.26505513840562794 0.12768935108735557 0.12720427812832216 -0.10573435151704431 -0.10646713443704477 0.11971720066687253 0.13377036358418551 0.12835541132230979 -0.10540634969679555
leaf_weight=7664.9906859174371 40.077362604439259 476.78537431359291 132.03179505467415 709.57485992461443 748.01432687044144 1547.7692915052176 77911.278348237276 1311.8645728677511 865.2945524379611 11.025003030896187 251.48170971870422 264.75915415585041 177.81585387885571 7.9182891696691504 193.65312892198563 73.378222212195396 44.428411021828651 188.14362101256847 27.367635749280453 6.1540659219026557 1047.3019796609879 41.99287149310112 64.563608601689339 16.955413848161697 136.87789056450129 47.590953677892685 10.141591370105743 4.198120340704917 5.9267374351620665 465.32850507646799 32.361512966454029 1.1520329564809779 3.7448530793189994 1.4537321925163267 9134.580261349678 1.8126624822616566 1.0597467944025991 5.8101128824055195 38.254637867212296 38.771924257278442 96.039712429046631 3.5035050250589848
leaf_count=31811 28 532 552 3331 4186 2227 206018 3408 2857 37 658 683 300 9 189 303 43 822 80 9 910 168 139 49 794 24 5 11 11 3103 27 5 8 7 4989 1 21 121 24 20 52 72
internal_value=0 0.038365 0.037205 -0.0305677 0.038715 0.0397998 0.0384514 0.0801529 -0.0137446 0.0874946 0.00487567 -0.0218585 0.0655516 -0.0139852 0.0988755 0.0600178 -0.0724174 0.0207688 -0.0606347 -0.0732462 0.11651 0.0707211 0.126215 0.0916168 -0.0920187 0.116116 0.00631465 -0.112462 -0.0713639 -0.124537 0.127329 0.0730517 -0.0592485 -0.140774 0.127588 0.107313 -0.03933 -0.114824 0.127689 0.127722 0.127696 -0.105483
internal_weight=0 94454.6 92275.8 2011.12 90264.7 88435.9 85576.3 2859.63 1828.82 2178.77 1403.63 974.334 429.298 219.708 1959.06 611.547 117.807 1053.44 775.382 150.95 1347.51 235.646 1111.87 493.741 143.032 68.7575 21.1666 607.485 137.959 469.527 9398.62 44.5222 12.1607 8.41588 9354.1 46.4533 6.37591 6.96215 9307.65 9269.39 9230.62 4.56325
internal_count=268644 263269 260058 8649 251409 243464 237829 5635 7945 3211 4972 4014 958 878 2333 927 346 3679 4266 812 1406 357 1049 581 803 66 42 3677 563 3114 5375 168 141 133 5207 122 94 126 5085 5061 5041 93
is_linear=0
shrinkage=0.1


Tree=14
num_leaves=45
num_cat=0
split_feature=115 30 73 106 133 30 6 0 33 33 29 97 73 30 73 54 115 129 73 34 30 97 50 101 19 79 32 47 106 54 54 45 38 6 125 16 19 118 113 72 44 75 51 37
split_gain=6434.31 473.814 781.97 620.823 912.447 563.583 1119.53 478.948 405.442 391.061 370.836 343.524 459.051 257.421 203.52 197.722 120.429 118.779 94.2364 90.626 64.2679 59.3638 60.5246 96.1227 47.0529 42.2365 37.141 40.6082 31.4063 28.9775 13.5302 26.6262 23.9084 12.2328 1.7709 12.4998 10.2207 1.26646 0.664065 0.208974 0.0876929 0.0306006 0.00830521 0.000330768
threshold=-0.82540583610534657 1.0894511938095095 -0.85544738173484791 -0.96167212724685658 1.0000000180025095e-35 1.067013204097748 0.66293835639953624 0.48812319338321691 0.90252223610878002 0.85518357157707225 1.2417126297950747 -0.98127764463424672 -0.90375858545303334 1.0768870711326601 -0.93978860974311818 0.97513520717620861 -1.1485491991043089 1.0000000180025095e-35 -0.93593293428421009 0.80092692375183117 1.0939146280288699 -1.0137146115303037 0.90257585048675548 -0.98662313818931568 1.3112019300460818 -1.1520625948905943 0.88437145948410045 0.93216258287429821 -0.92884305119514454 0.85474562644958507 0.78492555022239696 0.8513888716697694 0.94232559204101574 0.808038890361786 -0.29286044836044306 1.4252674579620364 1.4095054268836977 1.0000000180025095e-35 -0.93996417522430409 -0.5536205768585204 0.71641594171524059 -1.2062175273895261 0.82162082195281994 0.64795404672622692
decision_type=2 2 2 2 2 2 2 2 2 2 2 2 2 2 2 2 2 2 2 2 2 2 2 2 2 2 2 2 2 2 2 2 2 2 2 2 2 2 2 2 2 2 2 2
left_child=1 2 10 4 8 6 -5 -7 -4 -6 11 12 -1 -13 21 16 19 -18 38 -16 24 22 23 -3 -17 -20 33 -28 -22 -24 34 -32 37 -23 35 36 43 41 -12 40 42 -33 -36 -2
right_child=30 14 3 5 9 7 -8 -9 -10 -11 18 13 -14 -15 15 20 17 -19 25 -21 28 26 29 -25 -26 -27 27 -29 -30 -31 31 32 -34 -35 39 -37 -38 -39 -40 -41 -42 -43 -44 -45
leaf_value=-0.017605869673668739 -0.1069950842661513 -0.16335201950024328 0.011310160660083463 0.035879971878336449 0.023626541546067002 0.044176702483074627 -0.043119631942857672 0.087697355838722235 0.14332201890610174 -0.081077032995971313 -0.12246419383160481 -0.029551748739924173 0.047390259341637916 0.014671140103454886 0.047717119224983486 0.056460687229355322 0.066562038346720254 -0.016075792216667575 0.022172823283588737 -0.10247033727307138 -0.0085002765953787144 -0.077970764775320361 -0.1396583637696418 0.14448621251789967 -0.058842534313093497 0.11912327885445734 0.28408983688122541 -0.11937128056910712 -0.13930917941666657 -0.015093841151349872 0.13108053773055248 -0.10598770760418096 0.10471756275329708 -0.16252001873437741 0.12437026117287792 0.12965283975498762 0.12389976149618159 -0.18896101366790111 -0.16426705340051845 0.11666930815079411 0.12945369745574134 -0.12123446448326743 0.12584044865865798 -0.10489309119558615
leaf_weight=1730.2633283361793 0.93941130116581817 12.694903478026388 537.17188486456871 59438.488905787468 489.38482347130775 8513.4432535395026 1849.6685495749116 3597.1392363533378 410.39038640260696 1315.8348362892866 10.293736249208452 3611.614045381546 2921.2331372201443 2071.1217216849327 85.70253399014473 87.057302907109261 7400.6445902213454 178.11961753666401 51.291555747389793 75.636449635028839 26.479229405522346 30.080060690641403 22.572740368545055 50.466553062200546 59.636123299598694 362.60876048356295 4.9359919130802137 5.0437769666314125 59.818541500717402 108.16870532929897 25.043868973851204 3.3519932515919182 6.987872999161481 39.693653911352158 8528.9386727809906 35.276110887527466 3.3570997714996338 3.4866287410259247 6.0240066051483145 35.136451601982117 34.159388303756714 2.1675987280905256 38.598141670227051 3.6859980151057243
leaf_count=8446 17 56 2618 158793 1828 19386 7817 7175 610 6540 81 16709 9434 6477 194 217 13668 578 114 288 72 145 126 71 202 414 3 46 381 569 14 78 35 184 5021 20 2 15 27 23 19 26 22 83
internal_value=0 0.0342497 0.0320762 0.0356424 -0.0109809 0.037391 0.0334958 0.0571034 0.0684847 -0.0526925 0.00684788 0.00306084 0.023213 -0.0134343 0.0571573 0.0600677 0.0627999 0.0646198 0.0978161 -0.0226914 -0.0306972 -0.0276382 0.0022322 0.0826134 0.0095858 0.107109 -0.100261 0.0801805 -0.0991723 -0.0366001 0.123994 0.0667095 -0.0340839 -0.12607 0.124265 0.104082 -0.00892003 -0.141779 -0.137897 0.124366 0.124397 -0.111975 0.124377 -0.10532
internal_weight=0 95162.7 86916 76151.5 2752.78 73398.7 61288.2 12110.6 947.562 1805.22 10764.5 10334.2 4651.5 5682.74 8246.75 7973.09 7740.1 7578.76 430.218 161.339 232.991 273.656 193.903 63.1615 146.693 413.9 79.7535 9.97977 86.2978 130.741 8721.13 41.038 15.9941 69.7737 8680.09 43.2586 7.98251 9.00622 16.3177 8636.83 8601.7 5.51959 8567.54 4.62541
internal_count=268644 263269 246469 204767 11596 193171 166610 26561 3228 8368 41702 41066 17880 23186 16800 15600 14728 14246 636 482 872 1200 822 127 419 528 378 49 453 695 5375 168 154 329 5207 122 102 119 108 5085 5062 104 5043 100
is_linear=0
shrinkage=0.1


Tree=15
num_leaves=45
num_cat=0
split_feature=115 77 54 130 42 132 107 109 115 68 122 68 80 40 29 79 71 121 117 51 119 70 45 106 119 78 2 78 54 54 45 38 112 125 19 19 48 80 72 126 101 44 51 37
split_gain=6094.61 467.732 773.448 859.101 688.737 683.125 588.399 540.113 502.418 570.136 338.406 332.058 280.562 214.023 183.348 142.283 119.473 114.718 213.198 211.531 93.6993 64.6114 83.0455 59.587 62.7353 57.9266 47.142 45.9088 33.4067 12.9501 23.4987 20.3105 9.68698 1.57846 10.9255 9.09883 0.8592 0.676129 0.223576 0.212894 0.139646 0.0630405 0.00573014 0.000243707
threshold=-0.82540583610534657 -0.39291501045227045 1.0771153569221499 1.0000000180025095e-35 1.1121386885643008 1.0000000180025095e-35 -1.0140892863273618 -1.1270009279251096 -1.4582766294479368 0.1483944579958916 -2.0487506389617915 0.1157243959605694 -1.2076433300971983 1.0619508028030398 1.0585642457008364 -0.85043424367904652 -0.19033936411142346 -1.8917582631111143 -1.5277696251869199 1.1950266361236574 -1.6331966519355772 -0.11822732165455817 1.1753372550010683 -0.8241523504257201 -1.6589291691780088 -0.3393364399671554 -0.24516793340444562 -0.36802166700363154 1.0819699764251711 0.78492555022239696 0.8513888716697694 0.94232559204101574 -1.2767349481582639 -0.29286044836044306 1.4383797049522402 1.4095054268836977 1.2278952002525332 -0.37949283421039576 -0.5536205768585204 -3.1458044052124019 -0.95829015970230091 0.71641594171524059 0.82162082195281994 0.64795404672622692
decision_type=2 2 2 2 2 2 2 2 2 2 2 2 2 2 2 2 2 2 2 2 2 2 2 2 2 2 2 2 2 2 2 2 2 2 2 2 2 2 2 2 2 2 2 2
left_child=1 2 4 8 5 6 -1 -7 28 -10 37 -12 14 17 -5 -14 20 18 25 -20 27 22 -19 24 -18 -3 -23 -15 -4 33 -31 36 -22 34 35 43 40 -6 41 -25 -32 42 -35 -2
right_child=29 13 3 12 10 7 -8 -9 9 -11 11 -13 15 16 -16 -17 23 21 19 -21 32 26 -24 39 -26 -27 -28 -29 -30 30 31 -33 -34 38 -36 -37 -38 -39 -40 -41 -42 -43 -44 -45
leaf_value=-0.057844690536911471 -0.10629716969822199 -0.082427958321918876 -0.055587491319111552 0.085228526738000451 -0.15922492334501784 0.064860385660924155 0.032912031874827018 -0.042193335069383525 -0.039542140645693287 0.02726725253430955 0.01353956099891244 0.099651075119598531 0.11554294837423043 0.059047009744362645 -0.055793641337879764 -0.11132144617638746 0.018544820195866837 0.12976127255582115 -0.1749940698566668 0.10483262713289916 0.048222561697687273 0.13759696780568281 -0.17812481065025626 -0.17850002170667578 0.19125216324398187 0.088335669289105578 0.095782744694024147 -0.12366475623202247 -0.12801972947901955 0.12687354424558134 -0.14594556502659062 0.093026148913473189 0.17890280548424381 0.12152024500542812 0.12627876269385202 0.12105456118746064 -0.18734064991323374 -0.18600232895143948 0.11325819837429979 -0.14815402117394219 -0.10871288831669564 0.125993371342175 0.12278917895264206 -0.10440591844031795
leaf_weight=720.77066411077976 0.8553103469312181 20.73908244073391 75.500784061849117 158.73023967444897 12.631650507450102 604.3484763354063 80258.086921516806 2140.4372157007456 2882.234215579927 2293.9460065662861 550.58257270604372 2398.987919524312 783.84822063148022 15.708795569837092 219.93945406377316 28.655888006091118 42.700656548142433 17.027882695198059 71.981799572706223 43.243535667657852 10.450914494693281 393.97716747224331 18.044122636318207 4.7497431337833405 41.447902679443359 471.30360645055771 854.23269662261009 110.39178387820721 406.53074815869331 23.37299408018589 1.278660684823987 7.0744931474328032 12.406004205346106 7888.9199779033661 32.734748721122742 3.0980544090270996 2.4022966176271439 37.198347866535187 32.700937852263451 4.5042053163051587 4.7474439106881627 31.713501930236816 35.747907996177673 3.3499973528087139
leaf_count=3422 17 57 281 427 55 2207 211591 12489 11862 6520 1671 3956 1605 35 878 124 183 35 303 42 29 262 83 20 46 530 920 632 2817 14 6 35 13 5021 20 2 11 153 23 21 102 19 22 83
internal_value=0 0.0306284 0.0295729 -0.00277773 0.032128 0.0304412 0.0321042 -0.0186222 -0.0190274 -0.00993399 0.0792112 0.083577 0.07441 0.0769324 0.00331984 0.107542 -0.01154 0.0882741 0.0524651 -0.0699764 -0.0671371 0.105219 -0.0286424 0.0771257 0.103613 0.0811382 0.108981 -0.100904 -0.116675 0.121132 0.063555 -0.0319075 0.119152 0.121411 0.101605 -0.00898805 -0.136772 -0.179214 0.12151 -0.16373 -0.116613 0.121544 0.121526 -0.104791
internal_weight=0 95705.3 93572.4 6849.39 86723 83723.6 80978.9 2744.79 5658.21 5176.18 2999.4 2949.57 1191.17 2132.91 378.67 812.504 242.36 1890.55 607.268 115.225 148.957 1283.28 35.072 93.4025 84.1486 492.043 1248.21 126.101 482.032 8068 38.8759 15.5029 22.8569 8029.12 40.0381 7.30336 8.4284 49.83 7989.08 9.25395 6.0261 7956.38 7924.67 4.20531
internal_count=268644 263269 260058 24514 235544 229709 215013 14696 21480 18382 5835 5627 3034 3211 1305 1729 979 2232 932 345 709 1300 118 270 229 587 1182 667 3098 5375 168 154 42 5207 122 102 119 208 5085 41 108 5062 5043 100
is_linear=0
shrinkage=0.1


Tree=16
num_leaves=44
num_cat=0
split_feature=115 106 33 30 51 74 115 77 58 36 81 69 62 95 36 28 131 128 34 82 41 107 102 36 100 0 59 95 54 45 31 125 19 19 62 116 72 75 29 32 44 51 37
split_gain=5750.87 408.333 413.793 548.98 1173.08 703.892 627.477 514.372 432.99 452.977 655.985 403.952 434.841 386.663 358.245 354.606 234.391 153.005 147.949 154.527 105.111 79.6551 82.5136 78.7522 125.771 76.8947 43.6836 24.1349 12.4145 20.9459 14.0689 1.41157 9.57526 8.12759 0.745631 0.463335 0.240877 0.188476 0.0752578 0.053223 0.045564 0.00398797 0.000179689
threshold=-0.82540583610534657 -0.78757923841476429 0.93156760931015026 1.067013204097748 1.0501007437705996 -1.0151139497756956 -0.96131294965744007 -0.39291501045227045 0.88369238376617443 0.9498051404953004 -1.2519543170928953 -0.097357373684644685 0.59521844983100902 -1.0341861844062803 0.93085289001464855 1.1839511394500735 1.0000000180025095e-35 1.0000000180025095e-35 0.93667316436767589 -1.4225184321403501 1.1053421497344973 -0.86675819754600514 -0.76313337683677662 0.9489538073539735 -0.8052377700805663 0.37319283187389379 0.86465010046958934 -0.9640190303325652 0.78492555022239696 1.038530230522156 0.99908435344696056 -0.29286044836044306 1.4383797049522402 1.4095054268836977 1.0000000180025095e-35 -0.90659767389297474 -0.5536205768585204 -1.1746966838836668 -1.0000000180025095e-35 0.96438738703727733 0.71641594171524059 0.82162082195281994 0.64795404672622692
decision_type=2 2 2 2 2 2 2 2 2 2 2 2 2 2 2 2 2 2 2 2 2 2 2 2 2 2 2 2 2 2 2 2 2 2 2 2 2 2 2 2 2 2 2
left_child=1 2 3 4 15 13 -7 -6 11 10 -10 12 -4 -5 -13 -1 -11 18 21 27 -21 -3 -23 35 25 -25 -26 -20 31 -30 34 32 33 42 -31 39 40 -37 -36 -19 41 -33 -2
right_child=28 17 8 5 7 6 -8 -9 9 16 -12 14 -14 -15 -16 -17 -18 23 19 20 -22 22 -24 24 26 -27 -28 -29 29 30 -32 36 -34 -35 38 37 -38 -39 -40 -41 -42 -43 -44
leaf_value=-0.098032527066214292 -0.10567190227627919 0.11609209139041279 0.050569009534477884 0.012706070989274924 0.020152687944866216 0.030785741149750995 0.064997043894477469 0.071618814617856186 -0.053578972204258446 0.033697285803671199 0.05509653721075685 -0.00021277832439372017 -0.012431722635307053 -0.064033210222615974 0.072642573826098483 -0.020297547752212972 0.14139720540171868 -0.12752571393948986 0.067144127271139137 -0.029280615479933422 0.2109068441885667 -0.018351628307165756 -0.12588291627061576 -0.063294242758409211 -0.044625744380278776 0.21878524574627939 -0.13485543785996773 0.20840022306017356 0.11116060144989715 -0.19163816724127536 0.10951222924946798 0.11905776816684713 0.12335154116323749 0.11865405239610233 -0.13635772746634578 -0.11068897228752683 0.11015567244141625 -0.12086797913409913 -0.10811658492539114 -0.1344923339413637 0.12301037829589952 0.12015927616874084 -0.10396917201000935
leaf_weight=718.64216633141041 0.77826234698295538 31.851494342088699 3255.8975854665041 3648.9062676206231 39210.176011271775 16093.270272187889 8039.2961358726025 2043.1234316602349 1524.4492579400539 5753.402047149837 873.80046212673187 744.45251791924238 1651.1642012819648 800.66887667030096 7226.9930454939604 3199.4606531336904 209.42931941151619 69.278686530888081 14.989104405045508 123.2041040211916 21.382127150893211 249.58456438407302 99.932457536458969 14.956558495759962 237.05700626969337 27.309480533003807 69.353822231292725 62.661545261740685 25.397427037358284 1.5175167061388473 3.6499228775501251 7278.1975698471069 30.286151051521301 2.8570176362991333 1.1616638153791408 23.323469564318657 30.379563391208649 82.655964016914368 5.0266586318612116 13.028445675969122 29.355386734008789 33.017366647720337 3.0432866774499416
leaf_count=3582 17 27 6309 12971 118135 39594 15701 3112 5546 14371 1912 1944 4328 3798 12187 14184 318 418 40 496 35 1251 547 70 951 53 372 80 26 7 11 5021 20 2 6 280 23 588 118 69 19 22 83
internal_value=0 0.0274257 0.0281399 0.024598 0.0177352 0.0354441 0.0421826 0.0227016 0.0404387 0.0227186 -0.0139831 0.0519431 0.0293701 -0.00110261 0.0658386 -0.0345554 0.03748 -0.0320521 0.00249317 0.0673482 0.00623949 -0.0353001 -0.0490965 -0.0708847 -0.0427425 0.118967 -0.0650486 0.181133 0.118656 0.0606811 -0.0522175 0.118944 0.0994514 -0.00893182 -0.128822 -0.122999 0.119042 -0.118628 -0.113418 -0.128628 0.119079 0.119063 -0.104316
internal_weight=0 96133.7 94993.1 73753.5 45171.4 28582.1 24132.6 41253.3 21239.6 8361.08 2398.25 12878.5 4907.06 4449.58 7971.45 3918.1 5962.83 1140.57 603.605 222.237 144.586 381.369 349.517 536.963 348.677 42.266 306.411 77.6506 7444.67 36.7532 11.3558 7407.91 36.9647 6.67857 7.70584 188.287 7370.95 105.979 6.18832 82.3071 7340.57 7311.21 3.82155
internal_count=268644 263269 257992 211077 139013 72064 55295 121247 46915 22147 7458 24768 10637 16769 14131 17766 14689 5277 2476 651 531 1825 1798 2801 1446 123 1323 120 5375 168 142 5207 122 102 131 1355 5085 868 124 487 5062 5043 100
is_linear=0
shrinkage=0.1


Tree=17
num_leaves=48
num_cat=0
split_feature=115 76 115 110 114 75 116 32 123 54 74 98 58 31 74 75 73 32 130 131 32 75 30 76 122 136 76 82 23 78 69 52 3 110 43 126 0 125 16 33 14 72 44 8 69 48 37
split_gain=5404.76 391.094 992.19 472.608 469.855 1040.59 1015.43 533.31 518.082 506.924 370.731 811.899 440.933 367.889 340.72 325.364 274.612 262.56 231.619 288.102 224.59 201.246 198.339 149.808 220.882 136.138 130.356 127.645 109.26 71.3224 124.593 13.0191 19.9535 10.8466 8.53559 2.91316 10.3461 1.26628 8.42986 7.26244 0.35953 0.261036 0.0623983 0.0219031 0.0106717 0.0011264 0.000132562
threshold=-0.82540583610534657 -1.1689905524253843 -0.96978011727333058 -0.91045057773590077 -0.97261974215507496 -1.0585498809814451 -1.0106950998306272 0.94301471114158641 -2.1626077890396114 1.0424995422363283 -1.0005854964256284 -0.97379031777381886 0.86184427142143261 1.0036271214485171 -0.98268723487853993 -1.1426901817321775 -0.9299451708793639 0.97028893232345592 1.0000000180025095e-35 1.0000000180025095e-35 0.96700647473335277 -1.0852854847908018 1.0804588198661806 -1.1832788586616514 -1.2744484543800352 1.0000000180025095e-35 -1.1514964699745176 -1.2519385218620298 1.3077009320259096 -1.2745949029922483 -0.1501388996839523 0.84249156713485729 0.59066465497016918 -0.91142079234123219 1.0000000180025095e-35 1.0000000180025095e-35 0.48973825573921209 -0.29286044836044306 1.4252674579620364 0.72750085592269909 1.3810726404190066 -0.5536205768585204 0.71641594171524059 0.69275829195976268 -0.14625364542007444 0.78170907497406017 0.64795404672622692
decision_type=2 2 2 2 2 2 2 2 2 2 2 2 2 2 2 2 2 2 2 2 2 2 2 2 2 2 2 2 2 2 2 2 2 2 2 2 2 2 2 2 2 2 2 2 2 2 2
left_child=1 2 3 29 5 6 26 8 -7 -9 11 16 21 18 -8 28 -6 -17 19 -4 -14 -12 -13 24 -5 -25 -3 -20 -15 33 -31 37 34 -1 -33 36 -34 38 39 -2 43 42 45 -36 -38 -39 -41
right_child=31 4 13 23 10 7 14 9 -10 -11 12 22 20 15 -16 17 -18 -19 27 -21 -22 -23 -24 25 -26 -27 -28 -29 -30 30 -32 32 35 -35 40 -37 44 41 -40 46 -42 -43 -44 -45 -46 -47 -48
leaf_value=-0.14816704242190024 0.11653298524349449 -0.11393038894267336 -0.0040215089526251238 0.24779502566373132 -0.004038067088667995 0.048478751062747308 -0.032734986466974696 0.049204069080653529 0.011677625125322937 0.022545662767133906 0.026146497522255785 -0.085905015084132508 -0.018581090114653278 0.020261266012695307 0.028526926885046502 0.041784407705736604 0.070965318291247872 0.13994991231458229 0.037593505024739911 0.041627784657960742 0.068310502878709364 0.076330221102769269 -0.010352467992724962 0.015865603131373227 -0.089526661899097193 -0.11463567057817169 -0.057617287246102648 0.35020447962696022 -0.040544597499783265 -0.10295479782937354 0.024070682243787042 0.12307634914701909 0.13802756358490129 -0.099686939695745491 -0.10878361607542691 0.12021345939715658 -0.10622663017088688 0.11691785961817136 0.12080356464412959 -0.10511112757400685 -0.16090753690690629 0.10729725796776568 0.12155357868160277 -0.12582768229624305 -0.12003846270475636 0.11741358982303074 -0.10357729356871258
leaf_weight=287.28609682619572 2.6251238584518424 639.31078615039587 8597.4473719708622 20.630334854125977 622.79764322191477 4677.2892833948135 1262.3083148822188 17142.880448594689 21003.089856244624 12216.050432056189 928.70803785324097 500.23299335688353 981.93429110944271 576.02275612950325 3233.1376317739487 6282.845230024308 2257.9790209420025 284.81707359105349 2123.2418768703938 1647.4671346992254 426.73890849947929 5725.9131857827306 1137.752741612494 1012.6689680889249 328.72442069649696 86.788264155387878 1151.3935258761048 13.142428398132322 606.8147909194231 486.11774119734764 91.798513546586037 1.6424834728240947 4.4617975391447571 54.981847122311592 3.0213532168418169 17.813018187880516 1.8949031103402405 6683.6418828964233 27.95668363571167 0.70776613429188762 2.5706733390688896 28.183324992656708 29.204928755760193 1.0047032982110975 0.79374000057577809 46.1519695520401 2.7635668963193893
leaf_count=1426 2 3033 31079 8 1989 9561 4828 32266 71790 29074 2288 2563 3035 1813 8293 14334 3817 382 7015 6068 823 9902 3228 2782 1437 337 4247 6 3076 2292 251 1 5 226 67 12 47 5009 20 17 12 23 20 10 13 34 83
internal_value=0 0.0246004 0.0130571 -0.0481578 0.0281147 0.0245031 -0.0140415 0.0289054 0.0183804 0.0381117 0.0457175 0.0227877 0.0585676 0.0202606 0.0113248 0.0373464 0.0547503 0.0460415 0.0095651 0.00331928 0.00774157 0.0693267 -0.0334259 -0.012562 -0.0696069 0.00556418 -0.077722 0.0395166 -0.0109331 -0.104203 -0.0827776 0.116501 0.0540337 -0.140379 -0.0809037 0.09857 0.0446521 0.116805 0.0975694 -0.00897626 -0.131692 0.116901 0.116941 -0.113037 -0.110304 0.116921 -0.10389
internal_weight=0 96408.3 22500.8 2369 73907.5 61325.5 6286.15 55039.3 25680.4 29358.9 12582.1 4518.76 8063.29 20131.8 4495.45 7750.5 2880.78 6567.66 12381.3 10244.9 1408.67 6654.62 1637.99 1448.81 349.355 1099.46 1790.7 2136.38 1182.84 920.184 577.916 6854.44 33.2027 342.268 8.23921 24.9635 7.15044 6821.24 34.0531 6.09646 6.59673 6787.18 6759 4.02606 2.68864 6729.79 3.47133
internal_count=268644 263269 72532 8759 190737 163092 20401 142691 81351 61340 27645 11597 16048 63773 13121 19605 5806 14716 44168 37147 3858 12190 5791 4564 1445 3119 7280 7021 4889 4195 2543 5375 167 1652 90 77 65 5208 122 102 89 5086 5063 77 60 5043 100
is_linear=0
shrinkage=0.1


Tree=18
num_leaves=45
num_cat=0
split_feature=115 30 72 82 0 105 56 116 74 106 133 110 127 33 47 51 107 16 103 24 104 72 114 14 71 119 52 3 43 74 44 3 125 36 19 74 72 6 33 23 44 56 48 37
split_gain=5062.01 364.497 546.573 529.914 774.885 488.315 483.059 641.33 899.209 503.735 501.104 426.166 398.98 306.576 298.109 175.279 140.72 174.77 148.337 134.105 122.052 102.728 96.1765 62.6871 37.6799 34.1406 12.5823 16.9831 7.50513 2.95117 2.6975 13.7892 1.13793 7.43678 6.50522 0.80058 0.283565 0.243478 0.0920204 0.087506 0.0453315 0.0441471 0.000844692 9.78474e-05
threshold=-0.82540583610534657 1.0907777547836306 -0.6483844220638274 -0.89143621921539296 0.42320619523525244 -0.93138951063156117 0.98653948307037365 -1.5011709928512571 -0.47037976980209345 -0.96314316987991322 1.0000000180025095e-35 -1.1903560757637022 -2.0206627845764156 0.85042551159858715 1.2128615975379946 1.0611780881881716 -0.89894741773605336 1.3777782917022707 -0.94615033268928517 1.5120684504508974 -0.93293845653533924 -0.73712861537933339 -1.0769289731979368 0.92880982160568248 -0.55979579687118519 -0.92953133583068837 0.8550468683242799 0.59066465497016918 1.0000000180025095e-35 -0.98188310861587513 0.84016990661621105 0.59471338987350475 -0.29286044836044306 0.58803758025169384 1.4095054268836977 -1.0273397564887998 -0.5536205768585204 1.1000426411628725 0.88732275366783153 1.2558369636535647 0.71641594171524059 0.94479942321777355 0.78170907497406017 0.64795404672622692
decision_type=2 2 2 2 2 2 2 2 2 2 2 2 2 2 2 2 2 2 2 2 2 2 2 2 2 2 2 2 2 2 2 2 2 2 2 2 2 2 2 2 2 2 2 2
left_child=1 2 3 4 12 -6 9 14 -9 10 -4 -11 -1 20 -8 16 18 21 22 -20 -5 -18 -3 -17 -15 -19 32 28 -28 35 -29 -32 33 -2 43 -25 40 41 -31 -33 42 -30 -34 -35
right_child=26 15 6 13 5 -7 7 8 -10 11 -12 -13 -14 24 -16 23 17 25 19 -21 -22 -23 -24 29 -26 -27 27 30 37 38 31 39 36 34 -36 -37 -38 -39 -40 -41 -42 -43 -44 -45
leaf_value=0.030200268121792363 0.11856946894853089 -0.11211867200238135 0.053926682267826868 -0.034195922071853027 -0.052321167771992874 0.016845384002424298 -0.0033235721305131718 -0.00053003691573742958 0.06202633566696425 0.092225513672700835 -0.06268752649140226 0.030887084847212556 -0.050521324437501125 0.078948679697984886 -0.12108830629120902 0.19206379392925596 -0.00038746882200915364 -0.058963254160119716 0.037745759036855925 0.068022361027879605 0.17042156096304337 0.079028020954349507 0.015141209317522032 -0.11379081300844796 -0.099884294349483788 -0.17184247955395335 0.1204040091234706 0.11998354615578932 -0.12840105420597661 -0.16534833647309902 0.15484993700883104 -0.14391146971402929 0.11505112206023732 -0.10460772791975975 0.11471365703241343 -0.14156762408353124 0.10463046262394976 -0.15779126617846292 -0.18015871687497709 -0.10707076015123369 0.11916614108277362 -0.10707970256238473 0.11549241328609744 -0.10322534929513008
leaf_weight=764.23655636608601 25.748425960540775 69.320702746510506 553.57149253040552 31.835905238986015 1067.3441787958145 23368.82185492292 362.89188054949045 9384.3848982602358 3042.9015740603209 1162.4015577286482 1102.131478741765 44324.090001672506 3080.1138142384589 14.532576516270636 527.28066826611757 6.0577676445245734 527.81405393779278 56.990978382527828 2643.8313292600214 3275.3435434028506 345.70404764264822 235.5871924161911 414.38629577308893 18.121792897582054 62.246773406863213 50.569865867495537 1.5174586772918726 14.293802976608278 1.5073240548372266 5.8839694112539318 4.6687388420104972 0.92237132415175471 6140.6794791221619 0.64333789795637075 2.4109364748001099 24.27665188908577 26.118063978850842 1.8943093270063398 14.616689592599867 2.1419646646827459 26.927813172340393 2.7299149688333273 43.684419989585876 2.5086697787046432
leaf_count=2087 20 253 2074 142 4637 72688 860 31167 4887 1916 5562 106516 11441 44 3568 9 1618 162 5463 5146 679 330 1087 188 322 214 1 10 9 25 2 6 5009 17 2 124 23 9 60 58 20 71 35 83
internal_value=0 0.0220979 0.0203349 0.00897995 0.00725874 0.0138243 0.0257315 0.00891404 0.0147873 0.0304824 -0.0236985 0.0324546 -0.0344743 0.116122 -0.0730798 0.0435139 0.0450182 0.00730578 0.0501481 0.0544992 0.153167 0.0241203 -0.00309658 -0.115168 -0.0660353 -0.112034 0.114625 0.0496644 -0.0787106 -0.144757 0.0942437 0.0466661 0.114933 0.0959169 -0.00893216 -0.129695 0.115028 -0.127988 -0.175908 -0.11816 0.115072 -0.114664 0.115054 -0.103507
internal_weight=0 96537.3 89194.5 28734.8 28280.5 24436.2 60459.7 13317.5 12427.3 47142.2 1655.7 45486.5 3844.35 454.319 890.173 7342.8 7273.84 870.962 6402.88 5919.17 377.54 763.401 483.707 68.9569 76.7793 107.561 6298.4 29.6759 7.64901 62.8991 22.0269 7.73307 6268.72 31.3114 5.56294 42.3984 6237.41 6.13155 20.5007 3.06434 6211.29 4.23724 6184.36 3.15201
internal_count=268644 263269 248590 92040 90853 77325 156550 40482 36054 116068 7636 108432 13528 1187 4428 14679 14273 2324 11949 10609 821 1948 1340 406 366 376 5375 166 90 397 76 66 5209 122 102 312 5087 89 85 64 5064 80 5044 100
is_linear=0
shrinkage=0.1


Tree=19
num_leaves=48
num_cat=0
split_feature=115 130 76 112 55 123 101 57 27 116 106 111 118 91 106 30 91 35 127 33 6 114 32 1 131 68 56 114 71 7 52 80 53 3 43 127 39 125 16 19 67 14 44 56 24 72 37
split_gain=4728.92 347.887 496.799 544.869 478.06 794.008 535.053 712.736 635.273 444.557 319.086 305.387 270.238 267.977 255.075 245.622 315.782 247.078 235.032 187.471 172.596 279.906 169.806 159.64 134.904 115.263 125.734 86.4984 70.5784 113.026 99.7963 67.8743 11.9663 14.55 6.61823 3.07335 9.39762 1.02438 6.58407 5.82762 0.315423 0.166443 0.0283006 0.0159485 0.0134423 0.001539 7.22556e-05
threshold=-0.82540583610534657 1.0000000180025095e-35 -1.1973321437835691 -0.90821856260299672 1.0354008674621584 -2.2464305162429805 -0.79937049746513356 0.92179167270660411 1.2682184576988222 -1.5011709928512571 -0.84322017431259144 -0.84487420320510853 -0.91725921630859364 -1.2177643179893491 -0.89526322484016407 1.0250825285911562 -1.0600418448448179 0.93217870593070995 -2.0772675275802608 0.86225226521492015 0.50806751847267162 -1.0444645285606382 0.96977984905242931 -0.18515256047248838 1.0000000180025095e-35 0.012553636450320484 1.003548860549927 -1.0427548885345457 -0.35641384124755854 0.34174387156963354 1.0728711485862734 -1.443622827529907 0.81998077034950267 0.59066465497016918 1.0000000180025095e-35 1.0000000180025095e-35 0.96471360325813305 -0.29286044836044306 1.4252674579620364 1.4095054268836977 0.19363120943307879 1.3810726404190066 0.71641594171524059 0.94479942321777355 1.2571738958358767 -0.55820095539093006 0.64795404672622692
decision_type=2 2 2 2 2 2 2 2 2 2 2 2 2 2 2 2 2 2 2 2 2 2 2 2 2 2 2 2 2 2 2 2 2 2 2 2 2 2 2 2 2 2 2 2 2 2 2
left_child=1 2 3 12 6 23 7 -4 -8 -7 14 13 22 -5 28 25 17 -17 -18 -14 27 -22 -1 -6 -13 31 -27 -16 30 -30 -3 -12 37 34 -34 36 44 38 39 46 42 43 45 -36 -35 -39 -2
right_child=32 10 4 11 5 9 8 -9 -10 -11 15 24 19 -15 20 16 18 -19 -20 -21 21 -23 -24 -25 -26 26 -28 -29 29 -31 -32 -33 33 35 41 -37 -38 40 -40 -41 -42 -43 -44 -45 -46 -47 -48
leaf_value=-0.078742658922683534 -0.10415546679677395 0.0083964833744391478 0.020835595206408486 0.097996846210730779 0.058610521523850601 -0.10615345439306233 0.034705721680572156 -0.028659638130290988 0.1400705023675286 -0.011178727459939725 0.2176052429070664 -0.10797234617648824 -0.097614039007911671 0.0069477876032361724 0.081785133711083785 0.006170136097434816 0.048006533013338654 0.080172317885200406 -0.092372403497137878 0.18975479642178683 -0.0309150043177733 0.053335180488368807 0.10374435174277684 -0.14417397154347772 0.020649223350555738 0.1586117967343208 0.052132870524596225 0.1727178923154529 -0.15335878105066791 0.17761887729357087 -0.074359860950069134 -0.072583023215944981 0.11808942522921906 -0.11994080832509334 -0.12209538002824157 0.1146503446264649 0.16075387363389324 0.11341678615767195 0.1166060671522151 0.11309494153518883 0.10193029804619579 -0.14534398268374904 0.11700381747783423 -0.10642963920232325 -0.10503368203020487 0.11420892551842776 -0.10290905054969751
leaf_weight=1338.1155255734921 0.58451495505869688 487.02178781479597 47717.842439725995 341.00388681143522 1865.0202505365014 537.32990314811468 16110.386960349977 3098.297213383019 593.30197405815125 5953.1353665664792 9.191965386271475 320.89487666264176 33.710422307252884 6211.090277697891 839.47831904888153 2765.8582224324346 157.71143314242363 539.11616297066212 489.28290880471468 69.514377314597368 423.80862633138895 5671.1475490406156 53.010630130767822 39.646724238991737 109.32683718949556 192.36058676242828 261.86860397458076 119.49964001774788 13.516891494393347 43.592593744397163 207.93076308071613 65.462844274938107 1.3985756635665918 0.97612871788442435 0.88005344569683108 14.219992831349371 2.5347447395324707 5651.7693058252335 23.673757910728455 2.2075046300888062 23.934737838804722 2.3197835683822632 22.123155474662781 2.4844480808824301 1.5905723851174114 24.633381843566895 2.2765594888478518
leaf_count=6124 17 1246 124052 1088 2696 3662 39719 9008 1341 20577 20 2450 192 21020 1655 8891 378 1135 1745 178 1157 11837 87 144 638 287 663 162 62 47 710 298 1 15 6 11 1 5026 20 2 23 12 18 71 48 21 83
internal_value=0 0.0198484 0.0175596 -0.00540151 0.0201234 -0.00238163 0.0229216 0.0178178 0.0384482 -0.0190415 0.0355696 0.00632747 -0.0602048 0.0116864 0.0477791 0.0142996 0.00573457 0.0182416 -0.0581536 0.0959079 0.0536816 0.0474769 -0.0717888 0.0543894 -0.0752874 0.0782995 0.0972254 0.0931164 -0.00758248 0.0992818 -0.0163643 -0.0368532 0.112983 0.0458174 -0.076788 0.0907622 0.0241752 0.113291 0.09446 -0.00897715 0.113386 -0.124736 0.113434 -0.110527 -0.110703 0.11342 -0.103164
internal_weight=0 96678.5 84391.6 8476.67 75915 8395.13 67519.8 50816.1 16703.7 6490.47 12286.8 6982.32 1494.35 6552.09 7806 4480.85 3951.97 3304.97 646.994 103.225 7053.93 6094.96 1391.13 1904.67 430.222 528.884 454.229 958.978 752.062 57.1095 694.953 74.6548 5777.61 26.4043 7.08286 19.3214 5.10145 5751.2 28.7423 5.06858 5722.46 5.68429 5698.53 3.3645 2.5667 5676.4 2.86107
internal_count=268644 263269 232976 31777 201199 27079 174120 133060 41060 24239 30293 25196 6581 22108 16876 13417 12149 10026 2123 370 14811 12994 6211 2840 3088 1268 950 1817 2065 109 1956 318 5375 165 90 75 64 5210 122 102 5088 89 5065 77 63 5047 100
is_linear=0
shrinkage=0.1


Tree=20
num_leaves=48
num_cat=0
split_feature=115 30 71 101 100 72 133 30 136 91 135 21 103 36 129 73 1 0 73 44 73 33 4 25 62 34 102 82 33 53 3 108 88 43 10 39 125 16 19 72 31 14 27 44 56 47 37
split_gain=4407.92 303.448 618.226 630.1 526.88 655.004 578.312 507.506 486.183 452.501 390.046 331.189 289.939 283.862 194.215 192.487 205.166 176.51 377.2 171.034 140.936 102.512 97.4614 89.9984 89.8882 89.9296 70.0349 56.8705 47.1939 10.9956 12.8101 6.7727 18.0676 5.85455 2.82181 8.42334 0.923497 5.83741 5.2312 0.345679 0.293535 0.115312 0.0514892 0.0245685 0.0112608 0.000777063 5.33771e-05
threshold=-0.82540583610534657 1.0864827036857607 -0.50920569896697987 -0.82166787981986988 -0.86779025197029103 -0.64919278025627125 1.0000000180025095e-35 1.072972357273102 1.0000000180025095e-35 -1.1371648907661436 1.0000000180025095e-35 1.3341588377952578 -0.88503801822662342 0.92294728755950939 1.0000000180025095e-35 -0.92757275700569142 0.64857482910156261 0.61014828085899364 -0.9122832417488097 1.079575836658478 -0.85427966713905323 0.88860151171684276 0.7550964653491975 1.4473799467086794 0.42404974997043615 0.86714208126068126 -0.90723577141761769 -1.1697029471397398 0.86225226521492015 0.81998077034950267 0.59066465497016918 -0.90304037928581227 -1.1675007343292234 1.0000000180025095e-35 1.200104892253876 0.96471360325813305 -0.29286044836044306 1.4252674579620364 1.4095054268836977 -0.5536205768585204 1.0007016658782961 1.3810726404190066 1.1879099607467654 0.71641594171524059 0.94479942321777355 0.77031227946281444 0.64795404672622692
decision_type=2 2 2 2 2 2 2 2 2 2 2 2 2 2 2 2 2 2 2 2 2 2 2 2 2 2 2 2 2 2 2 2 2 2 2 2 2 2 2 2 2 2 2 2 2 2 2
left_child=1 2 3 7 12 11 -7 9 -9 -1 19 -6 21 -14 15 16 27 18 -17 -5 -19 -4 -18 24 26 -26 -16 -3 -12 36 33 40 -33 -31 35 42 37 38 46 43 -25 44 -32 45 -35 -38 -2
right_child=29 14 4 10 5 6 -8 8 -10 -11 28 -13 13 -15 23 17 22 20 -20 -21 -22 -23 -24 31 25 -27 -28 -29 -30 30 34 32 -34 41 -36 -37 39 -39 -40 -41 -42 -43 -44 -45 -46 -47 -48
leaf_value=0.0036892480306668801 -0.10374885489085557 -0.10551766005530219 0.04406783087138913 0.13165299888700324 -0.047595975971107908 0.022389919690582415 -0.010838088857821719 0.0023673419760491814 0.070791043622387556 -0.04470614304449512 -0.13850318711066642 0.041688549189787386 0.030757704304287967 0.10372714360272228 -0.030017789556847852 -0.060789620816512568 0.048641058788303763 0.06794037091369258 0.038338977287429028 -0.11062520976611954 -0.04194681799448341 0.1103691540833498 -0.025451139943154927 -0.14406773391639344 -0.15027969390382936 0.02585280335297991 0.13137258873442628 0.066054116206458569 -0.01204685758672646 0.11607456098078116 -0.13571138032382463 -0.15338716163757413 0.097277092185345859 -0.11956623533355466 0.11202789774380968 0.15173202249994114 0.11197718783748556 0.11487084261425076 0.11169467116777021 0.099498326588705943 -0.16561164522159313 -0.13953166112574819 -0.10454777677644478 0.11527047519967817 -0.10583817001925594 0.11258250370243308 -0.10262460868134549
leaf_weight=3453.3165472075343 0.53085816837847533 204.86557796224952 336.38947550952435 603.19022239744663 2241.3669079206884 50266.277934480458 5847.1380786448717 8009.7432372421026 1193.1425874829292 4385.6520353555679 61.566255077719688 509.98321652412415 8211.3399991765618 570.13666804134846 51.456009082496166 409.95404257252812 450.2885502576828 2499.1605770587921 6030.9823720157146 30.616491831839085 122.43325551599264 760.21665024757385 293.09658049046993 62.315701693296432 65.351629517972469 52.09749510884285 56.315186902880669 21.33105643093586 56.684860572218895 1.2863178253173853 0.83724882081151131 8.3325094282627088 4.3907399475574485 0.81227837502956424 13.221527874469757 2.4226357936859131 5174.9895622134209 21.727855682373047 2.0211879014968872 22.232934094965458 7.038596734404563 2.1818761304020882 1.4455574695020912 22.78632926940918 2.2599447164684534 21.294898867607117 2.0653348602354527
leaf_count=13918 17 1255 958 1203 8936 126491 19928 24932 2284 18574 262 1229 20114 1065 190 1655 981 3760 12093 139 348 1016 869 307 279 127 63 45 163 1 13 43 11 6 13 1 5025 20 2 23 31 12 48 20 71 20 83
internal_value=0 0.0178123 0.0158778 -0.000735363 0.020178 0.0165917 0.0189275 -0.00468845 0.0112384 -0.0233864 0.0888427 -0.0310464 0.0415495 0.0354952 0.0340038 0.0364025 -0.00594593 0.0409333 0.0320296 0.11995 0.0628084 0.0900309 0.0194285 -0.044305 -0.0116352 -0.0721517 0.0543158 -0.0893379 -0.0778851 0.111537 0.0446544 -0.133951 -0.066884 -0.0751392 0.0883595 0.021855 0.111847 0.0931714 -0.00893887 0.111941 -0.146254 -0.121952 -0.115977 0.111994 -0.109468 0.11198 -0.102854
internal_weight=0 96876.2 86536.8 17793.9 68742.8 58864.8 56113.4 17041.9 9202.89 7838.97 752.058 2751.35 9878.08 8781.48 10339.4 10032.1 969.582 9062.53 6440.94 633.807 2621.59 1096.61 743.385 307.298 225.22 117.449 107.771 226.197 118.251 5292.12 24.4674 82.0775 12.7232 6.54042 17.927 4.70544 5267.65 26.3452 4.61738 5241.3 69.3543 5.2541 2.28281 5219.07 3.07222 5196.28 2.59619
internal_count=268644 263269 241212 61475 179737 156584 146419 59708 27216 32492 1767 10165 23153 21179 22057 21006 3150 17856 13748 1342 4108 1974 1850 1051 659 406 253 1300 425 5375 165 392 54 90 75 62 5210 122 102 5088 338 89 61 5065 77 5045 100
is_linear=0
shrinkage=0.1


Tree=21
num_leaves=48
num_cat=0
split_feature=115 127 0 36 117 34 135 75 54 109 74 134 107 39 132 60 24 117 135 38 130 135 136 128 92 94 124 118 12 107 110 94 53 3 43 125 39 125 36 19 67 6 44 56 26 72 37
split_gain=4095.65 295.955 840.044 1267.69 773.056 784.504 725.423 911.78 587.042 493.985 490.924 443.161 693.13 574.396 406.189 375.961 358.134 346.722 306.992 276.343 273.607 259.904 257.679 234.731 206.189 192.094 269.954 177.385 137.452 111.213 50.2837 31.7323 10.1305 11.2863 5.192 2.59882 7.2146 0.833475 5.18992 4.69608 0.382936 0.0809791 0.0152054 0.0147972 0.0103029 0.0011094 3.94443e-05
threshold=-0.82540583610534657 -1.9732351303100584 0.35650287568569189 0.9498051404953004 -1.1841874718666074 0.82581365108490001 1.0000000180025095e-35 -0.55671644210815419 1.0593369603157046 -1.0348480343818662 -0.88785168528556813 1.0000000180025095e-35 -0.87156176567077626 0.98122644424438488 1.0000000180025095e-35 0.78455242514610302 1.3226897716522219 -1.1667183041572569 1.0000000180025095e-35 0.93955266475677501 1.0000000180025095e-35 1.0000000180025095e-35 1.0000000180025095e-35 1.0000000180025095e-35 -1.0109999775886533 -0.93505680561065663 -1.519809305667877 -1.6018761992454527 0.81735408306121837 -0.93414291739463795 -0.66053649783134449 -0.83071002364158619 0.81998077034950267 0.59066465497016918 1.0000000180025095e-35 -0.29286044836044306 0.96471360325813305 -0.29286044836044306 0.58803758025169384 1.4095054268836977 0.19363120943307879 1.1000426411628725 0.71641594171524059 0.94479942321777355 1.2201231718063357 -0.55820095539093006 0.64795404672622692
decision_type=2 2 2 2 2 2 2 2 2 2 2 2 2 2 2 2 2 2 2 2 2 2 2 2 2 2 2 2 2 2 2 2 2 2 2 2 2 2 2 2 2 2 2 2 2 2 2
left_child=1 4 3 25 5 21 7 -7 18 -8 20 14 13 -13 17 24 -14 -4 19 -6 -10 27 -12 -17 -5 26 -3 -1 -20 -16 -27 -23 37 34 -34 36 44 38 -2 46 42 43 45 -36 -35 -39 -40
right_child=32 2 11 15 8 6 9 -9 10 -11 22 12 16 -15 29 23 -18 -19 28 -21 -22 31 -24 -25 -26 30 -28 -29 -30 -31 -32 -33 33 35 41 -37 -38 40 39 -41 -42 -43 -44 -45 -46 -47 -48
leaf_value=-0.18490268622409164 0.113335101964629 0.034197941437328662 -0.07613458570210814 0.077065777304504091 0.094105152358902891 -0.027412646926858998 0.089906969376750842 0.026327183684265221 -0.081837360505765233 -0.043157418349949038 0.037524846501723386 -0.0077788685425124382 -0.12768339310887963 0.082233335086419668 -0.020324879944065895 0.022306658435095883 -0.015557156701020612 0.020343168157498412 -0.083178773412174375 0.04914952113024626 0.017008482659556328 0.052199559455120628 -0.046865572319489068 -0.063254950605224569 -0.077816987936514703 -0.14801070993278739 -0.073404260931542134 0.068022026495972762 0.032829140220386112 -0.1049511572235504 0.071992247148213923 -0.1348298546847489 0.11431293652820547 -0.11818146395043823 -0.11932542002907892 0.11000067678614114 0.1444491099598072 0.11070931035565053 -0.10338303683608714 0.11044382485285503 0.096975992776457187 -0.13790775620141729 0.11357498818320487 -0.10530007787774531 -0.10410944324726304 0.11144080956270858 -0.1023686437383251
leaf_weight=28.036135226488113 19.91526943445206 260.50022359192371 375.2827987074852 1129.5543503835797 1619.7145030349493 8415.612375587225 1340.2229354083538 5052.7260343879461 742.46485059708357 352.33539867401123 3492.1828776448965 4607.6101498454809 656.99880435317755 837.85310642421246 317.52230750769377 814.92554724216461 502.91044697538018 50238.657605156302 230.08112913370132 8775.9632273614407 449.61280557513237 10.320362150669096 403.64048558473587 528.62774254381657 93.032075271010399 339.03762273862958 2221.2155841812491 2531.1622155159712 183.66672870516777 303.93580665811896 10.717314902693031 74.969825819134712 1.1809217929840112 0.86168746836483778 1.1866489797830584 12.160943999886511 2.296764612197876 4734.5920287370682 0.48195338621735517 1.8460759520530698 20.347643457353115 1.6036960668861864 18.629989981651306 2.0548000819981098 1.3132209032773969 20.824047982692719 1.8732269909232853
leaf_count=120 20 499 1450 1920 2755 34313 2615 13342 2856 1124 8330 14255 2894 1271 1780 2537 2272 130140 757 14665 1274 26 1434 2061 274 1423 8391 5519 442 2135 48 347 1 15 9 11 1 5026 17 2 23 9 18 71 48 21 83
internal_value=0 0.0160112 0.0119775 -0.0257516 0.0235798 0.00926915 0.000502565 -0.00725183 0.0396081 0.0622073 0.0115986 0.0154983 -0.00887978 0.00607064 0.0186412 0.0251547 -0.079068 0.0196278 0.0527919 0.0561539 -0.0445559 0.0595281 0.0287813 -0.011358 0.0652801 -0.0718876 -0.0621095 0.0652512 -0.0316817 -0.061713 -0.141269 -0.112199 0.110258 0.0435501 -0.0737024 0.0860312 0.0208449 0.110572 0.0920282 -0.00897299 0.110665 -0.119528 0.110724 -0.110435 -0.109685 0.110713 -0.102576
internal_weight=0 96941.1 63238.4 5397.61 33702.7 17805.4 15160.9 13468.3 15897.3 1692.56 5087.9 57840.8 6605.37 5445.46 51235.4 2566.14 1159.91 50613.9 10809.4 10395.7 1192.08 2644.49 3895.82 1343.55 1222.59 2831.47 2481.72 2559.2 413.748 621.458 349.755 85.2902 4841.17 22.6587 6.02607 16.6326 4.47167 4818.51 24.1165 4.20126 4794.39 4.84515 4774.05 3.24145 2.17491 4755.42 2.35518
internal_count=268644 263269 173350 17153 89919 57406 51394 47655 32513 3739 13894 156197 20692 15526 135505 6792 5166 131590 18619 17420 4130 6012 9764 4598 2194 10361 8890 5639 1199 3915 1471 373 5375 165 90 75 64 5210 122 102 5088 89 5065 80 63 5047 100
is_linear=0
shrinkage=0.1


Tree=22
num_leaves=47
num_cat=0
split_feature=115 130 75 95 117 74 29 105 35 106 106 114 31 73 32 108 74 32 123 25 126 74 101 0 89 30 53 71 7 52 112 55 53 46 4 16 125 36 19 72 48 22 44 56 47 37
split_gain=3795.68 272.635 414.52 473.294 411.301 379.316 486.399 302.252 473.471 254.498 204.488 194.063 263.897 214.838 214.808 183.43 166.096 152.331 155.517 146.553 139.97 133.768 133.602 127.939 123.186 95.7353 93.4298 58.6762 92.0059 77.5351 49.1541 15.8568 9.29861 10.2155 5.14089 8.76087 0.752878 4.61936 4.22231 0.418944 0.108578 0.0214985 0.013452 0.00127856 0.000410579 2.9157e-05
threshold=-0.82540583610534657 1.0000000180025095e-35 -1.1107481122016905 -1.0310080647468565 -0.95537373423576344 -1.003324508666992 1.1936507821083071 -0.79784166812896717 0.9058319926261903 -0.84486213326454151 -0.89526322484016407 -0.92057794332504261 0.99151620268821727 -0.83904606103897084 0.96359828114509594 -0.84841281175613392 -1.0259010791778562 0.96977984905242931 -1.2534247040748594 1.2042291164398196 -1.5787508487701414 -0.97779667377471913 -0.88470947742462147 0.42688642442226415 -1.1649414300918577 1.0740904211997988 0.95272454619407665 -0.35641384124755854 0.34174387156963354 1.0728711485862734 -1.1270763874053953 0.98701059818267833 0.81998077034950267 1.0868756175041201 0.79995474219322216 1.0432614088058474 -0.29286044836044306 0.58803758025169384 1.4095054268836977 -0.5536205768585204 1.2278952002525332 1.2503876090049746 0.71641594171524059 0.97771537303924572 0.77031227946281444 0.64795404672622692
decision_type=2 2 2 2 2 2 2 2 2 2 2 2 2 2 2 2 2 2 2 2 2 2 2 2 2 2 2 2 2 2 2 2 2 2 2 2 2 2 2 2 2 2 2 2 2 2
left_child=1 2 4 16 17 15 -7 8 -6 10 27 12 21 22 -14 -5 24 18 -1 30 -9 -11 -13 -15 -4 -18 -21 29 -29 -3 -12 -19 36 34 35 -34 37 -2 45 42 43 -37 44 -35 -38 -39
right_child=32 9 3 5 7 6 -8 20 -10 11 19 13 14 23 -16 -17 25 31 -20 26 -22 -23 -24 -25 -26 -27 -28 28 -30 -31 -32 -33 33 40 -36 41 39 38 -40 -41 -42 -43 -44 -45 -46 -47
