tree
version=v4
num_class=1
num_tree_per_iteration=1
label_index=0
max_feature_idx=136
objective=binary sigmoid:1
feature_names=Column_0 Column_1 Column_2 Column_3 Column_4 Column_5 Column_6 Column_7 Column_8 Column_9 Column_10 Column_11 Column_12 Column_13 Column_14 Column_15 Column_16 Column_17 Column_18 Column_19 Column_20 Column_21 Column_22 Column_23 Column_24 Column_25 Column_26 Column_27 Column_28 Column_29 Column_30 Column_31 Column_32 Column_33 Column_34 Column_35 Column_36 Column_37 Column_38 Column_39 Column_40 Column_41 Column_42 Column_43 Column_44 Column_45 Column_46 Column_47 Column_48 Column_49 Column_50 Column_51 Column_52 Column_53 Column_54 Column_55 Column_56 Column_57 Column_58 Column_59 Column_60 Column_61 Column_62 Column_63 Column_64 Column_65 Column_66 Column_67 Column_68 Column_69 Column_70 Column_71 Column_72 Column_73 Column_74 Column_75 Column_76 Column_77 Column_78 Column_79 Column_80 Column_81 Column_82 Column_83 Column_84 Column_85 Column_86 Column_87 Column_88 Column_89 Column_90 Column_91 Column_92 Column_93 Column_94 Column_95 Column_96 Column_97 Column_98 Column_99 Column_100 Column_101 Column_102 Column_103 Column_104 Column_105 Column_106 Column_107 Column_108 Column_109 Column_110 Column_111 Column_112 Column_113 Column_114 Column_115 Column_116 Column_117 Column_118 Column_119 Column_120 Column_121 Column_122 Column_123 Column_124 Column_125 Column_126 Column_127 Column_128 Column_129 Column_130 Column_131 Column_132 Column_133 Column_134 Column_135 Column_136
feature_infos=[-1.8014661073684692:2.1475074291229248] [-1.7160434722900391:2.0597634315490723] [-1.6382262706756592:1.9801409244537354] [-1.5680137872695923:1.9086390733718872] [-1.5054070949554443:1.8452587127685547] [-1.4504051208496094:1.7899996042251587] [-1.4123568534851074:1.7937201261520386] [-1.3844102621078491:1.9274762868881226] [-1.3517893552780151:2.0758624076843262] [-1.3099035024642944:2.0974209308624268] [-1.2559221982955933:2.0118343830108643] [-1.1870334148406982:2.073509693145752] [-1.1039742231369019:2.1457490921020508] [-1.0067610740661621:2.2142360210418701] [-0.90047705173492432:2.2671928405761719] [-0.78966546058654785:2.4052433967590332] [-0.67814630270004272:2.5269482135772705] [-0.65537858009338379:2.5277442932128906] [-0.65910369157791138:2.5653238296508789] [-0.66488730907440186:2.5221147537231445] [-0.66619455814361572:2.4413206577301025] [-0.67410272359848022:2.3840618133544922] [-0.78228282928466797:2.2409591674804688] [-0.70636492967605591:2.1030042171478271] [-0.68053698539733887:2.0296213626861572] [-0.92955285310745239:1.9387959241867065] [-1.274228572845459:1.8567385673522949] [-1.700652003288269:1.7314887046813965] [-1.9454965591430664:1.5598906278610229] [-2.1342308521270752:1.3473584651947021] [-2.4037775993347168:1.1459542512893677] [-2.6881959438323975:1.0652625560760498] [-2.8964071273803711:1.0182701349258423] [-2.6209216117858887:1.0153312683105469] [-1.9672813415527344:1.0222163200378418] [-1.2877312898635864:1.0987448692321777] [-0.66409575939178467:1.3781088590621948] [-0.66973656415939331:1.4172744750976562] [-0.67192721366882324:1.4165236949920654] [-0.67710685729980469:1.3777114152908325] [-0.67391806840896606:1.3165556192398071] [-0.67713803052902222:1.2266663312911987] [-0.67526406049728394:1.2687077522277832] [-0.67822211980819702:1.5027958154678345] [-0.67542338371276855:1.6759111881256104] [-0.67939788103103638:1.7528411149978638] [-0.67687302827835083:1.7343066930770874] [-0.67970603704452515:1.8940913677215576] [-0.67738151550292969:2.0411467552185059] [-0.68022686243057251:2.1347439289093018] [-0.67672491073608398:2.3221406936645508] [-0.68132954835891724:2.3866791725158691] [-0.68784564733505249:2.2922041416168213] [-0.69532120227813721:2.1755821704864502] [-0.68557995557785034:1.9014968872070312] [-0.66425126791000366:1.7058380842208862] [-0.63047897815704346:1.5109990835189819] [-0.79989981651306152:1.3641012907028198] [-0.9627259373664856:1.3483799695968628] [-0.83332031965255737:1.3266682624816895] [-0.62303602695465088:1.3006186485290527] [-0.62908732891082764:1.6912268400192261] [-0.65896600484848022:1.8743280172348022] [-0.67422842979431152:1.7138135433197021] [-0.93073725700378418:1.3433690071105957] [-1.1747497320175171:1.0728911161422729] [-1.3727543354034424:0.99044626951217651] [-1.6713657379150391:0.88485002517700195] [-1.7223098278045654:0.75389385223388672] [-1.8947262763977051:0.60495084524154663] [-1.7363165616989136:0.45876148343086243] [-1.6730015277862549:0.33052113652229309] [-1.5550380945205688:0.23037496209144592] [-1.4402464628219604:0.15855956077575684] [-1.4517455101013184:0.30397361516952515] [-1.6804615259170532:0.9557119607925415] [-1.8599822521209717:1.4404212236404419] [-2.0371255874633789:1.2026444673538208] [-2.1728529930114746:1.1271375417709351] [-2.2573421001434326:0.5285990834236145] [-2.3058340549468994:0.2406151294708252] [-2.3315773010253906:0.28676301240921021] [-2.3403120040893555:0.33890664577484131] [-2.3343968391418457:0.39074629545211792] [-2.3124566078186035:0.43792322278022766] [-2.2730567455291748:0.47703936696052551] [-2.2140905857086182:0.50853937864303589] [-2.1362462043762207:0.53271615505218506] [-2.0426793098449707:0.55223846435546875] [-1.9374580383300781:0.56802195310592651] [-1.8240519762039185:0.65060514211654663] [-1.8478662967681885:1.0689502954483032] [-1.6401363611221313:1.4172115325927734] [-1.5815147161483765:1.6290324926376343] [-1.5245249271392822:1.6649528741836548] [-1.4861346483230591:1.6182941198348999] [-1.4547033309936523:1.5608183145523071] [-1.4384253025054932:1.5597559213638306] [-1.4264529943466187:1.5645072460174561] [-1.4611638784408569:1.5648646354675293] [-1.8758529424667358:1.5687597990036011] [-2.4619696140289307:1.5680602788925171] [-2.648137092590332:1.5700795650482178] [-2.4631106853485107:1.5659784078598022] [-2.0341367721557617:1.5674868822097778] [-1.4475361108779907:1.5623446702957153] [-1.1201972961425781:1.563502311706543] [-1.1155441999435425:1.561995267868042] [-1.1656886339187622:1.5723429918289185] [-1.2142764329910278:1.5757462978363037] [-1.369315505027771:1.5825119018554688] [-1.6010570526123047:1.5861003398895264] [-2.1418814659118652:1.5904401540756226] [-2.465855598449707:1.5896482467651367] [-2.5047738552093506:1.5896980762481689] [-2.0072333812713623:1.5865405797958374] [-1.6131480932235718:1.5868538618087769] [-1.6319060325622559:1.611059308052063] [-1.6864286661148071:2.2395215034484863] [-1.7459897994995117:2.2136995792388916] [-1.8207311630249023:2.1617026329040527] [-1.9280952215194702:1.6493175029754639] [-2.1567583084106445:1.6308574676513672] [-2.3918964862823486:1.6220458745956421] [-2.6616356372833252:1.8138364553451538] [-2.9761693477630615:2.1645474433898926] [-3.3559722900390625:3.0688047409057617] [-3.8750591278076172:4.2020993232727051] [0:1] [0:1] [0:1] [0:1] [0:1] [0:1] [0:1] [0:1] [0:1]
tree_sizes=6588 5850 6028 6211 5877 6738 6774 6865 6777 6696 6888 5727 6603 6677 6275 6532 6647 6568 6573 6482 6553 6562 6562 6436 6705 6562 6840 6716 5910 5757 6253 6538 5821 6931 6480 6288 5984 5606 5826 6234 6150 6275 5634 6248 6252 6521 6952 6317 6478 6958 6553 6172 6921 6631 6051 6685 6582 5613 6702 6908 6893 6838 6100 6480 6824 5723 6936 6699 4630 6778 6501 5861 6567 6834 6145 6918 6145 6716 6139 6200 6382 6289 6709 6143 6210 6173 6990 5680 6429 6748 6785 6963 5785 6471 6767 6820 6482 6512 6582 5925 6898 6367 5371 6265 6365 6484 6438 6007 6822 6836 6835 6801 5663 6576 6267 6407 5883 5520 6201 6807 6814 6794 6949 5873 5284 6919 6932 6681 5705 6436 6755 5805 6787 6916 6726 6530 6572 6502 5564 6791 6961 6946 6378 6662 6714 6835 6579 6817 6331 6490 4842 6578 6504 4711 6370 5980 6275 6798 6372 6210 6308 6830 6540 4621 4604 6698 6244 6195 6932 6214 6595 6852 6361 6697 6556 6526 6336 6320 6594 6913 5695 6964 6795 6918 6480 6793 5715 6809 6044 4189 6492 6029 6977 6733 6772 6747 6228 6587 6951 5704

Tree=0
num_leaves=61
num_cat=0
split_feature=132 31 70 31 136 136 71 107 96 134 40 31 107 47 131 73 36 45 37 113 112 33 3 75 60 31 106 70 106 117 106 68 103 51 59 131 68 74 91 109 30 108 59 116 51 37 54 38 32 41 51 70 26 102 114 0 21 0 0 10
split_gain=70401.6 77263 64543.3 41969 49329.4 33406.3 32655.1 22296.7 17674.8 23840.2 13435.8 13363.1 12283.8 11833.6 10352.5 9175.09 9056.87 8640.28 7346.67 7279.49 7213.71 6359.47 6277.36 4297.39 4168.81 4003.12 3950.58 3845.91 3356.91 2198.42 3591.77 1902.14 1841.8 2039.59 1623.09 1242.92 1234.45 1140.22 1169.8 1058.2 973.862 930.782 944.243 837.104 813.88 785.143 533.706 512.317 412.573 393.054 292.556 258.193 174.712 375.171 41.7129 1.42109e-14 7.10543e-15 3.55271e-15 1.77636e-15 8.88178e-16
threshold=1.0000000180025095e-35 0.98312035202980053 -0.10278503224253653 1.0043516755104067 1.0000000180025095e-35 1.0000000180025095e-35 -0.38627326488494867 -1.0088257193565366 -1.0320639014244077 1.0000000180025095e-35 0.77626511454582225 0.95272746682167064 -0.88137876987457264 1.0029340386390688 1.0000000180025095e-35 -0.8804163634777068 0.92933928966522228 1.1563674807548525 0.93083673715591442 -0.95439079403877247 -1.3150101900100706 0.92907610535621654 0.6080494523048402 -1.0987734794616697 0.74801364541053783 1.0079268813133242 -0.96811988949775685 -0.30083593726158137 -0.92482563853263844 -1.5652984380722044 -0.88451069593429554 0.197033666074276 -0.84350976347923268 0.98221436142921459 0.89640748500823986 1.0000000180025095e-35 0.17788026481866839 -0.98364973068237294 -1.0547631382942197 -1.0765833258628843 1.0854713320732119 -1.0519433617591856 0.86282300949096691 -0.86476784944534291 1.0492900013923647 0.91286510229110729 1.0955409407615664 0.98989349603652965 0.94325181841850292 1.0759943723678591 1.1986098885536196 -0.23969890177249906 1.0316534638404848 -0.62133267521858204 -1.4243121147155759 0.66110482811927807 1.3445981144905093 0.70902717113494884 -0.18123573064804074 0.089385405182838454
decision_type=2 2 2 2 2 2 2 2 2 2 2 2 2 2 2 2 2 2 2 2 2 2 2 2 2 2 2 2 2 2 2 2 2 2 2 2 2 2 2 2 2 2 2 2 2 2 2 2 2 2 2 2 2 2 2 2 2 2 2 2
left_child=1 5 7 4 6 11 13 18 25 14 55 34 -11 -3 -10 37 20 -8 26 27 -17 22 -6 -21 -23 43 44 -13 -18 30 49 47 33 -12 40 -27 41 57 -39 -36 -1 58 -43 -5 -2 -28 51 -32 -34 -4 -51 -20 54 -54 -38 -7 -57 -9 -31 -33
right_child=2 3 29 8 21 10 17 15 9 12 32 19 -14 -15 -16 16 28 -19 46 23 -22 24 -24 -25 -26 35 45 -29 -30 36 31 59 48 -35 39 -37 52 38 -40 -41 -42 42 -44 -45 -46 -47 -48 -49 -50 50 -52 -53 53 -55 -56 56 -58 -59 -60 -61
leaf_value=-2.9849328856531714 -2.155650887696015 -1.9360559398824722 -1.0670400197676075 -1.9326052033894126 -1.5021357805977373 -3.1289063331118823 -1.6357936724265176 -3.1289063331118823 -1.8508214161272838 -2.1394249031145121 -2.2808090486977766 -2.7675055158548236 -1.1408920981660575 -2.3464514652327848 -2.3058233169366873 -1.0227878924093883 -2.9391766080484341 -2.1281974000906865 -2.6502470338370685 -2.4848626310335953 -1.4179371101859828 -2.7943605789389849 -2.1505364976873156 -1.9914846400627062 -1.8736367209016225 -1.4950460214120145 -1.2153795929827569 -2.429360089272377 -1.82766783618948 -3.1289063331118823 -1.9601413447845499 -3.1289063331118823 -2.1706781880291439 -1.4449090764730101 -1.8734479207827806 -1.112336680873617 -2.9002659328832516 -1.7488947130676147 -2.971963151759851 -2.7793996980502929 -2.6098885249400459 -3.1289063331118823 -1.7251501728499929 -1.3543678710917848 -3.0488730179989671 -1.8165587467857658 -1.6777373620222922 -0.96142325972337783 -3.1289063331118823 -3.1289063331118823 -1.6547571859807699 -3.1289063331118823 -3.1289063331118823 -1.7425711541661757 -3.119809362921425 -3.1289063331118823 -3.1289063331118823 -3.1289063331118823 -3.1289063331118823 -3.1289063331118823
leaf_weight=857.42330359295011 16.911790154874325 796.86074658483267 0.99785154312848945 98.030401032418013 1474.6830368191004 8.7963692285120469 1085.825598359108 15.780421178787947 2677.0653693825006 151.78947140276432 31.537271447479725 734.39044287800789 654.06969129294157 5939.9579512551427 614.9189872071147 570.50110884383321 43.376154828816652 530.44256423413754 12.894995369017122 325.84515699371696 2429.0452679991722 55.349464494735003 166.13092128559947 385.28715730458498 440.90162655711174 101.99914514645934 43.008261956274509 620.57240908592939 72.732307273894548 7.5586891360580903 7.0414035432040718 4.2876774631440631 15.029881402850153 392.18419642746449 22.943102274090052 505.0314318202436 8.9985692836344224 19.38148482516408 13.10943530499935 29.433439541608095 75.317826386541128 6.5862262062728432 17.587981794029474 33.623197957873344 25.707250531762838 43.897075828164816 2.8355574347078791 18.984567932784557 6.409414764493703 38.014459982514381 1.3956772871315468 89.37818381935358 5.7021689973771572 2.9681660160422307 226.16722264885902 31.870262380689383 20.90795299038291 10.431875064969063 6.5862262062728405 2.3427516035735607
leaf_count=18223 226 8984 3 1102 10538 199 9140 357 28011 2005 459 14089 2426 90161 9096 1475 903 6950 233 5375 15412 1076 2212 4547 4709 722 190 9909 745 171 81 97 203 2589 245 1736 184 184 277 568 1332 149 163 193 562 445 25 38 145 860 12 2022 129 28 5097 721 473 236 149 53
internal_value=-3.02405 -2.07647 -1.60286 -1.97902 -2.09138 -2.49628 -2.20106 -1.46919 -1.73531 -1.81647 -1.74439 -2.62116 -1.32897 -2.29791 -1.93581 -1.39966 -1.37633 -1.7974 -2.40987 -2.47665 -1.34278 -1.66265 -1.56779 -2.21755 -1.97633 -1.28506 -1.9058 -2.61264 -2.24291 -2.88564 -2.39677 -1.61685 -1.55288 -1.50712 -2.92423 -1.17664 -3.01224 -2.63823 -2.24238 -2.38256 -2.95465 -2.4846 -2.1076 -1.78493 -2.69443 -1.51904 -3.03103 -1.23163 -2.45715 -3.02707 -3.0767 -3.06856 -3.09516 -2.65431 -3.11141 -3.12891 -3.12891 -3.12891 -3.12891 -3.12891
internal_weight=0 18884.6 3764.21 15326.7 10490.2 3557.95 8353.09 3408.99 4836.53 4097.84 506.735 3051.21 805.859 6736.82 3291.98 3174.36 3115.65 1616.27 234.633 2066.1 2999.55 2137.07 1640.81 711.132 496.251 738.684 129.524 1354.96 116.108 355.22 73.0644 32.6564 445.161 423.721 985.118 607.031 282.155 58.7032 32.4909 52.3765 932.741 38.3191 24.1742 131.654 42.619 86.9053 105.109 26.026 21.4393 40.408 39.4101 102.273 243.836 8.67034 235.166 61.5746 52.7782 26.2123 14.1449 6.63043
internal_count=268644 238138 30506 179061 133770 59077 115235 23292 45291 41538 4789 54288 4431 99145 37107 19589 18535 16090 3703 33920 16887 18535 12750 9922 5785 3753 1423 23998 1648 7214 1144 269 3396 3048 20368 2458 6070 1054 461 813 19555 632 312 1295 788 635 2280 119 348 875 872 2255 5438 157 5281 1393 1194 593 320 150
is_linear=0
shrinkage=1


Tree=1
num_leaves=54
num_cat=0
split_feature=32 86 39 71 35 73 32 107 72 37 61 106 72 134 76 40 59 12 135 111 118 31 108 31 30 97 74 116 61 113 99 73 74 32 36 24 24 38 31 134 98 5 109 99 56 27 106 73 106 31 2 0 18
split_gain=6880.62 2431.88 1833.06 5937.06 7059.76 5518.01 3668.63 3070.51 2828.83 2100.16 2007.85 1806.31 1783.37 1594.15 1328.94 1276.92 1143.47 1076.27 511.812 602.384 544.126 431.651 490.903 657.704 340.305 442.756 460.605 398.159 334.86 329.663 607.62 395.357 308.657 353.361 324.112 282.473 452.685 277.6 268.714 237.286 227.92 217.75 194.276 249.213 42.206 330.204 20.9991 0.0324557 0.0262857 0.00775382 4.44563e-07 3.55271e-15 8.88178e-16
threshold=0.82566341757774364 -1.4065701961517332 1.0082485079765322 -0.42250511050224299 0.91198825836181652 -0.75518128275871266 0.95920971035957348 -0.99719917774200428 -0.64152246713638295 0.95437955856323253 0.69597226381301891 -0.86054429411888111 -0.62557020783424366 1.0000000180025095e-35 -1.3120471239089964 1.0366323590278628 0.91731989383697521 0.73191305994987499 1.0000000180025095e-35 -0.9822954237461089 -1.6225234866142271 0.99414321780204784 -0.79693540930747975 0.99973395466804515 1.0854713320732119 -0.97427627444267262 -0.99553081393241871 -0.88715326786041249 0.6756330430507661 -1.0800929069519041 -0.97294077277183522 -0.91247257590293873 -0.99553081393241871 0.9571305811405183 0.92089286446571361 1.3834090828895571 1.3853546380996706 0.99240288138389599 0.91700351238250744 1.0000000180025095e-35 -0.98956209421157826 0.78596767783164989 -0.82774162292480458 -0.99062678217887867 1.0667553544044497 1.1775162220001223 -0.88147097826004017 -0.85953706502914418 -0.84599199891090382 0.98181450366973888 0.48756825923919683 0.44706557691097265 1.2805452942848208
decision_type=2 2 2 2 2 2 2 2 2 2 2 2 2 2 2 2 2 2 2 2 2 2 2 2 2 2 2 2 2 2 2 2 2 2 2 2 2 2 2 2 2 2 2 2 2 2 2 2 2 2 2 2 2
left_child=11 14 3 4 8 15 13 16 -3 -8 -9 18 -6 -5 49 17 -7 -4 19 20 46 32 23 -23 27 41 -27 40 -24 30 -21 -31 34 -34 -16 39 -37 -17 -22 44 -20 -26 43 -38 48 -46 -1 -44 -13 52 -51 -52 -2
right_child=1 2 5 6 12 7 9 10 -10 -11 -12 35 -14 -15 21 37 -18 -19 24 29 38 22 28 -25 25 26 -28 -29 -30 31 -32 -33 33 -35 -36 36 42 -39 -40 -41 -42 -43 47 -45 45 -47 -48 -49 -50 50 51 -53 -54
leaf_value=0.21839788946322455 -0.10505429290536197 0.32143565433871868 0.35984316092514035 0.38998552633168415 -0.0066310316005028375 0.065726191382968022 0.58947597529033346 0.1147940017273686 0.38390619921698588 0.41160321978447217 0.34699679009152851 -0.10735902352573364 0.20655447788853967 0.1217006746175138 0.5487193424658674 0.074832164995102035 0.41531893586355495 0.014012453344884821 1.1232814981074666 0.23835346859927442 -0.021096983587036676 0.13612617021633314 0.38446157826639732 0.77225184225444155 -0.10764079229527412 1.2839351350627366 0.1693572403075746 1.9773059897505623 0.929198070887996 0.098164543670045651 1.8056322443311652 0.38883893838231454 0.89819732601205426 0.40286141019773442 -0.1097227420486336 1.4364929644063014 1.1058530922640475 -0.090074993368490203 0.24546490367169135 1.0644545537514842 -0.049769818519387721 0.26962532369721082 -0.10549987836014628 0.15778801771124135 -0.10682816595683503 1.7109347164887863 0.36145245494473544 -0.11926577748254508 -0.10501934254125996 -0.1095154169998529 -0.10957081733591029 -0.10957081733591037 -0.10505429290536197
leaf_weight=11.800268575549124 3.8927046023309257 21027.450895149261 200.0665621496737 5614.3838096931577 528.70501950010657 585.53869097307324 1676.0646129995584 386.72381838038564 11061.944054123014 1099.0772246718407 10045.644199270755 56.930760219693184 1522.0296661779284 230.57764694839716 15.628735397011043 143.63820638135076 111.35504179447889 163.5588809736073 1.6749788522720326 5.8108260035514832 148.06975032016635 24.991897001862526 12.493734896183012 46.484409093856812 25.538551546633244 7.3939920514822006 7.4370368868112546 0.98803098127245803 116.61335648596287 60.184255123138428 4.3072477802634221 210.28994116932154 26.49815671145916 31.548806071281433 14.330833584070204 2.6694371588528147 3.3958790339529541 352.81875104084611 50.789468236267567 1.7584714703261841 148.81761625036597 38.157112404704094 20.401011504232883 15.107506077736614 8.5130422040820086 1.1322374343872077 78.674278244376183 1.869663525372746 306.72562100365758 1.5856606364250208 3.906207978725436 12.834683358669279 0.91593049466609944
leaf_count=60 85 104121 1238 16716 5410 5123 4789 3068 50386 5211 33705 1233 10980 2346 100 1400 262 1655 17 55 1576 238 98 114 393 18 98 2 174 1105 16 830 61 85 179 20 33 3642 313 16 3168 444 453 171 174 1 57 21 6934 20 49 161 20
internal_value=0 0.342095 0.34051 0.350199 0.331475 0.305954 0.424354 0.324813 0.342971 0.519031 0.338389 0.101844 0.151593 0.379402 0.620613 0.0619162 0.121587 0.204288 0.189912 0.240727 0.139484 0.679073 0.760083 0.549829 0.0640003 0.232941 0.725029 -0.0235774 0.876484 0.345124 0.905542 0.32416 0.494438 0.62898 0.233761 -0.0664896 0.174905 -0.042363 0.046984 -0.0944504 -0.0367138 0.118362 0.0923096 0.331784 -0.0999096 0.106555 0.342794 -0.106656 -0.105386 -0.108628 -0.109566 -0.109571 -0.105054
internal_weight=0 55061.3 54749.6 42760.2 34140.1 11989.3 8620.1 11129.3 32089.4 2775.14 10432.4 1218.44 2050.73 5844.96 311.725 860.082 696.894 363.625 799.933 569.926 289.334 288.59 200.583 71.4763 230.007 78.5267 14.831 151.481 129.107 280.592 10.1181 270.474 88.0065 58.047 29.9596 418.504 43.4435 496.457 198.859 375.06 150.493 63.6957 40.7741 18.5034 373.302 9.64528 90.4745 22.2707 363.656 23.1352 18.3266 16.7409 4.80864
internal_count=268644 251436 250052 199959 170897 50093 29062 42158 154507 10000 36773 17208 16390 19062 1384 7935 5385 2893 8152 4012 2006 1049 624 352 4140 953 116 3187 272 2006 71 1935 425 146 279 9056 698 5042 1889 8358 3185 837 678 204 8342 175 117 474 8167 335 230 210 105
is_linear=0
shrinkage=0.1


Tree=2
num_leaves=55
num_cat=0
split_feature=32 104 126 30 72 35 133 95 29 98 29 54 72 30 131 115 114 114 113 73 103 66 111 32 85 62 0 61 105 40 51 136 35 31 38 70 132 107 40 70 32 70 70 106 69 106 30 30 32 74 106 106 27 106
split_gain=3478.36 1313.96 1304.31 1235.32 2068.15 3606.49 3816.43 3157.49 2914.29 1712.77 1085.38 938.986 710.822 704.473 507.229 384.646 373.483 415.134 424.264 265.388 260.449 235.023 212.581 190.013 185.816 177.179 173.423 261.288 171.686 138.516 79.1777 55.3364 188.291 12.1055 379.313 2.10936 0.358127 0.330803 0.231748 0.215933 0.173543 0.0811547 0.0795834 0.0415156 0.0157596 0.0154666 0.0148782 0.0118448 0.00982685 0.00883728 0.00368439 0.00234054 0.00145397 8.1649e-05
threshold=0.81406709551811229 -0.91688290238380421 -2.9889659881591792 1.0882372260093691 -0.63817918300628651 0.89928415417671215 1.0000000180025095e-35 -1.0098569989204405 1.1456937789916994 -0.93269395828247059 1.2229659557342532 0.99954867362976085 -0.68487122654914845 1.1012876033782961 1.0000000180025095e-35 -1.4580695629119871 -1.0396341681480405 -0.93125593662261952 -0.92867538332939137 -0.93009242415428151 -0.95233565568923939 0.42100487649440771 -0.97426798939704884 0.96441441774368297 -1.2799938321113584 0.71822360157966625 0.3112130612134934 0.59818226099014293 -0.94182285666465748 0.77626511454582225 0.89581692218780529 1.0000000180025095e-35 0.74621865153312694 0.92839315533638012 0.72141289710998546 -0.10278503224253653 1.0000000180025095e-35 -0.95564886927604664 0.77626511454582225 -0.10278503224253653 0.82566341757774364 -0.10278503224253653 -0.10278503224253653 -0.85414388775825489 0.049861928448081023 -0.86015790700912464 1.0854713320732119 1.0854713320732119 0.82566341757774364 -0.48099556565284723 -0.88451069593429554 -0.86054429411888111 1.268180310726166 -0.86054429411888111
decision_type=2 2 2 2 2 2 2 2 2 2 2 2 2 2 2 2 2 2 2 2 2 2 2 2 2 2 2 2 2 2 2 2 2 2 2 2 2 2 2 2 2 2 2 2 2 2 2 2 2 2 2 2 2 2
left_child=1 16 15 4 5 6 -4 14 -9 -7 11 12 -5 19 -6 21 22 18 28 -12 -15 25 26 -13 45 41 27 -1 -18 -26 47 33 38 37 46 40 -28 42 52 -23 51 -2 -3 -39 -41 -24 -35 -19 53 -42 -50 -17 -33 -37
right_child=2 31 3 10 7 9 -8 8 -10 -11 13 23 -14 20 -16 35 17 30 -20 -21 -22 39 24 -25 29 -27 36 -29 -30 -31 -32 32 -34 34 -36 48 -38 43 -40 44 49 -43 -44 -45 -46 -47 -48 -49 50 -51 -52 -53 -54 -55
leaf_value=0.65339376159231788 -0.13406417020196526 -0.12561886848971657 0.23448289702625724 0.29624405135184112 0.39741232788196368 0.24289958051790675 0.020099459271120418 0.24222996684041878 0.41018226680159631 0.0065841607193852392 0.034323878227166774 -0.12525347297877454 0.41920776760104977 0.20592816912997181 -0.1125692683981139 -0.12371567315501396 -0.020749016607318125 -0.10564575349585065 1.2058050108693232 0.30662240212774566 -0.010014145212916076 -0.13923500039483802 -0.11172653925303794 0.26315537778532816 -0.1095236551204477 0.46746523856098787 -0.10868540592406105 -0.11168756900770943 0.27102943136798235 0.33433512355942252 0.34440869025562521 -0.1039402064412845 0.33567151042269533 -0.10507379082557977 1.8011825384864506 -0.10432420448273326 -0.12242050179569108 -0.10731740500069298 -0.12849245652031252 -0.11619193016411829 -0.12957959332454252 -0.11053352605715104 -0.10835066942757395 -0.10464916697078681 -0.10601461650143669 -0.10573023123944539 -0.10957905147990941 -0.10912118027592883 -0.11115760231672858 -0.13479866549790717 -0.10636925304114414 -0.12084052421192265 -0.10653212100158355 -0.10396887390224861
leaf_weight=8.0175739526748675 2.3013710975646964 10.20084874331951 19913.27739097178 4207.6526768505573 1556.6674030981958 416.41244617477059 866.50998744368553 38671.013204548508 1061.5021636746824 1164.0953900329769 41.695018228143454 60.211992666125298 529.25111507624388 76.188748590648174 19.750148855149746 16.424489170312885 21.924322381615639 24.040339186787605 4.7006031833589068 252.83218071609735 209.25675647333264 2.5495214313268653 7.1876387856900719 15.926754385232924 8.3439217023551446 27.480242617428303 57.776157237589359 10.070615544915198 251.51427578181028 44.678597200661898 4.2955095730721942 28.411157507449392 13.193417094647883 17.165898688137538 1.0792688950896252 9.9726275429129618 28.272958148270845 76.912366338074207 4.4756193235516539 1.7608202584087838 3.5114190056920043 4.0364424400031567 3.614564172923564 241.12914750352502 11.195784226059912 10.71297127380967 12.792913988232611 16.56255816295743 1.6889592483639706 42.662400886416435 33.081266492605209 3.4211216308176509 2.3427515774965277 18.39491156116128
leaf_count=29 13 68 76753 13276 3275 2104 7034 133097 2777 8947 371 423 986 411 207 106 303 548 21 1268 1513 13 108 46 149 28 1060 168 1729 158 7 779 14 386 4 251 216 1587 28 24 25 65 70 5919 222 242 174 221 25 223 594 26 52 501
internal_value=0 0.0453069 0.242159 0.242856 0.238964 0.214467 0.225543 0.252224 0.246717 0.0688456 0.28881 0.304383 0.309983 0.159575 0.391023 -0.0278225 0.154537 0.218282 0.263828 0.268074 0.0476234 0.209732 0.0369089 -0.0440058 0.170439 0.357542 -0.054032 0.227434 0.247635 0.264487 -0.0638703 -0.0869685 0.0134426 -0.100367 -0.0406456 -0.118543 -0.113198 -0.105952 -0.107232 -0.112632 -0.131041 -0.119078 -0.121101 -0.105294 -0.107398 -0.108138 -0.106998 -0.107063 -0.105475 -0.134402 -0.106602 -0.12322 -0.104138 -0.104094
internal_weight=0 909.416 69240.7 69062.2 63669.2 22360.3 20779.8 41308.9 39732.5 1580.51 5393.02 4813.04 4736.9 579.973 1576.42 178.481 498.098 323.038 278.139 294.527 285.446 49.3242 175.06 76.1387 70.9231 33.8181 104.137 18.0882 273.439 53.0225 44.8984 411.318 48.4229 362.895 31.0381 129.157 86.0491 331.857 35.2295 15.5061 66.0194 6.33781 13.8154 318.042 12.9566 17.9006 29.9588 40.6029 63.1378 46.1738 34.7702 19.8456 30.7539 28.3675
internal_count=268644 14040 254604 252488 234194 94838 83787 139356 135874 11051 18294 14731 14262 3563 3482 2116 4959 2829 2053 1639 1924 365 2130 469 657 106 1473 197 2032 307 776 9081 873 8208 564 1751 1276 7644 859 259 380 78 138 7506 246 350 560 769 1371 248 619 132 831 752
is_linear=0
shrinkage=0.1


Tree=3
num_leaves=57
num_cat=0
split_feature=32 133 31 32 75 36 72 134 38 59 36 70 98 72 52 74 104 44 130 73 0 72 39 56 42 97 105 106 20 38 124 92 76 86 37 111 37 17 106 136 42 77 88 71 31 69 71 53 35 40 70 132 136 44 106 69
split_gain=2094.24 1308.01 3564.57 1412.32 1290.93 1178.97 4395 2127.42 1652.19 1596.34 3518.9 1924.26 1432.69 1418.16 1140 1227.56 1063.94 1049.84 1046.76 879.831 1006.16 864.065 653.82 537.709 691.945 384.351 329.343 296.436 292.844 233.779 206.218 306.313 211.89 191.576 188.951 166.264 131.176 124.677 108.571 95.5712 203.195 87.2409 67.152 59.7152 57.3449 84.3393 48.4036 33.3911 27.5283 0.200227 0.0977647 0.0247042 0.0225139 0.0391265 0.00952082 0.00440854
threshold=0.8219568431377412 1.0000000180025095e-35 0.99668678641319286 0.90047821402549755 -0.90156742930412281 0.92982497811317455 -0.60108616948127735 1.0000000180025095e-35 0.99369454383850109 0.79253366589546215 0.91414672136306774 -0.11343358457088469 -0.42501915991306299 -0.65817221999168385 1.0467774271965029 -0.84177452325820912 -0.91688290238380421 1.0363742113113406 1.0000000180025095e-35 -0.79817667603492726 0.54976022243499767 -0.60621318221092213 0.9539160728454591 0.96312621235847484 1.0704559683799746 -0.99418050050735463 -0.92239072918891896 -0.84548678994178761 1.3511208891868594 0.91370674967765819 -1.0573691725730894 -1.0093973875045774 -1.1490337848663328 -0.99622219800949086 0.90501490235328685 -1.2511671781539915 0.94735276699066173 1.2801337242126467 -0.99469980597496022 1.0000000180025095e-35 0.87831059098243724 -0.36746397614479059 -0.9815315008163451 -0.66068840026855458 0.94157281517982494 -0.44806768000125879 -0.20837348699569699 1.2014848589897158 0.86676740646362316 0.77626511454582225 -0.10278503224253653 1.0000000180025095e-35 1.0000000180025095e-35 0.95253998041152965 -0.86054429411888111 0.049861928448081023
decision_type=2 2 2 2 2 2 2 2 2 2 2 2 2 2 2 2 2 2 2 2 2 2 2 2 2 2 2 2 2 2 2 2 2 2 2 2 2 2 2 2 2 2 2 2 2 2 2 2 2 2 2 2 2 2 2 2
left_child=16 5 3 25 34 9 23 8 -8 10 18 13 -13 -11 19 29 28 -6 -2 20 -4 -12 -17 36 -25 -3 -21 -9 51 -16 31 32 -30 37 -5 41 -7 -32 -27 44 49 46 -35 -33 47 -46 48 -37 -18 -41 -43 52 54 -54 -1 -52
right_child=1 2 14 4 17 6 7 27 -10 11 21 12 -14 -15 15 22 35 -19 -20 26 -22 -23 -24 24 -26 38 -28 -29 30 -31 33 43 -34 42 -36 39 -38 -39 -40 40 -42 50 -44 -45 45 -47 -48 -49 -50 -51 55 -53 53 -55 -56 -57
leaf_value=-0.1091424832539044 0.19832863385811184 0.44533189952327928 0.009028076712001112 0.010870308202650232 0.26520291959656894 0.16900506937266935 0.23239768755789159 -0.034836186240556809 0.1585781380113454 0.04603068684925879 -0.0036797111221918729 -0.0133266138516419 0.19647543770642123 0.23362555225967793 0.11213091712526724 0.42805973259983721 0.026906421974702971 0.10348808582618062 0.13363086360225343 0.26890944875934158 0.27553700077217835 0.13568250709676852 0.16693375518792361 0.1363562722248545 -0.04236599744383681 0.22086751642661479 0.36512572408246063 0.17967482202568297 0.53584375526363803 -0.060174847939504839 0.62693263834109325 -0.11387981175738141 0.19398452263373567 0.66477494689280836 -0.11939456864341161 -0.10082562716319868 -0.084399373391951693 -0.05657754994427934 -0.081335129565096143 -0.1038707581626519 0.26321684687123331 -0.12579871068491352 0.1860824497627368 0.079667476356690387 -0.11086901087902064 0.28458615100824852 0.43591638026987661 0.086133125095473398 0.23200398130298849 -0.1249947099430542 -0.11130174190129929 -0.12022404921229823 -0.1046004225385371 -0.12216616155994492 -0.10594552331581841 -0.10470545059240664
leaf_weight=16.306478664278981 33779.40977370739 14.53975787013769 245.51705384999514 512.22175215929747 529.60962744057178 21.220669087022543 5834.7667873166502 480.98803835362196 6311.6464117281139 411.93325763940811 1108.8471677526832 578.04910023882985 744.95234606042504 18539.878599163145 113.4821740463376 126.97740433365107 11.182662233710289 1658.8569629900157 2700.6765915043652 871.83143004029989 334.87794110178947 743.00255275517702 391.60971385985613 449.47218251228333 418.16841998696327 12.138127237558363 600.99249648302794 74.384335793554783 18.889530036598444 257.21804150938988 2.7603505067527285 34.76763091608882 451.34485167637467 5.1971354484558105 142.28138154745102 380.69495839998126 546.8377040438354 80.362195491790771 577.4621487557888 30.449276931583881 25.351754508912563 3.5573965050280076 6.7194531783461553 29.438009675592184 11.737713400274517 9.977252781391142 7.3833191432058802 9.7988783717155439 15.77727235481143 5.2627081349492064 1.2015623077750204 1.7654795572161663 2.2801334746181956 2.8568291664123535 21.727684650570158 6.4632279463112354
leaf_count=285 95998 35 1301 3612 2258 98 16630 3403 23519 2734 6728 3818 1936 39850 551 209 44 10429 12384 2153 617 2623 1363 2493 3381 72 890 291 65 1580 2 471 2440 2 1083 9091 4340 1455 6093 884 25 23 55 163 156 37 24 106 23 36 19 19 57 22 499 169
internal_value=0 0.188652 0.145273 0.0762651 0.105772 0.192463 0.166542 0.185288 0.194039 0.198715 0.186712 0.221408 0.104808 0.229548 0.226114 0.131536 0.0551784 0.142623 0.193539 0.267078 0.162799 0.0522355 0.230871 0.000700614 0.0502192 -0.0625882 0.308171 -0.00610545 0.138 -0.00742702 0.155606 0.179743 0.207717 0.0198777 -0.0174478 -0.052478 -0.0749331 -0.0338794 -0.0751137 -0.0700428 0.046712 0.129962 0.394853 -0.0251392 -0.0873387 0.0708285 0.20906 -0.0961342 0.146932 -0.106984 -0.112098 -0.10863 -0.108155 -0.114369 -0.107316 -0.10574
internal_weight=0 79133.8 6389.62 3447.11 2842.97 72744.2 14137.5 12701.8 12146.4 58606.7 38331.9 20274.8 1323 18951.8 2942.51 889.287 1193.25 2188.47 36480.1 2053.22 580.395 1851.85 518.587 1435.7 867.641 604.14 1472.82 555.372 674.416 370.7 629.479 534.44 470.234 95.0391 654.503 518.838 568.058 83.1225 589.6 473.273 61.0637 45.5654 11.9166 64.2056 412.209 21.715 34.3433 390.494 26.9599 35.712 11.2222 44.9366 43.1711 5.13696 38.0342 7.66479
internal_count=268644 252472 32246 23582 17382 220226 54155 43843 40149 166071 117733 48338 5754 42584 8664 3703 16172 12687 108382 4961 1918 9351 1572 10312 5874 6200 3043 3694 5535 2131 4653 3139 2505 1514 4695 10637 4438 1457 6165 10335 945 302 57 634 9390 193 91 9197 67 920 211 882 863 79 784 188
is_linear=0
shrinkage=0.1


Tree=4
num_leaves=54
num_cat=0
split_feature=126 31 131 98 133 32 73 130 106 126 72 5 38 69 47 72 81 30 86 36 55 71 35 16 104 45 72 109 113 93 123 91 61 26 106 19 32 92 114 30 39 104 131 31 31 31 31 80 117 31 125 13 32
split_gain=1412.46 1280.77 2702.85 3021.32 2019.6 1507.19 1437.34 1341.09 1432.6 1228.45 1069.66 602.351 461.468 894.612 990.362 664.6 445.919 381.627 341.61 328.857 298.463 290.866 376.051 358.036 287.716 284.831 179.67 145.077 130.264 126.402 120.134 101.039 125.688 177.547 124.118 106.868 99.9619 97.8364 90.406 74.5248 67.5094 58.4657 52.1211 1.30036 0.560373 0.233622 0.230794 0.195311 0.0906307 0.0659749 0.0506124 0.0116193 0.00599244
threshold=-1.1462404131889341 1.006435811519623 1.0000000180025095e-35 -0.99923521280288685 1.0000000180025095e-35 0.90406876802444469 -0.91247257590293873 1.0000000180025095e-35 -0.84599199891090382 -2.9889659881591792 -0.4621118158102035 0.74146574735641491 0.96936890482902538 -0.12328065931797026 1.0979257225990298 -0.61036479473114003 -1.3751344084739683 0.98013508319854747 -1.3036956191062925 0.91182738542556774 0.81521457433700573 -0.47389626502990717 0.89647170901298534 1.2089459300041201 -0.93060526251792897 1.1509906649589541 -0.64234843850135792 -0.89730852842330922 -0.93840095400810231 -1.182097792625427 -1.0307244658470152 -1.18258661031723 0.36957836151123052 1.5822305083274844 -0.9162674844264983 1.4822854995727541 0.92844983935356151 -1.1637271642684934 -0.9565758705139159 1.0741159915924074 0.99534848332405101 -0.93898811936378468 1.0000000180025095e-35 0.95272746682167064 0.98433807492256176 1.0031858086586001 0.95405417680740368 -1.3034854531288145 -0.85812637209892262 0.98354735970497142 -0.4019587635993957 1.2118523716926577 0.81406709551811229
decision_type=2 2 2 2 2 2 2 2 2 2 2 2 2 2 2 2 2 2 2 2 2 2 2 2 2 2 2 2 2 2 2 2 2 2 2 2 2 2 2 2 2 2 2 2 2 2 2 2 2 2 2 2 2
left_child=1 2 4 18 6 20 11 12 21 -8 -7 -1 13 14 -3 40 39 -18 29 37 -6 23 -23 -9 31 -17 -21 -15 -20 -4 -26 41 33 46 -35 36 -34 -10 -37 -5 -14 44 47 50 48 49 -33 -43 -2 -45 51 -32 -52
right_child=24 7 3 16 5 10 9 8 19 -11 -12 -13 15 27 -16 25 17 -19 28 26 -22 22 -24 -25 30 -27 -28 -29 -30 -31 43 32 35 34 -36 38 -38 -39 -40 -41 -42 42 -44 45 -46 -47 -48 -49 -50 -51 52 -53 -54
leaf_value=-0.024435472752244568 -0.12323460398726499 0.19703180924275865 0.30485235120367593 -0.10828374731984132 0.073405565484897004 0.10546968979088352 -0.057236877285341159 -0.032971294210117373 0.33869714565057807 0.16002008457810871 0.3647462948365518 0.1052211062596654 0.016699166410892596 0.233307920574231 0.10543704820935783 0.18013937610758701 0.26100317744274526 0.011263164811181871 0.045535695165264491 -0.12527059317704911 -0.070980036944422245 0.27419041120453924 0.041568270580127756 0.25132129328065034 0.48721272249507658 -0.055353100287077954 0.16285504347671076 0.29358955058985453 0.37553727984826213 -0.017771735622617035 -0.1155320893159268 -0.11132581800800581 -0.12427221395880189 -0.10983383053618077 0.27793862351286702 0.20858148051187209 0.29719791834922921 0.22963783609929514 0.52831753409469562 0.27914912344065712 -0.1184621530386719 -0.10513054158375079 0.24571126294323697 -0.11978625374539809 -0.14326177383763064 -0.15292882127881122 -0.12602134852692504 -0.14185607404821263 -0.10689876787617231 -0.13187207541743359 -0.10364659124264682 -0.10727281198081284 -0.10586631221918703
leaf_weight=515.43943171575665 3.7931944653391829 9310.2374876141548 18.171218022704124 348.79080169275403 189.28041394799948 4467.5429326966405 261.34232610091567 621.78900711238384 186.03347457945347 62915.937538119033 164.99493205547333 1175.3940728418529 60.034958437085152 747.33202058076859 1351.8697593435645 649.24088536202908 63.50150590389967 1679.0864299573004 12.49713087081909 26.686132557690144 587.65286706387997 90.83582216501236 295.77569702267647 47.697425588965416 3.4523428864777079 55.773195013403893 114.51691398024559 857.12064947187901 279.16690288484097 36.611868873238564 1.7740352787077416 21.6465776078403 14.523554077371957 11.366721931844948 30.145064033567905 29.497714154422283 9.1868629455566388 147.45816257596016 12.629583586007355 5.0365615375339976 96.118415772914886 2.5231974869966516 10.360837962478399 9.5710486471653038 5.3560959100723258 3.7439371198415747 21.108046673238277 3.3984724432229996 32.449632303789258 8.5531355515122396 158.25085856765509 42.729043114930391 13.174547523260115
leaf_count=3308 44 14425 11 2653 1257 21842 4287 2826 121 172951 443 6314 390 885 5048 1705 281 10749 84 170 6354 131 1148 71 33 290 267 878 484 190 20 343 164 182 189 133 2 287 14 10 788 67 19 71 26 17 137 17 714 47 4698 800 259
internal_value=0 0.153632 0.148196 0.0447913 0.151791 0.0930875 0.156686 0.180598 0.092021 0.159121 0.114704 0.0656962 0.190927 0.195894 0.185418 0.120166 -0.000418095 0.0203639 0.318362 0.236315 -0.0358041 0.0271636 0.0962237 -0.0127169 -0.024141 0.16151 0.108402 0.265511 0.361397 0.0892407 -0.0984479 0.06205 0.105331 0.0244479 0.171759 0.208855 0.039031 0.290475 0.304437 -0.102769 -0.0664978 -0.050192 0.110451 -0.106951 -0.11307 -0.130187 -0.118581 -0.126207 -0.108608 -0.12549 -0.104597 -0.107602 -0.103817
internal_weight=0 87379 72720.4 2442.86 70277.6 5409.47 64868.1 14658.5 1530.79 63177.3 4632.54 1690.83 13127.7 12266.6 10662.1 861.167 2096.42 1742.59 346.447 474.695 776.933 1056.1 386.612 669.486 449.235 705.014 141.203 1604.45 291.664 54.7831 241.249 207.986 150.104 84.2664 41.5118 65.8377 23.7104 333.492 42.1273 353.827 156.153 57.8814 16.2825 237.797 41.5989 21.8681 42.7546 5.92167 36.2428 18.1242 215.928 44.5031 171.425
internal_count=268644 260648 231218 14462 216756 29896 186860 29430 5021 177238 22285 9622 24409 21236 19473 3173 13693 11030 769 845 7611 4176 1279 2897 7996 1995 437 1763 568 201 5945 2051 1164 851 371 313 166 408 147 2663 1178 887 103 5912 784 135 480 84 758 118 5777 820 4957
is_linear=0
shrinkage=0.1


Tree=5
num_leaves=62
num_cat=0
split_feature=72 30 69 61 31 131 99 107 32 107 36 130 106 31 39 72 106 49 71 40 59 40 43 72 72 41 52 41 53 0 107 69 32 61 81 85 113 41 102 36 46 39 73 35 105 110 11 133 56 43 67 42 35 44 1 102 106 62 56 39 70
split_gain=1361.09 3467.4 1309.83 1233.71 1152.05 1800.66 2186.49 1246.52 1400.29 1137.84 1645.48 989.451 970.003 935.883 888.505 778.26 677.179 648.176 1183.74 594.915 527.934 751.901 503.616 751.683 671.269 501.88 468.022 415.05 501.035 406.78 378.774 310.817 310.602 280.994 251.846 232.249 220.34 206.385 201.57 195.539 189.377 188.865 185.088 172.07 139.135 138.427 326.956 132.26 101.877 242.84 91.4181 96.4182 83.0921 58.8961 164.563 53.8689 47.5558 45.2004 43.5045 22.1422 0.637102
threshold=-0.53667202591896046 1.0322327017784121 0.025407575070858005 0.79799196124076854 1.0058160424232485 1.0000000180025095e-35 -0.97294077277183522 -0.81817421317100514 0.94772091507911693 -1.0019158124923704 0.90836516022682201 1.0000000180025095e-35 -0.84599199891090382 0.99973395466804515 1.0304177403450014 -0.55375507473945607 -0.86689394712448109 1.171186685562134 -0.32966563105583185 1.0648857951164248 0.84525549411773693 1.0607893466949465 1.0732749700546267 -0.60621318221092213 -0.62326887249946583 1.1003066897392275 1.1436643600463869 1.0618249177932741 0.99537655711174022 0.20123737305402759 -1.0140631198883054 -0.046802027150988572 0.9640011489391328 0.7589814066886903 -1.3730291128158567 -1.3178626894950864 -0.87866756319999684 1.0229976773262026 -0.7631687819957732 0.96189987659454357 1.2035407423973086 1.018961548805237 -0.79817667603492726 0.93133965134620678 -0.78260934352874745 -1.1904259324073789 0.33240252733230596 1.0000000180025095e-35 1.0259545445442202 1.1470969915390017 0.31768578290939337 1.1481753587722781 0.94298443198204052 1.1418758034706118 0.37120342254638677 -0.62133267521858204 -0.89440089464187611 0.70165693759918224 1.0287426710128786 1.032337009906769 -0.10278503224253653
decision_type=2 2 2 2 2 2 2 2 2 2 2 2 2 2 2 2 2 2 2 2 2 2 2 2 2 2 2 2 2 2 2 2 2 2 2 2 2 2 2 2 2 2 2 2 2 2 2 2 2 2 2 2 2 2 2 2 2 2 2 2 2
left_child=1 14 9 26 5 7 35 8 -3 10 30 22 42 -9 15 27 45 20 19 -19 21 -11 24 -24 -6 -20 33 28 -1 44 37 -32 -22 57 -8 -7 -14 -2 -29 -31 -35 43 -13 -12 -17 52 -47 56 53 -50 51 -18 -5 54 -16 -43 -28 -4 -51 -55 -52
right_child=2 4 3 16 11 6 34 13 -10 17 41 12 36 -15 48 29 50 18 25 -21 32 -23 23 -25 -26 -27 47 38 -30 39 31 -33 -34 40 -36 -37 -38 -39 -40 -41 -42 55 -44 -45 -46 46 -48 -49 49 58 60 -53 -54 59 -56 -57 -58 -59 -60 -61 -62
leaf_value=-0.037815334725599288 0.13999019344676217 0.13467636232985983 -0.12962396433779774 0.19697504589656084 0.15318714133623668 -0.015768102433904484 -0.099606679151827512 0.14972452818005638 0.09942873149947129 0.1825027469373619 -0.0067954380931959423 -0.0031938269366730224 0.12898483493363869 0.26898814045288616 0.14856671970454066 -0.055838766577468626 -0.13959375256744203 0.10352315474706082 0.14276764555525118 -0.059135099999459373 0.16248987462881689 -0.057006749556556768 -0.01131076564922791 0.14719524998614206 0.20728415330034489 0.19767811595445939 -0.13447219991375395 0.0089247395723983918 0.071947743825149776 0.14803927584535564 0.19159322230303166 -0.053718294745204898 0.26016593681749017 0.1642974087527245 -0.001571694020423416 0.25043718392128972 0.24954564618112915 -0.022869895112614051 -0.10336191474415229 -0.14625009901251163 -0.046222834535612156 -0.11895136052481436 0.078593967315306906 0.51163668449051458 0.35964545305440032 0.012367993961992845 0.23547222892712602 0.26494801101126891 0.36986862747148597 0.14056360617907712 -0.13089031332295373 0.27238695907823951 0.052320753546301814 -0.053945696530848276 -0.11530286998616297 0.19410857397591683 -0.068022260350190683 0.028459475144594817 -0.12446353415388137 -0.12263471407602385 -0.1058985033490748
leaf_weight=533.61667514033616 149.31227387860417 27853.176444455981 65.041840061545372 728.3416057433933 11346.499562717974 35.636016644537449 322.88611257076263 2185.7920538038015 18931.536150485277 5177.1214753352106 431.69868699833751 745.02981717884541 345.27269131690264 941.32926160097122 35.161948028951883 142.96787571161985 9.4562208391726017 694.47708372585475 3930.5698527917266 332.51585443690419 419.85236437618732 134.47827969491482 414.99664946645498 1072.1213395223022 2874.9642344564199 2887.1932937502861 190.58841435983777 348.24646079167724 1884.6437977440655 1109.8521261662245 1067.0685955956578 54.277063429355621 1449.5586561709642 201.6596264410764 1390.6363624967635 407.96940940991044 270.24689009785652 162.494165353477 295.55118449777365 23.046756632626057 54.219315081834793 222.952048368752 440.16619500517845 6.4984409511089316 8.5413954332470876 156.7533617336303 113.0648158043623 10.338284365832804 16.547840692102909 7.4583502262830725 11.358683511614798 14.228218659758568 41.999604426324368 54.851154886186123 72.095705447718501 5.6353917233645907 247.63723388686776 25.0543148573488 36.52952890470624 324.95174818485975 100.02168313972652
leaf_count=7118 447 89146 569 543 20021 192 2532 6189 59435 6718 2184 3155 881 1634 78 974 59 2524 5524 1846 923 648 2448 2407 3001 2387 1573 1633 9939 2269 1164 212 1789 838 8961 911 188 883 1729 109 556 1998 1400 9 20 772 159 20 27 20 77 11 124 294 360 5 1947 189 247 1966 2662
internal_value=0 0.122372 0.152298 0.0750725 0.128095 0.120633 0.0311811 0.124499 0.120413 0.16118 0.0922305 0.150285 0.080073 0.185625 0.041013 0.0561367 0.140145 0.170816 0.150945 0.0508583 0.192524 0.176439 0.158333 0.102962 0.164123 0.166021 -0.0211777 0.0287311 0.0477273 0.121472 0.15261 0.179719 0.238229 0.066213 -0.0200448 0.229052 0.181918 0.0551176 -0.0426232 0.142052 0.119689 -0.0375463 0.0271811 0.000892884 -0.0324157 0.167498 0.105858 -0.0885818 -0.079029 0.0433183 -0.0705094 0.1079 0.189088 -0.0942353 -0.0287993 -0.111233 -0.096922 -0.0856635 -0.0795269 -0.112715 -0.108447
internal_weight=0 74472.3 19095.5 1969.76 69578.3 52069 2157.13 49911.8 46784.7 17125.7 2099.94 17509.3 1800.72 3127.12 4894.06 4346.47 1175.22 15025.8 7844.76 1026.99 7181.01 5311.6 15708.6 1487.12 14221.5 6817.76 794.539 3062.06 2418.26 1284.41 1433.15 1121.35 1869.41 345.975 1713.52 443.605 615.52 311.806 643.798 1132.9 255.879 666.785 1185.2 438.197 151.509 1040.16 269.818 448.564 547.596 60.5357 135.065 23.6844 770.341 487.061 107.258 228.587 438.226 90.0962 43.9879 379.803 111.38
internal_count=268644 229284 39360 10099 202501 169000 12596 156404 148581 29261 6902 33501 5624 7823 26783 23791 4407 22359 12281 4370 10078 7366 27877 4855 23022 7911 5692 20419 17057 3372 2706 1376 2712 2152 11493 1103 1069 1330 3362 2378 1394 4196 4555 2193 994 1598 931 3540 2992 294 2809 70 667 2698 438 2003 3520 758 267 2260 2739
is_linear=0
shrinkage=0.1


Tree=6
num_leaves=62
num_cat=0
split_feature=71 38 31 133 131 74 105 38 72 70 61 73 39 69 114 107 36 37 71 72 36 32 107 107 39 59 106 71 60 66 54 29 112 52 33 60 70 107 117 31 104 52 110 31 67 103 113 55 62 39 105 74 102 39 105 70 107 71 70 136 40
split_gain=1226.45 3170.61 1265.6 1706.09 1476.86 1491.63 1119.81 1068.53 2122.51 987.743 1191.99 858.869 2171.15 1282.32 1030.58 668.611 866.61 763.68 1369.26 642.781 709.357 584.273 798.147 573.42 569.018 1098.67 551.889 456.949 442.062 430.198 388.091 358.014 313.274 478.301 302.712 290.651 207.252 205.77 158.639 141.128 129.861 119.592 108.367 93.8901 93.7008 92.2041 138.308 81.9681 76.2863 63.0289 38.5096 67.5649 29.3598 25.9683 12.3403 7.94299 3.50694 1.4814 0.498426 0.327021 0.139537
threshold=-0.36409164965152735 0.99501910805702221 1.0032951831817629 1.0000000180025095e-35 1.0000000180025095e-35 -1.0249049663543699 -0.88976949453353871 0.93127629160881054 -0.60534510016441334 -0.11860245093703269 0.79799196124076854 -0.78615185618400563 0.96571707725524913 -0.14817094057798383 -0.92226010560989369 -1.0031718611717222 0.90836516022682201 0.98915687203407299 -0.33794987201690668 -0.56504181027412403 0.96057513356208812 0.96504256129264843 -0.96579885482788075 -0.98723343014717091 0.98521178960800182 0.80853667855262767 -0.86689394712448109 -0.42709955573081965 0.7787630856037141 0.39313837885856634 1.034632742404938 1.0721018314361574 -1.3257293701171873 1.1436643600463869 0.8936431109905244 0.72697114944458019 -0.18792938441038129 -1.0164316892623899 -1.2852889895439146 1.0155758261680605 -0.93309396505355824 1.1436643600463869 -1.1904259324073789 1.0024116635322573 0.31768578290939337 -0.77673503756523121 -0.97892853617668141 0.98486456274986278 0.64707037806510936 1.0313686132431032 -0.82758983969688404 -0.84462460875511158 -0.88101220130920399 1.0355878472328188 -0.81154596805572499 -0.10278503224253653 -1.0088257193565366 -0.38627326488494867 -0.10278503224253653 1.0000000180025095e-35 1.0417855381965639
decision_type=2 2 2 2 2 2 2 2 2 2 2 2 2 2 2 2 2 2 2 2 2 2 2 2 2 2 2 2 2 2 2 2 2 2 2 2 2 2 2 2 2 2 2 2 2 2 2 2 2 2 2 2 2 2 2 2 2 2 2 2 2
left_child=1 2 3 4 5 -1 -6 8 -5 15 23 12 13 -4 -14 16 36 21 43 39 28 22 -17 55 35 -26 40 -9 48 -20 -23 -30 54 -34 -22 -13 37 -2 47 45 59 -38 -42 -19 53 46 -3 -18 -21 -36 51 -41 -40 -28 -25 56 -11 -47 -46 -12 -57
right_child=9 19 11 7 6 -7 -8 27 -10 10 26 24 14 -15 -16 17 38 18 29 20 34 30 -24 32 25 -27 44 -29 31 -31 -32 -33 33 -35 49 -37 41 -39 52 50 42 -43 -44 -45 58 57 -48 -49 -50 -51 -52 -53 -54 -55 -56 60 -58 -59 -60 -61 -62
leaf_value=0.027187361922080339 -0.013826497318286666 -0.098280654081585761 0.11554841297797891 0.016257802450370784 0.1343212596429906 0.11316592538118136 -0.036654349567092195 -0.10688333594193339 0.17349899438819824 -0.11002887182474602 -0.13522350523792123 0.15634945600665298 -0.0054083159580542309 0.19181702435335143 0.13347415659323358 0.15929191767433518 0.048211914640579612 -0.097365357644859318 0.15446474260230936 -0.051088074856503574 0.67111827215865638 -0.069828557554111353 0.087335260092106431 0.11262558124181857 0.034096158730068736 0.16278245513959919 0.021948809908482438 0.014654029580423045 0.0062074116335539865 -0.12759947775588124 0.20869670250410019 0.1382683132575214 0.083649645168943867 -0.076850398779612084 -0.035150997280873057 0.20628720067477224 -0.069055999208641847 0.1797538374076191 0.023471438345244493 -0.12784150275859027 0.17542616245726703 0.19818695849448775 0.10639735560260905 0.10294440580220808 -0.13041859503141737 -0.12014902420546264 0.01324159502562243 -0.096872993710658994 0.091965197567764334 -0.11923456252343222 0.34553806531163356 0.38737465940418342 0.22217542518319205 0.24392559090295407 0.18162972282511045 -0.14125725573635697 -0.15326815131558813 -0.13387577661791791 -0.10535386828212988 -0.16732245723267464 -0.10796921406715464
leaf_weight=2119.9077905323356 61.834222979843616 299.92137223668396 12840.472959041595 2465.7909808754921 555.29232676140964 41898.828345078975 1235.1064586602151 520.07290051132441 1316.9396647661924 21.495108399540186 5.2468121610581848 3587.286173067987 1993.0413971692324 2661.3754242807627 730.00682142004371 8825.6621504314244 44.93141595646739 352.10916194319725 969.74176907166839 296.18025878071785 5.2492574937641612 51.174166828393936 1867.7047618627548 32.942950237542391 1022.7871447652578 1888.2978462055326 11.476755879819395 763.47891030460596 291.204705003649 57.265049807727337 2231.715824380517 695.73667971044779 407.3308407459408 341.20630833692849 129.45997656136751 1726.4158859997988 69.313156757503748 490.42768245190382 11.409595675766466 6.8815331682562828 996.18157632648945 22.079347252845764 294.70469402894378 25.06575945019722 8.6919016353785974 166.74907991662621 176.73483300209045 292.0458567366004 42.645301472395658 286.30640786141157 8.6110764592885953 4.0393974184989947 21.351499021053314 9.7453567236661893 121.5083578415215 1.2813171818852414 147.27135951817036 148.75931657105684 90.947391431778669 8.0336062014102936 73.130015131086111
leaf_count=12199 299 2112 25573 13414 2411 116769 10463 3461 5783 323 34 5452 9042 2625 1928 8002 239 1860 2410 1282 17 197 5346 66 3726 3543 42 4059 1277 358 2231 1442 1714 2424 478 1647 336 422 36 43 671 25 912 65 57 1259 991 2405 104 1556 8 8 12 8 69 12 765 828 2662 34 1108
internal_value=0 0.104915 0.108539 0.0993141 0.105404 0.109025 0.0163737 0.0442488 0.0710006 0.133832 0.0764584 0.126282 0.114176 0.128642 0.0318239 0.143415 0.0649078 0.148948 0.0788937 -0.00461 0.0295579 0.156528 0.146724 0.000538413 0.153106 0.11757 0.137522 -0.0345908 0.0654689 0.138737 0.202453 0.0993027 0.0372441 0.0104888 -0.0835251 0.172574 0.134996 0.15808 -0.057104 -0.0781397 0.156467 -0.00449326 0.159667 -0.0840535 -0.0669047 -0.0846872 -0.0569304 -0.0775279 -0.0330831 -0.0930529 0.187409 0.0627249 0.152973 0.123882 0.166912 -0.13576 -0.147761 -0.126621 -0.10754 -0.154641 -0.108542
internal_weight=0 79883.6 77325.1 50875.4 45809.1 44018.7 1790.4 5066.28 3782.73 17965 2571.19 26449.7 18224.9 15501.8 2723.05 15393.8 1013.39 14380.4 1404.18 2558.48 1746.78 12976.3 10693.4 1146.17 8224.79 2911.08 1425.03 1283.55 1325.77 1027.01 2282.89 986.941 902.988 748.537 421.016 5313.7 643.654 552.262 369.738 811.697 1304.17 91.3925 1290.89 377.175 120.861 792.165 476.656 336.977 338.826 415.766 19.532 10.9209 32.7611 21.2221 154.451 243.178 168.766 315.508 99.6393 13.2804 74.4113
internal_count=268644 233500 222095 168559 141842 128968 12874 26717 19197 35144 10901 53536 39168 28198 10970 24243 3774 20469 4693 11405 6156 15776 13348 6481 14368 7269 4420 7520 4105 2768 2428 2719 4273 4138 2051 7099 1082 721 2692 5249 1651 361 1583 1925 2769 5190 3103 2644 1386 2034 59 51 48 50 135 2208 1088 2087 2719 68 1120
is_linear=0
shrinkage=0.1


Tree=7
num_leaves=63
num_cat=0
split_feature=72 30 31 106 136 31 126 31 107 36 39 51 110 33 72 31 71 60 135 3 73 69 33 0 107 42 53 104 101 73 115 98 71 130 127 66 59 110 67 3 100 100 56 43 104 73 108 44 50 69 39 121 70 70 32 69 136 69 32 32 1 68
split_gain=1182.16 2207.8 942.985 824.89 900.851 1072.23 745.84 688.748 616.626 988.867 587.575 534.668 1476.34 715.051 532.225 500.677 578.244 460.993 406.487 393.748 456.138 378.838 347.653 288.355 273.169 271.932 328.969 266.029 245.392 220.75 209.665 203.433 202.13 165.818 187.389 157.002 155.571 151.381 143.736 113.86 108.372 100.668 88.2653 164.575 77.8498 65.4359 62.5276 49.0187 143.309 27.6808 19.8844 17.2447 3.30866 0.492467 0.47419 0.253895 0.0883767 0.0431402 0.0375905 0.0285423 0.0129208 0.00590062
threshold=-0.53667202591896046 1.0322327017784121 1.011643707752228 -0.80125519633293141 1.0000000180025095e-35 1.0027365088462832 -2.9889659881591792 0.99962589144706737 -0.999525487422943 0.90836516022682201 1.0304177403450014 1.150476932525635 -1.1904259324073789 0.84630247950553905 -0.55375507473945607 0.99781200289726268 -0.40593653917312617 0.84465116262435924 1.0000000180025095e-35 0.58714610338211071 -0.86208501458168019 -0.030636914074420925 0.85889881849288952 0.20123737305402759 -1.0140631198883054 1.0900576710700991 0.99537655711174022 -0.7550549805164336 -0.81778326630592335 -0.74641856551170338 -1.4580695629119871 -0.83811128139495839 -0.2653272002935409 1.0000000180025095e-35 -1.5359303951263426 0.42100487649440771 0.84940251708030712 -1.1655590534210203 0.1184898614883423 0.577571600675583 -0.72526800632476796 -0.89174526929855336 1.0259545445442202 1.1524651050567629 -0.93309396505355824 -0.70270806550979603 -1.0503628253936765 1.1418758034706118 1.1488789319992068 0.010263756383210422 1.032337009906769 -1.876163601875305 -0.10278503224253653 -0.10278503224253653 0.82566341757774364 0.025407575070858005 1.0000000180025095e-35 0.049861928448081023 0.8219568431377412 0.82566341757774364 -0.69180569052696217 0.17788026481866839
decision_type=2 2 2 2 2 2 2 2 2 2 2 2 2 2 2 2 2 2 2 2 2 2 2 2 2 2 2 2 2 2 2 2 2 2 2 2 2 2 2 2 2 2 2 2 2 2 2 2 2 2 2 2 2 2 2 2 2 2 2 2 2 2
left_child=1 10 3 4 5 -3 30 -6 9 24 14 18 27 -14 25 16 -5 21 22 20 39 -11 -10 40 37 26 -1 -13 -22 -27 35 -17 -26 41 -35 46 -25 -8 -20 -4 -16 -21 47 45 -19 -44 49 48 -12 -2 -49 -48 54 -37 58 -56 -45 -55 -32 60 -54 -61
right_child=6 2 19 15 7 -7 8 -9 11 17 42 12 13 -15 23 31 -18 44 38 33 28 -23 -24 36 32 29 -28 -29 -30 -31 52 -33 -34 34 -36 53 -38 -39 -40 -41 -42 -43 43 56 -46 -47 51 50 -50 -51 -52 -53 59 57 55 -57 -58 -59 -60 61 -62 -63
leaf_value=-0.041552189995973349 0.17523317126734422 0.072028224712208253 -0.14207456676985886 0.027584723344936585 0.12932802625938442 0.10228965605677139 -0.011218453380336592 0.088599110332382491 0.067091207178556572 0.01733695223291767 -0.11533946306040983 0.084825537936825346 -0.065604015176485592 0.079792331581510778 -0.12727284568785507 0.19345315183009945 0.15301499919597777 -0.054548540307015794 0.26354612536999661 0.16269392604568197 0.1201574565161394 -0.12158080879071897 0.15146485234202792 0.073680500552499792 0.144747196129556 -0.12720223418661405 0.045679124241800907 0.16184247238172172 -0.058328435877530331 0.007136282239726211 -0.11750401558580958 -0.1467032416770663 -0.15922488062816509 -0.13573409572347325 0.1232830648127336 -0.14386842260466823 0.14523044122174936 0.13103789726295328 -0.13563138383630477 0.059763814529783389 0.039540802479994031 0.042732258455252442 0.031685209240360127 -0.1188732969646606 0.14777957715093051 0.33245766269562282 0.19660239886940128 -0.051686567310833986 0.12805334696446441 -0.13626056758450539 -0.11793162813755885 0.33913404109282996 -0.11350715275688189 -0.11935500108843713 -0.14654971234529143 -0.13171050279943591 -0.13175013784169029 -0.10591380893917779 -0.12590170506484985 -0.11383986909161344 -0.10283317502687568 -0.10632287835279597
leaf_weight=538.54439396597445 5.0408430099487287 32594.383933160454 91.237973123788834 591.32377245649695 8619.543740067631 18272.593445405364 210.46735904738307 8010.6483383923769 519.53292680159211 557.65788029879332 69.084417100995779 514.64448222145438 371.81884410977364 3745.8139242902398 72.287825107574463 1318.6025005951524 971.19335154443979 20.96402121335268 10.403910681605337 3215.6758898049593 1782.0294682681561 302.95449892058969 8136.5966490767896 659.06569791212678 1480.7686477005482 218.47086412087083 2191.9176227841526 3489.2698306553066 80.508769430220127 277.93458805978298 14.577701266855001 17.819453313946724 22.203778404742479 39.67484176158905 94.361605226993561 4.6785786431282785 563.88355902582407 116.05241299793124 67.840755134820938 40.291285529732704 84.433672562241554 71.508519485592842 12.413179136812689 24.42522646300495 204.7767302505672 17.334376975893974 17.005657613277435 53.57531813159585 37.227146765217185 6.5726127475500107 293.74897282756865 16.948599308729172 1.1532147079706181 2.7770156972110298 20.251965403556824 26.772588938474655 6.8175841197371474 17.039245199412107 8.4029499068856239 1.0790344849228848 68.268956761807203 32.405809409916401
leaf_count=7118 1 119527 495 2447 12069 41212 1021 15438 1229 2674 320 981 1911 9693 505 1885 1509 84 22 2718 4002 2787 10144 1495 1587 1473 10563 1849 412 1265 126 93 123 206 167 25 883 310 398 125 489 196 54 192 250 10 31 294 118 63 1966 15 11 35 98 148 38 406 53 15 2666 604
internal_value=0 0.0905484 0.0948411 0.0917478 0.0895045 0.0828988 0.117691 0.109709 0.119831 0.0773706 0.0270006 0.127176 0.108706 0.0666632 0.0383221 0.143981 0.105547 0.00179766 0.14435 0.135052 0.0997326 -0.0315652 0.146401 0.0903053 0.122246 0.0160963 0.028474 0.151943 0.112442 -0.0519869 -0.0564457 0.188918 0.140257 0.155639 0.0466139 0.0894871 0.106671 0.0393426 -0.0825542 -0.0802455 -0.037402 0.160084 -0.0743413 0.038605 0.12899 0.20695 0.199241 -0.0895267 -0.0301105 -0.00105611 -0.107713 0.267748 -0.115576 -0.114687 -0.132348 -0.138101 -0.121683 -0.107797 -0.120575 -0.104167 -0.10301 -0.106565
internal_weight=0 80932.6 75811.4 70396.1 67497.2 50867 20014.7 16630.2 19771.8 2915.85 5121.16 16855.9 8121.55 4117.63 4606.54 2898.94 1562.52 1086.35 8734.37 5415.29 1994.07 860.612 8656.13 1379.67 1829.49 3226.87 2730.46 4003.91 1862.54 496.405 242.975 1336.42 1502.97 3421.22 134.036 70.0626 1222.95 326.52 78.2447 131.529 156.721 3287.18 514.626 60.9904 225.741 29.7476 45.5677 453.636 106.312 11.6135 347.324 33.9543 172.912 24.4948 70.0052 47.0246 31.2428 19.8163 22.9807 102.907 69.4222 33.4848
internal_count=268644 229284 202501 194180 188246 160739 39360 27507 35063 8836 26783 26227 14434 11604 23791 5934 3956 5795 11793 8321 5034 5461 11373 3372 3041 20419 17681 2830 4414 2738 4297 1978 1710 3287 373 576 2378 1331 420 620 994 2914 2992 294 334 64 110 2698 438 64 2260 46 3721 466 425 246 230 441 179 3296 2677 619
is_linear=0
shrinkage=0.1


Tree=8
num_leaves=62
num_cat=0
split_feature=132 31 136 31 131 99 70 57 41 43 130 106 107 37 75 80 126 74 114 30 57 88 53 109 35 81 75 102 103 113 102 32 116 61 117 127 108 67 107 25 6 28 100 40 111 39 32 32 106 69 125 38 106 51 38 51 31 30 34 61 0
split_gain=1289.71 1304.72 1268.98 934.482 1026.14 1158.32 925.052 791.305 1903.42 1178.98 739.898 654.776 526.757 487.608 414.517 388.411 380.719 370.775 561.478 491.929 343.936 341.384 323.648 326.748 230.674 211.859 211.52 305.854 183.761 163.84 162.966 152.011 150.783 149.437 119.325 139.562 117.916 114.099 96.6153 83.7791 118.552 72.8469 43.041 27.9858 24.6376 24.3522 20.9254 43.3085 15.9986 14.9183 7.41425 5.59836 1.43334 0.4017 0.359289 0.287768 0.169905 0.0903195 0.0456434 0.0236661 0.0227073
threshold=1.0000000180025095e-35 0.96707174181938182 1.0000000180025095e-35 1.0058160424232485 1.0000000180025095e-35 -0.97294077277183522 -0.097307410091161714 0.9197707772254945 1.0320349335670473 1.1032966971397402 1.0000000180025095e-35 -0.84599199891090382 -1.0140631198883054 0.96906548738479625 -1.0344883203506468 -1.1811149120330808 -2.9889659881591792 -0.99907478690147389 -0.96870598196983326 1.0870971083641054 0.95972874760627758 -1.2466816306114195 1.1064288616180422 -0.90513443946838368 0.87170669436454784 -1.3730291128158567 -1.0537309646606443 -0.91194278001785267 -0.92558896541595448 -0.87866756319999684 -0.88602817058563221 0.91890105605125438 -1.016032814979553 0.50638833642005932 -1.5652984380722044 -3.2302532196044917 -1.0550016760826109 -0.0049729128368198863 -1.0356689691543577 1.0578393340110781 0.11649069562554361 1.0674461722373965 -0.55054804682731617 1.039536774158478 -1.2511671781539915 1.0071464180946352 0.9203125834465028 0.9209294617176057 -0.94857552647590626 -0.028339705429971215 -1.1123507022857664 0.9771120846271516 -0.88451069593429554 1.1986098885536196 0.98989349603652965 1.0492900013923647 1.0121511816978457 1.0327128767967226 0.86765313148498546 0.79799196124076854 0.6448429822921754
decision_type=2 2 2 2 2 2 2 2 2 2 2 2 2 2 2 2 2 2 2 2 2 2 2 2 2 2 2 2 2 2 2 2 2 2 2 2 2 2 2 2 2 2 2 2 2 2 2 2 2 2 2 2 2 2 2 2 2 2 2 2 2
left_child=1 2 15 4 7 37 12 8 -3 -9 22 33 24 14 32 17 -16 19 -19 -1 28 50 23 -5 38 -7 30 -28 -17 -13 -23 -22 -14 -12 35 36 59 -6 55 43 -41 -40 49 44 -36 -38 48 -48 -26 -15 57 -45 53 -37 -54 -2 -24 -4 -42 -8 -52
right_child=6 3 21 10 5 25 34 9 -10 -11 11 29 13 42 16 20 -18 18 -20 -21 31 26 56 -25 46 -27 27 -29 -30 -31 -32 -33 -34 -35 39 52 45 -39 41 40 58 -43 -44 51 -46 -47 47 -49 -50 -51 60 -53 54 -55 -56 -57 -58 -59 -60 -61 -62
leaf_value=-0.038383844282243978 -0.13968977154140419 0.077389966421647943 -0.17043183477620774 0.094380069554154414 0.16007110554880685 -0.099930174948407779 -0.10873071331417437 0.12103716156404097 -0.0006020907799122099 0.071798916099401991 0.1586880821353801 0.080271763546558905 -0.1772291210955125 -0.047923910730864924 -0.079802744424568389 0.020086895064228862 0.11815531989111552 0.010412323948272408 0.17332300164270981 0.09198774446087718 -0.0054673477432455224 0.15824180128825205 -0.14394135693505669 0.12203907256157548 -0.12195842743178545 -0.010382949592680555 -0.085000909814039002 0.12178195213976431 -0.068569573522912208 0.17860960456402147 -0.062116489622395243 0.10689139253510294 0.024194955321671999 -0.0048523699358126553 0.21710919901274028 -0.10954260649067499 0.24231831283344962 -0.13370214550391793 -0.14495089561137195 0.28799155689075628 -0.1269178462118106 0.10031223856459055 0.13878169144297409 -0.076161542283323835 -0.10561595285896624 0.11660597996796956 0.25590867774083803 -0.12401550931011546 -0.039867568100744093 -0.13898829436521704 -0.12283523205317524 -0.11006011991740115 -0.13936138976859055 -0.1559697875096093 -0.17353231135955738 -0.11659108096161142 -0.13262669463098381 -0.18505991042323788 -0.1153852978265984 -0.1165798342338133 -0.10318557131525641
leaf_weight=949.63707113265991 7.8607174009084728 34638.330637954175 6.0151329636573818 8096.705914542079 446.59065571427345 322.25039589032531 17.835701996460561 9236.1216437667608 3439.9717692583799 10270.54778983444 58.483007103204727 391.99156083166599 45.241545632481575 23.659100312739611 97.697919823229313 290.61441692337394 17430.315752947703 459.46619722992182 392.10282227769494 416.3039542324841 264.36066565103829 928.86710590496659 25.223909564316273 9039.5598004534841 119.37269066646695 1466.7970426939428 103.36133004724979 232.2641323748976 1195.743553923443 298.39906446635723 34.819306373596191 221.12813848257065 208.17226036638021 1252.2869818136096 5.3230079375207424 25.066592331975702 19.920398987829685 13.624115481972693 12.945939838886259 14.454038172960283 6.0341660901904088 187.55992747098207 7.0386150814592829 67.646046452224255 4.2576798386871797 68.044860113412142 5.0288725942373258 7.4384121596813202 29.634210094809532 75.071255065500736 0.59912186861038108 174.12273243814707 7.2755550593137723 2.0133010298013678 5.332115177065134 17.183650746941566 28.007939904928207 14.150732666254042 7.9576194137334824 4.8957872390747061 31.984541606158018
leaf_count=9215 39 96331 25 15793 757 2546 278 19773 13875 28611 80 881 192 145 686 2297 19547 3580 1234 1260 1643 903 126 11949 1147 8767 486 291 10722 188 104 762 773 4492 6 377 7 80 65 17 48 484 23 2180 114 156 3 52 457 538 4 2814 39 9 34 146 159 57 82 48 1147
internal_value=0 0.0790155 0.0321092 0.0823047 0.0761462 0.00988434 0.108033 0.0787344 0.0703442 0.0951125 0.101506 0.0439579 0.111445 0.113943 0.115216 0.00492342 0.117052 0.0336362 0.0854241 0.00135009 -0.0273666 0.116344 0.108206 0.10897 -0.00397646 -0.0265126 0.126469 0.0580998 -0.0512354 0.122775 0.15028 0.0457093 -0.011765 0.00244436 -0.0369125 0.0349264 0.0926086 0.151374 0.0613456 -0.0755245 0.0871342 0.0844765 -0.100134 -0.093933 0.0736894 0.145074 -0.0952195 0.0292328 -0.105632 -0.117166 -0.133041 -0.100575 -0.125961 -0.112994 -0.153813 -0.123841 -0.137988 -0.180697 -0.120359 -0.110421 -0.103547
internal_weight=0 84566.3 5541.42 79024.9 59834.2 2249.26 18704.4 57585 38078.3 19506.7 19190.7 2001.16 18274.2 17887.2 17781.4 4189.36 17528 2217.51 851.569 1365.94 1971.85 1352.06 17189.5 17136.3 387.024 1789.05 1299.31 335.625 1486.36 690.391 963.686 485.489 253.414 1310.77 430.18 150.384 110.697 460.215 225.55 279.795 28.4458 200.506 105.769 251.349 9.58069 87.9653 161.474 12.4673 149.007 98.7304 52.7495 241.769 39.6876 27.0799 12.6077 25.0444 53.2318 20.1659 13.9918 22.7315 32.5837
internal_count=268644 238138 33730 204408 170740 12150 30506 158590 110206 48384 33668 5641 24297 21904 21198 30713 20233 15289 4814 10475 15424 3017 28027 27742 2393 11313 1784 777 13019 1069 1007 2405 965 4572 6209 948 489 837 734 5261 147 549 706 5114 120 163 1659 55 1604 683 1233 4994 459 386 73 185 285 82 130 326 1151
is_linear=0
shrinkage=0.1


Tree=9
num_leaves=61
num_cat=0
split_feature=132 31 136 57 105 31 134 45 74 72 85 70 130 106 32 53 53 72 36 36 63 70 99 16 69 45 106 75 117 106 107 115 116 74 69 134 35 63 35 72 6 74 125 31 36 32 105 112 74 111 98 61 70 70 69 75 70 126 126 70
split_gain=1205.23 1152.07 1503.71 1485.21 1831.02 1365.98 1090.81 891.805 1563.23 869.972 813.618 767.908 650.511 796.558 567.854 668.525 565.748 504.983 1755.48 747.997 1027.41 561.559 544.18 468.415 2014.94 538.708 447.485 372.322 338.079 406.717 332.906 321.262 258.777 268.729 257.147 216.003 194.046 184.793 174.864 431.619 147.022 145.651 135.484 131.669 115.836 114.126 112.494 73.6927 50.6963 39.2844 37.9709 30.9475 104.861 18.5791 29.3763 16.7528 6.22398 4.16249 1.81238 0.441421
threshold=1.0000000180025095e-35 1.0032951831817629 1.0000000180025095e-35 0.91293227672576915 -0.8546994924545287 0.99042516946792614 1.0000000180025095e-35 1.1317217946052553 -0.92178106307983387 -0.59417182207107533 -1.3581973314285276 -0.10825472697615622 1.0000000180025095e-35 -0.84599199891090382 0.94589412212371837 1.0494775176048281 1.012337386608124 -0.62708362936973561 0.90507137775421154 0.91806548833847057 0.51082852482795726 -0.31201915442943567 -0.86565598845481861 0.66680774092674266 0.0066267321817576894 1.1959284543991091 -0.96634888648986805 -1.0344883203506468 -1.5373818278312681 -0.89866057038307179 -0.98723343014717091 -1.4479337334632871 -0.90647518634796131 -0.98605725169181813 0.049861928448081023 1.0000000180025095e-35 0.89038205146789562 0.67550083994865429 0.92440280318260204 -0.60283911228179921 0.163178525865078 -1.0425789952278135 -2.6335836648941036 1.0027365088462832 0.8680095672607423 0.86214503645896923 -0.82601547241210926 -1.2639185190200803 -1.0092396736145017 -1.2637815475463865 -0.87508264183998097 0.77915674448013317 -0.12427997589111327 -0.10278503224253653 0.034318352118134506 -0.50345495343208302 -0.10278503224253653 -2.9889659881591792 -2.9889659881591792 -0.10278503224253653
decision_type=2 2 2 2 2 2 2 2 2 2 2 2 2 2 2 2 2 2 2 2 2 2 2 2 2 2 2 2 2 2 2 2 2 2 2 2 2 2 2 2 2 2 2 2 2 2 2 2 2 2 2 2 2 2 2 2 2 2 2 2
left_child=1 2 3 4 5 -1 -6 9 -9 -5 43 23 17 38 16 -16 -12 18 21 35 -21 -3 -20 31 26 30 44 -28 29 40 -26 51 33 -15 42 -19 57 -27 39 -14 56 -34 -31 48 -25 53 59 -48 -4 -36 -40 52 -2 58 -55 -53 -13 -33 -30 -47
right_child=11 12 10 7 6 -7 -8 8 -10 -11 14 28 13 32 15 -17 -18 19 22 20 -22 -23 -24 24 25 37 27 -29 45 34 -32 36 41 -35 49 -37 -38 -39 50 -41 -42 -43 -44 -45 -46 46 47 -49 -50 -51 -52 55 -54 54 -56 -57 -58 -59 -60 -61
leaf_value=0.027591393515241164 0.14741548305625563 0.084813458666990471 -0.074920572259518314 0.069361526463084841 0.024816029970692599 0.081658492800328386 -0.056270950462802699 -0.040495059887783687 0.070820166813429328 0.13966780835180465 0.077761706133310418 -0.1538833938944934 -0.0087317651634704653 -0.043543439097496625 -0.0083415932964802913 0.085379472096285325 0.13483612489063215 0.12401622438869607 0.020783949592187184 -0.01302573614948652 0.10490414331117651 0.13872612261058553 -0.10943051125918456 0.033271703254197496 -0.17305504870891264 -0.15998000551328459 -0.011776626482431767 0.11010325558508172 -0.12122443472381191 0.14322809666680353 0.059872914521280685 -0.1270508121945883 -0.081456372245122671 0.096476639529501307 0.062133502922436558 0.17089220714100845 0.17226042262687269 0.023424342097743227 0.065754531678987357 0.15959278252114206 0.1814858829007763 0.16837245777125417 -0.03274232949853486 0.1258602512045254 -0.091621583988554758 -0.14318244900115348 0.16837488828689506 -0.1308034834498189 -0.1882775699614376 -0.11139102699070827 -0.1423051125458849 0.18025822687673509 -0.17033722059207337 0.081197341261911429 -0.098609244896585554 0.1518085093443286 -0.10953300322394213 -0.18153501189564131 -0.15754657063253735 -0.11656416377661903
leaf_weight=9809.6772528961301 53.37233579158783 11751.211779430509 63.869851920753717 3781.9449850283563 4277.0728634260595 8923.4847344905138 2710.2864178791642 1439.405914388597 10211.53909548372 3292.0544170215726 2847.6335168164223 50.281950503587723 1544.6100794523954 174.37025880813599 906.42246678471565 4747.3219454810023 4452.0527638886124 3028.6938116177917 1824.5506271421909 913.25679426640272 3866.0569971501827 2312.176759108901 389.44385325163603 211.27344379946589 72.546571772545576 356.51386652886868 255.23591648414731 13926.726817373186 18.274556934833527 395.95762955024838 397.88431826233864 28.924414835870266 24.483101636171341 640.70857255160809 16.632715048268437 1455.3846519291401 27.127348110079765 64.944831185042858 9.6357167959213239 169.00529031455517 17.566998168826103 498.13559575378895 49.188192266970873 20.116597905755043 114.51187194511294 18.343424197286371 44.510396152734756 10.101619377732275 103.20127416588366 60.511914201080799 97.803753234446049 233.17921553552151 12.894882369786499 9.6439693644642812 157.12802839465439 1842.3133586831391 85.360480083152652 27.215819925069809 55.331557214260101 9.4342957772314531
leaf_count=46372 16 20415 1235 12684 21738 26793 12177 6761 29483 5897 5204 303 5489 638 2193 7926 4327 3672 6299 3182 7188 2315 2016 594 384 1752 973 16089 135 490 632 185 90 1366 109 959 11 130 27 252 23 479 250 30 736 101 95 84 441 1269 490 53 85 46 3643 538 1318 113 244 105
internal_value=0 0.0695922 0.0614349 0.0526483 0.037051 0.0533461 -0.00663633 0.0740728 0.0570678 0.10208 0.0911535 0.0976432 0.0859601 0.0431497 0.0941447 0.0703539 0.112571 0.0912547 0.0806472 0.109894 0.0823695 0.0936773 -0.0021209 0.102476 0.0962791 -0.0496091 0.105248 0.10791 0.01232 0.052547 0.0239524 0.145365 0.101741 0.0665221 0.0945732 0.139231 -0.0473477 -0.131718 0.000110085 0.00786924 -0.0907202 0.156669 0.123784 -0.11584 -0.0106276 -0.0718686 0.0296997 0.113036 -0.144942 -0.0739784 -0.123645 0.152857 0.0855843 -0.106681 -0.0882115 0.155005 -0.125973 -0.153464 -0.148529 -0.134142
internal_weight=0 86285.6 57586.1 44445.5 25720.5 18733.2 6987.36 18724.9 11650.9 7074 13140.6 18622.9 28699.5 3158.75 12953.4 5653.74 7299.69 25540.8 16277.4 9263.39 4779.31 14063.4 2213.99 17624.7 15399.6 891.89 14507.7 14182 998.268 675.5 470.431 2225.03 1337.7 815.079 522.29 4484.08 83.2676 421.459 1821.05 1713.62 153.209 522.619 445.146 187.188 325.785 322.768 82.3897 54.612 167.071 77.1446 107.439 2141.76 66.2672 240.378 166.772 2075.49 135.642 56.1402 73.6061 27.7777
internal_count=268644 238138 183261 161905 107080 73165 33915 54825 36244 18581 21356 30506 54877 8831 19650 10119 9531 46046 31045 15001 10370 22730 8315 22291 21290 2898 18392 17062 8215 3762 1016 1001 2573 2004 2118 4631 309 1882 6258 5741 1644 569 740 1706 1330 4453 385 179 1676 1378 517 692 101 4068 3689 591 1621 298 379 206
is_linear=0
shrinkage=0.1


Tree=10
num_leaves=63
num_cat=0
split_feature=132 31 136 31 71 38 33 54 53 70 38 96 73 97 16 69 28 45 4 73 105 74 123 87 107 128 124 117 107 107 115 34 30 54 127 69 94 100 35 62 1 127 31 31 30 104 127 50 47 111 117 61 70 35 70 69 70 126 126 107 70 61
split_gain=1129.26 996.55 905.287 1308.27 1118.49 1828.14 611.985 814.403 615.084 610.358 583.196 542.632 1136.59 687.042 460.582 1638.8 456.639 451.459 419.511 532.164 403.163 402.915 355.73 330.133 321.941 317.763 312.122 287.273 344.687 279.113 273.405 272.886 242.394 233.164 228.74 201.555 189.691 179.491 163.754 160.46 158.88 136.929 101.867 100.457 96.7339 92.5239 78.6916 77.0653 59.4223 34.5482 30.1324 25.8561 89.5082 15.323 14.5137 26.0969 2.67495 2.64123 1.17759 0.72448 0.245747 0.0562856
threshold=1.0000000180025095e-35 1.006603538990021 1.0000000180025095e-35 0.96017679572105419 -0.3664166778326034 0.99722400307655346 0.91131216287612926 1.0065464377403261 1.012337386608124 -0.10825472697615622 1.0113219022750857 -1.0201320648193357 -0.82287767529487599 -0.94352489709854115 0.66680774092674266 0.0066267321817576894 1.2113887071609499 1.1959284543991091 0.58013826608657848 -0.79817667603492726 -0.94415581226348866 -0.98364973068237294 -1.1197067499160764 -1.3027878403663633 -1.0140631198883054 1.0000000180025095e-35 -1.2282497882843015 -1.5373818278312681 -0.98384243249893177 -0.98496499657630909 -1.4479337334632871 0.84980329871177684 1.0865331292152407 1.0272154211997988 -1.376556873321533 0.049861928448081023 -1.0941204428672788 -0.8473348319530486 0.89038205146789562 0.74431464076042186 0.52732422947883617 -3.2034684419631954 0.87636348605155956 1.011643707752228 1.0541765689849856 -0.75712007284164418 -1.5538836717605589 1.0785563588142397 1.2245222926139834 -1.2637815475463865 -0.97466486692428578 0.77915674448013317 -0.12427997589111327 0.86676740646362316 -0.10278503224253653 0.039158072322607047 -0.10278503224253653 -2.9889659881591792 -2.9889659881591792 -0.999525487422943 -0.10278503224253653 0.79799196124076854
decision_type=2 2 2 2 2 2 2 2 2 2 2 2 2 2 2 2 2 2 2 2 2 2 2 2 2 2 2 2 2 2 2 2 2 2 2 2 2 2 2 2 2 2 2 2 2 2 2 2 2 2 2 2 2 2 2 2 2 2 2 2 2 2
left_child=1 2 3 25 5 -5 8 23 16 14 -6 26 13 21 30 20 -4 29 19 -14 44 -13 -10 -8 -22 32 46 28 56 -17 51 -15 -1 -9 -27 41 43 -20 57 -19 -38 -30 54 -28 -16 60 50 -48 -47 -37 -3 52 -2 -53 58 -56 59 -32 -29 -11 -44 -58
right_child=9 11 6 4 10 -7 7 33 22 27 -12 12 18 31 15 17 -18 39 37 -21 24 -23 -24 -25 -26 34 36 42 35 -31 38 -33 -34 -35 -36 49 40 -39 -40 -41 -42 -43 45 -45 -46 48 47 -49 -50 -51 -52 53 -54 -55 55 -57 61 -59 -60 -61 -62 -63
leaf_value=-0.03798606820417133 0.13920614009849039 0.13326439200831289 -0.040500758042852358 0.052404551793602788 0.11626870949042326 -0.059188023485605659 0.04267271957202054 0.037068788220825093 0.12180914645017618 -0.12871800045225501 0.051082125410139324 0.0072209390475942263 -0.0066101325251676432 0.05730033463522375 -0.14764586849779504 -0.14582968822391054 0.076098828251588188 -0.14524866272842793 0.11978364846430961 0.08574566039910686 -0.0022476224544142193 0.08375388392565343 -0.086094047478481581 -0.13118263803078115 0.099515737032092128 0.13875249861000058 0.092214083003688052 -0.11885414751710199 0.12911738378409351 0.057288257688369232 -0.12391267820630938 -0.11467004753917286 0.043511246220231128 0.076386442778640262 -0.079432763627022285 0.050621428595691687 -0.15164622712736808 0.0047310072609609384 0.15712319804077277 0.04734608817496827 0.066435352202604811 -0.010321692139216146 -0.138679174239244 0.12846582561287065 0.0016140206534044463 0.14568103135873756 0.17385565971668385 0.026486732921857534 -0.13360058729175642 -0.11049135645546421 0.26268273999065367 0.094751709858766187 -0.16186219246142405 0.1473595843056579 -0.006764355794516003 -0.10708020711100807 -0.10662350291132111 -0.16846283126365302 -0.1493701270465517 -0.15719564933865018 -0.11689161029065812 -0.11485215749607672
leaf_weight=2248.4590963628143 50.990419819951057 20.907428815960884 382.4417225625366 43975.869522061199 4052.0893966555595 1518.7392772547901 169.84667038917542 2070.1764322891831 4929.8932485841215 19.618557762354612 2075.3966921567917 1457.2398047819734 732.49416226893663 116.83435013890266 63.044628452509642 82.053741335868835 2758.5503490120173 360.61921968311071 3829.2167089283466 4208.4809287115932 317.9866583161056 1302.9346790239215 83.696989603340626 306.00161979347467 13910.556314267218 209.4740812368691 1291.7935411036015 16.848243430256844 390.81823024153709 385.45893229544163 26.800346940755844 438.92692395299673 435.66517046093941 5557.0861189290881 62.35216430388391 17.355734532698989 35.28606703877449 140.57449793815613 26.78207041323185 49.155917540192604 627.194625005126 85.904650583863258 17.510641001164917 1872.3124413639307 139.49054118990898 46.440472055226564 390.5695149153471 39.031392365694046 9.1134477257728559 57.091410430148244 128.94736175239086 56.998846583068371 12.246599551290272 1932.5278246067464 32.667806662619114 125.78663846291602 56.565953934565187 26.433620497584343 50.696511197835207 16.402325496077538 7.3498469963669768 9.7446800842881185
leaf_count=20612 16 35 2117 139159 5713 7063 323 4201 4798 181 5811 4219 2655 233 378 415 4888 1799 4488 7787 1871 2468 313 1144 15658 1069 1477 135 526 601 185 1949 1961 9235 1296 115 182 328 11 83 1036 394 102 1087 485 93 308 97 73 1291 86 56 85 535 209 3522 1088 113 235 74 84 93
internal_value=0 0.0617188 0.0565465 0.0503765 0.0540813 0.0486793 0.0772597 0.0577964 0.0966001 0.0889731 0.0941898 0.0837464 0.0729036 0.022923 0.0932458 0.0871802 0.0619019 -0.0455218 0.0915028 0.072054 0.0952473 0.0433482 0.118338 -0.0691277 0.0972415 -0.0143242 0.113835 0.0113409 0.0488004 0.0216388 0.136783 -0.0785177 -0.0247581 0.0657149 0.0887046 0.0800936 0.103478 0.11571 -0.0445648 -0.122145 0.0548196 0.103991 -0.0685506 0.113666 -0.0448472 0.0281099 0.182231 0.160466 0.0998658 -0.0729314 0.244627 0.143852 0.0809007 0.145852 -0.102944 -0.0863986 -0.119749 -0.146034 -0.141758 -0.141685 -0.132238 -0.107833
internal_weight=0 87468.5 70835.7 54578 51622.1 45494.6 16257.7 8103.11 8154.58 18401.1 6127.49 16632.7 12226.7 3315.94 17441.1 15308.4 3140.99 877.288 8910.77 4940.98 14431.1 2760.17 5013.59 475.848 14228.5 2955.95 4406.04 959.915 653.502 467.513 2132.78 555.761 2684.12 7627.26 271.826 551.17 3826.59 3969.79 80.016 409.775 662.481 476.723 306.414 3164.11 202.535 80.4144 579.456 429.601 55.5539 74.4471 149.855 2052.76 63.237 1989.53 225.999 158.454 102.332 53.234 67.5448 36.0209 24.8605 66.3106
internal_count=268644 238138 209703 182684 157746 146222 27019 14903 12116 30506 11524 28435 24127 8869 22291 21290 7005 2898 15258 10442 18392 6687 5111 1467 17529 24938 4308 8215 3762 1016 1001 2182 22573 13436 2365 2326 3782 4816 309 1882 1218 920 4453 2564 863 352 526 405 166 1406 121 692 101 591 4101 3731 1436 298 370 255 186 1181
is_linear=0
shrinkage=0.1


Tree=11
num_leaves=52
num_cat=0
split_feature=72 38 31 133 38 72 131 98 74 134 96 73 90 34 107 36 69 61 71 105 17 50 127 52 69 55 67 74 107 115 104 71 39 38 71 67 43 12 69 45 116 50 30 106 1 106 132 72 70 34 24
split_gain=1071.65 1431.65 788.822 839.894 988.831 1501.02 814.624 955.642 816.286 488.247 704.614 979.135 491.074 409.669 426.055 652.7 421.388 452.752 329.041 317.002 294.89 593.453 263.008 227.92 215.839 211.815 186.06 181.34 152.739 129.563 123.369 112.523 100.911 78.0632 75.9672 58.0432 56.3705 190.522 130.292 49.8405 37.4966 76.212 13.2944 50.1104 5.77732 3.64573 5.25667 0.601711 0.288605 0.00856351 0.00118059
threshold=-0.52381321787834156 1.0113219022750857 1.0058160424232485 1.0000000180025095e-35 0.93127629160881054 -0.60108616948127735 1.0000000180025095e-35 -0.99550676345825184 -1.0222609043121336 1.0000000180025095e-35 -1.0188323259353635 -0.83114495873451222 -1.0767669081687925 0.83352118730545055 -0.999525487422943 0.90836516022682201 0.025407575070858005 0.79799196124076854 -0.42709955573081965 -0.94661253690719593 0.76598826050758373 1.1712613701820376 -1.4926290512084959 1.1436643600463869 -0.030636914074420925 0.93474695086479198 0.32537615299224859 -0.50246110558509816 -1.0164316892623899 -1.4435896277427671 -0.93309396505355824 -0.41570051014423365 1.027912497520447 0.9575905203819276 -0.38912577927112574 0.067421894520521178 1.1370090842247011 0.66810399293899547 -0.009941863361746071 1.1587228178977969 -1.5134875774383543 1.1819944381713869 1.0420850515365603 -0.84794586896896351 -0.23435714840888974 -0.87131935358047474 1.0000000180025095e-35 -0.53667202591896046 -0.10278503224253653 0.87729555368423473 1.3642405867576601
decision_type=2 2 2 2 2 2 2 2 2 2 2 2 2 2 2 2 2 2 2 2 2 2 2 2 2 2 2 2 2 2 2 2 2 2 2 2 2 2 2 2 2 2 2 2 2 2 2 2 2 2 2
left_child=1 2 3 6 5 -5 8 -8 -1 10 22 -12 25 35 15 27 20 23 -6 30 29 -22 -4 -18 -21 -11 -19 28 -15 -16 -17 -14 34 -29 49 -2 37 38 -34 -39 41 -37 47 -44 -43 46 -42 -38 -47 50 -3
right_child=13 32 9 4 18 -7 7 -9 -10 12 11 -13 31 14 16 19 17 26 -20 24 21 -23 -24 -25 -26 -27 -28 33 -30 -31 -32 -33 36 -35 -36 40 42 39 -40 -41 45 44 43 -45 -46 48 -48 -49 -50 -51 -52
leaf_value=0.0072545396504606861 0.12497418551660862 -0.10494479990302136 0.13958508295200053 -0.00064490215000346195 -0.11516616060756218 0.11992156594444839 0.11493502778351397 -0.030692840990203463 0.059705262582360911 0.046588178926036505 0.00042613935345747403 0.069743563214535426 -0.10125898514526897 0.011594402744869581 0.13668910443075297 -0.098839841101350842 0.037736338496126988 0.10844126283079758 -0.013317537429195789 -0.0023375961608252224 0.10630547684038086 0.056700306569609706 0.086072618443315554 -0.077240686156769461 -0.10663429640664586 0.1334741726750755 -0.029001862082043958 0.082695333810101745 0.10585974012932625 -0.016469455203646812 0.12351997420428754 0.16905008544765909 0.15711552223618699 -0.16583134464315374 0.38122452541239893 0.14136992432489168 -0.12831797853010624 -0.057340117567202059 -0.14737906214467397 -0.13556131489071765 -0.11622286854544775 -0.12482866651705504 -0.13892949189321907 0.19783657718896808 -0.28027779737866426 -0.11662442925441022 -0.18003923840954159 -0.13790631427177336 -0.10255827855693472 -0.11493864061746968 -0.10926391003623248
leaf_weight=3129.4531216882169 12.493367832154034 3.0566101670265202 1259.1950672715902 3364.9794366024435 616.48225570842624 1489.7563945129514 573.79254832677543 2099.0960439834744 57211.021911265329 319.72456535696983 2602.0526339709759 9396.9353131279349 124.77674078941345 197.00392474979162 1893.8721858635545 28.756069269031286 348.49982000142336 733.37846730835736 653.4093716815114 531.68362198024988 7344.6166126690805 3590.8926979079843 3394.1494653820992 341.21261821128428 316.56119802594185 2291.6997075006366 113.77350441925228 18.597327157855034 1348.2801374644041 56.892245002090931 188.58610548824072 17.568339988589287 53.956511510536075 39.445754338055849 7.9618237018585187 16.188940972089771 134.98207422532141 146.72784715145826 19.001401290297508 183.11911556683481 29.397219879552722 4.2273098351433891 17.619536451995376 5.897343397140502 5.503371257334944 24.438665125519037 23.011379662901163 127.05294274911284 36.182726844213903 1.4134310111403463 0.79811060242354859
leaf_count=14693 25 76 1194 14776 3698 4895 2074 14099 140448 502 7682 18446 576 864 645 112 1727 914 2858 2392 8814 6692 3745 2612 2877 1296 1551 24 1380 154 193 14 118 243 2 22 881 576 90 1082 310 79 91 7 25 258 129 659 1995 15 14
internal_value=0 0.0550289 0.0561564 0.0511558 0.0158025 0.0363529 0.054592 0.000569287 0.056985 0.0739719 0.0675216 0.0547117 0.112977 0.0822605 0.0837114 0.0470087 0.090503 0.0410085 -0.062761 -0.0136519 0.0964059 0.0900166 0.100553 -0.0191448 -0.0412607 0.122836 0.0899825 0.0873242 0.0938421 0.132222 0.0941 -0.0678972 -0.0872574 -0.086202 0.186305 -0.0814878 -0.0925152 -0.0684209 0.0778119 -0.100766 -0.100051 0.00842864 -0.126503 -0.0544784 -0.212746 -0.124928 -0.144243 -0.132967 -0.108229 -0.10828 -0.105839
internal_weight=0 89245.7 88544.1 69138 6124.63 4854.74 63013.4 2672.89 60340.5 19406.1 16652.3 11999 2753.77 17243.5 17092.1 2668.91 14423.1 1536.86 1269.89 1065.59 12886.3 10935.5 4653.34 689.712 848.245 2611.42 847.152 1603.33 1545.28 1950.76 217.342 142.345 701.587 58.0431 13.23 151.443 688.357 402.805 72.9579 329.847 138.95 25.9196 285.552 23.5169 9.73068 113.03 52.4086 262.035 60.6214 5.26815 3.85472
internal_count=268644 234607 230996 197541 26227 19671 171314 16173 155141 33455 31067 26128 2388 34037 31194 8085 23109 6804 6556 5574 16305 15506 4939 4339 5269 1798 2465 2511 2244 799 305 590 3611 267 107 2843 3504 1866 208 1658 2818 126 1638 98 104 2692 439 1540 2253 105 90
is_linear=0
shrinkage=0.1


Tree=12
num_leaves=60
num_cat=0
split_feature=132 31 136 105 106 134 31 31 85 72 130 109 70 31 36 71 37 36 136 99 68 115 107 72 71 58 105 51 107 36 74 36 124 28 74 24 31 35 71 105 106 68 34 115 34 112 75 40 33 35 104 35 126 107 68 61 126 110 105
split_gain=1023.28 836.954 1056.12 1050.66 954.6 1285.61 1060.44 872.98 613.248 545.669 504.292 639.229 450.761 449.144 446.991 748.551 1106.96 833.109 435.049 401.297 1308.13 747.863 459.235 400.801 396.992 356.381 340.872 313.932 313.061 286.921 278.868 234.754 222.986 207.722 149.932 127.447 107.846 106.606 125.525 114.543 87.6081 165.219 68.9029 54.6608 65.1756 51.5586 46.0365 45.4001 36.6188 33.4093 33.2967 11.4296 6.80954 0.178475 0.248515 0.055386 0.0552128 0.0157681 0.00871862
threshold=1.0000000180025095e-35 1.0032951831817629 1.0000000180025095e-35 -0.79458561539649952 -0.86947816610336293 1.0000000180025095e-35 0.98968911170959484 0.99231344461441051 -1.3581973314285276 -0.52381321787834156 1.0000000180025095e-35 -0.86343783140182484 -0.097307410091161714 0.99962589144706737 0.85446128249168407 -0.4562827050685882 0.92057552933692943 0.9168963134288789 1.0000000180025095e-35 -0.48329828679561609 0.14418231695890429 -1.4479337334632871 -0.98384243249893177 -0.59847360849380482 -0.47389626502990717 0.86049211025238048 -0.93605259060859669 0.99055513739585888 -0.96579885482788075 0.91337597370147716 -0.94290620088577259 0.90031957626342785 -2.3796449899673457 1.3196931481361391 -1.0045217871665952 1.3761063218116762 1.0027365088462832 0.90566796064376842 -0.45956082642078394 -0.82441192865371693 -0.88451069593429554 0.197033666074276 0.83816424012184154 -1.4580695629119871 0.87055629491806041 -1.3257293701171873 -1.1390360593795774 1.0540025234222414 0.83930578827857982 0.86034265160560619 -0.7439042031764983 0.89038205146789562 -2.9889659881591792 -0.98046898841857899 0.17788026481866839 0.79799196124076854 -2.9889659881591792 -1.1904259324073789 -0.77352938055992115
decision_type=2 2 2 2 2 2 2 2 2 2 2 2 2 2 2 2 2 2 2 2 2 2 2 2 2 2 2 2 2 2 2 2 2 2 2 2 2 2 2 2 2 2 2 2 2 2 2 2 2 2 2 2 2 2 2 2 2 2 2
left_child=1 2 3 4 6 -6 -1 9 36 -5 14 24 19 23 18 16 -16 -17 33 20 26 42 50 -10 31 -9 27 -2 -24 -26 -28 -12 52 -3 -15 -20 46 39 -39 -13 49 43 45 47 -45 -21 -4 -42 -44 -14 -22 -34 -23 55 -55 -51 58 -58 -43
right_child=12 10 8 7 5 -7 -8 25 13 -11 11 37 40 34 15 17 -18 -19 35 21 22 32 28 -25 29 -27 30 -29 -30 -31 -32 -33 51 -35 -36 -37 -38 38 -40 -41 41 56 48 44 -46 -47 -48 -49 -50 53 -52 -53 -54 54 -56 -57 57 -59 -60
leaf_value=0.019914258448106605 0.040230007073614626 0.1066590403152657 -0.073621221911684853 -0.016659919112490467 0.025999127252681366 -0.039368287828131426 0.06316228471890549 -0.046884726283085709 0.091186492316616741 0.076878546551798391 -0.022631355699674671 0.086809195603430686 0.14558858769225824 -0.17516867216074439 0.060200053180477935 0.12057262824669046 -0.015991892556100239 0.058497595217729216 0.059112001761869128 0.1017257034538146 -0.15222958422977881 -0.12176836900221336 0.030238756852377868 0.042947143136120663 0.10137976946774525 0.092950656429941853 0.0025828528827789347 -0.15290910287697337 -0.1391837479529687 0.0036756815269151722 0.084911549217594876 -0.14250134835591122 0.050428060198262264 -0.16160459339183683 0.039519823810806771 -0.12265553053908901 0.10135583255733049 -0.14246688669163754 0.076154283051845989 0.17173877011373109 0.20956915493402928 -0.10451526349729411 0.10386672498849576 -0.1097151758917721 0.17024129825080481 -0.11373532926205215 -0.18311561475296989 0.063614668329804891 0.1342406740310729 -0.10596085386667549 0.12701637086787718 0.14765886083225863 -0.16757840358339204 -0.1248668621797126 -0.1115009332041363 -0.11361527530385236 -0.11679845902443296 -0.107298913045906 -0.10185135689017122
leaf_weight=11537.390778530389 371.35605653002858 3883.8849301934242 61.85457244887948 1628.0050593726337 11626.423000207171 4059.2358954660594 11147.833319164813 188.31382053345442 7603.7328135557473 1010.9315382540226 900.97498382627964 421.02853168547153 5.253757841885089 32.862410590052605 10407.112089589238 3669.1862895488739 2334.5912699773908 5263.6635485589504 59.373071670532227 24.281979873776436 267.66478103026748 54.462603652849793 669.55396623909473 2226.7698413729668 453.47398374974728 5664.8666971735656 425.21218917146325 108.81877692788839 130.28810978680849 891.35701093822718 12694.469774704427 199.56524856388569 23.201725743710995 29.080313637852669 3210.5191108584404 110.1155578494072 20.576168566942215 34.390753582119942 111.12677691876888 254.96679131686687 31.307815661653876 17.446139486506581 492.37045928835869 28.54302582051605 11.734591569751499 20.467708891257644 101.26105917058885 66.750108534470201 2047.4207817595452 43.567934546619654 4.3392211198806754 25.243883326649666 80.277903087437153 19.293477922677994 49.862567083910108 12.072552271187304 1.8607000783085847 28.67553692497313 41.538084026426077
leaf_count=50489 963 4782 1245 9055 42099 16617 31070 812 9322 2313 3153 638 6 140 17672 3441 8451 11061 105 21 1973 557 1399 4141 791 9450 1191 564 584 2653 15357 1000 39 140 6047 394 30 172 202 222 48 466 367 654 23 102 431 129 781 936 2 9 388 162 650 123 16 481 2515
internal_value=0 0.0488773 0.0421449 0.0350954 0.0280513 0.00908293 0.0411669 0.0669233 0.0670638 0.0191731 0.0628229 0.0258108 0.0751404 0.0696131 0.0675173 0.0618001 0.0462398 0.083995 0.0978714 0.0774203 0.0708318 0.112346 -0.0355302 0.0802595 0.000172093 0.0884517 0.0792145 -0.0035398 0.00264114 0.0366213 0.0822433 -0.0443678 -0.0829057 0.104665 0.0373446 -0.0589811 -0.114381 0.102129 0.0244866 0.118842 -0.0359502 0.00142752 0.126185 0.0699281 -0.0281519 0.00317767 -0.141595 0.110215 0.128352 -0.101438 -0.147775 0.101093 -0.149062 -0.111838 -0.11523 -0.107622 -0.104426 -0.107878 -0.102639
internal_weight=0 89144.5 60120.6 46863 38370.9 15685.7 22685.2 8492.12 13257.6 2638.94 29023.9 3266.88 17797.3 13073.9 25757 21674.6 12741.7 8932.85 4082.45 17439.4 14671.7 2767.73 1071.85 9830.5 2445.37 5853.18 13599.9 480.175 799.842 1344.83 13119.7 1100.54 183.186 3912.97 3243.38 169.489 183.692 821.513 145.518 675.995 357.906 227.856 2584.54 138.336 40.2776 44.7497 163.116 98.0579 2539.79 130.05 272.004 48.4456 134.741 124.797 69.156 55.6405 89.5205 30.5362 58.9842
internal_count=268644 238138 183261 161905 140275 58716 81559 21630 21356 11368 54877 8831 30506 19650 46046 40625 26123 14502 5421 24297 22033 2264 3958 13463 7597 10262 18075 1527 1983 3444 16548 4153 993 4922 6187 499 1706 1234 374 860 6209 4332 1271 854 677 123 1676 177 1148 1877 1975 48 945 1871 812 1059 3478 497 2981
is_linear=0
shrinkage=0.1


Tree=13
num_leaves=61
num_cat=0
split_feature=72 39 30 72 36 58 40 93 72 117 37 71 107 36 34 115 75 101 73 135 70 102 136 5 52 69 54 103 43 107 29 38 63 73 33 99 70 116 74 68 37 36 74 124 57 31 66 67 41 103 124 86 40 72 58 6 37 35 71 71
split_gain=944.662 1669.38 751.288 684.881 1853.36 781.637 739.983 1105.74 522.185 475.083 420.953 1011.18 449.562 680.816 539.51 617.55 376.257 366.107 314.955 313.266 301.957 299 252.888 222.833 220.081 216.612 209.646 200.405 200.207 193.598 177.634 162.262 203.502 193.757 161.365 178.828 142.677 140.496 139.506 138.883 135.464 130.814 199.723 130.805 123.691 103.124 98.1293 72.7641 67.5716 66.2899 66.1795 65.1066 48.9047 81.2837 34.2867 38.4816 22.6233 66.5937 2.43703 1.91006
threshold=-0.55218231678009022 1.0183507800102236 1.0345293283462527 -0.58854278922080983 0.93075835704803478 0.85509446263313305 0.97427847981452953 -0.93946039676666249 -0.60867127776145924 -0.99326613545417775 0.98915687203407299 -0.32966563105583185 -0.999525487422943 0.90836516022682201 0.84720572829246532 -1.452773332595825 -1.1432699561119077 -0.81640467047691334 -0.75139394402503956 1.0000000180025095e-35 -0.097307410091161714 -0.76598474383354176 1.0000000180025095e-35 0.51895114779472362 1.0642431378364565 -0.030636914074420925 1.0503550767898562 -0.86542198061943043 1.1195035576820376 -1.0164316892623899 1.0472856163978579 1.0194781422615053 0.60210731625556957 -0.70493534207344044 0.95099103450775158 -0.71430161595344532 -0.14543572813272473 -0.95119759440422047 -0.50246110558509816 0.0010028821998275819 0.99959403276443493 0.9806557595729829 -0.81776699423789967 -1.5229474902153013 0.93085244297981273 1.0196872949600222 0.19229812920093539 0.31052063405513769 1.0831302404403689 -0.8992195427417754 -1.9639530777931211 -1.1624646186828611 1.0701003074645998 -0.51736390590667714 0.95743387937545787 0.46120336651802069 0.97406145930290233 0.93926313519477855 -0.38627326488494867 -0.33794987201690668
decision_type=2 2 2 2 2 2 2 2 2 2 2 2 2 2 2 2 2 2 2 2 2 2 2 2 2 2 2 2 2 2 2 2 2 2 2 2 2 2 2 2 2 2 2 2 2 2 2 2 2 2 2 2 2 2 2 2 2 2 2 2
left_child=1 2 9 4 5 -4 27 -8 -6 17 12 31 13 29 15 47 51 30 54 20 -16 26 25 -18 -19 -15 45 -5 -28 44 -1 32 48 -34 35 40 -37 50 -31 -21 -13 43 -43 -36 -2 -20 -17 -14 -12 -24 -23 -11 53 -33 56 -56 57 -3 -58 -54
right_child=10 18 3 6 8 -7 7 -9 -10 16 11 34 14 22 19 46 23 24 21 39 -22 37 49 -25 -26 -27 28 -29 -30 38 -32 52 33 -35 41 36 -38 -39 -40 -41 -42 42 -44 -45 -46 -47 -48 -49 -50 -51 -52 -53 59 -55 55 -57 58 -59 -60 -61
leaf_value=0.18308644289984091 -0.030415286660412228 -0.11340154714522135 0.042933429466578736 0.070520501487310649 -0.090713895232021446 0.073393849765205979 0.081301663841506625 -0.0072063785254665239 -0.0034221344483208942 -0.1003829941334892 0.0055932583747760299 0.017803128958791697 0.085716961455626114 -0.020219006032865878 0.082525624656149654 0.077700497032980917 -0.12966069158702662 0.059228470699010896 -0.12442216145668106 0.13287287823096899 -0.032061744099953264 0.22227314339548246 -0.073242094230948671 0.056603437758109304 -0.031092666059826385 -0.12939380086163577 0.067726338257535809 0.16647548232064457 -0.022131132728578085 0.086783017508807958 -0.1311060572972654 -0.13930087077780096 -0.077621395571592033 0.11092816534497695 0.14062086369457552 -0.14104327653261747 0.13557645541366067 0.17904045784378442 -0.083207757605999938 -0.080509870847631074 -0.14872248934022633 -0.10038285699170796 0.10719082599232187 -0.10037518457315422 0.14561847525395138 0.17446739056219998 -0.12256153097323336 -0.067683638639709734 -0.1335590000367147 0.12563020872180453 -0.12182409151612712 0.27322512579256458 -0.13444969833064296 0.10652427536411363 -0.12159824966114251 0.27678654035612132 -0.12090347974888234 0.046197814576202825 -0.13745287190118327 -0.15220526887031316
leaf_weight=18.862051900476217 265.98900125361979 148.81922934018075 55109.762567888945 281.68771453201771 981.32836399972439 9944.4288253337145 6392.6356384158134 1811.5165972039104 2271.7086488902569 202.83613735437393 44.946011424064636 211.77645586058497 394.56435894779861 626.49654963612556 16933.662007251754 26.543574128299952 66.574411302804947 351.35144814103842 153.19292264804244 37.123078532516956 233.13646949268878 5.6838761344552031 19.677878126502037 1822.0130580905825 1161.9479405507445 255.99389267712831 462.74244595319033 957.53720442950726 534.1957604251802 1618.7270158883184 391.14429472014308 32.439212337136269 90.699901849031448 136.55849558115005 539.36872862279415 20.939110372215509 170.26886322721839 16.92766772210598 49.761263703927398 171.02059492468834 63.496184451505542 69.631985008716583 138.65607441961765 23.503219187259674 46.963769000023603 12.484198108315466 312.93869189359248 33.551049971953034 156.07581216841936 113.07158514857292 336.08213464915752 4.7741498947143546 176.838752431795 22.979164466261864 4.900954030454157 4.7986887842416763 186.27352899126709 31.715590506792068 170.35999582335353 92.162789456546307
leaf_count=78 1335 987 136724 577 5571 22132 10948 6579 7160 4529 115 558 424 2836 23356 54 1442 873 710 89 2601 11 62 6800 5485 2786 1054 1073 2020 2092 1776 184 419 249 641 115 298 10 202 851 334 269 270 77 82 19 4604 574 758 69 1676 1 983 45 38 2 1538 114 962 423
internal_value=0 0.0429724 0.0452166 0.047396 0.0439063 0.0475897 0.0726381 0.0617587 -0.029755 0.00305938 0.0658 0.0218343 0.0699395 0.0340573 0.0758664 -0.00617745 0.0359905 -0.032832 -0.0457554 0.0794909 0.0809695 -0.0223582 -0.0325314 0.0500375 -0.0101223 -0.0518886 0.00226643 0.144664 0.0195774 0.0681757 -0.116652 -0.0695636 -0.0291538 0.0356771 0.0774201 0.030994 0.105284 -0.102173 0.0817132 -0.0424524 -0.0206088 0.105504 0.0377977 0.130558 -0.00399849 -0.1019 -0.106903 0.0736951 -0.102446 0.0961507 -0.116101 -0.0917916 -0.12291 -0.0373698 -0.110843 0.075494 -0.114208 -0.0853638 -0.128809 -0.140533
internal_weight=0 83838.3 81770.1 77750.6 68307.2 65054.2 9443.38 8204.15 3253.04 4019.5 23129.6 1990.34 21139.2 2996.68 18142.5 767.598 2096.2 1923.31 2068.18 17374.9 17166.8 1521.31 1015.24 1888.59 1513.3 882.49 1162.62 1239.22 996.938 1981.44 410.006 752.7 428.28 227.258 1237.64 466.481 191.208 358.694 1668.49 208.144 275.273 771.16 208.288 562.872 312.953 165.677 339.482 428.115 201.022 132.749 341.766 207.61 324.42 55.4184 546.868 9.69964 537.168 180.535 356.634 269.002
internal_count=268644 220889 211748 190764 171587 158856 19177 17527 12731 20984 47755 5738 42017 9464 32553 5656 12772 8212 9141 26897 25957 5500 5753 8242 6358 5622 3803 1650 3074 3711 1854 3176 1541 668 2562 1305 413 1697 2294 940 892 1257 539 718 1417 729 4658 998 873 131 1687 4530 1635 229 3641 40 3601 1101 2500 1406
is_linear=0
shrinkage=0.1


Tree=14
num_leaves=57
num_cat=0
split_feature=132 111 78 76 116 70 77 31 31 74 136 76 111 136 129 136 84 110 69 100 68 115 107 4 52 74 106 45 0 128 124 77 70 130 52 136 7 61 116 5 69 33 113 70 112 118 21 115 107 126 38 31 107 117 77 126
split_gain=908.99 798.225 1975.44 768.051 1450.77 834.936 795.599 689.896 593.846 844.369 518.038 498.444 708.624 630.743 423.045 368.529 515.851 389.425 317.34 384.463 1235.16 675.499 393.331 299.713 297.538 296.001 287.534 287.23 227.161 218.489 195.568 173.736 170.744 158.515 145.45 127.979 114.74 116.017 106.525 96.9251 90.6717 70 74.5708 34.7488 32.6314 23.1406 21.6508 22.6333 27.9546 5.3082 4.11751 3.71506 0.6387 0.173703 0.147555 0.0683702
threshold=1.0000000180025095e-35 -0.93292817473411549 -1.259283125400543 -1.1653280854225156 -0.98783913254737843 -0.55817419290542591 -1.2334885001182554 0.9739612638950349 1.0107452273368838 -0.97246262431144703 1.0000000180025095e-35 -1.1549755334854124 -0.94859197735786427 1.0000000180025095e-35 1.0000000180025095e-35 1.0000000180025095e-35 -1.2862748503684995 -0.92223241925239552 0.049861928448081023 -0.52138274908065785 0.14069303125143054 -1.4479337334632871 -0.98496499657630909 0.58431586623191845 1.1240701079368594 -0.97564247250556935 -0.9536117911338805 1.1959284543991091 0.41858531534671789 1.0000000180025095e-35 -2.3796449899673457 -1.2086402177810667 -0.39442639052867884 1.0000000180025095e-35 0.96746799349784862 1.0000000180025095e-35 0.82274451851844799 0.33144003152847296 -1.0361094474792478 0.83296790719032299 0.0031017928849905734 0.83930578827857982 -1.379535913467407 -0.097307410091161714 -0.94904470443725575 -1.568889796733856 1.025867819786072 -1.4880931973457334 -0.96579885482788075 -2.9889659881591792 0.97420805692672741 0.95272746682167064 -0.96845442056655873 -1.5652984380722044 -0.41163928806781763 -2.9889659881591792
decision_type=2 2 2 2 2 2 2 2 2 2 2 2 2 2 2 2 2 2 2 2 2 2 2 2 2 2 2 2 2 2 2 2 2 2 2 2 2 2 2 2 2 2 2 2 2 2 2 2 2 2 2 2 2 2 2 2
left_child=1 2 15 4 6 36 35 10 9 -6 14 13 -13 -9 -4 31 32 -18 19 20 25 41 40 -10 28 39 -27 -24 -7 -26 49 44 -17 -8 -12 -3 51 -38 -33 -2 -22 42 -21 -43 -1 -32 47 48 52 -23 -50 -5 -20 54 -49 -55
right_child=18 3 7 5 8 24 33 11 23 -11 34 12 -14 -15 -16 16 17 -19 46 21 22 30 27 -25 29 26 -28 -29 -30 -31 45 38 -34 -35 -36 -37 37 -39 -40 -41 -42 43 -44 -45 -46 -47 -48 53 50 -51 -52 -53 -54 55 -56 -57
leaf_value=-0.147329708913367 -0.14744425741658615 -0.12457617493172597 -0.030386078364483149 -0.10948586437900286 0.027563133224641035 0.10050421343429249 0.088456178926978685 -0.04637536421694529 -0.039178704429455653 0.063492744896251535 -0.14534830197525481 0.033470921776844194 0.067885908035848527 0.10135191715147787 0.088893638968201419 0.16274341746230225 -0.15372986131166511 0.1240362453950183 -0.10772822512848426 0.11272155137474787 0.038947320441862339 -0.11663302954407143 0.044575805701753526 0.092905704581455528 -0.051580272807755081 0.025224712228556247 0.07467680669846069 -0.065841103868530412 0.069134302301872383 0.083395071600377207 0.12905777322780909 -0.17349540514030248 -0.19232930448260077 -0.14245076514886873 0.072451434191500519 -0.024121020779750684 -0.03893177931991923 0.071194835548426483 0.13716977858649967 0.021757813103787355 -0.15068738357221509 0.1254395737628993 0.03794719533574023 0.041667855051184581 -0.093497933941743841 -0.010008723919164693 0.075196053016860054 -0.13221331171447193 0.17655403625140897 -0.157139237532925 0.057427029708864569 -0.14595739178588593 -0.1832565921247894 -0.10238893134734212 -0.11019648270060184 -0.10747706338443486
leaf_weight=696.20232350565493 81.223974898457527 810.1552768535912 3365.4763466399163 60.5974993519485 17667.910499075428 4384.8602939769626 318.97646830976009 1359.6110251024365 181.7748958170414 10385.519740300253 31.784302040934563 31902.282778993249 7364.1063494607806 367.04787068068981 326.15558833256364 14.914074823260306 64.809851385653019 228.17794659733772 9.0020794458687288 335.25785821676254 27.703334931284189 50.988853430375457 538.11856877803802 3128.0237435549498 289.40274207666516 1308.7727355565876 11568.970778759569 419.05573386326432 4874.5428997445852 204.79391070269048 35.619886215776205 15.543513853102921 147.30020931363106 32.785864159464836 868.3237886428833 150.35851142555475 456.83747027814388 120.99875707924366 38.07258154079318 58.051982309669256 280.56206881068647 1876.9292781017721 221.48082116339356 50.857622595503926 134.33223590254784 18.018077500164509 8.4733430966734868 4.2730307709425679 5.0528831481933576 88.514158416539431 6.8143371501937509 51.806599229574203 1.2786709517240549 51.841237131506205 10.583095697686074 53.831840798258781
leaf_count=3754 518 4082 20576 1567 50278 6454 464 4885 659 19412 175 86773 14157 371 1523 4 261 202 190 206 57 776 997 3332 1291 3269 13583 1569 10347 558 20 68 629 162 1149 391 3306 431 81 315 2490 757 474 364 540 40 43 49 1 506 40 256 7 3087 208 940
internal_value=0 0.0390041 0.0299786 0.0488261 0.0412808 0.0724331 -0.0617307 0.0334955 0.0455909 0.0408645 -0.00326215 0.0376129 0.0399252 -0.014972 -0.0198477 -0.0897219 -0.0166165 0.0625935 0.0641472 0.0654328 0.0589137 0.100205 -0.0354045 0.0856516 0.0799547 0.0680827 0.069651 -0.00376527 0.0839898 0.00435319 -0.0799382 -0.12736 -0.159684 0.0669346 0.0647606 -0.108851 -0.0338536 -0.0158713 0.0471067 -0.0769187 -0.133645 0.114209 0.0829749 0.12323 -0.138623 0.0823425 -0.0801078 -0.089331 0.00358187 -0.142334 0.10815 -0.126295 -0.117122 -0.106404 -0.116529 -0.104981
internal_weight=0 90043.5 46924.1 43119.3 32675.5 10443.8 1312.28 45584.8 31363.2 28053.4 4591.74 40993 39266.4 1726.66 3691.63 1339.35 455.202 292.988 17111.3 16960.1 14282.5 2677.67 1265.44 3309.8 9753.6 13017 12877.7 957.174 9259.4 494.197 193.141 884.151 162.214 351.762 900.108 960.514 690.24 577.836 53.6161 139.276 308.265 2484.53 556.739 1927.79 830.535 53.638 151.151 142.677 22.148 139.503 11.8672 112.404 10.2808 120.529 14.8561 105.673
internal_count=268644 238138 135148 102990 78780 24210 5099 129609 73681 69690 23423 106186 100930 5256 22099 5539 1096 463 30506 25941 22798 3143 5113 3991 18650 17685 16852 2566 16801 1849 1342 4443 633 626 1324 4473 5560 3737 149 833 2547 1801 680 1121 4294 60 4565 4522 238 1282 41 1823 197 4284 257 4027
is_linear=0
shrinkage=0.1


Tree=15
num_leaves=60
num_cat=0
split_feature=72 39 31 133 45 72 72 74 95 96 97 74 111 33 115 104 70 50 101 107 38 118 3 114 130 104 124 40 18 76 67 30 74 52 46 72 46 93 36 127 39 109 126 25 43 110 108 34 30 111 72 74 71 111 30 30 33 71 69
split_gain=833.318 966.243 686.32 601.661 1005.91 1171.69 854.014 606.367 1646.99 1231.23 295.017 282.523 262.796 853.249 399.947 395.832 451.745 353.91 360.883 286.234 392.723 283.953 261.534 235.866 181.113 165.452 147.017 107.665 168.201 164.062 112.365 103.219 93.9933 92.1598 120.103 89.386 85.3802 80.8332 79.5578 67.508 58.4183 58.3496 55.6782 45.8211 41.7515 40.3928 37.4219 33.8259 33.6694 41.2322 28.3581 22.649 21.3511 20.7527 17.9061 38.4151 10.3596 3.27158 1.69527
threshold=-0.50963059067726124 1.0392373204231264 1.011643707752228 1.0000000180025095e-35 1.0731681585311892 -0.64152246713638295 -0.57108151912689198 -0.98364973068237294 -1.0208979845046995 -0.96196156740188588 -0.99418050050735463 -1.0092396736145017 -1.2594500184059141 0.84630247950553905 -1.452773332595825 -0.75712007284164418 -0.16171925514936444 1.1698161959648135 -0.57315677404403675 -1.0031718611717222 0.95865803956985485 -1.5835777521133421 0.57643637061119091 -1.3868249654769895 1.0000000180025095e-35 -0.79609152674674977 -2.3796449899673457 1.0701003074645998 1.0515316724777224 -1.1260442137718198 0.28470408916473394 0.85793557763099682 -0.41318847239017481 1.1436643600463869 1.2354612946510317 -0.64479768276214589 1.1790154576301577 -0.99737486243247975 0.90296614170074474 -1.5312896966934202 0.99136838316917431 -1.1322918534278867 -2.8032907247543331 1.2674575448036196 1.1227563023567202 -1.1971030235290525 -1.0503628253936765 0.83926570415496837 1.0167748332023623 -0.8891402781009673 -0.47196541726589197 -0.84462460875511158 -0.22029600292444226 -1.2694508433341978 1.0420850515365603 1.0427686572074892 0.84522834420204174 -0.33794987201690668 0.021494506858289245
decision_type=2 2 2 2 2 2 2 2 2 2 2 2 2 2 2 2 2 2 2 2 2 2 2 2 2 2 2 2 2 2 2 2 2 2 2 2 2 2 2 2 2 2 2 2 2 2 2 2 2 2 2 2 2 2 2 2 2 2 2
left_child=1 2 3 7 5 -5 -6 8 -1 -9 22 43 15 14 33 16 25 19 21 20 -15 -19 35 -20 -13 50 -21 28 29 37 54 -18 47 38 -35 -4 -31 -3 -14 -24 -33 42 -16 -12 -30 58 -43 53 49 -32 -2 -46 -49 -17 57 -56 -27 -29 -34
right_child=12 27 10 4 6 -7 -8 9 -10 -11 11 24 13 17 41 32 31 18 23 26 -22 -23 39 -25 -26 56 -28 30 44 36 48 40 45 34 -36 -37 -38 -39 -40 -41 -42 46 -44 -45 51 -47 -48 52 -50 -51 -52 -53 -54 -55 55 -57 -58 -59 -60
leaf_value=0.040364938757847559 0.070920722863552429 0.050189063964678454 -0.17336360460698452 -0.016472611306291365 -0.094215775721565073 0.081685174588528295 0.014394331349083031 0.072904192408179552 -0.021078095446905018 0.035118515763569134 0.0926957694674162 0.064182894214171754 0.11569022756711683 0.083299497678845161 -0.21760656065915179 0.08991669132045961 0.16759777398799311 -0.16791351468047419 0.1209741744123569 -0.059666535254844145 -0.03680500309464272 0.029583755506019362 0.15241003310087742 -0.10369329106912267 -0.014705333236158864 0.076817181929294487 0.086501100933547528 -0.13006189144610575 0.12152690880479562 0.13544882941528069 -0.14242515806092157 0.12448200194906252 -0.21929408041631404 -0.076908895273107569 0.078150121764683042 0.1212903317570931 -0.042423443984615478 -0.15057117385805113 -0.14332068042713139 0.096552971864636114 -0.14728615504864756 -0.20901489948616991 0.070462565579069977 -0.15026018505260824 -0.13735777202842103 0.11308370387088901 -0.11848301867752734 0.11586001645693156 0.22323057045402508 0.20352823983369173 -0.14257478073661717 -0.053720776722523303 0.054110392076160446 -0.068355740788494185 0.16223958456292609 -0.13325879650342884 0.13684885484313991 -0.15289568555391986 -0.11100135404784538
leaf_weight=14689.604070115834 7.8177708908915511 29.581082154065371 46.996288254857063 2306.4668341577053 1427.0201190970838 2572.3509726151824 1469.5102737061679 10538.927388861775 6205.5644506793469 47448.115696499124 8.6033274084329587 2584.6387409642339 125.92846053373069 603.19051739946008 8.8657134957611543 16.868171218782663 12.131045872345565 74.437465719878674 640.03857292234898 69.649267168715596 496.21668795309961 3306.739842813462 241.28860680758953 50.409129396080971 327.94694010168314 34.365648947656155 5726.1831971984357 230.49648470617831 7.530217081308364 99.099378496408463 9.0325436592102033 8.3101010620594007 1.5372908785939241 123.03888479620218 84.095008995383978 13.183554515242575 37.084869883954525 62.281447198241949 13.0918554328382 2095.2281397879124 164.09626907669008 54.088756935670972 27.587953843176365 79.441614493727684 144.74625216051936 10.778387265279887 292.9526078151539 1909.3887583874166 10.668343752622603 5.5692666023969677 30.471695590764284 41.7077412083745 57.687027284875512 16.280043564736843 6.4475681036710766 13.848960012197493 175.79620495066047 86.219981051981449 24.230692776851356
leaf_count=40553 22 84 230 9121 7668 6181 5946 17389 23998 115949 23 4811 256 819 43 15 28 366 639 358 2374 7835 178 322 1089 32 6364 1421 48 120 48 5 7 697 243 7 142 319 161 1585 2035 294 34 392 859 24 4851 855 6 4 260 166 262 52 9 78 76 396 495
internal_value=0 0.0353201 0.0362618 0.0341069 0.00756676 0.035281 -0.0391141 0.0367229 0.0221172 0.0419859 0.07086 0.0499654 0.0613585 0.0550999 -0.0496115 0.0909988 0.00417058 0.0620665 0.0386892 0.0758708 0.0290904 0.0252358 0.0970197 0.104571 0.0553004 0.0922005 0.0847446 -0.0752037 -0.0408761 0.0173494 -0.115193 -0.114348 0.109457 0.0283157 -0.0139559 -0.108814 0.0870117 -0.0859234 0.0912986 0.102321 -0.134187 -0.119951 0.000402719 -0.12652 -0.109326 -0.0494686 -0.132593 0.112361 0.0881887 -0.0104753 -0.0989842 -0.118649 0.114049 0.0121845 -0.130443 -0.0393883 0.127032 -0.136278 -0.117462
internal_weight=0 92839.2 92054.9 86657.6 7775.35 4878.82 2896.53 78882.2 20895.2 57987 5397.33 3000.63 14166.3 11696.5 729.649 2469.76 432.989 10966.9 4071.63 6895.24 1099.41 3381.18 2396.7 690.448 2912.59 248.451 5795.83 784.314 422.031 228.047 362.283 184.537 2036.77 346.154 207.134 60.1798 136.184 91.8625 139.02 2336.52 172.406 383.495 36.4537 88.0449 193.984 36.5464 347.041 2000.22 25.2702 14.6018 38.2895 186.454 1967.08 33.1482 337.013 20.2965 210.162 316.716 25.768
internal_count=268644 238820 235120 226805 28916 15302 13614 197889 64551 133338 8315 6315 29824 25656 6579 4168 2458 19077 9162 9915 3193 8201 2000 961 5900 390 6722 3700 1738 665 1962 2068 1710 1357 940 237 262 403 417 1763 2040 5222 77 415 1073 526 5145 1184 58 52 282 1025 1117 67 1904 87 108 1817 502
is_linear=0
shrinkage=0.1


Tree=16
num_leaves=61
num_cat=0
split_feature=73 40 116 96 74 95 136 123 134 134 107 36 45 71 31 110 30 74 59 30 75 129 103 69 37 72 61 114 74 128 73 75 60 104 37 30 73 102 107 62 35 101 62 20 41 101 23 31 30 106 72 39 34 35 30 45 71 31 70 38
split_gain=793.049 1380.67 709.526 551.078 1585.42 796.394 701.317 493.703 482.838 480.57 442.128 433.676 426.765 581.774 488.125 413.207 261.396 549.347 251.172 225.401 216.792 186.095 181.745 162.777 162.064 257.49 205.775 155.851 212.289 154.437 154.142 146.328 144.168 141.447 128.769 119.293 107.193 143.878 105.446 101.825 96.2399 94.2899 77.2127 77.1327 73.6782 65.7608 55.0794 54.3154 50.8334 45.4872 41.2296 37.912 34.6299 23.5967 11.2633 10.4834 2.05409 1.75693 0.347672 0.0528079
threshold=-0.72599121928215016 1.0479555726051333 -1.211069583892822 -1.004162549972534 -0.99643424153327931 -1.0026194453239439 1.0000000180025095e-35 -1.125129699707031 1.0000000180025095e-35 1.0000000180025095e-35 -0.999525487422943 0.90836516022682201 1.0824851989746096 -0.42433887720108027 0.95538815855979931 -1.1971030235290525 1.0679695606231692 -0.76617765426635731 0.88656771183013927 1.08098840713501 -1.1621099114418028 1.0000000180025095e-35 -0.81890872120857228 -0.030636914074420925 0.98282518982887279 -0.55526483058929432 0.72669562697410595 -1.1801618337631223 -0.83050686120986927 1.0000000180025095e-35 -0.72871708869934071 -0.87925520539283741 0.67811486124992382 -0.84974071383476246 0.88818946480751049 1.0427686572074892 -0.68474140763282765 -0.75533893704414357 -0.98609057068824757 0.61216586828231823 0.80085954070091259 -0.74718463420867909 0.69192171096801769 1.1324964165687563 1.0730953216552737 -0.88713493943214405 1.1980774998664858 1.0155758261680605 1.0631556510925295 -0.93515369296073902 -0.5828162133693694 1.0248751640319826 0.91543108224868786 0.91610124707221996 1.0511336922645571 1.1563674807548525 -0.39324846863746638 1.0044671297073366 -0.16535320878028867 0.97035059332847606
decision_type=2 2 2 2 2 2 2 2 2 2 2 2 2 2 2 2 2 2 2 2 2 2 2 2 2 2 2 2 2 2 2 2 2 2 2 2 2 2 2 2 2 2 2 2 2 2 2 2 2 2 2 2 2 2 2 2 2 2 2 2
left_child=1 2 19 7 6 -6 -5 20 10 -9 11 16 14 21 38 -15 17 -2 23 27 -4 -14 33 -13 25 30 51 40 -29 -28 47 57 -16 49 -18 36 50 -38 -12 59 -1 -20 48 58 -32 -33 -45 -3 55 54 -24 -27 -35 -54 -10 -26 -51 -21 -44 -37
right_child=8 24 3 4 5 -7 -8 9 22 -11 12 18 13 15 32 -17 34 -19 41 31 -22 -23 35 -25 42 26 29 28 -30 -31 44 45 -34 52 -36 39 37 -39 -40 -41 -42 -43 43 46 -46 -47 -48 -49 -50 56 -52 -53 53 -55 -56 -57 -58 -59 -60 -61
leaf_value=-0.011126365125077574 -0.08222895418366867 -0.10881264400783008 -0.11989989825834542 -0.042567500903363503 0.059677832282324185 0.028043233640600573 0.055801796635698876 0.030526897105648751 -0.0085531889439537118 0.15604431346119246 0.013518132060034228 -0.029532754411828045 -0.015980660001764027 0.098784450526514925 0.098177389020188299 0.05216633518962141 0.15646502720298966 0.049065946247689056 0.083317695461058605 -0.13739407962192351 0.074466563843445965 0.19905052484346478 0.080187595919539667 -0.1276483454552387 -0.16178586760960401 0.027341425330274685 -0.038422092374574529 -0.13560529549802056 0.11464003120953828 0.10044584662656941 0.36424454102156778 -0.1433819017990203 0.16219154125777654 0.21982462606859438 -0.012876872641691198 -0.14516002238700496 0.085847725136961678 -0.10465114943284547 -0.1575368370298805 0.20088218269398822 -0.12302012492810399 -0.15143053204442214 -0.12043536923704351 0.23174998759633647 0.028975192558871023 0.18079467836803398 -0.11915899389209963 0.20055879142631847 0.14318123195773133 -0.14125873897066082 -0.13123110164628815 -0.19260314505465984 0.18126163498661552 -0.019891627592537917 0.15295747638357982 -0.12722703310988154 -0.20699472776827249 -0.20853121852009254 -0.14594383749593043 -0.13158735058105644
leaf_weight=91.770766604691744 366.32806689292192 518.13438958674669 57.95723669230938 4140.665812285617 9519.891145285219 48504.585276620463 878.53624416701496 8435.359920585528 12.224180564284326 316.4786813929677 67.874672576785088 710.20157369226217 1346.9852614663541 2149.2099256170914 1524.9259078204632 16485.574951195158 263.82224252820015 2449.929658068344 209.59645088762045 15.962046109139921 5813.8038084357977 41.486453402787447 9.5731526315212232 221.92762479837984 166.8656564168632 9.3091154247522336 133.37704169750214 57.145094905048609 83.336413748562336 200.42839448153973 8.2239426486194116 6.9122141674160948 457.32564752548933 42.866506159305573 54.114437788724899 4.218810871243476 71.502312868833542 88.991212982684374 76.831138452515006 28.216343089938164 473.33589309453964 18.631398499011993 10.811841437593104 15.933076016604902 32.292738955467939 66.068670466542244 6.2188951019197694 5.737800419330596 6.2910001128911963 17.091939926147464 252.95003661513329 49.558390930294991 10.456223115324976 13.185841828584669 6.6758203804492942 185.19799700938165 6.5848268046975127 4.4369012415409079 10.563840404152868 8.9436950311064702
leaf_count=628 1675 2838 282 18751 17104 122864 1232 24519 37 617 209 3202 5664 2135 2121 34999 266 5614 261 88 9565 58 33 2692 797 18 374 371 213 217 5 35 412 32 129 20 166 559 1525 34 2596 162 101 20 95 99 67 6 8 87 1352 204 3 43 10 1280 29 18 53 50
internal_value=0 0.029931 0.0316618 0.0326263 0.0285694 0.0332334 -0.0253494 0.0501159 0.049752 0.0350658 0.0517206 0.0223554 0.0574141 0.0528901 0.100003 0.057543 0.0416909 0.0319876 -0.0298711 -0.0620938 0.0725481 -0.0095557 -0.0410263 -0.0528928 -0.0700036 -0.0476255 0.0145592 -0.0814163 0.0128452 0.044959 -0.0908905 0.0839095 0.112946 0.0751273 0.127642 -0.0683105 -0.0841621 -0.019781 -0.077303 0.0937407 -0.104849 0.064154 -0.123296 0.00247193 0.0970271 0.150091 0.133237 -0.105424 -0.138572 -0.0671927 -0.123522 -0.157822 0.166236 0.0690728 0.0484953 -0.143607 -0.159541 -0.152867 -0.133042 -0.135938
internal_weight=0 79825.2 78466.2 77667.3 63043.7 58024.5 5019.2 14623.6 27018.2 8751.84 26444.8 4294.55 22150.2 20023.3 2126.96 18634.8 3134.19 2816.26 1160.36 798.968 5871.76 1388.47 573.481 932.129 1358.94 957.062 392.673 705.588 140.482 333.805 564.389 93.3798 1982.25 109.085 317.937 464.396 423.017 160.494 144.706 41.3788 565.107 228.228 401.882 43.5277 40.5167 72.9809 22.152 523.872 358.355 42.5768 262.523 58.8675 66.5086 23.6421 18.9 352.064 23.6768 20.3989 21.3757 13.1625
internal_count=268644 205065 198982 194934 159951 139968 19983 34983 63579 25136 61124 14001 47123 42856 4267 37134 7684 7289 6317 4048 9847 5722 2455 5894 6083 3757 813 3808 584 591 2944 240 2533 241 395 2214 2110 725 1734 104 3224 423 2326 241 100 134 87 2844 2085 163 1385 222 78 46 47 2077 116 106 154 70
is_linear=0
shrinkage=0.1


Tree=17
num_leaves=60
num_cat=0
split_feature=132 30 107 31 134 131 91 130 105 60 59 27 3 29 136 105 34 36 111 68 106 108 105 71 74 118 30 48 72 60 107 54 28 104 30 38 101 72 50 71 78 34 38 30 79 106 72 69 21 108 71 51 39 35 74 113 113 70 83
split_gain=717.737 622.179 915.973 539.845 1056.92 748.604 482.378 464.608 529.481 734.696 664.759 434.13 429.78 434.121 443.645 383.225 344.999 293.118 263.137 598.639 508.771 506.124 313.96 518.303 264.097 356.081 263.729 236.958 215.531 212.598 202.743 192.786 175.829 124.804 122.12 82.9516 82.5924 80.6553 82.3159 61.7368 48.4353 41.9238 41.3577 20.2427 45.2655 4.3751 3.6872 3.32085 0.461899 0.390925 0.236243 0.196301 0.0737843 0.040092 0.0221124 0.0208817 0.0132379 0.00723544 0.00292813
threshold=1.0000000180025095e-35 1.0915008783340456 -0.8757248818874358 1.0032951831817629 1.0000000180025095e-35 1.0000000180025095e-35 -1.1808385848999021 1.0000000180025095e-35 -0.8546994924545287 0.70513486862182628 0.7835298776626588 1.2747474908828738 0.54760554432868969 1.2229659557342532 1.0000000180025095e-35 -0.8561841845512389 0.90137383341789257 0.93816262483596813 -1.2594500184059141 0.12242573872208597 -0.91807341575622547 -1.0344749689102171 -0.82758983969688404 -0.27373297512531275 -0.94534891843795765 -1.0107634663581846 1.0523588657379153 1.1925065517425539 -0.69389891624450672 0.45112676918506628 -0.84937414526939381 0.96974325180053722 1.3772609829902651 -0.79609152674674977 1.0607275366783144 0.95865803956985485 -0.88313683867454518 -0.66395321488380421 0.96557697653770458 -0.20837348699569699 -1.2692129611968992 0.84034317731857311 0.96841377019882213 1.0922896265983584 -1.0665374398231504 -0.92482563853263844 -0.68730053305625904 0.0066267321817576894 1.1037635207176211 -1.058382987976074 -0.24384146928787229 1.1517041325569155 1.032337009906769 0.91332715749740612 -0.58837583661079396 -1.353689908981323 -1.3198028206825254 -0.10278503224253653 -0.46550375223159784
decision_type=2 2 2 2 2 2 2 2 2 2 2 2 2 2 2 2 2 2 2 2 2 2 2 2 2 2 2 2 2 2 2 2 2 2 2 2 2 2 2 2 2 2 2 2 2 2 2 2 2 2 2 2 2 2 2 2 2 2 2
left_child=1 2 7 5 6 11 -5 8 10 -10 -1 -4 37 14 28 34 -17 18 22 24 27 -22 23 33 25 -20 -26 -21 -14 32 -7 -6 -15 -2 -9 -25 -31 38 -3 41 -16 -24 -41 -39 -45 49 -40 48 55 56 53 -50 -51 -49 -54 -47 58 -52 -19
