tree
version=v4
num_class=1
num_tree_per_iteration=1
label_index=0
max_feature_idx=136
objective=binary sigmoid:1
feature_names=Column_0 Column_1 Column_2 Column_3 Column_4 Column_5 Column_6 Column_7 Column_8 Column_9 Column_10 Column_11 Column_12 Column_13 Column_14 Column_15 Column_16 Column_17 Column_18 Column_19 Column_20 Column_21 Column_22 Column_23 Column_24 Column_25 Column_26 Column_27 Column_28 Column_29 Column_30 Column_31 Column_32 Column_33 Column_34 Column_35 Column_36 Column_37 Column_38 Column_39 Column_40 Column_41 Column_42 Column_43 Column_44 Column_45 Column_46 Column_47 Column_48 Column_49 Column_50 Column_51 Column_52 Column_53 Column_54 Column_55 Column_56 Column_57 Column_58 Column_59 Column_60 Column_61 Column_62 Column_63 Column_64 Column_65 Column_66 Column_67 Column_68 Column_69 Column_70 Column_71 Column_72 Column_73 Column_74 Column_75 Column_76 Column_77 Column_78 Column_79 Column_80 Column_81 Column_82 Column_83 Column_84 Column_85 Column_86 Column_87 Column_88 Column_89 Column_90 Column_91 Column_92 Column_93 Column_94 Column_95 Column_96 Column_97 Column_98 Column_99 Column_100 Column_101 Column_102 Column_103 Column_104 Column_105 Column_106 Column_107 Column_108 Column_109 Column_110 Column_111 Column_112 Column_113 Column_114 Column_115 Column_116 Column_117 Column_118 Column_119 Column_120 Column_121 Column_122 Column_123 Column_124 Column_125 Column_126 Column_127 Column_128 Column_129 Column_130 Column_131 Column_132 Column_133 Column_134 Column_135 Column_136
feature_infos=[-1.8014661073684692:2.1475074291229248] [-1.7160434722900391:2.0597634315490723] [-1.6382262706756592:1.9801409244537354] [-1.5680137872695923:1.9086390733718872] [-1.5054070949554443:1.8452587127685547] [-1.4504051208496094:1.7899996042251587] [-1.4123568534851074:1.7536556720733643] [-1.3844102621078491:1.7939627170562744] [-1.3517893552780151:1.9694005250930786] [-1.3099035024642944:2.0549979209899902] [-1.2559221982955933:2.0165181159973145] [-1.1870334148406982:2.064321756362915] [-1.1039742231369019:2.1106562614440918] [-1.0067610740661621:2.1771299839019775] [-0.90047705173492432:2.2759943008422852] [-0.78966546058654785:2.3805651664733887] [-0.67814630270004272:2.4481546878814697] [-0.65620064735412598:2.4658794403076172] [-0.66012513637542725:2.432060718536377] [-0.66667592525482178:2.3827006816864014] [-0.8555336594581604:2.3591430187225342] [-0.86833834648132324:2.2909350395202637] [-0.86565589904785156:2.1508355140686035] [-0.70636492967605591:2.1797337532043457] [-0.6794590950012207:2.1614029407501221] [-0.92955285310745239:2.0620582103729248] [-1.274228572845459:1.9191513061523438] [-1.700652003288269:1.7312250137329102] [-1.9202775955200195:1.5516149997711182] [-2.2033448219299316:1.3473584651947021] [-2.6534385681152344:1.1444870233535767] [-2.9375624656677246:1.0691677331924438] [-2.8964071273803711:1.0156075954437256] [-2.6209216117858887:0.98794400691986084] [-1.9672813415527344:0.99330562353134155] [-1.2877312898635864:1.0987448692321777] [-0.66409575939178467:1.3781088590621948] [-0.67050886154174805:1.4357191324234009] [-0.67336314916610718:1.5244829654693604] [-0.67729061841964722:1.427788257598877] [-0.67391806840896606:1.3506048917770386] [-0.77278417348861694:1.3033223152160645] [-0.78214722871780396:1.4334096908569336] [-0.67822211980819702:1.6771683692932129] [-0.67542338371276855:1.8418123722076416] [-0.67939788103103638:1.9795904159545898] [-0.67687302827835083:1.8671952486038208] [-0.68056988716125488:1.7601110935211182] [-0.67851173877716064:1.8138210773468018] [-0.68057990074157715:2.0951991081237793] [-0.67868822813034058:2.3221406936645508] [-0.68411111831665039:2.3866791725158691] [-0.6882440447807312:2.3278176784515381] [-0.69760811328887939:2.41339111328125] [-0.68820065259933472:2.0181429386138916] [-0.66555494070053101:1.7058380842208862] [-0.63047897815704346:1.5109990835189819] [-0.79989981651306152:1.3641012907028198] [-0.9627259373664856:1.3483799695968628] [-0.83332031965255737:1.3266682624816895] [-0.62303602695465088:1.3006186485290527] [-0.62908732891082764:1.6912268400192261] [-0.65896600484848022:1.8743280172348022] [-0.67422842979431152:1.7138135433197021] [-0.89532732963562012:1.3433690071105957] [-1.1747497320175171:1.0751444101333618] [-1.3727543354034424:0.99085426330566406] [-1.6713657379150391:0.88485002517700195] [-1.7223098278045654:0.75389385223388672] [-1.8893227577209473:0.60495084524154663] [-1.6504355669021606:0.45876148343086243] [-1.7446892261505127:0.33052113652229309] [-1.674402117729187:0.23037496209144592] [-1.5674382448196411:0.15855956077575684] [-1.3374539613723755:0.30397361516952515] [-1.5821062326431274:0.9557119607925415] [-1.8401819467544556:1.4404212236404419] [-2.0371255874633789:1.2026444673538208] [-2.1728529930114746:1.1285310983657837] [-2.2573421001434326:0.92254304885864258] [-2.3058340549468994:0.73609095811843872] [-2.3315773010253906:0.28676301240921021] [-2.3403120040893555:0.33890664577484131] [-2.3343968391418457:0.39074629545211792] [-2.3124566078186035:0.5232703685760498] [-2.2730567455291748:0.47703936696052551] [-2.2140905857086182:0.50853937864303589] [-2.1362462043762207:0.53271615505218506] [-2.0426793098449707:0.59374678134918213] [-1.9374580383300781:0.56802195310592651] [-1.8240519762039185:0.65060514211654663] [-1.7565661668777466:1.0689502954483032] [-1.6520191431045532:1.4172115325927734] [-1.5958865880966187:1.6290324926376343] [-1.5394163131713867:1.6649528741836548] [-1.4922878742218018:1.6182941198348999] [-1.4531639814376831:1.5608183145523071] [-1.4315723180770874:1.5597559213638306] [-1.414076566696167:1.5643377304077148] [-1.5819015502929688:1.563044548034668] [-1.8966314792633057:1.5685317516326904] [-2.4619696140289307:1.5680602788925171] [-2.648137092590332:1.5700795650482178] [-2.5047333240509033:1.5659784078598022] [-2.1062953472137451:1.5671930313110352] [-1.4475361108779907:1.5604219436645508] [-1.1194825172424316:1.5625878572463989] [-1.117332935333252:1.5604848861694336] [-1.168958306312561:1.5693559646606445] [-1.2179133892059326:1.5734660625457764] [-1.369315505027771:1.5825309753417969] [-1.6010570526123047:1.5861003398895264] [-2.1418814659118652:1.5904537439346313] [-2.465855598449707:1.5886306762695312] [-2.5047738552093506:1.5877697467803955] [-2.0072333812713623:1.5865405797958374] [-1.6131480932235718:1.5868538618087769] [-1.6321159601211548:1.611059308052063] [-1.6864286661148071:2.2872264385223389] [-1.7459897994995117:2.4594569206237793] [-1.820858359336853:2.1617026329040527] [-1.9280952215194702:1.6493175029754639] [-2.1567583084106445:1.6308574676513672] [-2.3918964862823486:1.6220458745956421] [-2.6616356372833252:1.6080794334411621] [-2.9659750461578369:2.1645474433898926] [-3.3559722900390625:3.0688047409057617] [-3.8503069877624512:4.2020993232727051] [0:1] [0:1] [0:1] [0:1] [0:1] [0:1] [0:1] [0:1] [0:1]
tree_sizes=6581 5943 6416 6417 4842 6660 6652 6743 6583 6875 6632 5750 6672 6351 6760 6671 6434 6590 6822 6904 5901 6429 6361 6943 5912 6845 6970 6121 5469 6121 6565 5892 6961 6769 6140 6257 6604 6812 6896 6264 6313 6911 6898 6936 5907 5950 6649 6425 6961 6774 6614 6486 5807 4857 6267 6376 6734 6721 6825 6244 5929 6066 6661 6168 6227 6689 5477 5881 6601 6709 6807 6948 6181 6994 6370 6632 6267 6945 6876 6937 6298 6682 4936 6945 6292 6916 5965 6575 5467 6911 6016 6004 6703 6638 6613 6926 6375 5660 6738 6873 5918 6258 5758 6390 5974 6818 4449 6152 6911 6391 6618 6956 6628 6985 6280 6588 6489 6118 6260 6944 6036 5395 5842 5591 5518 6600 6838 5596 6688 6846 6453 6228 6102 5806 5580 6911 6179 6914 6919 6642 6972 6678 6529 6324 6928 6515 6362 6335 6381 6785 6815 6480 6738 6574 6904 6176 6328 6554 5983 6237 6787 5713 6224 6432 5565 6406 6350 6966 6787 6387 6219 6450 6265 6772 6845 5165 6152 6538 6540 6463 6952 6896 6519 6601 4929 6153 5891 6137 6594 6479 5477 6961 6698 6652 6317 5953 6797 5120 6462 6202

Tree=0
num_leaves=61
num_cat=0
split_feature=132 31 70 31 136 136 71 107 96 134 31 48 53 107 131 117 69 45 74 33 37 3 0 103 55 106 61 31 60 79 117 105 67 68 105 35 131 110 104 112 30 122 41 107 24 24 16 53 75 70 105 109 32 53 72 1 0 5 40 0
split_gain=67146.1 75534 63918.6 40771 51736.8 35385.2 30763.5 22888.2 19037.9 21927.4 16713 13639.4 13234.8 13097.1 11123.5 9471.24 14946.7 8898.8 8806.11 7038.15 6629.72 6150.12 5669.98 5308.81 4865.09 3888.22 3815.74 3602.07 3590.04 3496.76 2880.07 4239.24 2676.36 2068.2 1994.22 1615.5 1482.09 1290.13 1052.26 955.856 875.709 778.204 773.05 728.459 639.926 636.399 579.399 565.363 945.521 557.117 1629.65 544.537 447.352 186.269 622.377 2.84217e-14 1.42109e-14 1.42109e-14 7.10543e-15 8.88178e-16
threshold=1.0000000180025095e-35 0.98323512077331554 -0.10227675735950469 1.0045111775398257 1.0000000180025095e-35 1.0000000180025095e-35 -0.38631689548492426 -1.0089097619056699 -1.031922399997711 1.0000000180025095e-35 0.95287734270095836 1.0082293152809145 0.93527755141258251 -0.880509853363037 1.0000000180025095e-35 -1.5494729876518247 0.010192322544753553 1.1587751507759096 -0.97339871525764454 0.92897200584411632 0.9311056137084962 0.67952582240104686 0.52874299883842479 -0.68430516123771656 1.0033765435218813 -0.96808254718780506 0.80343687534332286 1.0081694126129153 0.7541676163673402 -1.1842017173767088 -1.5653905868530271 -0.80328088998794545 0.26006384193897253 0.19683001935482028 -0.84820643067359913 0.92861354351043712 1.0000000180025095e-35 -1.19059282541275 -0.9590734839439391 -0.85370829701423634 1.0853909850120547 -1.8118404150009153 0.98986592888832103 -1.0142499804496763 1.0287277698516848 1.0726340413093569 0.70459631085395824 0.91745418310165416 -1.0971909165382383 -0.22385268658399579 -0.88143473863601673 -0.97047546505928028 0.85858789086341869 1.1137064695358279 -0.32700766623020167 -0.20986660569906232 0.76796233654022228 0.077543105930089964 1.0619125962257387 -0.31122475862503046
decision_type=2 2 2 2 2 2 2 2 2 2 2 2 2 2 2 2 2 2 2 2 2 2 2 2 2 2 2 2 2 2 2 2 2 2 2 2 2 2 2 2 2 2 2 2 2 2 2 2 2 2 2 2 2 2 2 2 2 2 2 2
left_child=1 5 7 4 6 10 11 20 27 14 35 -3 47 -11 -10 23 18 -8 -17 22 25 28 -6 32 -21 42 -18 39 -12 -23 31 58 -9 44 38 40 -29 -25 -14 -5 -1 -37 -2 -27 -33 53 52 56 -49 50 -22 -36 -47 54 -32 -55 -7 -51 -4 -35
right_child=2 3 30 8 19 12 17 15 9 13 21 -13 34 -15 -16 16 26 -19 -20 24 49 29 -24 37 -26 43 -28 36 -30 -31 45 33 -34 59 51 41 -38 -39 -40 -41 -42 -43 -44 -45 -46 46 -48 48 -50 57 -52 -53 -54 55 -56 -57 -58 -59 -60 -61
leaf_value=-3.0141610248919188 -2.28798666086578 -1.9083147742909845 -3.1289901269166069 -1.9030340254109086 -1.5119984450576127 -3.1289901269166069 -1.6569508419104351 -1.4855303792880421 -1.8453932868619842 -2.1700782163216248 -2.6293042794515729 -2.3436647974223699 -2.3604889708184382 -1.1262918253805561 -2.3228295124972953 -2.7771865008876455 -2.5497702442981538 -2.180870532803993 -1.391436161498997 -2.6204077223426232 -3.0091865641268711 -1.9528712942680959 -2.2811794637548886 -0.93376383737721147 -1.8315480079357169 -1.9545590436401081 -1.4054143380015682 -1.5232605531579497 -2.3045271948456607 -2.7404247450418566 -1.2725289662407175 -1.0456552780395365 -3.1289901269166069 -3.1289901269166069 -2.0304274054707094 -1.6336374403540541 -1.1002076143021617 -1.7858405165750266 -1.4599456088763905 -1.3401123039355054 -2.6553244457747218 -2.6661286510084774 -3.1289901269166069 -1.3278942302824253 -2.2913494313348757 -2.7226854792631769 -3.1289901269166069 -1.1751325520508096 -3.1289901269166069 -3.1289901269166069 -0.88829978029543533 -3.1289901269166069 -1.4529879076730787 -3.1289901269166069 -2.9895726783551124 -3.1289901269166069 -3.1289901269166069 -3.1289901269166069 -3.1289901269166069 -3.1289901269166065
leaf_weight=860.10663297772408 22.01951514557004 817.53168043866754 4.2873500771820536 97.345549780875444 1602.0680980421603 10.6078764796257 1150.3856693245471 25.03997853025794 2617.7042226493359 150.20429634302855 1239.4598824866116 6010.4478936605155 13.387161642313002 602.06740336120129 599.80393944308162 46.789963208138943 156.30477417632937 451.40175283327699 2302.0830478817225 97.098593484610319 17.174863517284397 311.40947778150439 101.93268028646708 532.39267157763243 401.23199474811554 28.032089669257402 35.814088124781847 98.669140964746475 469.19107558950782 68.840223975479603 2.2167011983692637 25.678952120244507 16.398009058088064 5.2597387544810763 9.3650084771215933 12.384027343243362 515.218261256814 18.38314800336957 421.62000929564238 43.708504240959883 73.848219681531191 17.781646966934204 21.701947297900915 54.83620971813798 4.9128698036074629 5.0642045363783854 8.3095032423734647 4.2124049700796604 6.0111300051212293 3.6243577972054473 4.5914640612900248 8.7072986103594285 6.1384460479021072 132.68685496598482 44.275874957442284 76.553508594632149 48.840431291610003 81.106055583804846 30.983839217573404 1.9447773545980451
leaf_count=18520 322 9002 97 1067 11600 240 9916 175 27257 2028 22150 91077 205 2150 8970 902 2675 6141 14028 1727 369 3561 1484 926 4125 321 223 725 6935 1303 11 72 371 119 114 104 1712 181 2844 245 1338 324 491 301 72 95 188 17 136 82 6 197 41 3002 943 1732 1105 1835 701 44
internal_value=-3.02413 -2.07403 -1.60902 -1.97764 -2.08626 -2.48796 -2.19901 -1.47559 -1.73322 -1.82075 -2.61813 -2.29154 -1.72773 -1.3347 -1.9344 -1.40447 -1.4884 -1.8046 -1.41904 -1.65469 -2.4316 -2.45918 -1.55801 -1.04433 -1.98526 -1.94244 -2.33644 -1.27291 -2.54012 -2.09545 -2.8986 -2.3405 -2.13589 -1.60469 -1.53042 -2.96252 -1.1682 -0.962203 -1.48766 -1.7286 -2.98579 -2.24226 -2.70543 -1.53988 -1.24571 -3.04676 -2.49627 -3.01086 -2.32394 -3.01306 -2.5618 -2.55972 -2.02696 -3.08876 -2.90771 -3.12899 -3.12899 -3.12899 -3.12899 -3.12899
internal_weight=0 18932.6 3714.6 15356.8 10632.1 3575.77 8429.77 3366.29 4724.72 3969.78 3053.02 6827.98 522.751 752.272 3217.51 3133.21 2540.99 1601.79 2348.87 2202.33 233.087 2088.9 1704 592.214 498.331 126.59 192.119 754.941 1708.65 380.25 348.313 73.0675 41.438 37.7963 453.079 964.121 613.887 550.776 435.007 141.054 933.955 30.1657 43.7215 82.8683 30.5918 275.245 19.5122 69.6718 10.2235 106.497 21.7663 18.0723 11.2027 255.733 46.4926 209.24 59.4483 84.7304 35.2712 7.20452
internal_count=268644 238319 30325 179226 135072 59093 116136 23208 44154 40405 54235 100079 4858 4178 36227 19481 17828 16057 14930 18936 3727 33949 13084 1653 5852 1435 2898 3749 29085 4864 7117 1105 546 307 3360 20286 2437 1107 3049 1312 19858 428 813 622 144 6012 324 1498 153 2292 375 311 136 5688 954 4734 1345 1917 798 163
is_linear=0
shrinkage=1


Tree=1
num_leaves=55
num_cat=0
split_feature=32 106 31 36 72 72 35 29 106 112 134 37 98 106 60 110 37 31 72 71 27 34 73 72 135 31 53 114 73 30 46 116 106 96 75 110 71 30 29 30 134 99 23 57 89 110 28 127 56 26 69 69 31 52
split_gain=7107.49 2071.21 3276.19 3011.86 5721.26 2840.45 5095.05 4190.77 3582.31 2857.36 2283.82 2287.49 2047.43 1696.93 1534.39 1767.39 1531.63 1161.37 1104 1007.14 1068.33 792.777 751.64 638.592 599.434 523.124 487.831 460.084 477.097 449.169 403.213 394.783 380.262 375.189 392.707 300.842 284.817 280.699 280.683 239.582 236.884 231.7 187.534 491.945 566.576 180.703 136.01 129.286 47.1453 376.411 46.7184 40.6678 0.0103079 0.00587073
threshold=0.82540854811668407 -0.80298241972923268 0.998528152704239 0.92961549758911144 -0.60247695446014393 -0.64110940694808949 0.89675888419151317 1.1452488303184511 -0.85148918628692616 -1.0717576742172239 1.0000000180025095e-35 0.95939648151397716 -0.94051748514175404 -0.8602481186389922 0.74412605166435253 -0.81465962529182423 0.95522984862327587 0.99215897917747509 -0.61731725931167591 -0.44687986373901362 1.1938000321388247 0.91875645518302929 -0.77990856766700734 -0.61650720238685597 1.0000000180025095e-35 0.99175086617469799 1.0412763953208926 -1.0289003252983091 -0.91244384646415699 1.0853909850120547 1.1381833553314211 -1.5220459103584287 -0.84562140703201283 -0.99437904357910145 -1.0643948912620542 -0.90848577022552479 -0.42291010916233057 0.96566554903984081 1.1151655912399294 1.0577346086502077 1.0000000180025095e-35 -0.98458409309387196 1.399768650531769 0.79295146465301525 -1.2223997712135313 -0.93127250671386708 1.2379490137100222 -1.7770314812660215 1.0675901770591738 1.2276297807693484 0.03419220261275769 -0.39286974072456354 0.98366501927375805 1.1745451688766482
decision_type=2 2 2 2 2 2 2 2 2 2 2 2 2 2 2 2 2 2 2 2 2 2 2 2 2 2 2 2 2 2 2 2 2 2 2 2 2 2 2 2 2 2 2 2 2 2 2 2 2 2 2 2 2 2
left_child=13 3 14 5 21 6 9 8 -7 -2 11 -6 -8 24 39 17 19 -16 -9 20 -4 23 47 -5 27 -17 -21 31 37 41 -24 50 -12 45 -35 -33 -23 -29 -30 52 42 -26 48 46 -45 -31 -44 -18 53 -50 -1 -43 -3 -15
right_child=1 2 16 4 10 7 12 18 -10 -11 32 -13 -14 40 15 25 22 -19 -20 26 -22 36 30 -25 29 -27 -28 28 38 33 -32 35 -34 34 -36 -37 -38 -39 -40 -41 -42 51 43 44 -46 -47 -48 -49 49 -51 -52 -53 -54 -55
leaf_value=0.32900156384008411 0.17496784531400542 -0.1057863583729457 0.022723821871935751 -0.0062138201506653284 0.43290145687795945 0.34263497263164511 0.37332349069527937 0.48837481937021288 0.44585267470137691 0.3415738233772827 0.037831743651776467 0.29040770970190172 0.05358544253133235 -0.10479304388218401 0.26667649704890961 0.38556034263733563 0.59494689085917962 0.41881046735989513 0.70162822804922753 0.25084339233000785 0.9116879931621229 -0.049494457376759379 0.59868327919935405 0.36693462261779586 1.0910088704455478 0.84116313010778276 0.92235472713669131 0.38836879753042258 -0.11533916951525279 1.1188137075946551 0.28943853064396924 0.024826887768495117 0.33059108134921089 1.3006216415475578 0.32707385455594218 0.36472483482484519 0.1705250888571464 -0.061836534797451381 0.41991768682611963 1.0839296357283357 1.111025353044494 -0.089730979517805898 -0.10785152819587676 1.9088397987026742 -0.10518683757311154 0.063390816030199956 0.32866656580859099 -0.10986305258380968 -0.10633600033284685 1.9595465896390758 0.14134634333492932 0.13465287852976024 -0.10965831950652966 -0.10595462168609499
leaf_weight=96.714764062315226 1087.4839795567095 7.7195722311735144 30.676133491098881 79.850312225520611 1466.3508863784373 17849.742873568088 253.74959031119943 654.5139183588326 4142.851280130446 19272.719009689987 344.07404524460435 4862.2409945689142 950.28385040536523 295.64051645994186 776.64359877258539 33.073857184499502 2.9184098914265659 1417.8511639609933 385.88475226983428 11.364371724426745 24.170649573206902 558.59334563836455 175.32775304466486 107.75007836148143 1.7205281481146801 105.88374726474285 225.18446108698845 20.435807731002569 10.279664952307938 1.6786085925996292 55.512458175420761 186.91659209877253 50.934972461313009 5.8469389528036144 14.220762941986321 30.254954297095537 65.762643747031689 42.967573001980782 208.64472019672394 1.723974086344241 1.6921029947698105 135.5677851177752 30.872674006968737 3.0653428323566914 2.5660459473729125 48.30084502696991 9.2843963913619501 24.050843603909016 7.6726602353155595 0.9965112805366515 15.376031406223772 8.589064493775366 62.886938109993935 51.019395407289267
leaf_count=53 8305 154 323 994 6739 67372 1511 2573 16268 87224 3508 27077 8578 6856 4666 212 16 5102 873 91 65 5771 280 828 19 284 531 179 140 8 220 1906 311 17 174 357 591 736 512 2 18 3020 627 10 56 711 83 297 172 2 123 173 785 1141
internal_value=0 0.341673 0.423118 0.337057 0.278583 0.346937 0.320855 0.371356 0.362079 0.332675 0.308863 0.323424 0.12097 0.0986516 0.372809 0.386869 0.643496 0.364969 0.567471 0.800574 0.414485 0.0278438 0.465954 0.208108 0.180589 0.732723 0.890094 0.231161 0.324827 0.0373501 0.524316 0.150846 0.075582 0.245489 0.610727 0.0721793 -0.0263201 0.083271 0.394785 -0.0807963 -0.0696778 -0.0625935 -0.0746585 0.115818 0.991111 0.0988382 -0.00692766 -0.0335938 -0.0992038 0.131135 0.30326 -0.0763619 -0.109235 -0.104964
internal_weight=0 55087.8 2954.99 52132.8 7535.56 44597.2 21564.2 23033 21992.6 20360.2 6723.6 6328.59 1204.03 1230.32 2405.78 2333.45 549.205 2194.49 1040.4 291.396 54.8468 811.956 257.809 187.6 827.515 138.958 236.549 611.59 282.328 215.925 230.84 329.262 395.009 70.0472 20.0677 217.172 624.356 63.4034 218.924 72.3305 402.81 145.877 401.118 45.7885 5.63139 49.9795 40.1571 26.9693 355.329 8.66917 112.091 144.157 70.6065 346.66
internal_count=268644 251551 13028 238523 45819 192704 105618 87086 83640 95529 37635 33816 10089 17093 11205 10264 1823 9768 3446 1010 388 8184 813 1822 8128 496 622 4006 1567 4122 500 2439 3819 910 191 2263 6362 915 652 941 8965 3212 8947 776 66 719 710 313 8171 174 176 3193 939 7997
is_linear=0
shrinkage=0.1


Tree=2
num_leaves=59
num_cat=0
split_feature=32 104 30 72 35 30 133 134 30 59 133 31 72 72 35 38 70 70 3 104 85 39 106 75 108 114 126 3 26 74 70 111 106 111 0 61 31 6 56 78 31 85 120 104 33 108 99 132 107 69 132 95 106 27 25 30 112 75
split_gain=3432.97 1384.51 1345.37 2062.19 4833.95 3510.11 2666.91 2409.71 2318.32 2090.96 1681.37 1459.85 1316.38 1257.55 1596.68 1195 1791.4 1052.86 1112 817.932 806.835 518.159 481.312 421.737 363.504 352.878 310.552 279.519 237.404 215.029 190.046 187.254 228.932 215.601 209.694 358.699 183.533 190.32 181.451 169.111 159.353 118.078 78.7337 26.822 146.245 146.305 55.4613 0.662169 0.552063 0.127977 0.115464 0.0943353 0.0680275 0.124544 0.0199606 0.0191872 0.013916 1.35467e-05
threshold=0.81382748484611522 -0.91793766617774952 1.088178873062134 -0.60582312941551197 0.91094085574150097 1.0534405708312991 1.0000000180025095e-35 1.0000000180025095e-35 1.066334664821625 0.78323638439178478 1.0000000180025095e-35 1.0023079514503481 -0.69265684485435475 -0.62526389956474293 0.92211058735847484 0.92900532484054577 -0.28372377157211298 -0.55861908197402943 0.54913413524627697 -0.89261513948440541 -1.0662872791290281 0.98381680250167858 -0.90285801887512196 -1.0726606845855711 -0.97633501887321461 -1.0422547459602354 -1.1462811827659605 0.55118131637573253 1.4640528559684756 -1.0486059784889219 -0.41403393447399134 -0.97172719240188588 -0.97897753119468678 -0.96404692530632008 0.30934020876884466 0.59919461607933056 0.78551548719406139 0.94390785694122326 0.84633696079254161 -1.0684484243392942 0.98366501927375805 -0.9073190689086913 -0.9300745129585265 -0.90090784430503834 0.72722437977790844 -0.90578413009643544 -0.95168563723564137 1.0000000180025095e-35 -0.95515066385269154 0.049593856558203704 1.0000000180025095e-35 -0.26930536329746241 -0.86062732338905323 1.3359124064445498 1.3974300622940066 1.0853909850120547 -0.91572749614715565 -0.37704122066497797
decision_type=2 2 2 2 2 2 2 2 2 2 2 2 2 2 2 2 2 2 2 2 2 2 2 2 2 2 2 2 2 2 2 2 2 2 2 2 2 2 2 2 2 2 2 2 2 2 2 2 2 2 2 2 2 2 2 2 2 2
left_child=1 25 3 4 6 7 9 10 -8 -2 -5 -9 17 21 -15 19 -17 23 40 -7 -20 -6 27 28 -25 31 29 30 -4 -27 -14 34 -33 -34 35 -1 37 -28 -24 -31 -19 -29 -38 44 50 -46 -47 -36 49 51 55 -45 53 -50 -54 -3 -40 -51
right_child=2 43 12 5 13 15 8 11 -10 -11 -12 -13 22 14 -16 16 -18 18 20 -21 -22 -23 38 24 -26 26 36 41 -30 39 -32 32 33 -35 47 -37 42 -39 56 -41 -42 -43 -44 48 45 46 -48 -49 52 57 -52 -53 54 -55 -56 -57 -58 -59
leaf_value=0.86721986101254833 0.22479672783604734 -0.10476547175144152 0.24299523461704681 0.25693999571751575 0.090038099940219829 0.35170699040523928 -0.080293592986679818 0.059547477091689241 0.17796542381659422 0.29072097141731412 0.14418650559735616 0.42073260217415565 -0.11448255023202583 0.19012905609143047 -0.04378940679925053 0.10769275745416505 0.35184810385889048 0.30389268761573734 0.30145761247918412 0.55110666193481783 0.14136871912479848 -0.084859931408713826 0.460353353248588 -0.11456376396081357 0.32958870942244706 1.0336757895490549 0.36365949505175998 0.44638942516911939 -0.027870537403605972 0.27368217816882012 0.33106229758125727 1.5146059895263011 0.48619811464884466 0.013035928645597161 -0.10681581156303488 -0.11191338279969097 0.15159995005782165 -0.11761496550099509 -0.12087089036791046 -0.12273597805583883 -0.12192064112290002 0.60134467675856262 -0.10771467584804291 -0.12342658322920477 1.0793544105180726 0.2552891404188688 -0.11343351613200381 -0.12532079837306001 -0.11941878580694576 -0.10451136036292503 -0.1273210402323012 -0.14263195268850556 -0.10449771915993694 -0.10497157290958961 -0.11593688734534176 -0.10855396131924661 -0.12819864373091724 -0.10497907183431582
leaf_weight=6.3100943565368643 23076.066387135535 58.033272348344326 39.287028260529041 24211.463069815189 257.69923413544893 389.10904075205326 454.43085159733891 987.07604417949915 1478.3511280156672 6078.5673348121345 1398.9368410483003 126.21390387415886 10.541105881333349 1181.448499482125 387.51177551597357 347.49697853624821 2222.527598939836 9.9322404488921148 4222.7839669324458 436.47238896787167 340.18124935775995 494.32333476468921 7.0517592579126385 22.476504366844893 102.26525162905455 3.6086371913552275 29.229682739824057 514.7079198807478 183.46186357364058 246.21581667661667 104.30970791727304 1.2688175439834584 13.677508119493721 32.543138492852449 55.132379975169897 9.1915545389056188 15.522131681442259 11.429701168090103 19.225496947765357 11.253173239529131 76.331122554838657 54.370941884815693 47.657996062189341 7.8752502463757983 1.7309909164905573 10.732201863080267 6.5806794315576527 29.783257067203522 9.0223158635199088 1.1112531907856464 2.5385995693504801 3.7876654490828505 264.26343635842204 17.62035870552063 1.53425733745098 17.369565047323704 2.9954225122928575 1.3987341485917559
leaf_count=28 85724 1398 127 69367 1708 1032 4838 8299 8113 22637 11607 496 100 5949 3907 2187 4738 79 11873 846 1844 4893 12 242 727 24 85 846 1449 1211 265 1 101 467 1064 154 185 162 139 107 588 56 943 58 11 63 111 189 104 27 19 21 6697 406 20 251 18 31
internal_value=0 0.0470688 0.241893 0.237714 0.220607 0.256689 0.231 0.24452 0.117244 0.238542 0.250781 0.100495 0.288389 0.0813937 0.132354 0.352459 0.318835 0.270249 0.282798 0.457127 0.289523 -0.0249268 0.415479 0.102345 0.249559 0.15611 0.208921 0.432474 0.019903 0.2671 0.29017 0.0258141 0.189431 0.153053 -0.0515637 0.286652 0.0626451 0.228369 0.0183956 0.256356 -0.0728931 0.461194 -0.0440061 -0.0914821 -0.0456454 0.202779 0.115137 -0.113306 -0.105981 -0.125255 -0.106344 -0.129664 -0.105047 -0.109864 -0.104564 -0.105638 -0.121859 -0.104772
internal_weight=0 916.422 69237.6 63527.7 33408.4 30119.3 31087.4 26723.7 1932.78 29154.6 25610.4 1113.29 5709.92 2320.98 1568.96 3395.61 2570.02 4996.72 4649.23 825.581 4562.97 752.023 713.202 347.491 124.742 512.824 364.917 683.93 222.749 261.078 114.851 147.907 47.4895 46.2206 100.417 15.5016 103.84 40.6594 29.2727 257.469 86.2634 569.079 63.1801 403.599 96.9853 19.0439 17.3129 84.9156 306.613 14.1729 77.9414 11.6629 292.44 26.6427 265.798 75.4028 22.2209 2.50999
internal_count=268644 13938 254706 236341 137769 98572 121312 89769 12951 108361 80974 8795 18365 16457 9856 8803 6925 16929 14384 1878 13717 6601 1436 2545 969 4721 2717 1267 1576 1342 365 2004 569 568 1435 182 1375 247 169 1318 667 902 1128 9217 1853 185 174 1253 7364 137 1668 79 7227 510 6717 1649 157 58
is_linear=0
shrinkage=0.1


Tree=3
num_leaves=59
num_cat=0
split_feature=32 72 39 72 71 36 30 37 31 60 45 106 72 69 59 117 41 106 107 36 62 69 16 73 32 43 57 135 15 30 127 29 73 74 30 98 55 45 21 105 27 105 98 106 82 72 56 26 18 110 68 132 70 23 55 32 110 134
split_gain=2124.62 1283.83 4365.35 1821.33 1545.1 2741.9 1802.05 1398.16 1283.31 1264.16 1215.31 1712.22 1282.84 1224.82 993.518 984.897 949.466 920.079 818.136 795.113 655.143 983.066 608.699 531.852 407.151 386.279 303.473 302.299 264.21 238.761 206.336 226.044 204.422 190.76 176.796 148.006 163.232 140.548 132.181 130.39 121.512 110.269 82.6182 65.0278 91.4413 36.5284 26.4324 50.8174 25.8071 0.277544 0.194713 0.0309295 0.024127 0.0240484 0.0312982 0.0182255 0.0180299 0.00750449
threshold=0.82540854811668407 -0.53895375132560719 1.018420457839966 -0.55540925264358509 -0.40738224983215326 0.93056738376617443 1.033813536167145 0.98437789082527172 0.998643457889557 0.75573676824569713 1.1699005365371706 -0.92566516995429982 -0.50513646006584156 0.025354820303618911 0.84529241919517528 -0.98986190557479847 1.0822730064392092 -0.8602481186389922 -1.0142499804496763 0.93749779462814342 0.7826671600341798 -0.046994443982839577 0.96723607182502758 -0.72895303368568409 0.96400040388107311 1.1403155326843264 0.9478878676891328 1.0000000180025095e-35 0.86580830812454235 1.0853909850120547 -3.3601459264755245 1.2301890254020693 -0.75559252500534047 -0.88786345720291127 1.0493072867393496 -0.9803464114665984 0.68450528383255016 1.1509436368942263 1.0154352188110354 -0.87371438741683949 1.1200892329216006 -0.87441858649253834 -0.98940142989158619 -0.82903680205345143 -1.3659890890121458 -0.77598056197166432 1.0675901770591738 1.2276297807693484 1.5448195934295657 -1.1972672343254087 0.19683001935482028 1.0000000180025095e-35 -0.10227675735950469 1.4040924906730654 0.98763781785964977 0.81382748484611522 -0.93127250671386708 1.0000000180025095e-35
decision_type=2 2 2 2 2 2 2 2 2 2 2 2 2 2 2 2 2 2 2 2 2 2 2 2 2 2 2 2 2 2 2 2 2 2 2 2 2 2 2 2 2 2 2 2 2 2 2 2 2 2 2 2 2 2 2 2 2 2
left_child=17 2 4 23 5 6 -2 22 15 -7 14 20 25 -14 16 -6 18 27 -3 -10 21 -12 -5 32 33 -13 -25 30 -26 42 49 34 -4 -16 -32 56 -37 -18 -22 41 -9 43 -29 51 -45 -33 53 57 -44 50 -1 -19 -51 55 -55 -41 -31 -48
right_child=1 10 3 7 8 9 -8 40 19 -11 11 12 13 -15 24 -17 37 39 -20 -21 38 -23 -24 26 28 -27 -28 29 -30 35 31 45 -34 -35 -36 36 -38 -39 -40 46 -42 -43 48 44 -46 -47 47 -49 -50 52 -52 -53 -54 54 -56 -57 -58 -59
leaf_value=-0.13890946880368418 0.081413024744309531 0.061447722884903355 -0.11223432317839144 0.2137215572698955 0.13003494977601773 0.00766063043400113 0.19127973635910156 0.25844842342710866 0.34792889966898533 0.14894531785260728 0.15771693169641965 0.17735555318326696 0.23386212099123257 0.1244786059838817 0.11628793217727942 0.25151318047981303 0.21266594525263077 -0.10667124687305091 0.23494224012739556 0.23859181297527821 0.082722331199154897 -0.05131606408609074 -0.010301474079914354 -0.028143867290255576 0.41228693160441676 -0.024154422634840949 0.21075131038971914 0.37369291018072531 0.3082905966982572 -0.12027921601957976 0.13851480643397038 -0.11398525926143184 -0.021729640465401167 0.26057257369397496 0.25296921430920177 -0.10846089295866848 0.26695526531364638 -0.088604312782249867 0.32421082314317506 -0.10398546939255932 -0.084581850796439789 0.30626069648230458 0.064571331936485274 -0.10613213821569173 0.26114199846934294 0.12213513729568425 -0.10549960309810931 0.31466178360983488 -0.089246335401739499 -0.11266735687001293 -0.1049786041892245 -0.12064890318813236 -0.10567847657258778 -0.10712523142478166 -0.12364102926404119 -0.10630725620815931 -0.1080741372888574 -0.11343061654671138
leaf_weight=6.2306844405829924 1538.9370098225772 285.46850452572107 373.88600268959999 1003.5546495988965 1347.0612425580621 1211.2296643480659 49919.437564563006 10.773126266896723 1216.3151980340481 1327.2903872951865 391.95233511924744 138.45045639574528 5771.6316234990954 1244.3998720794916 109.26135420799255 1322.8076411001384 17.976522095501423 29.596791815012693 5677.7529949173331 1467.6664215549827 28.757823288440704 528.14599595218897 137.96158071607351 87.41398061811924 315.52330158650875 304.01082564890385 135.75709474459291 4.1976336427032939 1082.1518972218037 1.2968245670199419 511.70743703097105 34.366158507764339 750.5544012375176 567.90511874854565 183.30761235579848 14.127868130803106 64.267993230372667 111.72759710997343 107.0004518032074 240.10698436945677 249.08629191666842 13.708145853132008 11.899259757250546 11.900169380009176 15.752177640795709 8.0951812602579576 6.498019475489853 4.4609746932983398 130.87332368269563 7.9538430385291603 2.3213390000164509 1.6725475788116444 13.03411829844117 9.7195257730782014 1.3009999208152283 39.350090440362692 18.151811234652996 1.4613806605339048
leaf_count=42 8835 2196 2691 2511 5737 8821 162775 37 1892 7120 1059 668 7312 5911 404 2990 42 662 9276 3960 114 3472 655 560 571 2082 544 21 1404 11 2569 484 4223 1378 447 204 426 704 106 6707 1501 14 179 276 65 62 167 1 3012 89 53 13 260 230 17 799 269 14
internal_value=0 0.18898 0.182364 0.059169 0.18807 0.182989 0.187994 0.138989 0.239311 0.0815327 0.21361 0.187174 0.204046 0.214461 0.241167 0.190222 0.220815 0.0641449 0.226637 0.288141 0.0679872 0.0377298 0.186647 -0.0238357 0.300934 0.0389 0.117178 0.113757 0.331768 0.0170073 0.144637 0.155017 -0.0518232 0.237292 0.168702 0.138042 0.199301 -0.0468493 0.273056 -0.0695304 -0.0703607 0.0508044 -0.0635706 -0.0086276 0.103086 -0.0689693 -0.0983846 0.0444749 -0.0764265 -0.114514 -0.129699 -0.107419 -0.108327 -0.104493 -0.109075 -0.104312 -0.108888 -0.106956
internal_weight=0 78781.8 62099.7 2748.99 59350.7 53996.9 51458.4 1401.38 5353.85 2538.52 16682.1 8514.35 7458.49 7016.03 8167.77 2669.87 6092.93 1387.36 5963.22 2683.98 1055.86 920.098 1141.52 1347.61 2074.84 442.461 223.171 1011.83 1397.68 244.815 767.016 737.476 1124.44 677.166 695.015 97.8445 78.3959 129.704 135.758 375.528 259.859 72.6298 146.97 58.9217 27.6523 42.4613 302.898 12.4204 142.773 29.54 8.55202 31.2693 20.988 290.478 11.0205 279.457 19.4486 7.9594
internal_count=268644 251551 214852 12722 202130 187551 171610 4704 14579 15941 36699 20724 15973 13223 15975 8727 12218 17093 11472 5852 4751 4531 3166 8018 3757 2750 1104 8128 1975 4122 4006 3562 6914 1782 3016 910 630 746 220 8965 1538 1030 3212 1016 341 546 7935 182 3191 444 95 675 349 7753 247 7506 280 181
is_linear=0
shrinkage=0.1


Tree=4
num_leaves=44
num_cat=0
split_feature=125 127 71 38 31 131 130 107 38 73 103 71 37 52 103 113 28 31 113 107 99 107 30 114 42 25 108 107 108 31 70 68 61 69 31 32 33 132 33 132 31 30 1
split_gain=1401.4 1139.21 1353.94 3774.98 1355.16 2642.27 1494.17 1084.56 1053.8 1012.85 837.078 815.248 813.174 469.753 228.422 225.64 254.595 200.331 173.387 135.723 107.269 86.2917 92.0463 77.8031 70.3834 61.7542 50.6842 12.7541 81.3818 1.99435 0.931426 0.532323 0.289318 0.37716 0.145529 0.103896 0.0949846 0.0945024 0.087483 0.0496853 0.0364378 0.00915021 0.00810403
threshold=-1.0913838148117063 -3.3064159154891963 -0.36162924766540522 0.9943959414958955 1.0066294074058535 1.0000000180025095e-35 1.0000000180025095e-35 -0.99950838088989247 0.97264501452445995 -0.75078269839286793 -0.82606530189514149 -0.22011945396661756 0.98437789082527172 1.1291561722755434 -0.636279135942459 -1.3581558465957639 0.9220682978630067 1.0107753872871401 -0.93254137039184559 -1.0104861855506895 -0.99789732694625843 -0.86995375156402577 0.91363802552223217 -0.93141499161720265 1.090049207210541 0.98653873801231395 -1.0503145456314085 -0.91312724351882923 -0.90783280134201039 0.95419329404830944 -0.10227675735950469 0.19683001935482028 0.80343687534332286 0.010192322544753553 1.0058403015136721 0.82540854811668407 0.81754183769226085 1.0000000180025095e-35 0.82737809419631969 1.0000000180025095e-35 0.95287734270095836 0.87196540832519542 -0.69229161739349354
decision_type=2 2 2 2 2 2 2 2 2 2 2 2 2 2 2 2 2 2 2 2 2 2 2 2 2 2 2 2 2 2 2 2 2 2 2 2 2 2 2 2 2 2 2
left_child=1 15 3 4 5 -3 -6 8 19 24 -10 13 -11 -9 -13 16 25 18 20 -4 39 23 -23 -22 -5 31 -27 28 36 37 32 -1 33 -17 -31 42 -20 -29 -34 40 -2 -37 -32
right_child=17 2 7 9 6 -7 -8 11 10 12 -12 14 -14 -15 -16 30 -18 -19 27 -21 21 22 -24 -25 -26 26 -28 29 -30 34 35 -33 38 -35 -36 41 -38 -39 -40 -41 -42 -43 -44
leaf_value=-0.13953768457870314 -0.10691423712732935 0.150447190179572 0.11034452588295077 -0.048029685361924479 0.19182356578843629 0.042515257250318239 0.085593474196176356 0.21197127672011656 0.20172817161145101 0.088419227000813422 -0.026778162771172793 -0.034744729164667747 -0.089269899283097004 0.17509374681772261 0.19017530267212523 -0.14081242571592054 0.60811600438898616 0.19867376283484903 -0.12086657725584585 0.20927678218202739 -0.11384305899818375 0.028486216161539259 0.27792161994722692 0.35501382824480421 -0.12174544367256912 -0.045117332694045796 0.1668009666169806 -0.10396341438539812 0.37542951478113129 -0.12884780271742893 -0.11199039997406411 -0.10585267948839719 -0.12775439585175058 -0.1148198058751983 -0.15015328270635556 -0.10947740308914362 -0.13776319125043598 -0.13222447610631582 -0.15022959859762874 -0.12060244431986472 -0.11950165531495993 -0.11722683074371197 -0.10386084418828501
leaf_weight=7.3562312982976463 26.933442920446399 52298.667162263766 178.1172642596066 215.19929163902998 12544.276994675398 2371.0122002996504 1480.294146001339 6782.6968442201614 211.68055611476302 1715.0040122717619 660.63800896331668 203.84368185326457 303.06230144202709 7038.7871066126972 57.999901538714767 6.5491932816803446 8.5112584941089136 34.332531243562698 11.373076468706136 626.11187743395567 23.614095138385895 26.169182220473886 34.035172883421183 4.1632857322692862 325.33755276724696 17.763736225664616 30.948480561375618 198.66681347414851 4.0565835684537879 27.540807120501999 1.2428404092788685 12.950527921319006 3.0620569400489321 37.818897888064384 3.6284143775701514 45.470384314656258 4.702709734439849 1.1903103739023198 3.9867502003908157 3.4934050701558581 2.5144368261098853 1.576500043272971 91.681572992354631
leaf_count=62 528 173161 663 1507 22990 14133 4700 9407 362 6638 4384 2124 2006 11775 115 44 22 31 93 631 379 256 83 1 2460 80 63 5689 4 165 13 294 27 361 17 577 24 9 18 37 21 17 2673
internal_value=0 0.153669 0.154304 0.148438 0.15288 0.145766 0.180611 0.180828 0.104796 0.0291724 0.0286722 0.189879 0.0617348 0.193191 0.0150764 -0.0518354 0.092084 -0.0324557 -0.0537824 0.187366 0.0445981 0.102229 0.169499 -0.0435706 -0.0923976 0.0284482 0.0895214 -0.101149 -0.024812 -0.107801 -0.110136 -0.118055 -0.121646 -0.118657 -0.131328 -0.105908 -0.125809 -0.104132 -0.140466 -0.109327 -0.107989 -0.109737 -0.10397
internal_weight=0 87281.6 87012.7 71252.9 68694.3 54669.7 14024.6 15759.9 1676.55 2558.6 872.319 14083.3 2018.07 13821.5 261.844 268.918 77.5302 406.414 372.082 804.229 120.923 87.9817 60.2044 27.7774 540.537 69.019 48.7122 251.159 20.1324 231.026 191.388 20.3068 51.4169 44.3681 31.1692 139.971 16.0758 199.857 7.04881 32.9413 29.4479 47.0469 92.9244
internal_count=268644 261307 257056 227595 214984 187294 27690 29461 6040 12611 4746 23421 8644 21182 2239 4251 521 7337 7306 1294 1305 719 339 380 3967 499 143 6001 121 5880 3730 356 450 405 182 3280 117 5698 45 586 549 594 2686
is_linear=0
shrinkage=0.1


Tree=5
num_leaves=61
num_cat=0
split_feature=70 35 70 48 38 59 70 104 130 70 37 134 31 104 134 30 41 32 32 108 69 36 105 15 60 58 136 116 72 29 41 1 31 48 109 5 71 117 106 30 52 100 70 29 43 25 101 93 104 35 102 113 31 3 31 3 34 31 57 30
split_gain=1127.51 1143.42 3197.74 1476.75 1474.89 2134.67 1401.76 2099.89 1672.36 1573.64 1296.55 1227.77 1220.64 1007.65 995.832 987.394 985.753 916.596 905.15 862.481 754.078 590.993 575.992 572.944 503.741 490.874 442.944 425.348 455.884 359.202 355.933 357.373 305.763 280.298 268.708 239.381 217.642 169.06 196.637 166.006 179.316 163.396 135.016 106.398 89.8537 87.2571 85.4079 66.2092 61.9044 46.2228 44.2042 38.9106 2.01589 0.503844 0.350186 0.199739 0.150265 0.0884355 0.0154269 0.00472075
threshold=-0.51336461305618275 0.89958354830741893 -0.27372628450393671 1.1467076539993288 0.96687874197959911 0.81092661619186412 -0.30687153339385981 -0.83498442173004139 1.0000000180025095e-35 -0.096746474504470811 0.93152907490730297 1.0000000180025095e-35 1.0028643012046816 -0.81476756930351246 1.0000000180025095e-35 1.0864678025245669 1.0512698888778689 0.95862469077110302 0.95880109071731578 -0.86549076437950123 -0.16736554354429242 0.89479282498359691 -0.89941874146461476 0.97837308049201976 0.72729575634002697 0.85594692826271068 1.0000000180025095e-35 -1.0310261845588682 -0.78651383519172657 1.1271383166313174 0.85610240697860729 0.64014533162117015 1.0084105134010317 0.95465910434722911 -0.87589925527572621 0.68268156051635753 -0.63748177886009205 -1.5653905868530271 -0.88451206684112538 1.0859348773956301 0.90525397658348095 -0.92539939284324635 -0.52881774306297291 1.2301890254020693 0.92634084820747387 1.0570039153099062 -0.92793548107147206 -0.93980282545089711 -0.91035479307174672 0.66214880347251903 -0.9271918237209319 -0.96721649169921864 0.95287734270095836 0.67952582240104686 0.98366501927375805 0.67952582240104686 0.68901956081390392 0.984085112810135 0.79295146465301525 1.088178873062134
decision_type=2 2 2 2 2 2 2 2 2 2 2 2 2 2 2 2 2 2 2 2 2 2 2 2 2 2 2 2 2 2 2 2 2 2 2 2 2 2 2 2 2 2 2 2 2 2 2 2 2 2 2 2 2 2 2 2 2 2 2 2
left_child=22 6 3 10 17 32 7 8 15 12 18 26 14 -13 -8 -2 -7 23 -3 -10 29 -22 27 -4 -19 -12 -5 36 30 -9 31 -29 -6 41 -14 -32 48 38 -11 44 42 -30 50 47 52 -39 -44 -38 49 -1 -41 58 56 -54 -35 57 -24 -42 -46 -57
right_child=1 2 4 11 5 16 9 20 19 37 25 13 34 -15 -16 -17 -18 24 -20 -21 21 -23 39 -25 -26 -27 -28 28 33 -31 35 -33 -34 54 -36 -37 43 45 -40 40 55 -43 46 -45 51 -47 -48 -49 -50 -51 -52 -53 53 -55 -56 59 -58 -59 -60 -61
leaf_value=-0.00032857497764715078 0.12927506468728608 0.0016436212433605251 0.14409216642214667 -0.041181477041876219 -0.0014419243515153095 0.16885721479045834 0.15718461019825258 -0.093222399525083849 0.0048165501767190389 -0.11084069160525484 -0.046981359772745854 0.34781001875826895 0.20018410028479289 -0.088266903800661184 0.046019102390786611 0.1719152832964867 0.11372570918831587 0.13116146753081512 0.13399114503397053 0.15040662345138309 0.16879746826063602 0.020672384946875982 -0.10547981716449649 0.00093421023920288329 0.222172360945739 0.036987490788361881 0.26497830054984473 -0.016544684566724546 0.20644036223616669 0.045973650887050202 -0.13795313633336553 0.086627933846295468 0.12366716838109754 -0.11591292999473922 0.2638867654433123 0.22751444295304185 0.14963390815971839 -0.092120425934425043 0.14503025486406715 0.22754157523415672 -0.11850503396124475 -0.12525421257966479 0.27619519668286746 0.40662193267723423 -0.10600430524089142 0.098677124152293044 0.0025839223219927474 -0.12490174917489889 0.22036940539723623 -0.12931004543124974 -0.074194622939305482 0.25351748911289773 -0.11785401605988827 -0.13504911396844993 -0.13939097809439591 -0.13497104882076055 -0.11224487246988452 -0.13346046094625416 -0.11891693738117866 -0.1380344352859893
leaf_weight=34.435587575659156 26440.020312529057 800.99694161117077 2171.208219602704 229.59035699814558 1598.929622201249 4345.336513299495 16887.306342983618 549.05343313701451 1481.3473430722952 44.847167637199163 1768.0126923434436 379.72698986902833 2808.3864812552929 61.582435697317123 846.21458607167006 6834.401708111167 12786.180510502309 761.97236102819443 1456.2628736272454 560.99300478026271 446.64608135260642 678.58106765896082 97.031091149896383 320.88065703213215 3012.8710605353117 1148.4175348840654 59.502668380737305 448.07852007262409 493.57967695780098 279.89729078859091 19.666821632534266 1339.0215773750097 222.53513491898775 19.502756165340546 866.45756889134645 202.03884161636233 27.442698575556275 263.0082323718816 90.935074428096414 5.66366022825241 12.030475102365019 15.312023840844629 44.815783709287643 11.493319131433962 2.7910312097519627 26.372762758284807 15.304541975259779 12.920499730855228 6.0689749754965296 143.85133554413915 34.014068689197302 9.9376044087111932 28.146904587745667 43.186711221933365 9.4221749827265722 6.9038436859846142 49.625621795654297 5.8896090611815444 1.3840430546551941 18.53830386698246
leaf_count=349 75204 3587 5442 1620 8315 11085 31374 4532 6680 604 9644 817 3501 430 4130 13311 39569 1463 3272 2052 1475 3027 2599 1196 4553 5697 52 3062 1052 1288 197 6960 699 208 841 381 61 4964 236 12 92 141 52 6 62 139 69 103 35 997 169 8 219 225 47 36 559 33 18 93
internal_value=0 0.130676 0.115164 0.0489162 0.130672 0.116767 0.138845 0.127059 0.132642 0.158966 0.0301248 0.182022 0.16275 0.286958 0.15188 0.138033 0.12771 0.172728 0.0870271 0.0448074 0.0261514 0.0794689 0.0698886 0.125659 0.203801 -0.0139165 0.021834 0.0855712 0.0974781 -0.0462225 0.0755857 0.0607595 0.0138431 0.179249 0.215204 0.195095 -0.0427976 -0.0315375 0.0605193 -0.0464091 0.0382792 0.19646 0.112051 0.138189 -0.0986445 -0.0747321 0.206543 0.0617534 -0.0937064 -0.104398 -0.0311243 0.145891 -0.114476 -0.128264 -0.123561 -0.131507 -0.107769 -0.12342 -0.110285 -0.137203
internal_weight=0 90228.5 31124 5904.09 25219.9 18953 59104.5 37270.9 35316.8 21833.5 5173.69 730.402 21408.4 441.309 17733.5 33274.4 17131.5 6266.93 2257.26 2042.34 1954.18 1125.23 3158.1 2492.09 3774.84 2916.43 289.093 2782.83 2546.62 828.951 2008.81 1787.1 1821.46 537.817 3674.84 221.706 236.212 425.163 135.782 375.263 143.16 508.892 99.7981 51.8565 232.103 289.381 60.1203 40.3632 184.356 178.287 39.6777 14.1127 217.99 71.3336 28.9249 43.3622 146.657 17.9201 4.17507 25.4421
internal_count=268644 250799 97441 25119 72322 59668 153358 107569 97247 45789 22200 2919 39846 1247 35504 88515 50654 12654 6859 8732 10322 4502 17845 6638 6016 15341 1672 13599 12048 5820 10600 10022 9014 1448 4342 578 1551 5943 840 4246 556 1193 302 170 3690 5103 121 164 1381 1346 181 88 3602 444 255 254 3158 125 80 129
is_linear=0
shrinkage=0.1


Tree=6
num_leaves=61
num_cat=0
split_feature=72 30 31 131 99 74 133 130 106 43 72 127 134 107 37 55 71 41 60 46 44 73 16 35 52 85 135 68 30 73 41 61 72 77 113 103 25 38 7 108 32 29 107 63 38 106 57 114 109 69 39 18 71 70 69 61 108 32 30 1
split_gain=1188 2023.19 1015.54 1832.81 2839.06 1896.87 1872.91 1023.15 1162.07 910.575 1088.24 908.183 883.836 723.667 991.308 685.966 519.438 518.149 511.217 488.271 485.459 693.522 661.438 472.68 459.719 387.727 356.03 263.948 238.667 224.789 237.849 265.966 209.878 203.669 174.56 162.961 230.464 154.456 146.594 130.288 122.867 118.944 102.44 98.7769 92.9533 84.0161 148.241 47.4912 59.0962 36.6798 31.5488 29.2353 4.84995 1.07304 0.301263 0.40542 0.0814145 0.066813 0.0113291 0.00439699
threshold=-0.52077504992485035 1.0318759679794314 1.0058403015136721 1.0000000180025095e-35 -0.97268798947334278 -1.0233364105224607 1.0000000180025095e-35 1.0000000180025095e-35 -0.8461400270462035 1.1302159428596499 -0.55540925264358509 -3.3064159154891963 1.0000000180025095e-35 -1.0018935203552244 0.93195930123329174 1.0519047379493716 -0.22011945396661756 1.0618221163749697 0.79134106636047374 1.1417945027351382 1.0921714305877688 -0.80006104707717884 1.023934066295624 0.85350322723388683 0.98105275630950939 -1.3173547983169553 1.0000000180025095e-35 0.10206786543130876 1.0630151629447939 -0.70730343461036671 1.0919275283813479 0.73945900797843944 -0.63781318068504322 -1.2038537263870237 -1.3581558465957639 -0.636279135942459 1.0570039153099062 1.0115530490875246 0.13738590478897098 -1.0841309428215025 0.95880109071731578 0.88874530792236339 -0.99367010593414296 0.60991364717483532 0.9459514617919923 -0.88024660944938649 1.0091064572334292 -1.4417110085487364 -1.1222720146179197 0.049593856558203704 1.0408598780632021 1.0512375831604006 -0.22586008161306378 -0.10227675735950469 0.010192322544753553 0.80343687534332286 -1.044352054595947 0.82540854811668407 0.87196540832519542 -0.69229161739349354
decision_type=2 2 2 2 2 2 2 2 2 2 2 2 2 2 2 2 2 2 2 2 2 2 2 2 2 2 2 2 2 2 2 2 2 2 2 2 2 2 2 2 2 2 2 2 2 2 2 2 2 2 2 2 2 2 2 2 2 2 2 2
left_child=1 9 3 5 25 12 -7 20 32 10 17 34 -3 14 39 27 23 24 19 -12 21 -4 -22 42 -1 -5 -25 -16 -10 45 31 -31 -9 -6 41 36 -18 -20 -17 43 -19 47 -15 -13 -41 46 -11 52 -49 -37 -32 -47 -2 54 56 -56 -36 59 -59 -55
right_child=11 2 7 4 33 6 -8 8 28 29 18 13 -14 16 15 38 35 40 37 -21 22 -23 -24 26 -26 -27 -28 -29 -30 30 50 -33 -34 -35 53 49 -38 -39 -40 44 -42 -43 -44 -45 -46 51 -48 48 -50 -51 -52 -53 -54 57 55 -57 -58 58 -60 -61
leaf_value=-0.054582067335068353 0.19969376359503296 -0.0025424577355792136 0.12851855576181756 -0.041225003760902268 -0.057647205863228405 0.11768784836224429 0.05491285395292405 -0.025986261140458534 0.10202803502343094 -0.12092539482985887 0.11512772905420382 -0.075590623217120442 0.16911853543008254 0.1027722495063018 0.0046770063011849832 -0.06297389499499173 -0.087695784788960229 -0.01921553554644868 0.16014284939878282 0.00070768605445362305 0.12198873791263989 0.17410259717780613 -0.033218967147478566 0.15148415918661068 0.062189782999827997 0.27377527680322616 -0.040935409430945639 -0.12136271395598747 0.2257034677007731 -0.058100806772362651 -0.018467061774280737 0.16589575188260994 0.059959146529434217 0.016902722025415342 -0.15279419433756361 0.19271923073832925 0.18109023389145637 0.0042572163626496779 0.16279070046348906 0.18963408363993534 -0.11769543682752848 0.34500515759078942 -0.11150549139939057 0.21927381835445847 0.1294165581493299 -0.072407461710774113 0.48956502725195938 -0.14859762350988173 0.067294373929350712 0.0052158472723382171 -0.12552707317449521 -0.12493651131768319 0.094662014787553816 -0.10977663625678749 -0.11545199066317798 -0.14166031359171169 -0.13001889858903501 -0.10803799275315114 -0.11725400533911737 -0.10327607257676981
leaf_weight=408.11838937550783 10.259032726287844 2128.5221903827041 9861.8696157559752 43.280509375035763 1371.3609021604061 46171.642647601664 5298.0949624478817 803.59884651750326 280.15895626693964 9.783522021025421 930.19661636091769 42.085238181054592 349.13297966867685 30.434071734547615 485.14278173446655 32.11138729378581 164.70092895627022 247.64870359748602 1327.1671470180154 622.56984393298626 1121.6123558692634 5045.006290435791 363.58272162824869 13691.147840287536 1938.6666867416352 402.18540685251355 96.83881538361311 252.69281869381666 352.19224169850349 88.638152725994587 39.100058782845736 131.87045301869512 439.54585044085979 500.10451065376401 3.5229625254869461 47.114207282662392 39.562594972550869 66.758531600236893 275.65215791761875 495.92156836949289 259.38080828636885 12.967407941818236 83.588766677305102 15.561707038432358 530.61734682321548 183.57541372999549 6.7023461088538161 23.989410497248169 26.892431417480115 13.400352563709019 92.979268856346607 250.56955116800964 7.6932372264564028 1.0546611100435246 39.02156413719058 6.9542720541357985 2.8306514099240294 39.414827182888985 1.380572423338889 77.646115370094776
leaf_count=6485 2 9489 17049 213 8638 125362 23151 3190 689 78 2147 304 989 67 2419 271 2091 1407 2022 2341 3005 6121 1818 17900 9937 899 595 2258 385 507 236 420 1333 2895 16 14 163 229 422 521 1438 23 632 6 804 1034 4 222 230 101 596 1724 44 13 361 42 25 577 17 2673
internal_value=0 0.105322 0.110023 0.103372 0.0162811 0.107112 0.111226 0.130509 0.0605426 0.0522719 0.06609 0.13472 0.0216467 0.137643 0.083294 0.0138227 0.145813 0.0220767 0.108716 0.0692519 0.138514 0.143946 0.0839932 0.148456 0.0418825 0.243171 0.150133 -0.0384889 0.17091 -0.0475164 0.01229 0.0758555 0.00440195 -0.0377255 -0.0530536 0.00706452 -0.0356362 0.152677 0.139235 0.150293 -0.0695948 0.0671832 -0.0543122 0.00400759 0.158508 -0.0943108 0.12727 0.0148453 -0.0344929 0.151198 -0.0938336 -0.102725 0.154684 -0.110295 -0.122237 -0.119416 -0.142647 -0.105066 -0.10835 -0.103363
internal_weight=0 81135.6 74531.9 56264.3 2316.93 53947.4 51469.7 18267.6 1875.5 6603.73 5800.51 16550.2 2477.66 16296.6 2129.79 1045.6 14166.8 2853.81 2946.69 1552.77 16392.1 14906.9 1485.2 13902 2346.79 445.466 13788 737.836 632.351 803.219 352.588 220.509 1243.14 1871.47 253.627 264.778 204.264 1393.93 307.764 1084.19 507.03 81.8015 114.023 57.6469 1026.54 450.631 16.4859 68.8341 50.8818 60.5146 132.079 434.145 17.9523 171.826 52.3295 45.9758 6.35361 119.496 40.7954 78.7008
internal_count=268644 235831 205226 171636 12645 158991 148513 33590 5597 30605 26006 32813 10478 28568 7005 5370 21563 19267 6739 4488 27993 23170 4823 19194 16422 1112 18495 4677 1074 4599 1759 927 4523 11533 4245 2369 2254 2251 693 1635 2845 521 699 310 1325 2840 82 498 452 115 832 2758 46 3724 444 403 41 3280 594 2686
is_linear=0
shrinkage=0.1


Tree=7
num_leaves=62
num_cat=0
split_feature=132 31 136 59 30 74 42 71 70 73 28 36 94 73 98 37 69 83 31 40 106 127 106 108 107 53 74 117 95 124 5 30 81 36 37 6 31 107 68 35 102 57 26 58 0 80 73 66 1 37 105 34 35 107 113 117 115 6 70 70 72
split_gain=1160.6 1401.24 1838.46 1812.94 1770.66 1208.16 1139.6 2010.85 954.08 890.904 838.437 821.747 762.753 1691.79 1575.15 1019 1946.33 753.597 741.14 710.848 614.519 568.334 487.879 387.555 655.782 377.285 352.452 353.758 323.618 336.732 314.821 302.342 232.625 206.781 191.621 168.378 140.585 125.757 125.336 111.26 231.04 107.597 104.762 95.9536 76.984 79.4924 61.6228 60.3926 122.379 50.4514 41.472 37.0531 73.3568 36.6009 34.0422 30.7966 23.2245 11.7107 5.1016 1.83185 0.125798
threshold=1.0000000180025095e-35 1.0033237934112551 1.0000000180025095e-35 0.8089524805545808 1.0765536427497866 -1.0132701396942136 1.0725566744804385 -0.37056359648704523 -0.10771234706044196 -0.80322253704071034 1.1506895422935488 0.92916783690452587 -1.0828036665916441 -0.80006104707717884 -0.89967715740203846 0.93195930123329174 -0.12408605590462683 -1.3861093521118162 1.0001786351203921 0.97829982638359081 -0.92363241314887989 -1.5157143473625181 -0.96630051732063282 -1.0399826765060423 -0.97562980651855458 0.95268672704696666 -0.94565990567207325 -1.0073199272155759 -1.0611825585365293 -1.2040281295776365 0.58556279540061962 1.0508058667182925 -1.3022885322570799 0.90463060140609752 0.96983519196510326 0.16347568482160571 1.0009229183197024 -0.82566800713539112 0.14456210285425189 0.84799057245254528 -0.85991755127906788 0.94882112741470348 1.0470017194747927 0.84929952025413524 0.51000770926475536 -1.333108603954315 -0.8701573610305785 0.40918618440628057 -0.16644681990146634 0.95338475704193126 -0.924445480108261 0.87046638131141674 0.89102742075920116 -0.99481084942817677 -1.3581558465957639 -1.5374346375465391 -1.3550582528114317 0.69355285167694103 -0.10227675735950469 -0.10227675735950469 -0.32700766623020167
decision_type=2 2 2 2 2 2 2 2 2 2 2 2 2 2 2 2 2 2 2 2 2 2 2 2 2 2 2 2 2 2 2 2 2 2 2 2 2 2 2 2 2 2 2 2 2 2 2 2 2 2 2 2 2 2 2 2 2 2 2 2 2
left_child=1 2 3 4 10 -6 9 -8 11 -5 -1 22 21 14 19 30 -17 36 25 -14 49 44 39 24 35 -19 27 -24 37 -30 -15 -28 -20 -16 38 58 57 -23 -22 40 -2 60 -43 -38 46 -46 -3 48 -25 -13 -41 59 -53 -36 -37 -50 -51 -4 -10 -49 -26
right_child=8 12 17 6 5 -7 7 -9 23 -11 -12 20 13 15 33 16 -18 18 32 -21 34 28 26 47 41 -27 31 -29 29 -31 -32 -33 -34 -35 53 54 43 -39 -40 50 -42 42 -44 -45 45 -47 -48 51 55 56 -52 52 -54 -55 -56 -57 -58 -59 -60 -61 -62
leaf_value=-0.026163898983167008 -0.0754685452739981 0.17328649140965999 -0.17403473673785788 0.053401546554588425 0.03297523925347829 0.11457532908081239 0.034408447513902485 0.11787127270433653 -0.14588974552983067 0.15775941576515556 0.043485864682232811 0.18905266647049637 0.099886144000000385 0.11710680656878403 0.0033072988382034938 -0.053912358754135969 0.1187794202922125 0.011261555058723177 0.043689672814653052 0.02900218472221916 0.1462810971248478 0.13461941238193301 -0.10120797399346765 0.39820345927065426 -0.14212145448618196 0.13253343589632416 0.12783533864981933 0.095535033398119446 0.13493441261254072 -0.055835428220898597 0.16760599221728312 0.17008790277033015 0.10274646019036807 -0.07822992904254969 0.066675014932001078 0.33265126057271988 -0.16205369232331845 0.22103414131411736 -0.028192805740468865 -0.13452041499846809 0.16322531371317703 0.12766930267140489 0.44237080241791987 0.15357756335765732 -0.14899331629121357 0.17024620989123329 0.24747953856024574 -0.13644873009355979 0.108616532329814 -0.10312913205751804 -0.015118585700967422 0.21654455052515101 -0.12902735840992516 -0.16284542249623765 0.063608357261446799 -0.12235424416018055 -0.17680102914690118 -0.10756292301278741 -0.11031429683295382 -0.10878472043724913 -0.11702782417803524
leaf_weight=1962.8143744692206 76.83696910366416 139.89312791824341 82.714176744222641 1025.8686438631266 2561.2131435312331 6223.0853938236833 5309.2071577440947 6326.3029372058809 62.490609169006348 4038.2169002816081 14468.680133895949 5.385587364435195 7250.2940037474036 1678.6114527434111 689.35096921026707 751.94292395561934 4941.931496322155 263.31526577845216 1472.6308452561498 1757.741806730628 265.19720341265202 3942.6439802646637 121.3733739554882 7.5573689490556708 2.3101516813039806 9965.1440306417644 14070.23171364516 369.98019728809595 187.30574561655521 182.85330858826637 4666.2226232290268 1925.256024196744 1219.1741113439202 566.72978354245424 8.9154233783483487 8.9617970213294047 14.034000173211096 175.91949674487114 48.740521736443043 60.896943151950836 85.869373127818108 438.45759867317975 10.839560091495512 30.704323515295982 10.178908586502073 33.37403792142868 560.40128529071808 27.534253649413586 8.1364864110946673 181.86469883844256 55.692400120198727 10.576411567628385 14.653470315039156 31.481362611055374 9.8965035229921323 19.872051142156124 55.955675765872002 39.000487983226776 113.56193381920457 183.18634401261806 14.774529963731764
leaf_count=15835 306 170 344 4125 9471 19148 22589 14047 452 9980 66672 2 15020 3101 2255 3746 10274 1008 3302 6274 226 4017 460 4 13 13453 15871 1163 336 765 5015 1406 2260 3089 23 19 63 176 204 451 194 1097 6 28 48 20 541 188 40 1132 392 5 120 151 40 167 234 1147 1577 4217 165
internal_value=0 0.0909006 0.0816815 0.0714658 0.0545411 0.0907834 0.0970216 0.0797877 0.118738 0.136619 0.0351659 0.124031 0.109316 0.101254 0.0714262 0.126685 0.0959734 0.114401 0.117125 0.0860545 0.00879712 0.143677 0.128138 0.0202165 0.0615185 0.129411 0.130358 0.0469359 0.130261 0.0406968 0.154246 0.132921 0.0704377 -0.0334814 0.0928136 -0.0925223 -0.0970179 0.138311 0.119193 -0.00292375 0.0505038 0.125895 0.135262 0.0545669 0.224636 0.0956356 0.232658 -0.0803768 0.0410983 -0.113609 -0.0774845 -0.0986873 0.015837 -0.112191 0.191462 -0.0552572 -0.120463 -0.152735 -0.122942 -0.112399 -0.120421
internal_weight=0 82537.5 55002.1 41915.4 25215.8 8784.3 16699.6 11635.5 18296.5 5064.09 16431.5 17363.7 27535.4 22302.8 10264.1 12038.7 5693.87 13086.7 12920.3 9008.04 597.54 5232.57 16766.1 932.809 661.293 10228.5 16486.8 491.354 4488.72 370.159 6344.83 15995.5 2691.8 1256.08 354.335 194.911 166.453 4118.56 313.938 279.296 162.706 466.382 449.297 44.7383 743.847 43.5529 700.294 271.516 35.5659 243.206 116.589 235.95 25.2299 40.3968 18.8583 28.0085 237.82 121.715 176.053 210.721 17.0847
internal_count=268644 238319 183472 161867 111126 28619 50741 36636 30325 14105 82507 22215 54847 48774 26638 22136 14020 21605 20023 21294 1972 6073 20243 8110 3369 14461 18900 1623 5294 1101 8116 17277 5562 5344 604 2088 1582 4193 430 1343 500 1281 1103 91 779 68 711 4741 211 1368 843 4530 125 174 59 207 1366 1491 2029 4405 178
is_linear=0
shrinkage=0.1


Tree=8
num_leaves=60
num_cat=0
split_feature=132 31 136 31 71 37 70 36 96 73 97 74 37 72 32 52 54 127 37 106 28 35 127 0 72 105 86 52 127 101 26 69 113 127 67 98 68 29 68 106 36 116 106 127 48 1 114 68 114 34 37 70 24 21 33 72 124 105 127
split_gain=1101.2 1168.99 1553.99 1623.45 1330.02 1531.99 764.219 711.976 662.929 1481.02 1211.66 1111.41 836.378 1713.28 601.491 637.324 635.355 588.136 543.489 484.373 451.251 433.747 405.593 424.071 437.634 399.001 350.375 350.201 314.701 369.476 295.037 283.628 240.107 421.871 295.648 239.552 193.928 136.499 117.861 176.544 111.309 106.709 96.3427 91.0675 140.896 84.4035 84.0857 66.884 58.2923 53.9108 42.2265 25.5161 0.212877 0.0997284 0.0654181 0.0436005 0.0135057 0.00465877 0.00294994
threshold=1.0000000180025095e-35 1.0032139420509341 1.0000000180025095e-35 0.95558345317840587 -0.36409164965152735 0.97417232394218456 -0.096746474504470811 0.92916783690452587 -1.0159803628921507 -0.80006104707717884 -0.92988666892051686 -0.98370233178138722 0.9324253797531129 -0.60748714208602894 0.94559562206268322 1.0266617536544802 1.0220044851303103 -1.7250577211380003 0.98939114809036266 -0.92363241314887989 1.2108848690986636 0.90197983384132396 -1.5012497305870054 0.50251325964927684 -0.68622782826423634 -0.93449309468269337 -1.3380993604660032 0.97068116068840038 -3.3064159154891963 -0.5527936816215514 1.1866293549537661 -0.1382164657115936 -0.96870046854019154 -1.5830783247947691 0.29943622648715978 -0.98716592788696278 0.14456210285425189 1.1373012661933901 0.19683001935482028 -0.88879138231277455 0.93929144740104686 -1.5009514093399046 -0.89667680859565724 -1.5574085116386411 1.0982013940811159 0.50789862871170055 -1.4126359820365904 -0.20386532694101331 -1.4126359820365904 0.87046638131141674 0.95338475704193126 -0.18254527449607846 1.0726340413093569 1.0251243710517886 0.82737809419631969 -0.32700766623020167 -2.4761945009231563 -0.77343744039535511 -3.3064159154891963
decision_type=2 2 2 2 2 2 2 2 2 2 2 2 2 2 2 2 2 2 2 2 2 2 2 2 2 2 2 2 2 2 2 2 2 2 2 2 2 2 2 2 2 2 2 2 2 2 2 2 2 2 2 2 2 2 2 2 2 2 2
left_child=1 2 3 32 5 -5 7 25 22 10 11 -10 31 -14 15 20 21 -12 -6 50 -4 -16 43 24 -24 27 -17 37 48 -30 -18 -11 34 -34 -1 -25 40 -2 39 53 -21 46 -38 45 -45 -3 -41 -29 -27 -43 -9 -52 54 56 57 -55 -8 -40 -56
right_child=6 8 14 4 18 -7 38 19 9 12 17 -13 13 -15 16 26 30 -19 -20 36 -22 -23 23 35 -26 28 -28 47 29 -31 -32 -33 33 -35 -36 -37 42 -39 52 41 -42 49 -44 44 -46 -47 -48 -49 -50 -51 51 -53 -54 55 58 -57 -58 -59 -60
leaf_value=-0.067600640051788452 -0.098576893439732249 0.08218829379914705 -0.096430849288851067 0.063407778226300823 0.13117715891553958 -0.045820278227800798 -0.11642067223499696 0.17048381982047903 0.025063593712561345 0.1178846356239532 0.01496556118576374 0.10453887766502418 -0.015893739604275488 0.1129627726679739 0.036386201301382058 -0.16416854878283527 -0.065222769895323315 -0.13235121409967388 0.061800906285357504 0.13183451222536877 0.088051463603745161 -0.13398879732415911 -0.096583492710842156 0.13534870832527895 0.12555737281651258 0.040865082715425355 0.14215286061009874 0.043558285684180999 0.11084936483266289 0.15194067290526828 0.097267695078771643 0.15958178784967825 0.32480559924633523 0.00024525174469052684 0.11479082171649563 0.080977776178222771 -0.13197583946425623 0.090658465949454245 -0.10569114983401269 0.09465004411798511 -0.093938737636403896 -0.11060310914834799 0.11746023557123891 0.17086172833069713 -0.075002286256947881 0.27299724536767489 0.36875812892087212 -0.1519574037537943 -0.11997917829751009 0.11939905057063185 -0.071219103772217865 -0.13888039595470275 -0.13416529772420357 -0.13094728372769759 -0.10642740134541549 -0.11481345834224865 -0.10739134109650572 -0.10247659518867261 -0.10766580314379728
leaf_weight=1103.3559142556041 42.191258117556572 27.488605469465256 141.02583627216518 33913.789659645408 4030.2380810752511 1334.6001938767731 1.6959294732660044 5.3746763914823523 2648.1959751844406 3871.3185909688473 1826.6246365830302 5243.8343373537064 1333.9035295769572 4556.7218547016382 939.31030102074146 37.6179403886199 114.56352159380913 318.2131934762001 1568.7220940664411 266.16023476421833 2216.3800053931773 177.69275930523872 189.20816417038441 3110.8084766417742 166.92901205271482 35.084842536598444 5060.6837012413889 21.113341741263866 14073.775129362941 2591.0519093498588 4538.8821745887399 2819.3188564330339 41.995418462902308 863.94899346679449 96.657796820625663 1095.7785212695599 56.932331897318363 394.79002157598734 4.9284811504185191 96.442749327048659 23.788314126431942 37.535936078056693 21.269560322165489 1069.2994892299175 23.827609434723854 147.99483707547188 12.660351781174539 102.14701230078936 62.97632222995162 13.988795928657053 90.289161752909422 145.63894934952259 2.6054634302854529 2.1031056046485892 32.245132179930806 8.2287295795977098 71.346929984167218 52.903440522029996 47.672529194504023
leaf_count=10702 198 78 1460 121884 6137 6556 22 2 8120 5982 6414 9792 5694 8554 1890 164 444 1684 4641 225 4218 728 753 2551 224 87 5053 67 18478 1100 7442 2451 213 10519 349 2216 372 864 109 237 79 659 50 1185 91 130 64 574 659 37 372 1103 19 17 610 91 1150 2335 745
internal_value=0 0.0796421 0.0712784 0.0620495 0.0664638 0.0592721 0.106685 0.109675 0.0961578 0.0884069 0.0597575 0.0778707 0.111262 0.0837838 0.10125 0.120012 0.0770102 -0.0068907 0.111739 0.00344355 0.0770153 0.00928296 0.126221 0.112315 0.00753862 0.113413 0.139893 0.030397 0.116187 0.117238 0.0932673 0.135455 -0.0235712 0.0152904 -0.0529095 0.121186 0.0756188 0.0723875 -0.032835 0.00916354 0.113311 0.0704459 -0.0641335 0.176237 0.165502 0.243108 0.126458 -0.118467 -0.0624315 -0.0481583 -0.106673 -0.112987 -0.105848 -0.108902 -0.105312 -0.118098 -0.107601 -0.102751 -0.107166
internal_weight=0 84628.9 56179.5 42953.3 40847.4 35248.4 18316.9 17932.6 28449.5 22618.1 10036.9 7892.03 12581.3 5890.63 13226.2 7455.71 5770.45 2144.84 5598.96 609.453 2357.41 1117 5831.33 4562.72 356.137 17323.1 5098.3 560.242 16762.9 16664.8 4653.45 6690.64 2105.96 905.944 1200.01 4206.59 368.15 436.981 384.358 244.003 289.949 160.628 78.2019 1268.61 1093.13 175.483 109.103 123.26 98.0612 51.5247 241.303 235.928 140.355 83.3747 137.75 10.3318 73.0429 57.8319 79.9177
internal_count=268644 238319 182400 161001 139218 128440 30325 24230 55919 48691 26010 17912 22681 14248 21399 10895 10504 8098 10778 2203 5678 2618 7228 5744 977 22027 5217 1703 20324 19578 7886 8433 21783 10732 11051 4767 726 1062 6095 2277 304 997 422 1484 1276 208 301 641 746 696 1477 1475 3818 1280 3799 108 1172 2444 1355
is_linear=0
shrinkage=0.1


Tree=9
num_leaves=63
num_cat=0
split_feature=132 31 131 98 74 133 32 134 130 106 93 70 36 83 94 106 29 16 69 45 4 126 72 38 107 115 107 38 108 33 115 37 16 68 91 69 36 37 4 6 37 31 118 62 68 72 71 33 40 8 31 70 71 61 113 107 108 70 72 61 25 30
split_gain=1040.77 996.507 1184.61 1691.86 1147.3 1150.09 1099.55 742.534 713.318 805.858 660.133 647.641 519.799 494.724 449.905 427.318 403.215 402.298 620.516 596.442 391.653 525.33 339.141 667.598 337.83 290.207 371.197 237.848 223.075 464.942 220.738 218.205 179.566 203.326 171.309 169.413 169.011 166.621 225.797 140.249 135.135 134.224 134.111 102.08 80.0637 77.3342 72.1445 43.8413 55.6646 90.0368 38.3233 37.4165 111.711 36.1732 31.6778 29.3692 2.91131 1.57052 1.24974 1.01454 0.249046 0.163383
threshold=1.0000000180025095e-35 1.0058403015136721 1.0000000180025095e-35 -0.99201473593711842 -1.0274575948715208 1.0000000180025095e-35 0.90747788548469555 1.0000000180025095e-35 1.0000000180025095e-35 -0.8461400270462035 -1.0818179845809934 -0.10771234706044196 0.92916783690452587 -1.324283719062805 -1.088810086250305 -0.92363241314887989 1.1482896804809573 0.66649678349494945 0.0031275334767997269 1.1961998939514162 0.5251050889492036 -1.7156493067741392 -0.61819714307785023 0.94806247949600231 -1.0104861855506895 -1.4480664730072019 -0.97316342592239369 0.91423758864402782 -0.91121593117713917 0.8767814338207246 -1.4480664730072019 0.94760447740554821 1.2086309790611269 -0.060532869771122925 -1.040895879268646 0.056036736816167838 0.92307129502296459 0.92890074849128734 0.55805370211601268 0.16347568482160571 0.96983519196510326 0.99721890687942516 -0.9119892120361327 0.75768351554870617 0.14456210285425189 -0.33345451951026911 -0.47698733210563654 0.85226792097091686 1.0650535225868227 0.14592429250478747 1.0128125548362734 -0.18254527449607846 -0.32000903785228724 0.77917131781578075 -1.3901951909065244 -0.99481084942817677 -1.0661650300025938 -0.10227675735950469 -0.60582312941551197 0.80343687534332286 1.0570039153099062 0.87196540832519542
decision_type=2 2 2 2 2 2 2 2 2 2 2 2 2 2 2 2 2 2 2 2 2 2 2 2 2 2 2 2 2 2 2 2 2 2 2 2 2 2 2 2 2 2 2 2 2 2 2 2 2 2 2 2 2 2 2 2 2 2 2 2 2 2
left_child=1 2 4 13 7 10 -7 14 20 32 -6 12 17 27 -1 51 -9 30 24 -20 21 34 23 -22 -19 26 39 -4 29 -5 53 -24 33 -10 -3 45 -32 46 -39 43 44 -30 -15 -13 -17 -28 -11 57 49 -49 -34 52 -14 -2 -37 -42 -53 59 -23 -27 -50 -59
right_child=11 8 3 28 5 6 -8 16 9 37 -12 25 15 42 -16 40 -18 18 19 -21 22 58 31 -25 -26 47 35 -29 41 -31 36 -33 50 -35 -36 54 -38 38 -40 -41 55 -43 -44 -45 -46 -47 -48 48 60 -51 -52 56 -54 -55 -56 -57 -58 61 -60 -61 -62 -63
leaf_value=0.021723989394251558 0.076164184951063196 0.12894156544416349 -0.053643193484244005 0.17257075052718451 0.098351424140211099 -0.04889230683053622 0.051050640293888533 -0.078654655565059628 -0.078524894023113023 0.12198662347469416 0.069564991706683232 -0.12507882626550929 -0.10778179337004755 0.10216909979542591 -0.078377573234226602 0.11905219324959045 0.18742146574980326 0.030711379663467438 0.083679540947290271 -0.086260480475658916 0.10085505566337656 -0.14284846545099861 0.14323006606841188 0.01798549040667461 0.10661160347777826 -0.12134776293832153 -0.15743589392519772 0.28544452347209298 -0.09319437224289423 -0.051722083599149482 -0.14562085063472344 0.070761919463177031 0.087332983528559158 0.0077649404818973715 0.041717509994037359 0.14334740764954265 0.17303976203747976 0.12581631526465001 -0.090214687413777084 0.19566265933952234 0.057033629908887884 -0.035577759212979863 0.23530421533133838 0.13913314942381699 -0.023007961741125068 0.1263950202887387 0.20080722181365818 0.19377112041513966 -0.11685435736712041 -0.051734164849207911 0.26065827923534296 -0.11830079517446167 0.16404694915767251 0.15175956859606535 -0.1092003908963082 -0.15130033679546381 -0.14870775470154354 -0.10397917955967158 -0.16478534814358656 -0.16298260674475001 -0.13339620749409892 -0.11221845567125628
leaf_weight=862.8750155325979 65.281179748475552 306.82130308449268 134.00652975775301 140.5529477596283 9667.3103372920305 1363.1710485462099 5719.4623732045293 72.353819463402033 398.03277613222599 290.38297790288925 45274.001404132694 149.15149970166385 74.920406315475702 97.743912614881992 936.07274124585092 265.24014230072498 267.59144597500563 614.0192496702075 515.81344502419233 344.43570479378104 11924.521899141371 90.990478307008743 2523.6684322878718 1058.4172128550708 13049.031300704926 24.243683267384771 9.8396191224455816 24.462011437863111 641.78402203507721 269.87912284582853 45.4379379786551 497.38923301547766 26.129526734352112 869.78181779384613 846.10242570191622 5.6285081952810279 26.264850705862045 131.8286585137248 76.434397265315056 17.877973709255457 8.8344757705926877 1092.8129633665085 334.91835083812475 16.212539369240403 46.65021014213562 393.50817175395787 193.50879648327827 21.750957347452641 15.82675740867853 47.692875597625971 24.92567266523838 54.414619866758585 18.94033045694232 2084.575807146728 42.240113314241171 28.909026995301247 74.733439780771732 82.685938067734241 36.342460945248604 7.7151987999677649 21.418735072016716 33.948966044932604
leaf_count=5689 105 479 1534 426 19896 8767 20746 337 1629 394 127416 1943 338 226 4932 226 477 2649 1189 1425 17090 473 2200 4113 13946 203 49 46 5746 1567 316 1307 61 2823 2236 12 8 208 345 35 23 6377 482 33 204 804 127 34 175 319 14 636 36 605 934 151 358 2944 156 36 148 441
internal_value=0 0.0702844 0.0645099 7.09892e-05 0.0672578 0.069741 0.031815 -0.0047504 0.0903054 0.0339374 0.0746302 0.0965974 0.100872 0.149862 -0.0303633 0.00718655 0.13079 0.104076 0.098014 0.0156371 0.0968638 0.0436418 0.101121 0.0940992 0.103201 0.0133912 0.0496181 -0.00129989 -0.0412087 0.0250873 0.143707 0.131299 -0.0119213 -0.0193259 0.06493 0.098362 -0.0288949 0.121319 0.046531 -0.0704093 0.0761769 -0.0568953 0.205227 -0.0991751 0.0978039 0.119471 0.153507 -0.076644 -0.0277371 0.0251622 0.171952 -0.100977 -0.052929 0.149464 -0.0795052 -0.102536 -0.135896 -0.111759 -0.14911 -0.131399 -0.126367 -0.106377
internal_weight=0 86194.3 66899 2736.16 64162.8 62023.9 7082.63 2138.89 19295.3 2011.02 54941.3 18207.2 17317.5 591.131 1798.95 572.643 339.945 16744.9 14523.3 860.249 17284.3 1280.26 16004 12982.9 13663.1 889.742 634.458 158.469 2145.03 410.432 2221.56 3021.06 1318.87 1267.81 1152.92 451.216 71.7028 692.155 208.263 183.242 349.634 1734.6 432.662 165.364 311.89 403.348 483.892 255.283 106.689 69.4438 51.0552 223.009 93.8607 2149.86 47.8686 37.7435 129.148 148.594 127.333 31.9589 37.2455 116.635
internal_count=268644 238319 204664 16404 188260 176825 29513 11435 33655 5601 147312 30325 22215 2288 10621 1972 814 20243 19209 2614 28054 3344 24710 21203 16595 8110 3810 1580 14116 1993 1034 3507 4527 4452 2715 1799 324 1074 553 2011 604 12123 708 1976 430 853 521 4300 676 353 75 1368 374 710 946 174 994 3624 629 239 323 3385
is_linear=0
shrinkage=0.1


Tree=10
num_leaves=61
num_cat=0
split_feature=72 38 4 31 73 38 2 107 36 34 104 69 99 4 115 104 49 40 73 68 105 104 130 133 73 125 103 72 40 13 104 116 107 30 51 111 40 114 53 0 40 15 103 96 37 71 35 98 69 32 36 48 47 105 132 107 71 45 122 45
split_gain=1069.65 1280.06 922.838 771.323 767.88 1320.5 966.467 447.852 817.093 564.409 452.89 450.46 476.471 438.698 392.792 339.185 717.051 420.541 322.821 305.531 353.98 286.879 264.056 244.906 214.515 214.353 204.939 166.156 183.943 193.518 129.857 127.535 117.31 309.029 102.954 94.9348 87.1852 83.9917 88.9856 79.4702 67.5196 175.435 82.6967 81.8815 44.8891 41.7556 40.3307 33.8888 24.8413 18.1041 81.8566 16.164 4.26345 3.56163 5.1386 2.49492 0.965709 0.511877 0.431335 0.230337
threshold=-0.5136016011238097 1.0131897330284121 0.36291567981243139 1.0116651058197024 -0.72764629125595082 0.9943959414958955 0.40689928829669958 -0.99950838088989247 0.90831878781318676 0.83683615922927868 -0.87343505024909962 0.025354820303618911 -0.45932038128376002 0.57180729508399974 -1.4582323431968687 -0.75898051261901844 1.1811732649803164 1.0534226894378664 -0.81161522865295399 0.10206786543130876 -0.87225893139839161 -0.77909031510353077 1.0000000180025095e-35 1.0000000180025095e-35 -0.45531384646892542 -1.9308208823204038 -0.81715708971023548 -0.52077504992485035 1.0701959729194643 0.7347056269645692 -0.93054756522178639 -1.3836293816566465 -1.0164967775344846 1.0014114975929262 1.1493368744850161 -0.88832044601440419 1.0246893763542178 -1.4183981418609617 1.1348168849945071 -0.1455336585640907 1.0650535225868227 0.869061440229416 -0.74643981456756581 -0.89483898878097523 0.91327977180480968 -0.4038910567760467 0.89276140928268444 -0.84821170568466175 -0.034911189228296273 0.96979928016662609 0.97040012478828441 1.1944817900657656 1.2248446345329287 -0.78839099407196034 1.0000000180025095e-35 -1.0089097619056699 -0.36162924766540522 1.1587751507759096 -2.0359007120132442 1.1699005365371706
decision_type=2 2 2 2 2 2 2 2 2 2 2 2 2 2 2 2 2 2 2 2 2 2 2 2 2 2 2 2 2 2 2 2 2 2 2 2 2 2 2 2 2 2 2 2 2 2 2 2 2 2 2 2 2 2 2 2 2 2 2 2
left_child=1 2 23 4 5 -4 -6 8 24 37 30 15 21 18 -14 16 -11 -17 -5 20 -12 -13 -15 25 32 26 -1 40 29 34 46 -32 33 -2 -29 59 -26 38 51 -25 41 42 -3 -43 -34 -41 -10 -27 -21 56 -51 -9 -40 54 -39 -38 -42 -31 -55 -30
right_child=7 27 3 13 6 -7 -8 9 10 11 19 12 14 22 -16 17 -18 -19 -20 48 -22 -23 -24 39 36 47 -28 28 35 57 31 -33 44 -35 -36 -37 55 53 52 45 49 43 -44 -45 -46 -47 -48 -49 -50 50 -52 -53 -54 58 -56 -57 -58 -59 -60 -61
leaf_value=-0.13951863272860229 -0.10948166806397426 0.16620107202356116 0.06083741458877151 -0.10584276203154624 0.056826611100156514 -0.019122697091823744 0.11620785028673691 0.17504751874726615 0.10340113128305586 0.11474380611143156 -0.057928636729511755 0.16361233891855675 0.13232319494173791 0.11890676096051345 -0.08931798971592983 0.040659929691329116 0.046295330896678651 0.1425422422058856 0.062111142001624702 0.021808474574754981 0.13632091081027381 -0.030919793293393151 0.016467520568470995 0.33921097879297218 0.087382788640890802 0.12772714232379473 0.061365793106307291 0.16211185907381165 -0.15359606138531687 -0.17568012188346269 -0.13088088989888438 0.12935737393371177 0.14582344264881206 0.16036383873017543 -0.14344339834495679 0.34614152955268085 -0.1307102759819341 -0.11246195623839689 -0.26022638549801796 -0.11309362382444046 -0.12197195717925842 0.10895113305878208 -0.14374341826064022 -0.12792762179752565 0.10555268596222755 -0.042037175699345009 -0.18276865477547979 -0.1099098956956671 -0.13562182099516298 0.056805646052199947 -0.13605054880323666 0.035182232947281761 -0.14296611232148129 -0.10314503841104468 -0.17277823862083674 -0.18256212491431412 -0.13441787883726758 -0.14750778708165554 -0.12021436799824115 -0.13714692779057625
leaf_weight=57.082551892846823 82.235618986189365 44.930857051163912 69212.626303849742 132.7701248601079 5416.3913608826697 2128.8745936602354 5548.690386088565 20.293834388256073 6.4028244167566326 5243.3444587960839 328.56446711346507 85.812569193542004 653.63199245557189 4418.1692600771785 91.102505248039961 457.4269748032093 2161.3208669349551 3544.6902602538466 828.97486221045256 10.365125786513088 131.30137821286917 650.25207398459315 266.8269938826561 4.2941644340753546 20.368379689753056 6.2782153878360978 460.2885989844799 107.46558524668217 9.7971353232860547 16.665392085909847 20.324015781283379 256.44283260405064 403.28779105842113 87.697096318006516 12.28805188834667 4.2580352723598471 13.976030256599186 28.624333657324314 4.7629034556448451 295.76795569434762 97.581335883587599 16.417008211836219 10.648514807224272 131.31474739685655 882.50333720445633 114.79980213940144 21.334180951118469 135.93495284579694 303.65698803961277 30.671127535402775 77.921342581510544 13.937646752223371 8.8847743496298772 47.997708518058062 27.883737105876207 27.614894147962332 172.64394597709179 10.520961984992026 21.406630458310246 64.942361921072006
leaf_count=334 541 72 185660 619 16140 8459 8573 7 10 5719 1769 175 790 4898 1401 889 4638 2191 1976 32 144 4043 808 3 30 10 1761 131 44 69 155 331 265 185 59 2 122 300 22 2423 719 96 53 777 994 598 99 1840 2813 95 424 49 94 2317 147 133 935 49 278 334
internal_value=0 0.0624284 0.0635657 0.0646909 0.0622381 0.0584514 0.0868755 0.0907519 0.0528167 0.0982919 -0.0137381 0.100706 0.0488168 0.100444 0.10521 0.107442 0.0947646 0.130897 0.0389249 -0.0543885 -0.0024663 -0.00824067 0.113072 -0.0285501 0.100107 0.00931374 0.0392018 -0.0628652 0.00992106 0.0760794 0.0895739 0.110247 0.107864 0.0297774 0.130758 -0.113137 -0.0821249 -0.0807167 0.0320199 -0.0887493 -0.0911152 -0.0446273 0.106818 -0.101604 0.118184 -0.0932254 -0.116709 -0.099419 -0.130425 -0.116065 -0.0815798 0.1181 -0.183889 -0.123586 -0.142225 -0.165138 -0.129924 -0.164778 -0.10841 -0.139303
internal_weight=0 89835.8 89027.8 87953.3 82306.6 71341.5 10965.1 15657.4 2596.07 13061.4 1078.39 12887.6 1480.8 5646.74 744.734 11406.8 7404.67 4002.12 961.745 773.888 459.866 736.065 4685 1074.45 1517.68 659.584 517.371 808.066 225.938 146.94 304.504 276.767 1455.72 169.933 119.754 78.9975 61.9593 173.792 47.8792 414.862 582.129 203.311 55.5794 147.732 1285.79 410.568 27.737 142.213 314.022 378.818 108.592 34.2315 13.6477 125.912 56.5081 41.5909 270.225 27.1864 69.4043 74.7395
internal_count=268644 237961 234102 227133 218832 194119 24713 30683 7623 23060 5353 19846 6409 8301 2191 13437 10357 3080 2595 4758 1913 4218 5706 6969 2270 3945 2095 3859 688 308 595 486 1985 726 190 380 285 3214 172 3024 3171 998 125 873 1259 3021 109 1850 2845 2173 519 56 116 3042 447 255 1654 118 2595 378
is_linear=0
shrinkage=0.1


Tree=11
num_leaves=52
num_cat=0
split_feature=72 38 30 72 36 40 93 31 34 72 38 71 107 36 110 75 73 70 116 99 136 35 99 40 15 103 59 64 73 116 94 27 30 102 101 99 96 68 32 105 42 57 38 0 72 21 132 106 71 109 104
split_gain=997.884 1594.72 822.397 817.059 1276.5 756.975 1311.44 732.598 446.994 441.486 401.977 1115.55 466.993 1010.35 400.768 385.54 378.054 371.739 402.181 335.103 322.307 299.396 284.566 276.456 373.087 227.29 222.419 201.665 167.182 166.81 164.248 160.464 149.976 135.71 133.067 108.653 96.7862 83.5115 75.6472 67.7695 68.5643 192.407 50.6914 49.6899 9.16581 41.6892 5.85018 1.80428 1.57914 0.878914 0.216408
threshold=-0.5522785186767577 0.99374046921730053 1.0333558320999148 -0.58723694086074818 0.93516618013381969 0.97404044866561901 -0.93980282545089711 1.006461024284363 0.83210968971252453 -0.59722435474395741 1.0131897330284121 -0.32948105037212366 -0.99950838088989247 0.90831878781318676 -0.92010983824729908 -1.0994127392768858 -0.75078269839286793 -0.096746474504470811 -1.4906780719757078 -0.81291615962982167 1.0000000180025095e-35 0.94312381744384777 -0.79628747701644886 1.0674538016319277 0.869061440229416 -0.86559781432151783 0.84126216173172008 0.49355706572532659 -0.45531384646892542 -1.3836293816566465 -0.97201108932495106 1.1786541938781741 1.0597462058067324 -0.76452213525772084 -0.79529821872711171 -0.93802595138549794 -0.90005716681480397 0.19683001935482028 0.88671714067459118 -0.74425840377807606 1.090049207210541 0.93908467888832103 1.0171576142311098 -0.28466835618019098 -0.33345451951026911 1.0787931084632876 1.0000000180025095e-35 -0.88879138231277455 -0.38631689548492426 -1.1201126575469968 -0.90323731303215016
decision_type=2 2 2 2 2 2 2 2 2 2 2 2 2 2 2 2 2 2 2 2 2 2 2 2 2 2 2 2 2 2 2 2 2 2 2 2 2 2 2 2 2 2 2 2 2 2 2 2 2 2 2
left_child=1 2 14 4 7 25 -7 -4 38 -6 12 23 13 28 22 27 39 18 -14 -17 -15 26 35 24 -12 -5 30 -16 -10 43 -18 -24 36 -28 -31 -1 -23 -19 44 40 41 -3 -25 -13 46 49 50 -48 -42 -46 -2
right_child=8 16 3 5 9 6 -8 -9 10 -11 11 29 17 20 15 19 21 37 -20 -21 -22 32 31 42 -26 -27 33 -29 -30 34 -32 -33 -34 -35 -36 -37 -38 -39 -40 -41 48 -43 -44 -45 45 -47 47 -49 -50 -51 -52
leaf_value=-0.0059086661221262778 -0.13613761408216493 -0.12186196978776953 0.051458524681605271 0.072419723307135656 -0.071579796311160016 0.098361375414442342 -0.00063558591981637881 0.076067318454468777 0.093686070908006014 0.024835247046209721 0.10514876610867085 0.16367517425951195 0.11999895402506007 -0.057002693326675437 -0.058433582831850878 0.10066375269876637 0.1422002997270741 0.011613264870905159 0.083243747018178715 -0.095286321013668185 0.10677387394655458 0.022305706705566444 -0.077066006802553141 -0.02968166399277597 -0.092461213053979294 0.18250239375672742 0.090382809497262628 0.059724113637304357 -0.076522944057693193 -0.15524759374718386 -0.056556232592237757 0.019302044708146917 0.21690850949669618 -0.028265787009354334 0.10539336561329093 -0.11241437856569281 -0.107621626962667 -0.10625637242410879 0.12962425298633573 0.26968529874598579 -0.11967605054137286 0.042097159748950522 -0.1196161950180134 -0.13850903625146072 -0.14083433732923009 0.19148241538348368 -0.18409228538511507 -0.13367541770488089 -0.13296287326529432 -0.10333505124071554 -0.11210290534764528
leaf_weight=125.45830017887056 4.0075036454945794 193.48980068415403 51369.069122729823 232.68029016256332 999.55376326665282 5838.0433990210295 1736.0856611505151 15823.593028441072 1896.6522428877652 904.8648694306612 199.22528628259897 6.3456492833793154 3801.0956466887146 874.52611632272601 419.29368627071381 902.14978864230216 47.513447418808937 207.71567689813673 13731.960910301656 96.621811043471098 139.30207711458206 69.223592102527618 212.19234021380544 74.990386672317982 183.58060039952397 967.25536429136992 473.17836821079254 220.36051322519779 59.517252631485462 19.894319247454405 332.79501644894481 930.43241027370095 17.118083171546459 121.06735990941525 1271.4485448747873 404.97851838730276 333.8116546459496 84.58767048176378 14.107587106525896 5.1032531280070534 214.82339829951525 113.59072271361947 381.56736715883017 38.194113228470087 7.5741068730130783 5.1338462829589835 20.590587757527832 10.832627976313232 153.26832376420498 35.760517085902393 57.461793417111039
leaf_count=761 41 1360 139224 525 5769 10060 6633 26301 3262 2725 377 11 2688 5472 5681 3504 90 1778 22539 1534 125 195 1176 335 831 1037 1278 430 280 101 1477 3982 30 506 2487 1933 1744 2065 33 12 1713 457 2066 260 94 1 95 86 881 1952 647
internal_value=0 0.0543275 0.0565401 0.0586157 0.0549656 0.0873611 0.07567 0.0572538 0.0778084 -0.0257692 0.0789522 0.0380503 0.0832306 0.0465182 0.00773271 0.0428869 -0.03224 0.0893475 0.0912121 0.0817074 -0.0344995 -0.00242939 -0.0266937 -0.0522935 0.0103818 0.161156 0.0279922 -0.0177283 0.0885074 0.0948153 -0.0317248 0.00140591 -0.0729929 0.0662102 0.101378 -0.0872238 -0.0853059 -0.0224962 -0.0911831 -0.093358 -0.096102 -0.0612126 -0.104844 -0.0954564 -0.113219 -0.0779676 -0.131613 -0.166712 -0.125209 -0.109889 -0.11367
internal_weight=0 83257.6 81182.6 77871.1 69097.1 8774.06 7574.13 67192.7 23126.1 1904.42 22970.6 2175.25 20795.4 2970 3311.49 1638.43 2074.98 17825.4 17533.1 998.772 1013.83 1394.71 1673.06 839.364 382.806 1199.94 974.554 639.654 1956.17 1335.88 380.308 1142.62 420.153 594.246 1291.34 530.437 403.035 292.303 155.469 680.275 675.172 307.081 456.558 44.5398 141.361 48.4685 92.8925 31.4232 368.092 43.3346 61.4693
internal_count=268644 221018 211275 192274 174019 18255 16693 165525 47626 8494 44677 6468 38209 9139 19001 11149 9743 29070 25227 5038 5597 5320 7852 3609 1208 1562 3351 6111 3542 2859 1567 5158 1969 1784 2588 2694 1939 3843 2949 4423 4411 1817 2401 271 2916 2047 869 181 2594 2046 688
is_linear=0
shrinkage=0.1


Tree=12
num_leaves=61
num_cat=0
split_feature=132 31 136 57 30 74 6 42 57 73 94 73 98 134 38 68 84 32 59 36 106 52 105 52 106 127 95 101 69 113 18 48 68 31 31 29 64 60 32 36 30 116 127 47 75 103 103 36 75 70 106 112 27 72 107 32 71 107 69 40
split_gain=952.26 782.67 1266.92 1347.98 1189.52 782.614 702.701 668.104 1230.58 635.618 588.83 1087.98 977.048 692.492 640.709 1167.65 511.895 527.456 444.938 442.297 392.697 356.467 309.271 270.536 265.84 265.068 521.401 254.628 730.36 447.87 247.552 230.015 142.244 137.096 133.147 126.002 116.569 101.944 101.944 73.5878 69.0675 61.9008 57.6548 98.8597 50.9365 45.0436 44.5094 33.0281 21.2332 74.304 67.7445 13.3939 12.6944 4.34446 3.02246 0.778417 0.563175 0.52073 0.188381 0.177273
threshold=1.0000000180025095e-35 1.0033237934112551 1.0000000180025095e-35 0.91911238431930553 1.0765536427497866 -1.0174917578697202 0.62946808338165294 1.0733087658882143 0.93347755074501049 -0.80907273292541493 -1.0828036665916441 -0.80006104707717884 -0.89485865831375111 1.0000000180025095e-35 0.95380374789237987 0.013591119088232519 -1.3707102537155149 0.95601266622543346 0.79749929904937755 0.92961549758911144 -0.86695823073387135 0.9785812795162202 -0.93449309468269337 0.89840433001518261 -0.92363241314887989 -1.5012497305870054 -1.0672175884246824 -0.5527936816215514 0.017285027541220192 -1.3538592457771299 1.1834543347358706 1.0755448937416079 0.14456210285425189 1.0116651058197024 1.0022061467170718 1.2261807322502138 0.41317096352577215 0.58125945925712597 0.95544889569282543 0.93929144740104686 0.95443248748779308 -0.91865721344947804 -1.535044193267822 1.0929404497146609 -1.1498896479606626 -0.64936870336532582 -0.73521417379379261 0.93993341922760021 -0.69330883026123036 -0.18254527449607846 -0.9350786805152892 -1.3150651454925535 0.94407919049263012 -0.35366037487983698 -0.99950838088989247 0.82540854811668407 -0.231371134519577 -0.99950838088989247 0.039100555703043945 1.0550565123558047
decision_type=2 2 2 2 2 2 2 2 2 2 2 2 2 2 2 2 2 2 2 2 2 2 2 2 2 2 2 2 2 2 2 2 2 2 2 2 2 2 2 2 2 2 2 2 2 2 2 2 2 2 2 2 2 2 2 2 2 2 2 2
left_child=1 2 3 4 6 -6 -1 9 -9 -5 25 12 13 -12 30 -16 34 21 -19 20 22 -18 23 35 48 42 33 28 -24 -29 -13 -28 39 -27 41 -2 -36 -25 -14 46 45 -4 44 -44 -3 -34 -26 -41 57 50 -50 52 58 55 -51 -53 -55 -21 -22 -59
right_child=19 10 16 7 5 -7 -8 8 -10 -11 11 14 38 -15 15 -17 17 18 -20 24 51 -23 27 37 32 26 31 29 -30 -31 -32 -33 40 -35 36 -37 -38 -39 -40 47 -42 -43 43 -45 -46 -47 -48 -49 49 54 -52 53 -54 56 -56 -57 -58 59 -60 -61
leaf_value=0.021376191637418874 0.094781807617873692 0.049301435573629475 -0.18760520150762261 -0.0038889389092546752 -0.0011784955515942298 0.065411585429685934 -0.018289533466063025 -0.032889025472871425 0.057129199665305136 0.10000214692140691 0.029085720031802875 0.11631455921839116 -0.028544542911998313 0.096097769318785206 -0.06761334084802513 0.068233036521766183 -0.013537403378506377 -0.12299204125177426 0.043732793198786896 -0.1340464787374471 -0.16439301726569466 0.085897959718199246 0.080894309390069488 -0.022536415305198381 0.038328366537167841 0.074999539546443797 0.023580638372601125 0.12190955377828344 -0.0326527404247191 -0.066243704690687397 0.078403742428724582 -0.13642377489387394 -0.12920051649302602 0.11519505969015392 -0.17848486020006171 -0.14085053468089376 0.18387924107226131 -0.15191063549061534 -0.097602219063394946 0.096151811173655122 0.27675592424159917 -0.069576580195120002 0.12459471730781602 -0.055166714295721987 0.17121779546868418 0.17633823350037936 0.12806142987805896 -0.16932668869716377 -0.13890133467594187 -0.11509932410981119 0.12181777960494977 -0.13664207006589696 0.1383693986477704 -0.12588683670114975 -0.14827393154749477 -0.17529313204646202 -0.10357438354707565 -0.17201412995351692 -0.11253421278765781 -0.15885378932403282
leaf_weight=12851.756874334067 264.9480107203126 37.207886517047882 68.758209735155106 675.74166255258024 2295.038665547967 7641.1220932640135 6844.9712205529213 1777.7759226746857 10417.49507509172 4582.2540705259889 8230.9901258386672 3280.3432737141848 370.08949414640665 1897.6077551990747 722.41995743662119 5096.3302938714623 373.80811975896358 170.36267025768757 2648.3525208905339 5.4109738878905764 1.1048345714807504 10147.501515522599 13181.744084641337 196.40053823590279 91.208664610981941 1658.7749383449554 459.52119299769402 2257.37654864043 591.91841347329319 134.02198613900691 3626.7223601192236 111.67982924729586 64.94200973585248 1737.1717320382595 12.367590323090552 24.819674469530582 31.459116280078888 88.2854278460145 506.07535427063704 6.5301010608673122 5.0399572178721419 125.60827436484396 697.51853726804256 31.996678233146667 433.91010898351669 5.2122946158051482 140.31620639562607 16.596612235531211 15.886065464466808 57.942847847938538 26.744282811880112 9.4932373762130755 4.1235179901123047 13.43771064467728 52.208114065229893 11.550331704318522 71.518615976907313 26.610131949186325 1.9139133878052232 16.633529514074326
leaf_count=50599 432 83 286 2615 7881 20737 34590 7182 27883 10380 20506 3155 1292 2204 3427 10154 1214 634 5284 35 6 12721 16306 550 129 2323 1006 1737 3630 1004 5400 532 555 1032 54 197 14 516 2636 7 10 1398 663 108 326 2 80 72 134 832 31 60 1 129 259 58 3316 110 55 72
internal_value=0 0.0490193 0.0425673 0.0348069 0.0218218 0.0500307 0.00759163 0.0568536 0.0440067 0.0866504 0.0625636 0.0559024 0.0328769 0.0416405 0.0758139 0.0513672 0.0694785 0.072073 0.033656 0.0745948 0.0774269 0.0823652 0.0786819 0.00657795 -0.0152421 0.0931523 0.080693 0.0812442 0.0760147 0.111365 0.0964086 -0.00770303 0.040037 0.0955613 -0.0758273 0.074599 0.0816226 -0.0626573 -0.0684325 0.0757215 -0.0808117 -0.11133 0.13432 0.11671 0.161589 -0.1065 0.0927113 -0.0943657 -0.10576 -0.0874384 0.0246616 -0.108248 0.0243005 -0.117179 -0.130823 -0.157857 -0.107104 -0.163293 -0.131514 -0.166952
internal_weight=0 89562.7 60664.4 47086.2 29632.9 9936.16 19696.7 17453.3 12195.3 5258 28898.4 23730.6 11004.8 10128.6 12725.8 5818.75 13578.2 13340 2818.72 17383.9 16852.7 10521.3 16739.5 574.454 531.282 5167.78 3967.15 16165.1 13773.7 2391.4 6907.07 571.201 329.846 3395.95 238.193 289.768 43.8267 284.686 876.165 254.652 75.1943 194.366 1200.63 729.515 471.118 70.1543 231.525 23.1267 201.436 152.781 42.6303 113.142 7.14227 106 110.151 21.0436 84.9563 48.6546 3.01875 43.2437
internal_count=268644 238319 183472 161867 113807 28618 85189 48060 35065 12995 54847 48774 26638 22710 22136 13581 21605 19853 5918 30325 27997 13935 24372 1695 2328 6073 4893 22677 19936 2741 8555 1538 855 3355 1752 629 68 1066 3928 288 567 1684 1180 771 409 557 209 79 1473 1256 165 3625 62 3563 1091 118 3445 217 61 182
is_linear=0
shrinkage=0.1


Tree=13
num_leaves=58
num_cat=0
split_feature=132 31 86 97 74 94 75 71 74 129 103 36 30 106 131 115 127 74 106 107 111 43 116 106 32 51 109 110 30 75 32 103 2 50 70 108 53 73 36 98 103 100 0 38 75 70 112 27 71 36 127 38 69 61 71 25 70
split_gain=865.585 724.454 800.037 638.947 1113.96 589.756 941.006 549.143 446.769 383.315 375.068 367.997 365.755 331.024 311.16 308.907 305.982 300.293 296.523 294.216 312.821 292.441 270.545 227.071 222.826 216.448 186.443 184.813 173.777 164.051 207.674 152.717 150.687 138.461 123.968 116.913 100.021 97.8492 97.4028 94.4998 67.5517 34.5083 33.331 28.6969 18.928 61.9571 12.0313 11.1291 3.10724 1.19053 0.639302 0.444491 0.356191 0.188104 0.164892 0.141603 0.121243
threshold=1.0000000180025095e-35 0.97611346840858471 -1.1833642125129697 -1.0220739841461179 -1.0452573299407957 -1.0910838842391966 -1.1474839448928831 -0.33780007064342493 -1.006318151950836 1.0000000180025095e-35 -0.9152376353740691 0.92870655655860912 1.0939001441001894 -0.86695823073387135 1.0000000180025095e-35 -1.0041136741638181 -1.4914057850837705 -0.98370233178138722 -0.92363241314887989 -1.0104861855506895 -1.2596380114555357 1.0948758125305178 -1.3836293816566465 -0.91788399219512928 0.92099699378013622 0.94572845101356517 -0.8821732997894286 -0.91326984763145436 1.0864678025245669 -1.1252812743186948 0.95012131333351146 -0.72187110781669606 0.57790490984916698 1.0748431086540224 -0.11839079856872557 -0.93829360604286183 1.0204886794090273 -1.0040535330772398 0.93993341922760021 -1.0122851729393003 -0.69087719917297352 -0.95352640748023976 -0.28466835618019098 0.9784236252307893 -0.69330883026123036 -0.18254527449607846 -1.3150651454925535 0.94407919049263012 -0.23740961402654645 0.92961549758911144 -3.3064159154891963 1.0005062222480776 -0.49879430234432215 0.80977314710617077 -0.231371134519577 0.9680735468864442 -0.096746474504470811
decision_type=2 2 2 2 2 2 2 2 2 2 2 2 2 2 2 2 2 2 2 2 2 2 2 2 2 2 2 2 2 2 2 2 2 2 2 2 2 2 2 2 2 2 2 2 2 2 2 2 2 2 2 2 2 2 2 2 2
left_child=1 2 8 14 24 16 -7 9 10 12 27 13 -4 17 29 33 -6 37 43 21 -21 -19 42 -11 26 -17 -5 -1 -12 30 -3 -24 41 -10 38 -31 -26 -2 40 -34 -20 -16 -9 -13 49 -46 47 55 50 -45 -48 -40 -39 56 -50 -15 -36
right_child=11 3 7 4 5 6 -8 22 15 23 28 18 -14 46 32 25 -18 19 34 20 -22 -23 31 -25 36 -27 -28 -29 -30 35 -32 -33 39 -35 53 -37 -38 52 51 -41 -42 -43 -44 44 45 -47 48 -49 54 -51 -52 -53 -54 -55 -56 -57 -58
leaf_value=-0.075441350220509323 0.37943173268982355 -0.055423134276628983 -0.042091090122551494 -0.094583697486815221 0.13392329546028114 -0.055428226787912753 0.046114514110152445 0.090858452017014243 0.071708015576969528 -0.12428134947643005 -0.059334203225300725 0.12299166061665778 0.05362157007012236 -0.11144199781378553 -0.25333559846540948 0.15112750532041083 0.063276277148969634 0.065301951255859594 0.047674553187296416 0.10853370141039097 0.070043711819613969 -0.0708200816685704 0.10855933456385009 0.17179260397378709 -0.15241900673603037 0.073110800881354299 0.12605306383596995 0.072174488036422388 0.051766441416262868 -0.17474218474363054 0.11627555730964459 -0.081928793049013959 0.13486018101616865 -0.065350658921702345 -0.11897873003564788 0.12784207591880256 -0.069441622090918448 -0.11575043967725307 -0.18086071157229833 0.093549419797305688 0.14729804204472594 0.0200012693094914 -0.12333053554816104 -0.19826014661320207 0.0095170133715736325 -0.12922913564786753 -0.11682368877214273 0.13341119066660112 -0.1199556498991376 -0.153410470365068 -0.15397030279581073 -0.14453709941299092 -0.13003682082886733 -0.14239840384108207 -0.10324639093833612 -0.15806608128736571 -0.10591953962223094
leaf_weight=95.210651671513915 3.9936633110046378 275.57675512135029 3488.6955912187696 67.030373215675354 1094.3608704954386 924.0496734008193 73847.347931236029 8.0861537735909206 114.93483027257025 31.501374069601297 692.90733612701297 5.5522035136818877 450.85341592133045 1.745753527618944 13.453725025057794 445.81418487429619 1393.9892610311508 370.8402391448617 238.27268469333649 2518.2391148861498 13074.667408454232 274.76562909223139 564.76744795776904 145.77375898510218 240.92342728376389 1757.6194236520678 89.353288158774376 776.70785163901746 176.68509117513895 13.827323466539381 94.636392995715141 45.476238509640098 1044.2768884301186 205.48689766414464 30.17371416836977 166.90618646144867 365.88780278712511 23.574459653347731 4.3096598088741329 1178.8172657042742 95.280373126268387 7.033417582511901 71.571075594052672 6.792150765657424 44.837535183876753 114.05164350755513 6.053026836365464 3.8625173568725586 6.4970385003834954 46.021974749863148 19.749677445739508 15.432613395154474 67.194531135261059 2.8743783980607978 64.907840637490153 1.0391521900892255 9.3005576692521554
leaf_count=564 1 869 22582 269 1189 4197 178625 34 363 234 6000 5 1704 55 58 979 2735 1046 381 2474 17991 1946 986 397 1186 4496 193 3630 447 71 89 307 616 1735 259 214 1699 241 18 1215 31 14 622 29 185 1190 66 1 75 214 106 80 389 26 3316 6 194
internal_value=0 0.0439408 0.0171461 0.0469486 0.0452659 0.0464535 0.0448596 -0.0108279 0.0486705 -0.0246646 0.00970934 0.0685166 -0.0311375 0.0713535 0.0939312 0.0755546 0.0943464 0.0724851 -0.00756469 0.0735209 0.0762598 0.00736931 0.0717389 0.119181 -0.0749558 0.0888957 0.031482 0.0560553 -0.0367606 0.0265942 -0.0115324 0.0943639 0.110467 -0.0161879 0.0439781 0.104692 -0.102386 -0.105012 0.0633581 0.112955 0.0761323 -0.159497 -0.101588 -0.101429 -0.107315 -0.0900758 -0.106614 0.0235427 -0.115514 -0.159178 -0.145256 -0.152466 -0.126326 -0.1177 -0.104767 -0.128839 -0.115902
internal_weight=0 89889.6 9072.09 80817.5 78022.9 77259.7 74771.4 4806.73 4265.37 4116.82 1741.51 17050 3939.55 16437.1 2794.53 2523.86 2488.35 16333.3 612.899 16238.5 15592.9 645.606 689.901 177.275 763.195 2203.43 156.384 871.919 869.592 550.947 370.213 610.244 2243.58 320.422 395.644 180.734 606.811 94.7627 353.295 2223.09 333.553 20.4871 79.6572 217.256 211.703 158.889 103.855 6.64742 97.2076 52.8141 25.8027 19.7423 90.769 42.3487 71.4049 2.78491 39.4743
internal_count=268644 238319 45080 193239 190093 186746 182822 26866 18214 24917 10641 30325 24286 27713 3146 7573 3924 24088 2612 23457 20465 2992 1949 631 3347 5475 462 4194 6447 1243 958 1293 1903 2098 989 285 2885 631 510 1831 412 72 656 1623 1618 1375 3625 62 3563 243 172 98 630 479 3391 61 453
is_linear=0
shrinkage=0.1


Tree=14
num_leaves=62
num_cat=0
split_feature=72 40 31 133 47 72 74 95 96 136 39 47 111 33 71 107 105 71 101 108 2 74 103 59 41 116 55 46 74 70 105 38 72 99 101 53 127 31 40 1 101 5 63 39 53 105 32 38 60 38 28 44 118 66 0 40 106 136 107 16 31
split_gain=815.229 1115.32 568.404 680.992 1499.13 1526.56 772.406 1672.84 975.151 418.024 393.225 326.367 798.264 699.796 576.525 552.45 399.639 861.175 369.437 343.693 289.255 406.636 274.179 268.632 446.183 254.122 237.907 302.272 201.329 200.767 356.939 200.537 179.252 174.37 162.857 153.758 146.373 135.634 124.744 107.646 96.2904 109.512 91.0594 77.3463 73.946 72.6456 71.6695 69.9037 61.7413 57.964 48.2881 37.9457 36.1115 31.8957 23.474 23.3093 37.8983 4.00423 3.2607 0.381779 0.116439
threshold=-0.53671413660049427 1.0487791299819949 1.0128125548362734 1.0000000180025095e-35 1.1008363366127016 -0.64353466033935536 -0.98286393284797657 -1.0143584012985227 -0.96216192841529835 1.0000000180025095e-35 0.97296631336212169 1.1758214235305788 -1.251500606536865 0.84939348697662365 -0.32496502995491022 -0.99597707390785206 -0.83665871620178212 -0.29154507815837855 -0.66928321123123158 -1.079478859901428 0.55443128943443309 -1.0035110712051389 -0.79852524399757374 0.84529241919517528 1.0833843946456911 -1.4860936999320982 1.0241081714630129 1.1621402502059939 -0.83719247579574574 -0.10771234706044196 -0.80228501558303822 0.97264501452445995 -0.54896974563598622 -0.83978056907653797 -0.76757851243019093 1.1150336861610415 -2.077170610427856 0.99132812023162853 1.0267868638038637 0.34909237921237951 -0.89036601781845082 0.66321921348571788 0.48151731491088873 0.97296631336212169 1.1213034987449648 -0.87028917670249928 0.96142125129699718 0.9755845069885255 0.79257485270500194 1.019603490829468 1.1329650878906252 1.1384637951850893 -1.5450717210769651 0.18220901489257815 0.47908075153827673 1.0610258579254153 -0.86695823073387135 1.0000000180025095e-35 -1.0164967775344846 0.96723607182502758 0.97888261079788219
decision_type=2 2 2 2 2 2 2 2 2 2 2 2 2 2 2 2 2 2 2 2 2 2 2 2 2 2 2 2 2 2 2 2 2 2 2 2 2 2 2 2 2 2 2 2 2 2 2 2 2 2 2 2 2 2 2 2 2 2 2 2 2
left_child=1 2 3 6 5 -5 7 -1 -8 26 -6 19 16 25 18 -16 17 45 -15 43 21 54 55 24 31 35 42 32 -29 47 -31 -21 -28 -23 36 -14 -24 39 -19 -25 46 -42 -3 50 -36 -13 -22 -18 -44 -39 53 -26 -27 -2 -4 59 -57 58 -45 -11 -52
right_child=11 9 20 4 10 -7 8 -9 -10 22 -12 12 13 14 15 -17 29 38 -20 23 40 33 34 37 51 52 27 28 -30 30 -32 -33 -34 -35 44 -37 -38 49 -40 -41 41 -43 48 57 -46 -47 -48 -49 -50 -51 60 -53 -54 -55 -56 56 -58 -59 -60 -61 -62
leaf_value=0.040519122903418317 0.24063982010858839 0.32323070124909337 -0.15941823010847717 -0.022105350074426742 -0.034805639712840966 0.080917907058990213 0.076071366606003998 -0.02700874909964281 0.041705351740996259 -0.17338991126602968 -0.13160299077761325 -0.060363369074625875 0.067101589748156623 -0.027800341842281997 -0.031607618294692205 0.071957654738372998 0.059142845581409781 0.13828675250269204 0.09292182694054868 0.083778711289756336 0.094013785378222164 0.065433929514676401 0.17891800277950559 0.1078747684389102 0.11558056420620243 -0.10888576559914925 -0.035436156051615812 -0.080833161399740699 0.045835060327805474 -0.12775766658379514 0.09507185326843598 0.04082764070696665 0.10023924916178728 -0.076216220808613955 -0.16134525775909139 -0.08636080119717951 -0.044333236513054958 0.12799797343225502 -0.12250881855945395 0.02513819404208081 0.060049256754573226 -0.16136679460637762 -0.13091905678313906 -0.12348890361706322 0.067349109552684111 0.13844620646582453 0.13894956506366249 0.11911344554617474 0.079133658349159267 0.01957505557120634 -0.12031721436738219 -0.13079081767239167 -0.17882000384860897 0.024047531754519375 -0.0061510255603514771 -0.15021034169342062 0.17559119922122274 -0.22095664645110025 -0.19089653179411847 -0.1543910065179607 -0.14186241653893839
leaf_weight=17095.138164147735 10.291215002536775 4.6154076736420384 97.275904402136803 2543.0799323506653 1349.4888920001686 3310.689073972404 10268.943396484479 4670.8271886259317 42139.412282014266 25.887737527489662 609.10000885277987 19.507497930899262 144.58466457668692 1509.5349023975432 589.42225599102676 4083.0730834081769 211.71877139061689 19.615802876651287 304.65279515832663 4120.0578143261373 2023.6604938060045 1424.9738761484623 196.57700988650322 342.7650965899229 6.5970508009195319 194.8764125816524 171.25968480296433 831.98012186028063 147.76493774726987 98.443717001006007 266.47680905368179 1476.6448432467878 225.72557364404202 92.547591421753168 27.483233258128166 119.0421489495784 34.525849148631096 1555.4500196278095 282.18245774134994 290.55597896873951 118.49692216515541 27.527187451720238 393.64280293509364 76.758505212143064 29.118055358529091 317.86957644298673 430.43036861717701 2371.6465180069208 14.50905007496476 50.922124698758125 11.092251285910605 119.34061913192272 118.8759470898658 20.036139234900475 11.136896029114721 8.9938346445560438 5.9208242744207373 5.1085385680198661 7.916271209716796 17.883302748203278 3.2414322346448889
leaf_count=46790 7 13 475 9022 6704 8042 17040 19396 104615 107 3143 128 593 5335 2043 6836 257 9 388 5820 1845 2794 142 453 7 3093 668 4356 580 1139 460 2926 257 389 120 1499 113 1199 2640 552 230 121 1964 655 93 157 273 1054 24 120 88 580 972 85 27 42 6 21 40 80 17
internal_value=0 0.0389799 0.0407484 0.0389049 0.0108225 0.036161 0.0418627 0.0260281 0.0484391 -0.0324034 -0.0649086 0.0619386 0.0504353 0.0309264 0.0403167 0.0588932 0.0888504 0.0171675 -0.00752772 0.0770715 0.0765125 0.0434285 0.0681495 0.0797487 0.0682578 -0.0745704 -0.0518673 -0.0319024 -0.0617291 0.104391 0.0349597 0.0724464 0.0417088 0.0567953 0.108331 -0.0021952 0.145565 0.109109 -0.105558 0.0699168 0.097201 0.0183098 -0.118457 -0.0814828 -0.0436954 0.126951 0.101895 0.114199 -0.123452 0.124561 0.0260601 -0.117885 -0.135383 0.0975455 -0.143674 -0.128839 -0.0208736 -0.134978 -0.129791 -0.165628 -0.125189
internal_weight=0 88348.6 86212.7 81986.7 7812.36 5853.77 74174.3 21766 52408.4 2135.89 1958.59 18748.3 10651.5 7064.06 6486.68 4672.5 3587.46 639.175 1814.19 8096.78 4226.05 1625.93 346.39 7962.33 5722.64 577.379 1789.5 1376.73 979.745 2948.29 364.921 5596.7 396.985 1517.52 287.704 263.627 231.103 2239.69 301.798 633.321 2600.11 146.024 412.767 134.444 56.6013 337.377 2454.09 2583.37 408.152 1606.37 44.661 125.938 313.752 30.3274 108.413 58.6857 14.9147 89.7833 84.6748 43.771 14.3337
internal_count=268644 229471 220906 214752 26911 17064 187841 66186 121655 8565 9847 39173 26603 20759 14602 8879 5844 2934 5723 12570 6154 3685 703 11657 9333 6157 7862 5861 4936 2910 1599 8746 925 3183 468 2092 255 2324 2649 1005 2469 351 2001 913 213 285 2118 1311 1988 1319 197 587 4065 92 502 235 48 716 695 187 105
is_linear=0
shrinkage=0.1


Tree=15
num_leaves=61
num_cat=0
split_feature=72 38 30 72 36 58 39 105 72 111 33 40 59 31 116 100 52 114 60 133 76 64 99 73 96 103 5 126 33 107 13 102 59 67 104 5 119 45 127 38 126 106 71 113 38 31 73 70 116 114 109 123 91 71 107 77 71 39 38 120
split_gain=782.178 1357.67 599.273 620.702 1031.98 627.219 572.507 910.356 444.542 333.734 778.661 498.163 680.853 345.257 329.009 325.768 313.474 297.746 291.431 282.398 280.073 251.37 223.392 208.233 203.442 202.484 192.26 178.513 212.653 174.791 162.596 156.719 202.529 141.76 173.546 133.199 119.973 148.921 112.786 109.118 108.765 108.387 203.486 94.0179 64.0469 63.0685 56.1102 49.9993 46.397 44.7913 31.4123 18.0519 89.506 6.84159 3.46782 3.26263 2.44291 2.25744 0.74153 0.0592711
threshold=-0.55540925264358509 0.99374046921730053 1.0333558320999148 -0.58723694086074818 0.93307268619537365 0.85468736290931713 0.95368662476539623 -0.8221648335456847 -0.60831537842750538 -1.2596380114555357 0.84735870361328136 1.0487791299819949 0.84227022528648388 0.9951232671737672 -0.99358317255973805 -0.53077313303947438 1.1391822099685671 -1.4077258706092832 0.77551162242889415 1.0000000180025095e-35 -1.2295157909393308 0.49355706572532659 -0.79490894079208363 -0.76017862558364857 -0.90603554248809803 -0.86559781432151783 0.53284558653831493 -1.6947411894798277 0.93052399158477794 -1.0006961226463316 0.75953274965286266 -0.76583790779113758 0.84227022528648388 0.2318467199802399 -0.7960819900035857 0.54512465000152599 -1.6666799783706663 1.1937302947044375 -3.3064159154891963 0.99306520819664013 -2.3861646652221675 -0.91696408390998829 -0.29154507815837855 -0.96218442916870106 0.95947065949440014 0.94521048665046703 -0.38033379614353174 -0.085438508540391908 -1.4774702191352842 -1.4417110085487364 -1.1222720146179197 -1.3960571885108946 -1.0624811649322508 -0.30749385058879847 -1.0142499804496763 -0.36685679852962488 -0.38631689548492426 1.018420457839966 0.99505674839019786 -1.1783942580223081
decision_type=2 2 2 2 2 2 2 2 2 2 2 2 2 2 2 2 2 2 2 2 2 2 2 2 2 2 2 2 2 2 2 2 2 2 2 2 2 2 2 2 2 2 2 2 2 2 2 2 2 2 2 2 2 2 2 2 2 2 2 2
left_child=1 2 14 4 5 -4 25 -8 -6 16 17 13 30 19 22 -14 33 36 -15 -12 21 -16 39 51 27 -5 -22 43 -29 45 -13 32 -26 34 54 -24 37 -11 49 -1 -33 42 -40 -25 -35 -19 -43 -38 -31 -18 -46 52 -3 -36 -2 -51 58 -58 -53 -54
right_child=9 23 3 6 8 -7 7 -9 -10 10 11 12 15 18 20 -17 38 29 -20 -21 26 -23 35 24 31 -27 -28 28 -30 48 -32 40 -34 44 53 -37 47 -39 41 -41 -42 46 -44 -45 50 -47 -48 -49 -50 55 -52 56 59 -55 -56 -57 57 -59 -60 -61
leaf_value=-0.097171268028225843 -0.12383687845879339 0.40624849252002576 0.032786212637583689 0.040766870871511346 -0.10139076516160227 0.058626372853021962 0.021316933254669854 0.092296000466221273 -0.004101591734878199 0.11542098856601242 0.066523058679515565 -0.026681177412794379 0.039797456783567962 0.061666696211883115 -0.11451243826095431 0.1136079868388129 0.076600395337244984 0.022327262972589815 0.13366087318914122 0.012924360624314147 -0.074391828486418607 0.047092135029637494 -0.026957485224267681 -0.14787394038605337 -0.076731308972595086 0.14397496031428217 0.062106405190286706 0.34851367309522546 -0.088166186218904874 -0.074340159325289576 -0.13796781544447803 0.41009422180998856 0.018329087217675021 0.1444039148538688 0.14625954741587005 0.070592424971397616 0.067195248612957462 -0.19363958368098977 0.13265592934617906 0.20872418457233613 -0.12502069478981909 0.1133806652738705 -0.083713173757044596 0.19605700623124292 -0.13990591520749093 0.31660257682462878 -0.024639059974329792 -0.11007437973678079 -0.14035766652900381 -0.22562306651128586 0.13985151583461838 -0.13161008126450607 -0.11240374510299822 0.089960724052856725 -0.20969420963927995 -0.13961370821954214 -0.1676317802383876 -0.13220868765918822 -0.11811434782503112 -0.12439320311061018
leaf_weight=532.23261534050107 29.252426372841001 3.8215468414127853 56563.709648588672 232.65751007944345 614.84450940042734 11264.159780632704 4124.2944422960281 3215.976781129837 1988.9788932204247 23.524923615157604 7917.8952358365059 704.70164003781974 6893.7815209459513 973.90021333098412 231.86822818033397 654.75276298634708 9.6147497147321719 60.213035736232996 1330.2794946990907 1122.3352807238698 113.83175242692232 164.56372085213661 886.60896401852369 8.8104100525379163 466.89810347557068 1038.9964977577329 1103.737055612728 12.798966728150843 86.653767861425877 178.36296483781189 161.34736669063568 3.8525056093931189 431.03121434897184 9.4647411257028562 56.243649698793888 166.21456554532051 270.80599040351808 46.227059590630233 90.732586782425642 11.922661907970904 270.16826218739152 1947.044388057664 83.434993082657456 81.216680765151978 94.066638322547078 8.2850005552172643 29.907501732930541 16.90411710832268 264.06299077812582 10.710346182808282 4.1925039291381827 53.335877254605293 5.7306785807013556 35.028705399483442 5.6059097349643698 7.49792855978012 22.619921490550041 87.903220765292645 172.03069836273789 14.700354661792513
leaf_count=2566 270 2 138107 540 4340 25155 10807 4997 6417 55 11012 2548 15744 1751 4551 844 35 167 992 4835 1586 305 4535 46 2350 1223 4705 13 349 2517 641 6 1597 3 19 252 482 390 53 29 1620 1044 1162 98 1042 8 301 281 3323 57 1 323 65 41 30 98 96 509 1601 108
internal_value=0 0.0342446 0.0360841 0.0378045 0.0347058 0.0370775 0.0631465 0.0524148 -0.0270746 0.0550443 0.0509281 0.0550012 0.0365647 0.0686763 -0.00626525 0.0461997 0.0902343 -0.0417502 0.103231 0.0598688 0.0255755 -0.0474284 -0.0384454 -0.0536449 -0.0357573 0.125092 0.049345 0.0603808 -0.0319681 -0.0907285 -0.0474142 -0.0513008 -0.0310997 -0.0197904 0.0521627 -0.0115568 0.0282549 -0.0894042 0.102043 -0.090469 -0.117497 0.10463 0.0290043 0.162399 -0.104038 0.0579206 0.111293 0.05678 -0.113743 -0.0980059 -0.127969 -0.121265 -0.0379455 0.124653 -0.137644 -0.190206 -0.127281 -0.139458 -0.121308 -0.12103
internal_weight=0 83976.2 82254.6 79043.6 70431.7 67827.9 8611.93 7340.27 2603.82 23040.2 20627.4 19759 8414.58 11344.4 3210.98 7548.53 2412.8 868.386 2304.18 9040.23 1614 396.432 1596.98 1721.57 1361.43 1271.65 1217.57 189.48 99.4527 510.924 866.049 1171.95 897.929 233.855 126.131 1052.82 357.462 69.752 2178.94 544.155 274.021 2151.12 174.168 90.0271 107.724 68.498 1976.95 287.71 442.426 27.823 98.2591 360.142 24.2526 91.2724 34.8583 18.2083 335.89 110.523 225.367 20.431
internal_count=268644 218898 210115 191586 174019 163262 17567 15804 10757 49746 45590 38367 19777 18590 18529 16588 4156 7223 2743 15847 11147 4856 7382 8783 6079 1763 6291 506 362 6015 3189 5573 3947 1406 360 4787 1208 445 2750 2595 1626 2560 1215 144 1046 175 1345 763 5840 190 1043 2704 175 60 300 155 2529 605 1924 173
is_linear=0
shrinkage=0.1


Tree=16
num_leaves=59
num_cat=0
split_feature=72 39 31 133 47 72 73 35 94 72 69 104 49 61 108 40 114 5 73 106 105 36 25 52 61 124 69 102 24 133 102 109 55 113 40 72 40 67 104 75 34 110 128 114 31 31 1 32 101 106 72 71 32 136 72 71 71 73
split_gain=699.122 779.342 541.931 639.113 1136.96 1142.46 581.69 1374.54 870.713 474.982 270.872 423.116 584.719 412.676 361.183 339.142 372.638 255.367 262.322 247.36 279.505 199.983 176.608 173.292 170.472 134.91 129.07 114.396 113.1 98.4501 83.7639 77.0883 73.6133 71.2654 69.8037 90.9509 63.7129 54.4478 52.4175 52.3284 51.5776 265.475 50.0184 43.1256 37.6546 76.1868 33.898 32.4093 23.6014 11.8871 4.95765 4.93196 3.46394 3.37561 0.33566 0.123041 0.10455 0.0429406
threshold=-0.50946640968322743 1.0424523353576662 1.0128125548362734 1.0000000180025095e-35 1.1008363366127016 -0.64353466033935536 -0.80992957949638356 0.8923330307006837 -1.0424849987030027 -0.57806405425071705 0.025354820303618911 -0.75259715318679798 1.1811732649803164 0.79804912209510814 -1.079478859901428 1.0534226894378664 -1.3873500227928159 0.65346023440361034 -0.88516604900360096 -0.93301337957382191 -0.87297070026397694 0.90831878781318676 1.0835777521133425 1.1436657309532168 0.75632536411285411 -2.4292415380477901 -0.083047285676002489 -0.84499827027320851 1.3233020901679995 1.0000000180025095e-35 -0.86816635727882374 -1.1201126575469968 1.044893264770508 -1.3795666694641111 1.0674538016319277 -0.51734584569931019 1.0004125237464907 0.2850905060768128 -0.83230113983154286 -1.1386386156082151 0.85825043916702282 -1.1827061176300047 1.0000000180025095e-35 -1.4417110085487364 1.0024263858795168 1.003901541233063 0.52433753013610851 0.9630420207977296 -0.59915560483932484 -0.86955514550209034 -0.3203784972429275 -0.33780007064342493 0.92671319842338573 1.0000000180025095e-35 -0.53671413660049427 -0.34155108034610743 -0.32496502995491022 -0.74680826067924488
decision_type=2 2 2 2 2 2 2 2 2 2 2 2 2 2 2 2 2 2 2 2 2 2 2 2 2 2 2 2 2 2 2 2 2 2 2 2 2 2 2 2 2 2 2 2 2 2 2 2 2 2 2 2 2 2 2 2 2 2
left_child=1 2 3 6 5 -5 7 -1 -8 -6 11 12 14 23 36 16 25 18 46 26 -21 33 -16 24 52 -13 -14 53 -20 43 39 -29 -26 50 35 54 -2 44 -32 -19 41 -17 56 -25 51 -46 -4 -42 -18 -35 -15 -36 -12 -23 57 -56 -39 -3
right_child=10 34 17 4 9 -7 8 -9 -10 -11 13 15 19 21 22 40 48 30 28 20 -22 27 -24 29 32 -27 -28 31 -30 -31 38 -33 -34 49 37 -37 -38 42 -40 -41 47 -43 -44 -45 45 -47 -48 -49 -50 -51 -52 -53 -54 -55 55 -57 -58 -59
leaf_value=0.031790296572263309 0.040513021270391414 -0.10599390463936378 -0.16122269343135423 -0.023099609360964689 -0.10672929005166845 0.065050733144860956 0.10131342068374667 -0.025349987958696675 0.03790700545936436 -0.016303501376136485 -0.12310043783651406 -0.16618005941459058 0.057962805745237989 0.1179574982544228 -0.18022174692292944 0.10111719866174385 -0.067187140800325076 0.10650198470054228 0.074648248522092966 0.16900832236024488 0.0156105185177849 -0.13934744134236476 0.072241171096351656 0.021121438525203269 0.078164668767068943 0.088793671222395468 -0.10908846878312173 0.10499292129541403 0.024514751631344832 0.13568197123362416 -0.15331258159128686 0.035295264171530165 -0.036626540133250181 -0.17599254376355145 -0.12027290121720408 0.15533073470993208 -0.12640038971283671 -0.12770862924596643 0.19636355337531219 0.076181039942314399 0.11428228805556857 -0.17747227663960005 0.17710369649760105 -0.10725903241326687 0.17937035527884157 -0.136979546840449 0.053728595847397233 0.15710899147186336 -0.19652142387202667 -0.091657702369970284 0.026060180541643215 -0.14634341623000227 -0.18352264412049329 -0.23692569970678187 -0.13510278377799684 -0.15637745671110972 -0.1501865577036065 -0.12157649921511814
leaf_weight=31113.37469959259 28.855376567691565 2.4123418144881725 70.255269780755043 2550.7077309284359 991.61385660246015 3470.9489339850843 2283.5448689926416 4868.6845367625356 41985.029964556918 1402.433671310544 52.842003617435694 22.838430298492312 58.074965942651033 13.32707153260708 27.830727541819215 754.58041344583035 17.498710103332996 1184.6110169142485 847.05498304218054 124.87524603866041 2434.3477572202682 6.0043173804879162 6313.5487912334502 28.413135174661875 202.54330228548497 227.1199924685061 227.17934527434409 553.24864428862929 959.96825966238976 19.13518238067627 21.840807899832729 222.51629830151796 77.142001410014927 26.010909713804722 267.6197212357074 23.72770744562149 110.23016189597547 3.7524864450097084 5.3338318467140189 1095.595471650362 1376.515567868948 35.829465128481388 12.25069659948349 330.85050542093813 12.431699156761168 19.639310598373413 8.1920749545097333 202.72503824532032 72.846819814294577 46.757207535207272 10.492083213292061 99.558745250105858 11.564523428678511 8.6564360409975052 7.1962677147239447 4.3688259273767454 4.6129869520664215 6.6252612248063105
leaf_count=82850 119 63 352 9022 5433 8277 2749 17732 97789 6333 554 144 130 5 151 432 106 675 1811 163 5210 37 8536 250 1162 237 1639 598 1941 22 99 898 351 206 1719 21 1115 24 2 1345 830 186 15 3253 19 104 15 146 438 2582 47 489 48 36 41 20 21 52
internal_value=0 0.0317679 0.032414 0.0307527 0.0045354 0.0277112 0.0335021 0.0240587 0.0411778 -0.0537578 0.0560022 0.0611548 0.0510468 0.0174738 0.0676369 0.0959365 0.00258556 0.0675445 0.0402435 0.0132502 0.0230954 0.0631732 0.0711332 -0.0386319 0.0127264 0.065497 -0.0750785 0.0797714 0.0480152 -0.085334 0.0898534 0.0850012 0.0465033 -0.072659 -0.0974821 0.0218597 -0.0917717 -0.110083 -0.0846782 0.0919334 0.109343 0.0884887 0.0483897 -0.0971058 -0.118266 -0.0143527 -0.138776 0.11978 -0.171471 -0.121803 0.0774777 -0.127342 -0.13395 -0.196962 -0.131856 -0.143139 -0.140104 -0.117417
internal_weight=0 93323.4 92859.2 88666.3 8415.7 6021.66 80250.6 35982.1 44268.6 2394.05 13644.4 12034.9 9324.94 1609.5 6480.47 2709.95 340.304 4192.85 1885.47 2844.48 2559.22 887.013 6341.38 722.491 344.092 249.958 285.254 790.426 1807.02 378.399 2307.38 775.765 279.685 96.5873 464.196 44.3304 139.086 419.866 27.1746 2280.21 2369.65 790.41 20.6162 359.264 399.249 32.071 78.4473 1579.24 90.3455 72.7681 23.8192 367.178 64.4065 14.6608 20.6027 11.5651 8.36547 9.0376
internal_count=268644 239013 236425 230185 29065 17299 201120 100582 100538 11766 29631 19582 17063 10049 9921 2519 925 6240 4119 7142 5373 4409 8687 5640 2115 381 1769 1569 3752 3525 2121 1496 1513 2840 2588 197 1234 2391 101 2020 1594 618 60 3503 2331 123 367 976 544 2788 52 2208 602 73 176 61 45 115
is_linear=0
shrinkage=0.1


Tree=17
num_leaves=60
num_cat=0
split_feature=71 38 72 35 30 105 58 60 29 132 72 73 122 39 92 45 71 107 69 40 105 38 71 31 63 69 36 58 112 42 74 53 105 32 97 127 94 69 99 56 14 40 50 106 109 107 58 40 73 29 105 107 102 31 36 55 107 31 32
split_gain=641.656 970.151 578.919 1446.24 889.876 1119.08 834.243 766.011 1724.37 739.927 701.432 578.467 546.713 431.577 383.822 383.619 626.083 702.936 348.059 337.747 443.234 319.474 519.471 314.525 308.779 364.763 288.953 285.191 284.853 246.379 244.286 226.712 408.777 205.019 174.876 158.937 197.531 148.384 120.206 143.068 113.767 337.452 105.859 103.009 100.142 99.2118 97.7939 94.1919 144.534 82.7086 62.0582 44.6112 43.7937 29.5424 25.9028 12.9141 1.04497 0.95068 0.202281
threshold=-0.36859557032585138 0.98864170908927929 -0.60152417421340931 0.90842381119728099 1.0495507121086123 -0.81660518050193776 0.85468736290931713 0.71456679701805126 1.117143511772156 1.0000000180025095e-35 -0.66120529174804676 -0.75462350249290455 -1.4043998122215269 1.0017340183258059 -1.0660085082054136 1.1563788056373598 -0.33382041752338404 -0.99710750579833973 0.025354820303618911 1.0629479289054873 -0.87580886483192433 0.91163024306297313 -0.45103769004344935 1.0079576969146731 0.70628282427787792 -0.030509608797729012 0.96074953675270092 0.8868720829486848 -1.3063350915908811 1.1449580788612368 -0.88525277376174916 1.0626723766326907 -0.86710122227668751 0.97281771898269664 -0.94286450743675221 -1.8513686656951902 -0.99950566887855519 0.017285027541220192 -0.82400828599929798 0.97939488291740429 0.81589657068252575 1.0487791299819949 1.1951739788055422 -0.9616272747516631 -0.84001031517982472 -1.0044688582420347 0.86710393428802501 1.0701959729194643 -0.70926642417907704 1.0476158857345583 -0.93449309468269337 -1.0089097619056699 -0.83532467484474171 0.98690727353096019 0.95728963613510143 1.0227507352828982 -1.0142499804496763 0.98624432086944591 0.96420007944107067
decision_type=2 2 2 2 2 2 2 2 2 2 2 2 2 2 2 2 2 2 2 2 2 2 2 2 2 2 2 2 2 2 2 2 2 2 2 2 2 2 2 2 2 2 2 2 2 2 2 2 2 2 2 2 2 2 2 2 2 2 2
left_child=1 2 3 7 5 9 23 8 -1 -4 -9 34 -8 -7 35 31 19 24 28 20 42 50 -23 -5 25 -18 27 -16 -19 -20 -22 32 43 51 -3 53 -37 40 39 -36 45 -42 -17 56 -28 -33 -35 48 -21 -45 -6 -34 -26 -13 -49 -40 -2 -39 -59
right_child=15 11 4 6 21 13 12 10 -10 -11 -12 14 -14 -15 26 16 17 18 29 47 30 22 -24 -25 52 -27 44 -29 -30 -31 -32 37 33 46 38 36 -38 57 55 -41 41 -43 -44 49 -46 -47 -48 54 -50 -51 -52 -53 -54 -55 -56 -57 -58 58 -60
