tree
version=v4
num_class=1
num_tree_per_iteration=1
label_index=0
max_feature_idx=136
objective=binary sigmoid:1
feature_names=Column_0 Column_1 Column_2 Column_3 Column_4 Column_5 Column_6 Column_7 Column_8 Column_9 Column_10 Column_11 Column_12 Column_13 Column_14 Column_15 Column_16 Column_17 Column_18 Column_19 Column_20 Column_21 Column_22 Column_23 Column_24 Column_25 Column_26 Column_27 Column_28 Column_29 Column_30 Column_31 Column_32 Column_33 Column_34 Column_35 Column_36 Column_37 Column_38 Column_39 Column_40 Column_41 Column_42 Column_43 Column_44 Column_45 Column_46 Column_47 Column_48 Column_49 Column_50 Column_51 Column_52 Column_53 Column_54 Column_55 Column_56 Column_57 Column_58 Column_59 Column_60 Column_61 Column_62 Column_63 Column_64 Column_65 Column_66 Column_67 Column_68 Column_69 Column_70 Column_71 Column_72 Column_73 Column_74 Column_75 Column_76 Column_77 Column_78 Column_79 Column_80 Column_81 Column_82 Column_83 Column_84 Column_85 Column_86 Column_87 Column_88 Column_89 Column_90 Column_91 Column_92 Column_93 Column_94 Column_95 Column_96 Column_97 Column_98 Column_99 Column_100 Column_101 Column_102 Column_103 Column_104 Column_105 Column_106 Column_107 Column_108 Column_109 Column_110 Column_111 Column_112 Column_113 Column_114 Column_115 Column_116 Column_117 Column_118 Column_119 Column_120 Column_121 Column_122 Column_123 Column_124 Column_125 Column_126 Column_127 Column_128 Column_129 Column_130 Column_131 Column_132 Column_133 Column_134 Column_135 Column_136
feature_infos=[-1.8014661073684692:2.1873281002044678] [-1.7160434722900391:2.0962586402893066] [-1.6382262706756592:2.0136351585388184] [-1.5680137872695923:1.9394575357437134] [-1.5054070949554443:1.8737261295318604] [-1.4504051208496094:1.8164401054382324] [-1.4123568534851074:1.7937201261520386] [-1.3844102621078491:1.9274762868881226] [-1.3517893552780151:2.0758624076843262] [-1.3099035024642944:2.0974209308624268] [-1.2559221982955933:2.0165181159973145] [-1.1870334148406982:2.073509693145752] [-1.1039742231369019:2.1457490921020508] [-1.0067610740661621:2.2142360210418701] [-0.90047705173492432:2.2759943008422852] [-0.78966546058654785:2.3805651664733887] [-0.67814630270004272:2.4481546878814697] [-0.65591526031494141:2.4998569488525391] [-0.65910369157791138:2.5653238296508789] [-0.66444498300552368:2.5221147537231445] [-0.8555336594581604:2.4413206577301025] [-0.86833834648132324:2.3840618133544922] [-0.86565589904785156:2.2409591674804688] [-0.70636492967605591:2.1797337532043457] [-0.6794590950012207:2.1696581840515137] [-0.94777458906173706:2.0883691310882568] [-1.274228572845459:1.9448176622390747] [-1.700652003288269:1.7314887046813965] [-1.9202775955200195:1.5598906278610229] [-2.2033448219299316:1.3455723524093628] [-2.6534385681152344:1.1458766460418701] [-2.9375624656677246:1.0433628559112549] [-2.8964071273803711:1.0082290172576904] [-2.6209216117858887:0.99408984184265137] [-1.9672813415527344:0.99887841939926147] [-1.2877312898635864:1.096311092376709] [-0.66409575939178467:1.2523990869522095] [-0.67049169540405273:1.4357191324234009] [-0.67192721366882324:1.5244829654693604] [-0.67710685729980469:1.427788257598877] [-0.67391806840896606:1.3506048917770386] [-0.77278417348861694:1.3033223152160645] [-0.78214722871780396:1.4334096908569336] [-0.67822211980819702:1.6771683692932129] [-0.67593681812286377:1.8418123722076416] [-0.67998087406158447:1.9795904159545898] [-0.67735743522644043:1.8671952486038208] [-0.68056988716125488:1.7601110935211182] [-0.67851173877716064:1.8138210773468018] [-0.68057990074157715:2.0951991081237793] [-0.67672491073608398:2.3221406936645508] [-0.68208664655685425:2.3866791725158691] [-0.6882440447807312:2.3278176784515381] [-0.69760811328887939:2.41339111328125] [-0.68820065259933472:2.0181429386138916] [-0.66498374938964844:1.663224458694458] [-0.63047897815704346:1.3939603567123413] [-0.79989981651306152:1.3641012907028198] [-0.9627259373664856:1.3483799695968628] [-0.83332031965255737:1.3266682624816895] [-0.62303602695465088:1.3006186485290527] [-0.62908732891082764:1.5017008781433105] [-0.65896600484848022:1.6372760534286499] [-0.67422842979431152:1.5962808132171631] [-0.89532732963562012:1.2496439218521118] [-1.1747497320175171:1.0751444101333618] [-1.3727543354034424:0.99085426330566406] [-1.6710461378097534:0.88485002517700195] [-1.7223098278045654:0.75389385223388672] [-1.8329139947891235:0.60495084524154663] [-1.6504355669021606:0.45876148343086243] [-1.7446892261505127:0.33052113652229309] [-1.674402117729187:0.23037496209144592] [-1.5674382448196411:0.15855956077575684] [-1.4517455101013184:0.30397361516952515] [-1.6804615259170532:0.9557119607925415] [-1.8599822521209717:1.4404212236404419] [-2.0371255874633789:1.2026444673538208] [-2.1728529930114746:1.1285310983657837] [-2.2573421001434326:0.92254304885864258] [-2.3058340549468994:0.73609095811843872] [-2.3315773010253906:0.28676301240921021] [-2.3403120040893555:0.33890664577484131] [-2.3343968391418457:0.39074629545211792] [-2.3124566078186035:0.5232703685760498] [-2.2730567455291748:0.47703936696052551] [-2.2140905857086182:0.50853937864303589] [-2.1362462043762207:0.53271615505218506] [-2.0426793098449707:0.55223846435546875] [-1.9374580383300781:0.56802195310592651] [-1.8240519762039185:0.64887344837188721] [-1.7565661668777466:1.0685811042785645] [-1.6520191431045532:1.4172115325927734] [-1.5958865880966187:1.6290324926376343] [-1.5394163131713867:1.6652539968490601] [-1.4922878742218018:1.6182962656021118] [-1.4531639814376831:1.5607637166976929] [-1.4315723180770874:1.5597559213638306] [-1.414076566696167:1.5645072460174561] [-1.5819015502929688:1.5648646354675293] [-1.8966314792633057:1.5687597990036011] [-2.4619696140289307:1.5680602788925171] [-2.648137092590332:1.5700795650482178] [-2.5047333240509033:1.5662518739700317] [-2.1062953472137451:1.5674868822097778] [-1.4475361108779907:1.5623446702957153] [-1.2213733196258545:1.563502311706543] [-1.1215335130691528:1.561995267868042] [-1.168958306312561:1.5723429918289185] [-1.225764274597168:1.5757462978363037] [-1.369315505027771:1.5825119018554688] [-1.5627152919769287:1.5861003398895264] [-1.9974493980407715:1.5904401540756226] [-2.3280599117279053:1.5896482467651367] [-2.4821960926055908:1.5896980762481689] [-1.9469403028488159:1.5865405797958374] [-1.6131480932235718:1.5868538618087769] [-1.6282110214233398:1.7016431093215942] [-1.6828017234802246:2.5795986652374268] [-1.7428308725357056:2.8008601665496826] [-1.8188323974609375:2.5472877025604248] [-1.9280952215194702:1.7180403470993042] [-2.1567583084106445:1.6308574676513672] [-2.3918964862823486:1.6220458745956421] [-2.6616356372833252:1.8138364553451538] [-2.9659750461578369:2.1645474433898926] [-3.3559722900390625:3.0688047409057617] [-3.8750591278076172:4.2020993232727051] [0:1] [0:1] [0:1] [0:1] [0:1] [0:1] [0:1] [0:1] [0:1]
tree_sizes=6370 6318 6546 6654 6356 6884 6397 6915 6506 6070 6461 6080 6927 6781 6163 6882 6259 6839 6383 6952 6355 5747 6711 5074 5299 6948 5704 6643 6609 6690 6536 5092 6948 5657 6438 6770 6060 5545 6211 6922 6478 6405 5940 6129 6144 6331 5755 6720 5299 5370 6167 6273 6599 6089 6134 5266 5148 4710 4826 6982 6273 5005 5125 5639 6684 5973 4886 6762 5889 5201 4958 4943 5178 6937 6694 3943 5924 6411 5084 5766 5319 6576 4159 6719 6291 6212 5247 6706 6147 6689 6766 6926 6473 6169 5971 5341 6275 6966 4580 5092 6902 6949 5144 6258 6761 4389 5959 6364 6798 5957 6779 6797 6900 5631 6539 6924 6442 5269 6393 6616 5998 4698 5961 4425 6053 6478 6315 5998 6691 5022 5316 6169 5571 6704 5952 6300 6602 4635 5522 6965 6555 6371 6257 6051 5634 6953 6090 6788 6504 6598 6818 5739 5239 6138 6005 6074 5953 5759 6693 6383 6301 4848 6678 6082 6882 5975 6700 6365 6465 6572 6494 6576 4492 6378 6248 5259 6774 5809 6575 6551 5745 5779 6250 6545 5449 4386 6917 6875 6082 5416 5944 6898 5292 5722 5949 6578 6565 6475 6798 6889

Tree=0
num_leaves=59
num_cat=0
split_feature=106 31 136 83 130 129 128 131 112 82 72 31 77 72 47 133 134 136 105 134 53 31 1 80 76 103 56 74 108 91 99 55 77 90 91 102 106 107 34 115 123 31 81 113 68 1 127 33 102 105 92 32 77 72 0 0 0 0
split_gain=93974.3 29224.5 23117.4 24647.9 17803.8 15223 11891 11978.2 3984.2 3550.96 3554.29 3656.09 3187.21 3027.07 3786.72 2702.61 3679.58 2139.82 1894.4 1534.51 1257.85 1246.95 1092.17 1783.69 1063.3 1252.45 990.793 977.903 936.784 922.871 762.432 553.945 516.298 465.397 460.132 397.196 385.638 778.303 360.072 357.624 322.951 268.021 234.022 219.481 202.013 181.396 217.308 136.977 107.801 92.3179 84.1385 36.4934 30.5039 8.73942 2.84217e-14 2.84217e-14 1.42109e-14 7.10543e-15
threshold=-0.85783320665359486 1.0051347613334658 1.0000000180025095e-35 -1.1988935470581052 1.0000000180025095e-35 1.0000000180025095e-35 1.0000000180025095e-35 1.0000000180025095e-35 -0.9163001775741576 -1.3607735037803648 -0.63048315048217762 1.000524699687958 -1.300909101963043 -0.61468392610549916 1.2407589554786684 1.0000000180025095e-35 1.0000000180025095e-35 1.0000000180025095e-35 -0.85555443167686451 1.0000000180025095e-35 1.0799403786659243 1.0055459141731264 0.62383592128753673 -1.0452385544776914 -1.188123822212219 -0.87520000338554371 0.96799308061599743 -0.89874747395515431 -0.88938477635383595 -1.1947059035301206 -0.86572948098182667 0.93694773316383373 -1.1932738423347471 -1.0659708380699155 -1.0118851661682127 -0.87228804826736439 -0.87943273782730091 -0.90054506063461293 0.934514880180359 -1.1932510137557981 -1.3117065429687498 1.0135354995727541 -1.3959731459617613 -0.91320633888244618 0.088625475764274611 0.53849223256111156 -1.4779452681541441 0.92081376910209667 -0.93851605057716359 -0.81640180945396412 -1.094528019428253 0.96285191178321849 -1.2821468114852903 -0.7096617817878722 -0.39428934454917902 1.0672759413719179 0.76503390073776256 0.76503390073776256
decision_type=2 2 2 2 2 2 2 2 2 2 2 2 2 2 2 2 2 2 2 2 2 2 2 2 2 2 2 2 2 2 2 2 2 2 2 2 2 2 2 2 2 2 2 2 2 2 2 2 2 2 2 2 2 2 2 2 2 2
left_child=1 4 3 9 5 6 7 -1 13 19 11 -11 45 26 -15 16 17 27 35 42 -12 28 23 41 25 57 -5 -3 34 52 -19 -27 -30 -20 -14 -18 43 -38 51 -25 -31 -17 -2 -26 -40 46 47 -4 50 -8 -24 -7 -23 -50 -10 56 -47 -6
right_child=2 15 12 8 24 38 49 -9 54 10 20 -13 21 14 -16 22 18 30 33 -21 -22 29 48 39 36 31 -28 -29 32 40 -32 -33 -34 -35 -36 -37 37 -39 44 -41 -42 -43 -44 -45 -46 55 -48 -49 53 -51 -52 -53 -54 -55 -56 -57 -58 -59
leaf_value=-1.5055543177525945 -2.1321881313671454 -2.0077204030602385 -2.1539047534423696 -1.6982950145186497 -2.1539047534423701 -2.1186532295320686 -2.099922869315745 -1.8787120087262579 -2.1539047534423701 -1.7403416920346126 -1.9806184219101985 -2.0054136976152273 -1.679991024429287 -1.7395190947591277 -1.3298876367444197 -1.8192030021989276 -1.2184948433600276 -1.6846953688201212 -1.9291214424202503 -1.2310910954566432 -2.1038980647946901 -1.3810737617082895 -2.1539047534423701 -1.3437542105939366 -2.1129588103053929 -1.2475780344192109 -1.2328318579290993 -1.8002283080379395 -1.5729951926896166 -1.683789682198374 -1.9732557971130318 -2.1539047534423701 -1.3480919846552106 -1.5673715555176966 -1.971314452475275 -1.509771875256412 -1.7272698023463593 -2.0363608299732583 -1.4833159805201563 -1.5978216019333655 -1.8908371508714923 -2.0611463204833904 -2.0790312559060151 -1.3531868904049458 -1.9742059891112098 -2.1539047534423701 -1.3961540135941248 -1.5807042395543676 -1.1762301427229311 -1.4467493361674426 -1.4192806951252084 -1.927168619475212 -1.1711497562347009 -1.2705998420767171 -2.1539047534423701 -2.1539047534423701 -2.1539047534423701 -2.1539047534423701
leaf_weight=28792.370713047683 1914.0755118057132 1742.9490518048406 18.621121488511569 54.064794965088367 30.119409620761871 436.72663594782352 356.49180503934622 886.7064410597086 121.08816705644131 1055.3557924255729 1790.1866705939174 1026.4137843176723 380.07923917472363 912.08298975229263 299.86541560292244 216.18594209104776 63.364547714591026 393.73328720033169 157.52567471563816 20.01957294344902 1539.3220252841711 10.956345938146116 1.831585720181464 95.014930158853531 338.39131408184767 48.411401219666004 296.68250098079443 261.17565333098173 1876.3433392345905 108.06805671751499 119.31090921908617 7.8351166918873778 107.94483812898397 45.933868929743767 63.236982062458992 179.2558644041419 106.45183724164963 347.08294003456831 13.774712674319742 132.88901337236166 248.71910117566586 58.090112514793873 1459.8821704238653 3.8453693017363539 21.418176561594009 13.940402425825594 7.1109766364097586 5.3716907352209082 39.367084100842476 2.1770715564489356 10.478338733315466 10.184931166470049 18.798515796661377 13.071884281933306 2.1368500068783751 57.898459710180759 43.042264424264431 2.3403595313429824
leaf_count=120534 18449 14912 183 317 296 4158 3336 6591 1190 6574 14894 8761 2168 5675 797 1495 107 2262 1240 36 14458 34 18 264 3205 94 538 1763 8956 620 985 77 304 217 521 757 651 3056 55 663 1875 524 13396 11 177 137 23 26 52 8 36 80 24 28 21 569 423 23
internal_value=-2.04091 -1.57605 -1.88712 -1.95675 -1.54538 -1.53257 -1.52362 -1.5167 -1.60646 -2.02382 -1.97353 -1.87104 -1.64032 -1.56329 -1.63817 -1.84885 -1.88712 -1.93403 -1.62241 -2.10401 -2.03761 -1.61668 -1.64881 -1.69865 -1.98768 -1.65928 -1.30458 -1.98068 -1.59012 -1.7835 -1.7518 -1.37383 -1.56076 -1.84745 -1.72155 -1.4337 -2.02428 -1.96381 -2.09004 -1.4919 -1.82812 -1.87045 -2.10919 -2.10442 -1.78207 -2.0959 -1.88167 -2.02557 -1.26227 -2.09596 -1.52858 -2.11429 -1.24845 -1.19975 -2.1539 -2.1539 -2.1539 -2.1539
internal_weight=0 34934.5 13451.3 10491.2 31404.3 30519.9 30037.7 29679.1 1685.92 8805.26 5411.28 2081.77 2960.13 1562.7 1211.95 3530.18 2963.25 2517.17 446.08 3393.98 3329.51 2814.15 566.929 502.18 884.478 88.7063 350.747 2004.12 2427.6 386.542 513.044 56.2465 1984.29 203.46 443.316 242.62 795.771 453.535 482.104 227.904 356.787 274.276 3373.96 342.237 35.1929 145.985 31.1038 23.9928 64.7489 358.669 12.3099 446.912 29.7549 52.439 123.225 114.881 56.9827 32.4598
internal_count=268644 167675 100969 85106 142352 134939 130469 127125 8538 76568 44687 15335 15863 7327 6472 25323 22243 19922 2321 31881 29352 14502 3080 2946 7413 490 855 16675 11949 2553 3247 171 9260 1457 2689 864 6923 3707 4470 927 2495 2019 31845 3216 232 1361 232 209 134 3344 54 4238 58 80 1211 1129 560 319
is_linear=0
shrinkage=1


Tree=1
num_leaves=58
num_cat=0
split_feature=107 32 30 130 129 128 133 85 136 84 107 134 123 23 2 136 53 29 69 103 31 134 134 130 54 77 37 77 0 21 124 30 103 110 56 74 98 0 46 81 4 79 0 127 4 54 30 93 82 37 24 2 30 83 134 110 120
split_gain=35857.9 21393.8 9558.33 8284.7 8087.2 6169.88 5275.16 5033.29 8027.69 2097.51 1989.44 1882.52 1473.27 1421.01 1508.77 1352.23 1280.63 2353.38 1191.93 968.304 691.795 639.344 595.662 614.427 864.457 532.674 476.577 440.454 440.331 418.621 395.886 368.185 299.752 251.703 247.595 346.531 231.145 207.807 205.102 201.11 634.366 183.246 159.652 145.471 120.755 102.155 85.9478 80.3156 59.0205 55.3168 54.9498 55.1513 40.4829 27.2997 25.4666 15.2618 0.00179322
threshold=-0.84300845861434925 0.95205312967300426 1.0818942189216616 1.0000000180025095e-35 1.0000000180025095e-35 1.0000000180025095e-35 1.0000000180025095e-35 -1.1275402903556822 1.0000000180025095e-35 -1.2504926919937132 -0.83172816038131703 1.0000000180025095e-35 -1.0736238360404966 1.2683561444282534 0.39732432365417486 1.0000000180025095e-35 1.0548129677772524 1.1153971552848818 -0.12767959386110303 -0.91394329071044911 1.0073241591453554 1.0000000180025095e-35 1.0000000180025095e-35 1.0000000180025095e-35 1.0411615967750552 -1.2724222540855405 0.95781221985816967 -1.1278390288352964 0.46880900859832769 1.7407574653625491 -1.7013000249862669 1.1106951832771303 -0.73904323577880848 -0.92857789993286122 1.0102176666259768 -0.80806487798690785 -0.85522291064262379 0.52833265066146862 1.146340072154999 -1.3959731459617613 0.57824578881263744 -1.3588402867317197 0.42223550379276281 -1.6658718585968015 0.86622720956802379 1.0360682010650637 0.88805505633354198 -1.0997073054313657 -1.4379344582557676 0.86596974730491649 1.6920110583305361 0.74665614962577831 1.0449563860893252 -1.2504751086235044 1.0000000180025095e-35 -0.87846481800079335 -0.41348819434642786
decision_type=2 2 2 2 2 2 2 2 2 2 2 2 2 2 2 2 2 2 2 2 2 2 2 2 2 2 2 2 2 2 2 2 2 2 2 2 2 2 2 2 2 2 2 2 2 2 2 2 2 2 2 2 2 2 2 2 2
left_child=1 2 3 4 5 -1 11 8 9 33 15 12 -4 34 21 22 17 -5 -11 31 26 -15 23 41 -25 42 -10 -16 -22 30 49 -8 -18 -3 38 -36 -21 -13 -9 48 -41 -2 43 -17 50 55 -6 -44 -32 -12 53 -52 -47 -31 -51 -27 -46
right_child=10 7 6 16 46 -7 19 13 20 18 29 37 -14 14 27 25 32 -19 -20 36 28 -23 -24 24 -26 45 -28 -29 -30 44 39 -33 -34 -35 35 -37 -38 -39 -40 40 -42 -43 47 -45 56 52 -48 -49 -50 54 51 -53 -54 -55 -56 -57 -58
leaf_value=0.33822221777367845 -0.098018950935320315 -0.088185377182223149 0.15270037276885434 0.48273178971980191 0.3289772543284491 -0.055971541062897749 0.38889868567914138 0.33344904006829723 0.27481780332320055 0.17130637076563479 -0.12223455094296508 0.061312845415564948 0.011706810081190932 0.33103885640138908 0.45404861546968656 0.072780418378860678 -0.065753925128642629 0.070983662905836492 0.052752268298637009 0.25189731348436178 0.060534903618184324 0.48866668042055422 0.43449031806991312 0.2445799009874503 -0.081370385750311039 0.48636176379305962 0.16573930910943346 0.18816633245480363 0.29914396363930135 0.28210540038746595 -0.11002070344596784 0.14670816993598257 0.20469417486789304 0.0023268662068698389 0.35148569907108773 0.093882176622349781 0.086270224380253224 0.48440673895724767 0.087736429132292834 -0.06741897718993467 0.13232565208046473 0.0077653430227621473 0.19267062230749854 0.50145141568278995 -0.12067481950317988 0.085163367742296422 -0.079796128998705737 0.013336282770157415 -0.073871778785946071 0.24847518014088243 -0.1168632730898332 0.39888493114733814 0.40126833114222693 0.54086501706264278 0.43902051627189964 0.57493499319816499 -0.11718627602807311
leaf_weight=38190.891240164638 214.442347176373 349.77068737894297 3786.7802793905139 174.65414749830961 5.1989897191524497 401.23260252922773 1311.3210914060473 37.426949568092823 2662.0943265035748 1569.0614063069224 2.9938903898000744 12.475520223379133 921.44944520294666 518.9253464192152 69.582610279321671 11.936249770224093 482.90351893007755 676.43065919727087 1845.4753936752677 456.19730739295483 307.96699806302786 510.41390481591225 36.895173698663712 244.64121583849192 121.912752866745 38.025122001767159 471.49063485115767 595.70071598142385 103.27615058422089 5.7537817507982281 791.17519684880972 65.92557705193758 44.782681211829185 2526.5378229171038 124.34629889577627 90.028282254934311 103.34839102625847 167.08789590001106 367.95282166451216 1055.7915243431926 187.18668907880783 692.77454745024443 54.345098249614239 23.506649136543274 3.4313933551311493 7.473727002739909 483.01243516802788 46.206175543367863 1052.5117571055889 16.50071244686842 3.8724529668688756 4.4629135280847549 8.8476817607879621 13.992636494338514 12.200203984975817 39.83144998550415 2.5823869407176963
leaf_count=107903 2162 3151 18810 533 28 3685 3020 141 9932 8623 22 61 5453 1625 138 64 4145 5027 13306 1741 2039 733 32 1529 1179 65 2279 2914 435 24 8310 297 187 21416 440 501 507 204 2130 10259 1347 6009 279 38 25 39 4614 286 10739 54 32 14 22 25 10 39 22
internal_value=0 0.271629 0.302042 0.320508 0.329007 0.334124 0.19257 0.153272 0.122051 0.054234 -0.0154871 0.137226 0.125106 0.285957 0.333344 0.0776392 0.079593 0.15548 0.107231 0.332237 0.242402 0.409201 0.0383813 0.0269079 0.136172 0.301185 0.258405 0.215975 0.120457 -0.0610048 -0.0648152 0.377306 -0.042802 -0.00867979 0.156386 0.243303 0.221306 0.455011 0.110422 -0.0684257 -0.0373384 -0.0172393 0.174589 0.357086 0.287493 0.48399 -0.0754431 0.110261 -0.0893842 0.286804 0.374582 0.159278 0.256521 0.465467 0.329472 0.531676 -0.119177
internal_weight=0 59433.7 47283.7 40459.1 39080.3 38592.1 6824.59 12150.1 9835.67 6290.85 4693.29 4887.79 4708.23 2314.38 1694.62 1540.84 1378.77 851.085 3414.54 1936.79 3544.83 1029.34 1310.67 1273.77 366.554 230.172 3133.58 665.283 411.243 3152.46 3118.36 1377.25 527.686 2876.31 619.754 214.375 559.546 179.563 405.38 3086.67 1242.98 907.217 135.994 35.4429 34.0956 94.178 488.211 100.551 1843.69 31.6948 28.0818 8.33537 16.3214 19.7464 28.7009 77.8566 6.01378
internal_count=268644 226018 156215 126122 116230 111588 30093 69803 61181 46496 42626 24528 24263 8622 5410 11743 9892 5560 21929 5565 14685 2358 10911 10879 2708 832 12211 3052 2474 30883 30741 3317 4332 24567 3212 941 2248 265 2271 30655 11606 8171 667 102 142 165 4642 565 19049 86 95 46 61 49 64 104 47
is_linear=0
shrinkage=0.1


Tree=2
num_leaves=60
num_cat=0
split_feature=107 32 129 130 131 29 85 136 107 86 105 54 76 136 68 0 76 87 77 59 36 42 55 83 82 11 120 47 53 106 79 27 82 122 112 131 83 41 32 30 81 87 78 83 131 58 78 125 0 30 102 10 30 75 32 117 53 106 47
split_gain=20985.4 11163 5616.61 5571.05 5765.64 4742.49 2516.92 4991.73 1598.3 1281.51 880.082 1432.69 838.645 817.111 734.13 750.422 613.758 398.063 559.49 385.758 540.093 444.059 380.389 1082.96 334.639 800.971 974.91 317.527 316.887 299.024 252.952 239.98 232.407 232.387 195.163 155.802 127.043 114.104 107.554 89.86 80.0195 96.8787 74.3522 71.4039 111.687 278.444 93.5925 63.3586 145.114 60.2738 47.1629 200.718 19.4663 18.2129 9.64038 47.4879 1.62297 0.0310095 0.0245247
threshold=-0.84300845861434925 0.95334231853485119 1.0000000180025095e-35 1.0000000180025095e-35 1.0000000180025095e-35 1.2198668718338015 -1.1275402903556822 1.0000000180025095e-35 -0.83172816038131703 -1.1886471509933469 -0.86559334397315968 0.97418281435966503 -1.122657775878906 1.0000000180025095e-35 0.040041668340563781 0.29774777591228491 -1.1816865205764768 -1.1723408102989195 -1.1994948983192442 0.80107709765434276 0.93693953752517711 1.0477592945098879 1.0024521946907046 -1.3261673450469968 -1.3903501033782957 0.75193297863006603 -1.0146921277046201 1.2272405028343203 1.0898687839508059 -0.86399713158607472 -1.3682394623756406 1.1531957983970644 -1.1851606369018552 -1.4943646788597105 -1.0186445713043211 1.0000000180025095e-35 -0.71663865447044361 1.023566782474518 0.96646952629089367 0.78145989775657665 -1.3686890006065366 -1.2947131991386411 -1.1409256458282468 -1.4318735003471372 1.0000000180025095e-35 0.85983404517173778 -1.3917430639266966 -1.3685854673385618 0.44315797090530401 0.88805505633354198 -0.88468226790428151 0.78948464989662182 1.0449563860893252 -0.97844451665878285 0.96461403369903576 -0.90988767147064198 0.93236464262008678 -0.85818916559219349 1.1121478676795962
decision_type=2 2 2 2 2 2 2 2 2 2 2 2 2 2 2 2 2 2 2 2 2 2 2 2 2 2 2 2 2 2 2 2 2 2 2 2 2 2 2 2 2 2 2 2 2 2 2 2 2 2 2 2 2 2 2 2 2 2 2
left_child=1 2 3 4 5 -1 7 9 13 28 39 -12 -11 17 15 29 -6 22 -19 21 -21 -9 23 -2 43 27 37 38 -3 -8 47 -28 -20 -17 36 -24 -16 -27 -26 -5 41 -32 -36 54 46 -46 -45 58 -49 -4 56 -52 -42 -29 57 -56 -51 -10 -15
right_child=8 6 49 10 16 -7 14 19 24 12 11 -13 -14 30 34 33 -18 18 32 20 -22 -23 35 -25 25 26 31 53 -30 -31 40 -33 -34 -35 42 -37 -38 -39 -40 -41 52 -43 -44 44 45 -47 -48 48 -50 50 51 -53 -54 -55 55 -57 -58 -59 -60
leaf_value=0.24318763766370002 0.021473150908378119 0.010582040503004639 0.23185908198487801 0.36787633145917648 -0.0091893712485188375 0.065026449104830131 0.31283897759949597 0.16400582225629021 -0.11585836031916275 0.24510781815922034 0.32228942243076159 0.04326861969878381 0.072110711168189651 -0.12094394010363718 0.11261478998998611 0.35909753442618608 0.10823667078201138 0.63448490801625201 -0.11292190890613525 0.23829421881480353 0.13025811309074017 -0.0052545523599848284 -0.064031728234785479 0.39852011155396999 -0.082947975408876939 0.46836911179833501 0.20459757491620595 0.32833271170731992 -0.095021185088355262 -0.060564102077944243 0.24917584554549776 -0.044118913189897545 0.29826877337007113 0.14779212182103987 0.11053794074421781 0.1159414040665112 0.41367133024881808 0.81482636169627198 0.0016878161916162775 -0.073422220035792005 0.26973681579519132 -0.058087342194782315 0.42846197087731741 0.061117291323179737 -0.07313439245350728 0.24051681512180681 -0.086911374196882232 0.39361554369600116 0.012818089755074756 -0.08853753777048845 -0.069384622800622756 0.24408544758022555 0.36688446229898336 0.18132323781872953 -0.11063652676747276 0.26238518637625674 -0.11311251877569779 -0.11065310210860908 -0.13063265049030598
leaf_weight=52157.071308709681 652.86777634173632 3413.6560307145119 6.5453174859285346 4.6615435555577269 797.08087304234505 1538.1654536426067 938.7842812910676 1325.9217573478818 11.637307934463022 330.88504096120596 223.62381618469954 1039.2511545270681 1830.1098678633571 12.049025461077688 727.89007709175348 56.941775448620319 1008.0111137628555 25.593683980405331 30.964570112526417 1713.7220954596996 633.89531116187572 175.51738899946213 473.27690172195435 86.239246696233749 717.51871806383133 22.290807738900185 65.760593481361866 14.707548968493937 309.95142557471991 21.947573468089104 93.758763410151005 94.603353105485439 24.718457326292992 605.39519515633583 9.8452481776475889 53.543365024030209 14.292217679321764 16.57427966594696 189.88267607241869 454.84655261039734 28.635822683572769 11.522493138909338 29.095157377421856 44.723341509699821 100.53998919576406 39.393838934600353 949.70231273770332 13.301708444952963 40.407930515706539 31.146722763776779 389.95258972048759 21.555634111166 73.74149414896965 19.735552191734314 19.72480291873217 4.1268690526485434 195.8741737678647 692.02244088798761 3.3359200060367575
leaf_count=125882 5322 27427 28 13 5243 6725 1457 5110 103 1426 781 7105 11099 85 3323 101 5334 36 311 4938 2792 991 4541 265 7450 57 277 11 3121 114 253 729 39 2570 45 397 23 20 1824 4126 56 67 40 434 1067 315 10302 21 262 297 3817 147 69 63 227 34 1943 7970 19
internal_value=0 0.205081 0.22337 0.226678 0.232174 0.238084 0.117891 0.0952593 -0.0148115 0.0373423 0.0495578 0.0926763 0.0985995 0.0651112 0.209516 0.247851 0.0563844 0.0329611 0.247488 0.183805 0.209123 0.144219 0.0191878 0.0654671 -0.0580328 -0.0153913 0.166774 -0.0539248 0.00179168 0.304309 0.221615 0.0578725 0.0696113 0.165958 0.129862 -0.0457402 0.118412 0.616118 -0.0652371 -0.0689454 0.276761 0.215547 0.348082 -0.0841663 -0.0684832 0.015164 -0.0802539 0.0558752 0.107126 -0.0700558 -0.0731506 -0.0529644 0.339711 0.244098 -0.10862 -0.0460955 -0.109741 -0.110739 -0.123045
internal_weight=0 70005.6 57867.8 57222.7 55500.3 53695.2 12137.9 9733.66 4626.9 5884.6 1722.38 1262.87 2160.99 1623.96 2404.19 1623.07 1805.09 1347.2 81.2767 3849.06 2347.62 1501.44 1265.93 739.107 3002.94 1141.07 199.229 941.844 3723.61 960.732 276.753 160.364 55.683 662.337 781.123 526.82 742.182 38.8651 907.401 459.508 207.659 105.281 38.9404 1861.87 1134.36 139.934 994.426 69.0946 53.7096 645.074 638.529 411.508 102.377 34.4431 727.511 23.8517 227.021 703.66 15.3849
internal_count=268644 226018 161441 155209 143184 132607 64577 56904 42626 43073 12025 7886 12525 11743 7673 4242 10577 10911 386 13831 7730 6101 10525 5587 30883 10431 1083 9348 30548 1571 832 1006 350 2671 3431 4938 3346 77 9274 4139 445 320 85 20452 12118 1382 10736 387 283 6232 6204 3964 125 74 8334 261 2240 8073 104
is_linear=0
shrinkage=0.1


Tree=3
num_leaves=61
num_cat=0
split_feature=107 32 134 31 110 118 72 83 136 53 133 136 107 106 84 110 71 34 134 111 58 136 72 133 134 51 85 4 81 4 92 31 52 56 103 63 106 103 105 101 74 79 26 32 131 82 45 105 125 0 78 0 36 76 51 32 33 28 106 0
split_gain=13859.2 6960.49 4345.26 3331.03 3635.59 4641.14 2242.45 1912.98 3615.81 1655.97 1499.71 1661.92 1305.62 1030.61 950.465 956.875 847.606 772.349 729.34 798.394 636.795 562.855 509.864 343.454 330.385 379.581 870.042 323.063 302.993 505.288 518.219 302.78 285.269 252.103 243.354 222 217.209 207.198 190.617 189.975 173.871 156.859 111.848 101.793 99.856 60.7006 68.9798 242.852 50.273 87.9404 48.8826 51.9755 40.1708 17.1919 15.3002 10.1236 43.7994 9.96182 0.0192312 0.0184603
threshold=-0.84300845861434925 0.95205312967300426 1.0000000180025095e-35 0.99965611100196849 -1.204542279243469 -1.5884078741073606 -0.68727764487266529 -1.1710318922996519 1.0000000180025095e-35 1.1011375784873965 1.0000000180025095e-35 1.0000000180025095e-35 -0.83172816038131703 -0.86680340766906727 -1.2504926919937132 -0.92417821288108815 -0.40240307152271265 0.85336449742317211 1.0000000180025095e-35 -1.0857361555099485 0.77920913696289074 1.0000000180025095e-35 -0.59700441360473622 1.0000000180025095e-35 1.0000000180025095e-35 1.1282278895378115 -1.2860257625579832 0.41523736715316778 -1.3959731459617613 0.57824578881263744 -1.1063274145126341 1.0073241591453554 1.0706235170364382 1.0445899367332461 -0.86136147379875172 0.38871477544307714 -0.8454047143459319 -0.83799487352371205 -0.92225888371467579 -0.94972479343414296 -1.0210373401641843 -1.3682394623756406 1.2011501193046572 0.96646952629089367 1.0000000180025095e-35 -1.4379344582557676 1.1106348037719729 -0.78564047813415516 -1.3685854673385618 0.44315797090530401 -1.3134298324584959 0.46445989608764654 0.91143223643302929 -1.2669760584831236 1.1001506447792055 0.96461403369903576 0.94046834111213695 1.328771770000458 -0.85818916559219349 0.4246544241905213
decision_type=2 2 2 2 2 2 2 2 2 2 2 2 2 2 2 2 2 2 2 2 2 2 2 2 2 2 2 2 2 2 2 2 2 2 2 2 2 2 2 2 2 2 2 2 2 2 2 2 2 2 2 2 2 2 2 2 2 2 2 2
left_child=1 2 3 4 17 -6 38 8 14 13 11 -5 21 -8 35 -16 -11 -1 19 23 -12 24 32 -9 25 26 -2 -24 45 33 42 37 -20 43 -33 -3 -21 -10 57 -32 -40 48 -31 -30 -27 55 47 -47 59 -50 51 -43 -35 -48 -52 58 -57 -4 -14 -23
right_child=12 7 6 10 5 -7 9 18 31 16 20 -13 28 -15 15 -17 -18 -19 22 36 -22 41 27 -25 -26 44 -28 -29 29 30 39 34 -34 52 -36 -37 -38 -39 40 -41 -42 50 -44 -45 -46 46 53 -49 49 -51 54 -53 -54 -55 -56 56 -58 -59 -60 -61
leaf_value=0.14213240317351405 0.0034122228528443801 0.28815917534996616 -0.13801820588262653 0.012884385967757006 0.30347580878148966 0.17207074507153586 0.21294888386241906 0.059258538445256241 0.21628913984543049 0.31567052101366433 0.2103325196133263 0.14816719076474441 -0.11368073292318991 0.12380119316157288 0.059807809355272162 0.3839623798301422 0.12514167238652793 -0.091015158366695825 0.087809168586032826 0.07483343589675634 0.087194655408583552 -0.1278741712192458 0.28813335015883312 0.25016809028371484 0.28798780061728291 -0.10262238934750363 0.23913300019692918 0.09447772685045723 -0.079096449015596093 0.20020495700670116 0.085399282484395045 0.23538826471568342 0.28039835051430345 0.24558507593707826 0.044555093539479451 -0.011674080868472828 0.23589251368225772 0.1503165544931353 0.33242121094002375 0.34670500694793527 0.28660363782350878 0.14365403843868146 -0.059613927865998617 0.00029025195773735215 0.18455086149040856 -0.058637993952806847 0.13763852811368069 0.26223302780997937 0.28665879781327513 0.011433302543408273 0.28405445750396829 0.31156305720975019 0.016375357142942717 -0.099292256053609529 0.19259609574535971 0.24581213487270215 -0.10987279717995156 0.050184466670849082 -0.10953927632103155 -0.11865330374767291
leaf_weight=185.83013994991779 875.89763567596674 24.909287787973881 8.9885716289281827 2531.0121339410543 2867.6821937412024 42854.342687852681 3249.4424239695072 113.34531030058861 551.48517881333828 1564.1823301017284 1269.7811007276177 1416.1775778830051 11.415415748953817 2158.0567535161972 3399.75796739012 93.571297235786915 274.4624041467905 603.59941489994526 84.317152723670006 1298.9376718401909 627.51126717031002 2.6744569092988959 111.33427262306213 558.92259758710861 47.301893703639507 249.70857912302017 190.66834961622953 380.74229058623314 746.36904034018517 19.113392114639282 42.8303577080369 79.9436005204916 875.68216228485107 31.416861943900585 407.17756052315235 2857.9849001690745 89.504730328917503 3480.6025081276894 1302.6233436912298 79.40284726023674 2274.3722134232521 101.79139555990696 124.44859980046749 206.12451144307852 12.725443616509436 489.4113258048892 3.0848508849740019 24.781761564314365 16.234166651964188 40.752573028206825 88.730698212981224 22.512524157762527 10.105695016682146 423.16688349097967 23.041416898369789 4.2961369007825878 17.832841083407402 4.093199983239173 630.62231776118279 11.537591263651846
leaf_count=462 7365 150 46 15537 3128 107822 5995 477 1354 1327 2516 3758 113 6260 19876 360 747 2737 309 6159 1981 16 140 851 32 2672 770 1318 8244 83 184 203 1027 47 2233 24417 291 10638 1082 156 2803 297 1060 1995 72 5498 26 209 21 262 66 35 59 5008 47 31 220 14 7950 88
internal_value=0 0.165326 0.179627 0.167698 0.176639 0.180312 0.237267 0.102605 0.0819156 0.205247 0.0965412 0.0614213 -0.0142819 0.177371 0.0334169 0.0684905 0.287229 -0.0361327 0.166777 0.128528 0.169606 0.0556057 0.221059 0.21798 0.0282852 0.0190419 0.0455517 0.138293 -0.0553586 -0.0186532 0.10382 0.150343 0.263483 -0.0514019 0.0758736 -0.00908341 0.085216 0.15934 0.301895 0.255144 0.303289 0.177976 -0.0250225 -0.0619168 -0.0886973 -0.0841768 -0.0678318 -0.0431735 0.0478749 0.0898385 0.217213 0.174064 0.1898 -0.0975776 0.265201 -0.107321 -0.0408198 -0.0791308 -0.109613 -0.120389
internal_weight=0 77600.4 63192.2 52355.9 46511.5 45722 10836.2 14408.2 10895.4 7246.14 5844.48 3947.19 4548 5407.5 6376.22 3493.33 1838.64 789.43 3512.79 2060.71 1897.29 1683.58 1452.08 672.268 1376.3 1329 1066.57 492.077 2864.42 1259.81 265.795 4519.21 959.999 994.016 487.121 2882.89 1388.44 4032.09 3590.08 122.233 3577 307.275 143.562 952.494 262.434 1604.61 940.445 514.193 71.1988 56.9867 236.076 124.304 41.5226 426.252 111.772 664.167 22.129 13.0818 642.038 14.212
internal_count=268644 226018 156215 137941 114149 110950 18274 69803 59231 14329 23792 19295 42626 12255 44803 20236 2074 3199 10572 7778 4497 11743 2794 1328 10911 10879 8135 1458 30883 11828 1483 14428 1336 10345 2436 24567 6450 11992 3945 340 3885 832 1143 10239 2744 19055 10741 5707 387 283 445 332 106 5034 113 8314 251 60 8063 104
is_linear=0
shrinkage=0.1


Tree=4
num_leaves=58
num_cat=0
split_feature=107 129 128 130 131 110 107 106 56 78 32 54 54 78 128 31 32 121 81 11 124 127 54 31 72 134 136 56 117 48 78 85 27 123 53 81 68 3 31 106 28 131 110 83 45 106 31 108 42 125 76 103 122 75 32 117 106
split_gain=9717.91 5011.63 4541.76 4601.28 3987.99 2737.96 1081.88 1065.29 1839.06 751.397 590.214 459.219 422.052 664.05 328.041 350.773 302.24 284.14 276.393 403.658 343.966 267.616 231.711 218.401 212.95 201.886 261.889 196.47 179.251 163.687 150.042 138.705 138.427 131.1 115.878 159.04 109.554 102.183 95.6256 252.907 92.7602 85.5947 83.857 61.7845 69.2513 199.596 58.9641 35.4324 33.7048 24.4886 20.0832 44.8396 15.992 13.9753 9.57934 30.7816 0.0162086
threshold=-0.84300845861434925 1.0000000180025095e-35 1.0000000180025095e-35 1.0000000180025095e-35 1.0000000180025095e-35 -1.204542279243469 -0.83172816038131703 -0.83860918879508961 0.95678436756134044 -1.2925493121147154 0.96622622013092052 0.97418281435966503 1.0432583689689638 -1.3256111145019529 1.0000000180025095e-35 1.0038924217224123 0.95953050255775463 -1.1446511149406431 -1.3959731459617613 0.75511458516120922 -1.3207680583000181 -2.1704583168029781 1.0624201297760012 0.98554047942161571 -0.57033768296241749 1.0000000180025095e-35 1.0000000180025095e-35 1.0445899367332461 -1.0178778767585752 1.1865423917770388 -1.1873059272766111 -1.3688565492630003 1.1531957983970644 -1.5277709960937498 1.0846544504165652 -1.3081464171409605 0.15528734028339389 0.44950462877750402 1.009694039821625 -0.87454703450202931 0.94594916701316845 1.0000000180025095e-35 -1.0325819253921507 -1.4318735003471372 1.1106348037719729 -0.79814764857292164 1.0054071545600893 -0.84956094622611988 1.031014144420624 -1.793631851673126 -1.069510221481323 -0.67758342623710621 -1.4876688122749326 -1.1586592793464658 0.96461403369903576 -0.90988767147064198 -0.85818916559219349
decision_type=2 2 2 2 2 2 2 2 2 2 2 2 2 2 2 2 2 2 2 2 2 2 2 2 2 2 2 2 2 2 2 2 2 2 2 2 2 2 2 2 2 2 2 2 2 2 2 2 2 2 2 2 2 2 2 2 2
left_child=1 2 3 4 5 -1 12 11 -9 -6 31 -5 13 25 17 -16 40 -15 43 27 48 29 28 36 -25 26 -2 37 -23 33 34 -3 -22 -12 35 -14 -18 -20 42 -40 -4 -36 -33 54 45 -45 -42 -29 -21 -24 -32 -52 -31 -46 56 -56 -8
right_child=6 10 16 7 9 -7 18 8 -10 -11 21 -13 30 14 15 -17 23 -19 19 20 32 22 49 24 -26 -27 -28 47 -30 52 50 38 -34 -35 41 -37 -38 -39 39 -41 46 -43 -44 44 53 -47 -48 -49 -50 -51 51 -53 -54 -55 55 -57 -58
leaf_value=-0.03272119117300859 -0.057163862592137508 0.58308088629471466 0.57395793383470362 0.082933497184621743 -0.049066202738528984 0.15681046793252154 -0.11268857774369972 0.34519532189485558 0.013307748530333797 0.067465394712356366 0.26275497338542692 -0.018909372406269678 -0.013202061540561756 0.30507484060804696 -0.049296746332407604 0.30950176979826344 0.3249354259780759 0.13953684823405396 -0.10283338937393145 0.14662158791313984 0.12199152478056241 0.045559156338024424 0.066186498256979198 0.0568135752234179 -0.063347417464965847 0.25598695558811912 0.096514162795459921 0.20970583520724842 0.24032709442280709 0.15852115380429063 0.26078728221684322 0.018013405269057446 -0.051089940794928762 0.65440000953784472 -0.099290961093824626 0.29272919807807674 -0.12017530869666233 -0.03293733744551755 -0.11605839840186741 0.14811623311543445 -0.087963244660594936 0.11881340636026916 -0.081628926276158864 -0.062303237848286966 0.099510558119914286 0.13983295824639796 -0.021826908155786185 0.0026890565628389816 0.32099154718228995 -0.11297673796715285 -0.11681209239163598 0.23389155694356739 -0.11947661612741589 -0.097563373873511952 -0.10893894302387926 0.16306966915160134 -0.1085487813726463
leaf_weight=770.29099349677563 382.89378528296947 3.3172993734478942 2.2128020524978629 558.96667802333832 700.60183008760214 72490.965940058231 9.615693695843218 270.33298690617085 436.62366349250078 2632.2322131246328 29.866578541696068 2129.5018663927913 171.65919642150402 149.51821336150169 128.85963293910027 34.553854823112488 32.229504741728306 338.29676157236099 317.87189257889986 13.903972178697584 81.649601303040981 210.9527839422226 8.4191389605402929 335.93036027252674 262.91610906273127 29.505231857299805 156.09808879345655 33.413405895233154 60.892543837428093 2.719585344195365 16.036928884685043 91.622827798128128 106.45524236559868 11.973616704344751 258.99485231935978 18.859497979283333 6.6747702509164801 611.56709476560354 74.626871690154076 70.450290493667126 655.61727370321751 19.33703801035881 1080.379128061235 436.37615473568439 3.6314255818724623 55.00775220990181 169.69799272716045 10.986231856048105 54.682305298745632 81.286012917757034 5.8657563775777843 9.6325481534004158 8.6537319496273977 395.02532650530338 16.911755859851841 5.5176533088088027 575.79732935875654
leaf_count=3142 3553 13 2 3035 5242 154636 101 761 3366 14502 99 15496 1427 232 1100 201 68 1395 3850 51 302 1623 57 2520 2180 18 596 42 390 11 12 726 897 18 2941 97 50 6578 644 496 4939 108 9856 5172 31 467 1253 65 43 827 54 9 66 5071 227 34 7952
internal_value=0 0.138123 0.141705 0.144901 0.149951 0.154818 -0.0135789 0.0309881 0.140218 0.0429691 -0.0300449 0.00226505 0.0485308 0.0802575 0.149197 0.0265714 -0.0327606 0.190275 -0.0527356 -0.0176199 0.0939376 0.0740158 0.0431994 0.018974 0.00405838 0.00128575 -0.012657 -0.0470249 0.0891866 0.283393 -0.0288055 -0.0627325 0.0240385 0.374834 -0.043007 0.0170822 0.248568 -0.0568421 -0.0643591 0.0122263 -0.072631 -0.0841382 -0.0738393 -0.0815836 -0.0647997 -0.0396752 -0.0743646 0.158482 0.285643 -0.0961616 0.182336 0.101158 -0.0530018 -0.0957682 -0.10616 -0.0420246 -0.108617
internal_weight=0 83190 81454.8 79989.5 76594.1 73261.3 4448.52 3395.43 706.957 3332.83 1735.16 2688.47 1720.11 1219.73 651.228 163.413 1465.28 487.815 2728.41 1230.53 256.691 414.764 361.55 637.751 598.846 568.497 538.992 973.839 271.845 53.2135 500.386 1320.4 188.105 41.8402 468.851 190.519 38.9043 929.439 1317.08 145.077 827.528 278.332 1172 1497.88 890.041 491.384 825.315 44.3996 68.5863 89.7052 31.5352 15.4983 11.3733 398.657 607.842 22.4294 585.413
internal_count=268644 226018 211192 200180 177522 157778 42626 22658 4127 19744 14826 18531 11743 7095 2928 1301 11012 1627 30883 11828 1293 3091 2897 4818 4700 4167 4149 10535 2013 194 4648 11735 1199 117 4573 1524 118 10428 11722 1140 6194 3049 10582 19055 10741 5639 6192 107 94 884 75 63 77 5102 8314 261 8053
is_linear=0
shrinkage=0.1


Tree=5
num_leaves=63
num_cat=0
split_feature=106 107 30 15 134 105 105 133 32 136 29 134 30 118 71 55 48 136 101 59 29 55 91 76 75 0 71 134 77 59 101 35 107 54 81 3 28 79 56 24 73 74 60 51 83 3 30 70 111 4 30 70 132 71 78 131 53 75 71 36 32 54
split_gain=7411.46 3665.62 3569.94 2548.19 1971.77 2458.33 2261.94 1886.42 1574.85 2378.91 1382.13 1107.56 1032.2 913.004 891.501 1280.18 771.123 950.919 702.766 650.018 563.167 510.192 410.568 1137.76 468.181 396.705 454.683 387.188 431.916 384.835 290.348 290.062 279.93 346.59 272.409 356.082 269.309 227.636 219.294 194.948 175.107 150.9 137.039 132.203 103.524 127.002 302.629 99.9831 94.4859 89.4959 88.9042 109.659 81.8316 78.6288 75.2641 67.0037 60.8602 54.0577 20.4853 10.6608 9.55536 28.7137
threshold=-0.86316591501235951 -0.83172816038131703 1.0838195085525515 1.0946432352066042 1.0000000180025095e-35 -0.82853448390960682 -0.91057205200195301 1.0000000180025095e-35 0.94665196537971508 1.0000000180025095e-35 1.2198668718338015 1.0000000180025095e-35 1.0748807787895205 -1.5735891461372373 -0.4722746461629867 1.0147550106048586 1.2395119071006777 1.0000000180025095e-35 -1.0014036297798155 0.67140698432922374 1.2304594516754153 0.92652067542076122 -1.0453847646713255 -1.1253468394279478 -1.0577085018157957 0.24753239005804065 -0.50465628504753102 1.0000000180025095e-35 -1.2045411467552183 0.78638696670532238 -0.89749786257743824 0.88336801528930675 -0.88206544518470753 1.01097047328949 -1.3706151247024534 0.4688961803913117 1.37710577249527 -1.1759555935859678 1.0445899367332461 1.6672161817550661 -0.88026601076126088 -0.96462392807006825 0.79101818799972545 1.1206688284873965 -1.4318735003471372 0.54968371987342846 1.0476777553558352 -0.20272343605756757 -1.0892241597175596 0.75515395402908336 1.0930700302124026 -0.37826173007488245 1.0000000180025095e-35 -0.38477271795272822 -1.1409256458282468 1.0000000180025095e-35 1.0810956358909609 -1.0758411288261411 -0.56584808230400074 0.90304619073867809 0.96461403369903576 1.0246129035949709
decision_type=2 2 2 2 2 2 2 2 2 2 2 2 2 2 2 2 2 2 2 2 2 2 2 2 2 2 2 2 2 2 2 2 2 2 2 2 2 2 2 2 2 2 2 2 2 2 2 2 2 2 2 2 2 2 2 2 2 2 2 2 2 2
left_child=2 8 3 4 5 6 -1 20 11 22 12 16 18 -7 29 -16 17 -2 -5 30 27 -14 24 -24 -10 53 -27 28 -4 -6 39 -18 47 -34 44 38 37 -12 57 -9 49 -38 43 -37 60 55 -47 -11 -32 -22 51 -21 -42 -13 -29 -46 -44 -36 -52 -40 -3 -62
right_child=1 34 7 10 14 13 -8 19 9 32 36 25 21 -15 15 -17 31 -19 -20 50 40 -23 23 -25 -26 26 -28 54 -30 -31 48 -33 33 -35 35 42 41 -39 59 -41 52 -43 56 -45 45 46 -48 -49 -50 -51 58 -53 -54 -55 -56 -57 -58 -59 -60 -61 61 -63
leaf_value=0.14424342438128301 0.039675073068324795 -0.10770604799428812 -0.0074639992986444388 0.020932362222497544 0.18073381009049536 0.20594076385498725 0.082038759338895428 0.17865940523169083 0.02376694000895747 -0.029663481418673185 -0.030309993741888083 0.23609565200906851 0.14631452346147469 0.11391746484037096 0.083406606822011245 0.1886525031165498 0.20240125759727301 0.13519062701580281 0.19533811530810724 0.079771093974200222 -0.10637474470113789 0.010736805484623496 0.20946765423707547 0.024926699274433889 -0.042369522738007398 0.18144500496241753 0.061481930276617351 0.20676936417238242 0.058536299856953689 0.25313366627644912 0.0064654740749474394 -0.096432983136504447 0.061511584312539218 0.12418221760814233 0.098979573953606528 0.11609344889293145 -0.12060897093961363 0.13259632422520934 0.18284070558297671 -0.029982159111115844 0.0062651731666440863 0.091828370153294259 0.83961980682030879 -0.046709573877098384 -0.081121779644302949 0.094799525061264933 -0.074194174898170026 0.12590834729220157 0.11353809357608946 -0.023808092276155192 -0.019578364658284293 -0.041892916062380839 0.31928086940012718 0.097636819077782711 -0.0012806378602117619 0.045090676027429902 0.26112952237849879 -0.09707634729988085 -0.13738481069681893 0.074260547904533611 0.14990870212597104 -0.10986514571870339
leaf_weight=8346.1866223365068 2909.3713800013065 528.52922613173723 1357.3048317581415 235.95896656066179 3876.9592472240329 3414.9967845082283 19511.61316550523 1859.750944301486 3854.0833795368671 197.53889620304108 143.29461585730314 770.06120108067989 5311.8633458763361 1575.5654483959079 2456.8479519411922 2182.3630653321743 653.36520001292229 1624.182308383286 11085.2227146402 224.67575466632843 315.71437921375036 292.86324625462294 398.44306714832783 2068.5836239159107 1481.9299741461873 939.0544331818819 476.14676888287067 171.87755991518497 3679.4023460298777 905.6831288933754 127.13139350712299 34.18023307621479 1113.6260407045484 4250.8674182891846 14.743467643857 215.321916885674 162.07420886307955 213.69137791544199 30.823620297014713 45.888303533196449 16.58813801407814 42.128416493535042 3.23834653943777 64.916690327227116 872.27515741437674 170.57872825115919 279.75632942467928 52.234610453248024 234.31663563847542 224.72074425965548 24.384606763720512 110.52745392173529 16.821378514170647 43.322207763791084 19.345183491706848 44.193501569330692 4.1481935679912567 304.9950014129281 37.39942505210638 12.796532139182089 5.8241965323686626 15.792556457221506
leaf_count=15287 12918 7987 6284 1061 5567 3803 57781 2694 25626 834 551 495 10032 3298 6575 2671 644 3193 15593 577 1671 1165 1346 11486 11948 1393 1263 126 12833 726 399 163 3402 10448 156 1279 740 497 42 164 75 110 9 612 11110 1352 3383 146 528 992 88 481 17 102 62 421 37 3903 197 40 48 213
internal_value=0 0.0633093 0.128493 0.137103 0.123821 0.112254 0.100675 0.0677181 0.0771833 0.056713 0.169208 0.114052 0.174328 0.176888 0.164148 0.132916 0.0888605 0.0738943 0.191703 0.137379 0.0357309 0.13923 0.0209963 0.0547314 0.00539937 0.173069 0.141083 0.046053 0.0407504 0.194444 0.158049 0.187545 0.106354 0.111172 -0.0494312 0.00645949 0.0148122 0.0672055 -0.0593419 0.173635 -0.0583077 -0.0767817 0.0895868 0.0783805 -0.0684113 -0.0536678 -0.0101824 0.00287093 0.0758777 -0.0720423 0.0193376 0.0396545 0.163866 0.228721 0.185722 -0.0750356 0.514747 -0.088036 -0.0908896 0.150987 -0.105041 -0.0398743
internal_weight=0 23434.9 68223.2 59757.3 42270.2 32848.4 27857.8 8465.85 20867 13417.3 17487.1 7449.68 16925.9 4990.56 9421.85 4639.21 5221.1 4533.55 11321.2 2664.07 5801.77 5604.73 7803.04 2467.03 5336.01 2228.58 1415.2 5227.93 5036.71 4782.64 2267.09 687.545 5614.27 5364.49 2567.93 650.984 561.189 356.986 363.359 1905.64 573.845 204.203 287.625 280.239 1916.95 1366.8 450.335 249.774 361.448 540.435 396.987 335.203 33.4095 813.383 191.223 916.469 7.38654 319.738 61.784 43.6202 550.146 21.6168
internal_count=268644 115999 152645 125457 95708 80169 73068 27188 85407 65236 29749 20171 27851 7101 15539 9246 16918 16111 16654 5128 22060 11197 50406 12832 37574 3253 2656 19305 19117 6293 3785 807 14830 13850 30592 6078 1898 1048 4141 2858 2755 850 1937 1891 24514 16266 4735 980 927 2663 1343 1058 92 597 188 11531 46 4059 285 82 8248 261
is_linear=0
shrinkage=0.1


Tree=6
num_leaves=58
num_cat=0
split_feature=128 129 130 131 30 103 102 55 133 3 100 58 32 114 103 101 123 32 106 58 123 103 98 28 31 72 126 48 38 114 103 32 110 78 4 75 114 112 16 99 10 127 101 126 95 92 66 120 31 76 80 107 80 83 69 83 32
split_gain=5572.16 5282.97 3559.72 3256.74 2021.49 3169.86 1105.94 2969.45 1049.47 768.518 1201.43 741.306 573.08 508.945 494.275 477.085 410.878 291.302 195.375 194.302 317.797 273.035 175.057 173.954 137.202 203.52 204.682 130.546 126.274 124.956 87.3882 79.624 73.8987 315.312 69.171 55.4585 95.2831 126.595 149.786 88.8068 49.1262 107.477 47.8248 44.516 252.724 133.088 86.368 33.7985 11.2753 27.6699 11.0165 4.47971 0.420454 0.138381 0.0552508 0.0412071 0.00409396
threshold=1.0000000180025095e-35 1.0000000180025095e-35 1.0000000180025095e-35 1.0000000180025095e-35 1.0870630145072939 -0.85012522339820851 -0.80902722477912892 1.0070673823356631 1.0000000180025095e-35 0.58076640963554393 -0.88599365949630726 0.86407393217086803 0.96441185474395763 -0.88952302932739247 -0.81908652186393727 -0.76164311170577992 -1.3310695290565489 0.96108222007751476 -0.81578952074050892 0.88552051782608043 -1.5221572518348692 -0.75499889254569996 -0.9001946449279784 0.9926070272922517 0.98554047942161571 -0.56666085124015797 -1.7409485578536985 1.1865423917770388 0.97224074602127086 -1.0175365209579466 -0.75499889254569996 0.96855413913726818 -1.0325819253921507 -1.0582867264747617 0.59257057309150707 -1.1192606687545774 -0.93205857276916493 -0.90883436799049366 1.1212239861488345 -0.83451473712921131 0.93440178036689769 -1.3630615472793577 -0.86816087365150441 -1.6714770793914793 -0.94260504841804493 -1.0790582895278928 0.27794325351715093 -1.2934107184410093 1.0103616118431094 -1.2013139128684995 -1.3590727448463438 -0.80996367335319508 -1.382726728916168 -0.49353794753551478 -0.2060725316405296 -1.4318735003471372 0.95414561033248912
decision_type=2 2 2 2 2 2 2 2 2 2 2 2 2 2 2 2 2 2 2 2 2 2 2 2 2 2 2 2 2 2 2 2 2 2 2 2 2 2 2 2 2 2 2 2 2 2 2 2 2 2 2 2 2 2 2 2 2
left_child=1 2 3 4 5 -1 9 16 -6 22 -11 13 23 -5 -13 -9 -8 35 24 21 27 28 -4 29 47 26 -26 -21 -14 53 -27 -22 33 -25 -34 48 40 38 -38 -39 42 -42 -37 44 45 -20 -46 -19 52 56 51 -45 55 -3 -54 -2 -50
right_child=17 12 6 11 8 -7 7 15 -10 10 -12 14 19 -15 -16 -17 -18 18 43 20 31 -23 -24 32 25 30 -28 -29 -30 -31 -32 -33 34 -35 -36 36 37 39 -40 -41 41 -43 -44 50 46 -47 -48 -49 49 -51 -52 -53 54 -55 -56 -57 -58
leaf_value=0.1419768290415328 -0.1068752600680784 -0.11415317635187981 -0.11002552786958562 0.020110463015369381 0.025490511872365791 0.10054823602082728 0.25404420416271456 -0.076164201726693692 0.11344596051796352 -0.024437692447551257 0.216283059072713 0.2161756811940308 0.15112131634271095 -0.097232472193301264 0.040312097733597965 0.068471069776683768 0.096354352198620416 0.047830761112392928 -0.059882446723910555 0.23939998261563608 -0.090479129880674469 0.73353626913572068 -0.041198032197011236 0.65536093179080135 0.15429107980452289 -0.082078926564848609 0.01028757086793443 -0.075307928513932129 0.027726569666399782 0.30348970318458651 0.081928633327642955 0.002077875145271235 -0.093237351930892109 -0.041427517514248634 -0.046289055475871574 -0.1062130101099414 0.4336532457283655 -0.0750071070896976 -0.11734907219647731 0.14138680512831955 0.31448713966929959 -0.1239894951539051 -0.059724501843567146 -0.10926065389469571 0.52773591229642569 0.29566500488624409 -0.077140553612993712 0.27849775551711392 -0.11749682893851461 0.15405849174574135 0.063848826263105118 -0.077899724614351892 -0.11755038337413755 -0.14543756241653649 -0.11322089037021182 -0.10960266215126613 -0.11374852579252784
leaf_weight=33618.60188537091 133.83741801977158 8.8458019271492976 594.38995269685984 3107.4910387769341 3667.1505572497845 40983.958713814616 649.2525238096714 772.34476545453072 2153.031910456717 725.21149245649576 290.34184920042753 301.69548740983009 129.64317936450243 419.521085947752 339.82968665659428 323.61765889078379 221.64525203406811 8.4431622549891454 15.653520695865152 60.478813268244267 220.7854526117444 6.3526636809110633 976.84694627672434 6.9991435483098021 143.94683115184307 210.59197937697172 314.04077509045601 16.854254975914955 230.17128732055426 20.844765394926071 38.414337418973446 160.51936725527048 1203.9514390267432 90.053009539842606 424.46356789767742 333.18247473239899 14.030967794358732 82.504625096917152 7.6091796904802314 24.625820323824883 10.185948222875597 12.389743126928805 658.93635469675064 113.54437710344791 2.3830134719610205 32.152528867125511 250.79021792113781 25.650189399719238 6.0555528402328509 5.6400075405836096 4.3736101016402236 76.059576988220215 58.186706937849522 1.6829046458005894 59.736631453037262 94.515455484390259 5.616556741297245
leaf_count=54382 2224 99 5610 17683 12372 89213 1799 7182 4066 5299 1041 1232 841 5006 2215 1794 1321 35 204 169 2504 15 7322 17 810 1880 2541 120 1784 28 241 1517 13003 685 4066 2750 59 917 61 299 13 91 5834 1510 5 246 2929 36 48 29 39 1112 469 11 598 1215 53
internal_value=0 0.101602 0.105686 0.110322 0.114789 0.119217 0.0195579 0.0760749 0.0580274 -0.0234146 0.0443832 0.0241381 -0.0394219 0.00615309 0.123017 -0.0334561 0.213912 -0.0430389 -0.00705584 0.0293403 -0.0140276 0.0836602 -0.0672351 -0.0717045 0.0254354 0.0159867 0.0555483 0.170811 0.0721864 0.161654 -0.0567774 -0.051515 -0.0759475 0.00882302 -0.0809998 -0.0725513 -0.0617341 0.0192977 0.239908 -0.0252652 -0.0720175 0.0738472 -0.0753367 -0.0557042 -0.0316284 0.179245 -0.0714471 0.221373 -0.106571 -0.0278124 -0.0930608 -0.0966802 -0.110508 -0.119154 -0.115357 -0.108004 -0.115693
internal_weight=0 91726.6 89144.9 84591.3 80422.7 74602.6 4553.65 1966.86 5820.18 2586.79 1015.55 4168.54 2581.65 3527.01 641.525 1095.96 870.898 2743.1 1236.04 824.805 458.638 366.167 1571.24 1756.84 741.087 706.994 457.988 77.3331 359.814 31.3735 249.006 381.305 1725.47 97.0522 1628.42 1507.05 1143.47 128.771 21.6401 107.13 1014.69 22.5757 992.119 494.957 300.979 47.806 253.173 34.0934 363.588 17.3121 193.978 189.604 346.276 10.5287 117.923 228.353 11.6721
internal_count=268644 242396 217537 186169 160033 143595 31368 12096 16438 19272 6340 26136 24859 22689 3447 8976 3120 26248 11588 6950 4310 2640 12932 17909 5543 5472 3351 289 2625 138 2121 4021 17771 702 17069 14660 10024 1336 120 1216 8688 104 8584 6045 3384 450 2934 71 4636 130 2661 2622 4506 110 1067 3439 101
is_linear=0
shrinkage=0.1


Tree=7
num_leaves=63
num_cat=0
split_feature=106 30 107 72 110 119 133 31 136 127 131 30 71 48 114 134 121 104 57 54 134 128 130 110 71 134 5 78 81 4 90 108 122 122 105 31 103 30 101 58 36 0 76 56 52 119 67 39 39 3 115 72 61 82 116 35 103 40 108 106 32 117
split_gain=4558.96 2363.81 2335.89 2224.58 1826.93 2230.71 1256.54 1243.9 1305.85 1179.54 1161.35 915.595 908.893 1008.05 911.958 864.33 757.294 751.593 718.59 672.957 651.563 539.874 539.368 455.901 371.281 915.586 333.995 237.552 230.445 297.351 226.263 223.829 443.29 213.71 207.933 177.863 177.812 199.221 154.448 146.078 140.287 127.624 121.545 119.617 105.143 98.864 90.7334 134.003 104.195 90.5127 87.4656 82.0919 71.2444 65.9485 66.8441 117.643 56.9635 54.0103 21.2626 12.8762 10.4211 25.9867
threshold=-0.86399713158607472 1.0790994763374331 -0.83172816038131703 -0.6757129132747649 -1.2101149559020994 -1.6422332525253294 1.0000000180025095e-35 0.99760907888412487 1.0000000180025095e-35 -2.5281469821929927 1.0000000180025095e-35 1.0715069174766543 -0.42738105356693262 1.234368681907654 -1.3982030749320982 1.0000000180025095e-35 -0.99017569422721852 -0.80673670768737782 0.80431681871414196 0.90591099858284008 1.0000000180025095e-35 1.0000000180025095e-35 1.0000000180025095e-35 -1.204542279243469 -0.49094296991825098 1.0000000180025095e-35 0.61145392060279857 -1.2023671269416807 -1.3959731459617613 0.57824578881263744 -1.1918301582336424 -0.88898083567619313 -1.2415888905525205 -1.2346273660659788 -0.93782010674476612 1.0128276944160464 -0.90280774235725392 1.0870630145072939 -0.93264666199684132 0.81157281994819652 0.89650398492813121 0.51766648888587963 -1.0168981552124021 1.0445899367332461 1.1270285844802859 -1.4882729053497312 0.037480862811207778 0.91149356961250316 0.9731082320213319 0.43858937919139868 -1.4342722892761228 -0.41752873361110682 0.68049272894859325 -1.4379344582557676 -0.92081600427627552 0.89970529079437267 -0.88510218262672413 0.90722012519836437 -0.84956094622611988 -0.79634273052215565 0.96461403369903576 -0.90988767147064198
decision_type=2 2 2 2 2 2 2 2 2 2 2 2 2 2 2 2 2 2 2 2 2 2 2 2 2 2 2 2 2 2 2 2 2 2 2 2 2 2 2 2 2 2 2 2 2 2 2 2 2 2 2 2 2 2 2 2 2 2 2 2 2 2
left_child=1 3 7 10 40 23 15 12 24 -7 11 22 17 14 -14 16 19 21 36 -3 -13 -2 -1 -6 25 -9 -26 39 53 43 52 35 -33 -19 -29 -10 37 -8 -18 -12 51 57 -38 49 -32 -42 47 -20 -48 -30 -15 -5 -31 60 59 -56 -43 -17 -45 -55 -4 -62
right_child=2 6 28 4 5 9 18 8 31 -11 27 20 13 50 -16 41 38 33 46 -21 -22 -23 -24 -25 26 -27 -28 34 29 30 44 32 -34 -35 -36 -37 42 -39 -40 -41 45 56 -44 58 -46 -47 48 -49 -50 -51 -52 -53 -54 54 55 -57 -58 -59 -60 -61 61 -63
leaf_value=0.16429060316886912 0.097461915346081257 0.079029663518400822 -0.10674017920740481 -0.15171793534792677 0.023551602622362944 0.059843467146520779 0.17415554770780992 -0.025541546001068102 0.027439315853753261 0.10040983410305844 -0.029419160667038688 0.088340607336466898 0.18070843709530007 0.18401872816826023 0.010870912913467161 -0.1605427950621898 -0.018846439045535845 0.18386001235920174 0.00228604787810174 0.016697617042016992 0.1718759206742691 -0.093281684640598661 -0.01472485164936776 0.1832912545578182 0.0064052429572534391 0.10653045780303663 -0.058737553473969896 -0.10603793688666488 -0.10805722637984255 -0.063561712078666524 0.16323048837624873 0.15866955652963644 0.070347661096457112 -0.016453581634901307 0.16199454690132487 0.28280112242063971 -0.11720851967063793 0.11752397414616421 -0.1100031480934421 0.070347594885596082 -0.12282174205342873 0.18624262613361364 0.080210980902695253 0.15042976712914627 -0.1316823976776362 0.12158109408837897 -0.11544778793908482 0.10972710343181045 0.15851085694571454 -0.031150472247139273 0.12046901332539287 0.14060862856002268 0.46457065262994929 -0.1079332319477746 -0.094691166313598529 0.014194955008548629 0.037265012357391485 0.10169077124214305 -0.008919815154743516 -0.069893767191980274 -0.10726398717493386 0.14667885308050801
leaf_weight=10391.952525202185 4221.0665932968259 3248.1413139924407 464.85936023294926 13.027999579906462 189.10167151689529 9560.9032142460346 929.06886084377766 1009.2197179347277 1093.7686930894852 28635.739178232849 489.27162351459265 3717.3993645906448 350.03523930907249 347.93457673490047 3266.9641030877829 15.793648332357408 1329.5330453068018 1310.7856108993292 438.25164540112019 3710.8946252763271 1246.9118553549051 153.79224932193756 171.07858347892761 3237.9224571883678 3722.830659262836 1093.7858759909868 998.06151131540537 34.332451015710831 206.31146921217442 91.173854187130928 169.94898214191198 670.97342327237129 3712.3951018154621 55.516192533075809 184.38741674274206 27.973202913999557 34.6102614402771 1874.4499895274639 216.07552351057529 209.64753434062004 429.98398293554783 456.18521617352962 315.20042659342289 35.97109367698431 13.01481708139181 17.21364714205265 85.849510297179222 157.91234897077084 16.560867860913277 592.57020442932844 573.65271296352148 36.578040838241577 2.6278829872608176 173.29976030066609 165.2291512042284 248.38918426260352 27.195885986089706 15.623952582478521 10.914374209940432 182.90213808789849 13.545014817267658 5.7363691031932822
leaf_count=12396 11111 8300 7981 59 563 21287 987 7791 3380 59765 2441 7844 445 292 16484 71 5790 1691 1280 14782 1130 1226 1155 2766 24879 2269 6482 208 3146 880 376 1058 9077 344 504 60 136 3008 1078 1054 1955 324 667 42 84 46 419 332 30 7064 930 68 5 2607 2300 3040 56 23 61 2764 222 29
internal_value=0 0.0985648 0.0489378 0.107093 0.0949147 0.09719 0.0597629 0.058851 0.0374329 0.0902558 0.138284 0.144744 0.0845388 0.0510959 0.0273069 0.0393444 0.0317282 0.110977 0.107574 0.0457912 0.109323 0.0907566 0.161391 0.174477 0.00820153 0.0431499 -0.00736684 0.0289694 -0.0453714 -0.0124592 0.0775122 0.0736669 0.0838673 0.175721 0.119921 0.0338073 0.127903 0.136291 -0.0315901 0.000506839 -0.0957157 0.165167 0.0606783 -0.041901 0.142252 -0.113414 0.015808 0.0307451 -0.0711457 -0.0510117 0.144461 0.0638351 -0.0487659 -0.0748341 -0.0566475 -0.0293021 0.177861 -0.0301342 0.113335 -0.0884008 -0.103752 -0.0317139
internal_weight=0 71436.8 24985.2 58565.5 42120.5 41623.7 12871.3 22608.8 12329 38196.6 16445 15527.3 10279.7 4538.59 3617 9019.44 8504.64 5741.16 3851.9 6959.04 4964.31 4374.86 10563 3427.02 6823.9 2103.01 4720.89 917.639 2376.49 1122.53 276.766 5505.11 4383.37 1366.3 218.72 1121.74 3153.33 2803.52 1545.61 698.919 496.804 514.799 349.811 845.767 182.964 447.198 698.574 596.164 102.41 798.882 921.587 49.606 93.8017 1253.96 769.82 413.618 483.381 31.4176 46.8855 356.202 484.141 19.2814
internal_count=268644 150524 118120 113241 86509 84381 37283 87519 54996 81052 26732 22525 32523 18151 16929 30424 29950 14372 6859 23082 8974 12337 13551 3329 41421 10060 31361 4207 30601 11658 1345 13575 10135 2035 712 3440 4798 3995 6868 3495 2128 474 803 10313 460 2001 2061 1612 449 10210 1222 127 885 18943 10711 5340 380 94 103 5371 8232 251
is_linear=0
shrinkage=0.1


Tree=8
num_leaves=59
num_cat=0
split_feature=128 129 130 131 29 72 102 56 5 100 59 32 78 122 101 3 103 32 54 125 79 114 81 74 4 48 29 101 28 103 22 114 127 115 51 102 123 37 102 87 32 31 34 33 34 99 54 31 100 117 106 24 106 83 87 107 79 81
split_gain=3663.75 3598.61 2383.89 2096.94 1650.42 1707.44 803.157 1985.81 682.861 831.367 531.206 506.695 420.471 410.539 381.246 367.477 311.449 263.437 165.429 186.989 153.953 231.943 166.921 209.332 138.226 221.393 134.117 124.324 124.125 113.816 134.146 92.8614 91.2822 67.0444 63.6581 155.218 53.287 94.2719 374.182 141.228 62.2976 65.9888 49.9278 30.5493 121.31 20.139 11.2047 8.95507 21.5341 8.68563 7.50819 69.4213 6.65571 0.8356 0.135301 0.0195255 0.00163672 0.000576315
threshold=1.0000000180025095e-35 1.0000000180025095e-35 1.0000000180025095e-35 1.0000000180025095e-35 1.2198668718338015 -0.65174174308776844 -0.80902722477912892 0.9674201011657716 0.6261611580848695 -0.88599365949630726 0.81246411800384533 0.96441185474395763 -1.2976790666580198 -1.0572100877761839 -0.76164311170577992 0.46475638449192053 -0.81491374969482411 0.96108222007751476 1.0610397458076479 -1.793631851673126 -1.3611181974411009 -0.94370484352111805 -1.3128166794776914 -0.89534837007522572 0.58843520283699047 1.1070430874824526 0.9587724804878236 -0.83435174822807301 1.0950427651405337 -0.75499889254569996 1.1965911984443667 -1.0236701369285581 -2.0644888877868648 -0.97606363892555226 1.0805187821388247 -0.88468226790428151 -1.1662272214889524 0.91349592804908764 -0.79879337549209584 -1.2479975223541258 0.95394647121429454 0.98724824190139782 0.93311303853988659 0.95321613550186168 0.94677188992500316 -0.83541926741600026 1.0624201297760012 1.0103616118431094 -0.9286690056324004 -0.94192567467689503 -0.79634273052215565 1.2419958710670473 -0.83451229333877552 -1.364358603954315 -0.50528019666671742 -0.82666075229644764 -1.3505052328109739 -1.3959731459617613
decision_type=2 2 2 2 2 2 2 2 2 2 2 2 2 2 2 2 2 2 2 2 2 2 2 2 2 2 2 2 2 2 2 2 2 2 2 2 2 2 2 2 2 2 2 2 2 2 2 2 2 2 2 2 2 2 2 2 2 2
left_child=1 2 3 4 5 -1 8 15 27 -10 12 26 -5 -6 -9 -8 -12 36 29 28 43 22 33 -24 25 -23 31 -4 -20 32 -31 54 -13 -22 35 -28 37 38 39 -2 52 -42 -36 50 -45 47 -21 53 -49 -33 55 -52 -39 -38 -3 -19 -26 -46
right_child=17 11 6 10 13 -7 7 14 9 -11 16 18 -14 -15 -16 -17 -18 20 19 46 21 24 23 -25 56 -27 34 -29 -30 30 -32 49 -34 -35 42 -37 45 40 -40 -41 41 -43 -44 44 57 -47 -48 48 -50 -51 51 -53 -54 -55 -56 -57 -58 -59
leaf_value=0.1091620657926775 0.081178056998656628 -0.11472497377353515 -0.10005147763166643 -0.054436142510555369 0.055562492162195699 0.079773899798713577 -0.034123702519106985 -0.075779906746190728 -0.033150970990545016 0.1363215518658574 0.19169151219037953 0.15898723159795525 0.023797656782117701 -0.037575164146116793 0.051866392354528112 0.17953921938865935 0.034629273906160558 -0.11073990430433783 0.16844008831517493 -0.019246785606286579 -0.091682268164435254 0.58819714848481985 0.105319816667964 -0.024855735659817024 -0.11212577077507729 0.13170039113164597 -0.10976199800847225 -0.037792076336880531 -0.12961548971731451 -0.1127647438505972 0.35303033206880885 0.27920531652282377 0.029153967563417083 -0.0040609004448636547 -0.097340775786823708 0.0028581930404199588 -0.10731679391804408 -0.11777840862494926 0.49574303190371194 -0.074600223611951122 0.05122193665769801 -0.066785750596973392 -0.043590143757350326 0.92103563151240953 -0.10652387045084695 0.18611367786046096 -0.10567154219578145 -0.11756430212353111 0.095802490556872774 0.16474296099715921 -0.084505610729630865 0.40380323678714181 -0.091020424673997513 -0.11809872224891925 -0.14585514536125346 -0.10765134066825453 -0.11430624559603762 -0.108855171825087
leaf_weight=33661.193815361708 77.035126309841871 10.182126972824333 782.35223005712032 902.36039068549871 785.16208156943321 47905.052052482963 88.304074257612228 734.12941942736506 796.07120967656374 454.85653261840343 256.25877108052373 60.816619448363781 2878.2561428844929 1191.3809732496738 343.45218643173575 910.28550713509321 248.86274668574333 28.035997044295073 54.434197638183832 16.524086259305477 230.27721770480275 12.029164455831049 212.97517842426896 294.13997180759907 4.6072379052639034 90.947783879935741 211.76261705905199 543.57820194959641 18.797074880450964 8.274747032672165 24.457125276327133 12.391126304864885 494.14931718632579 140.67126278579235 933.63838574290276 289.93560854718089 186.19803848490119 224.45219258219004 13.786393553018568 238.00314360484481 55.491355545818806 324.41445814818144 212.06484767049551 1.4949912056326855 3.3895288519561286 2.3592624254524699 162.761415284127 13.686993084847929 7.2281216830015174 14.257253248244522 101.93883269280195 2.9970056489109984 158.67396398633718 117.07511100172997 1.6180349811911572 75.832841422408819 13.617092758417128 1.5431420505046847
leaf_count=55592 515 126 7134 8411 1965 97766 456 7153 6029 1924 864 230 15313 4710 1785 2702 1548 338 220 174 2570 32 1272 2181 48 716 2088 4185 117 98 125 10 3969 1309 10489 2668 3176 1818 33 1732 552 3658 2487 7 59 11 2017 111 48 30 1687 27 2057 949 11 1196 125 21
internal_value=0 0.0793023 0.0825188 0.0862143 0.089714 0.091902 0.0127654 0.059051 -0.0245269 0.0284718 0.0179935 -0.0384566 0.00512475 -0.000577156 -0.0350958 0.160645 0.11431 -0.0402839 0.0249837 -0.0427091 -0.00609997 0.0104238 -0.00747571 0.0298146 0.1401 0.185026 -0.0700747 -0.0745276 0.0919349 0.0540694 0.235275 0.114551 0.0433819 -0.0584545 -0.0743837 -0.0446778 -0.0695537 -0.0589538 -0.014193 -0.0365083 -0.0782432 -0.0495488 -0.0873918 -0.0828152 0.131914 -0.104996 -0.0977061 -0.107114 -0.0438262 0.217966 -0.0894253 -0.0705593 -0.106696 -0.111479 -0.118994 -0.108485 -0.113755 -0.107253
internal_weight=0 95007.6 92481.6 87828.5 83542.8 81566.2 4653.03 2076.17 2576.86 1250.93 4285.74 2526.06 3780.62 1976.54 1077.58 998.59 505.122 2632.9 840.215 252.517 1214.5 999.265 878.064 507.115 121.201 102.977 1685.85 1325.93 73.2313 587.698 32.7319 38.4485 554.966 370.948 1647.4 501.698 1418.4 1091.86 328.825 315.038 763.032 379.906 1145.7 215.232 6.42766 326.548 179.286 324.188 20.9151 26.6484 208.805 104.936 383.126 303.273 11.8002 103.869 18.2243 4.93267
internal_count=268644 242396 217537 186169 160033 153358 31368 12096 19272 7953 26136 24859 23724 6675 8938 3158 2412 26248 6950 2528 11588 8253 7332 3453 921 748 17909 11319 337 4422 223 177 4199 3879 17732 4756 14660 10365 2280 2247 8085 4210 12976 3335 87 4295 2191 4284 159 40 3248 1714 3875 4125 137 1534 173 80
is_linear=0
shrinkage=0.1


Tree=9
num_leaves=55
num_cat=0
split_feature=106 30 72 78 109 118 127 123 55 83 136 72 99 54 131 134 69 29 30 1 48 114 130 134 108 110 134 75 31 34 130 114 79 134 29 103 78 105 5 1 48 136 41 33 34 102 51 49 135 133 103 5 31 73
split_gain=3108.48 1902.39 1975.16 1591.49 1493 1949.09 1050.79 993.463 1157.74 853.625 1241.79 1058.13 907.464 686.333 683.206 681.044 638.111 609.472 590.996 843.244 550.621 684.07 501.173 481.141 430.479 383.128 333.447 298.142 243.613 243.199 229.098 221.334 210.724 202.959 186.716 216.102 183.171 164.984 158.428 317.393 313.433 181.096 154.23 126.153 122.005 116.444 99.1371 78.1012 53.0282 48.9467 36.8626 14.7362 0.64767 0.351026
threshold=-0.86437875032424916 1.0764949917793276 -0.6757129132747649 -1.3339286446571348 -1.1423271298408506 -1.5785353183746336 -2.5037958621978755 -1.096075654029846 0.91019970178604137 -1.1367290616035459 1.0000000180025095e-35 -0.63048315048217762 -0.84210765361785878 0.97523725032806408 1.0000000180025095e-35 1.0000000180025095e-35 -0.053919572383165353 1.2117182016372683 1.0888275504112246 0.62383592128753673 1.2395119071006777 -1.3982030749320982 1.0000000180025095e-35 1.0000000180025095e-35 -0.86799731850624073 -1.2004212141036985 1.0000000180025095e-35 -1.0858804583549497 1.0061256289482119 0.9137428104877473 1.0000000180025095e-35 -0.92771551012992848 -1.3287296891212461 1.0000000180025095e-35 1.241458058357239 -0.89987742900848378 -1.2023671269416807 -0.92990195751190174 0.65847355127334606 0.53514564037323009 1.0834099650382998 1.0000000180025095e-35 1.0563562512397768 0.84765523672103893 0.84755304455757152 -0.89938595890998829 1.1732195615768435 1.1382016539573672 1.0000000180025095e-35 1.0000000180025095e-35 -0.8718489110469817 0.67223423719406139 0.99515685439109813 -0.93272984027862538
decision_type=2 2 2 2 2 2 2 2 2 2 2 2 2 2 2 2 2 2 2 2 2 2 2 2 2 2 2 2 2 2 2 2 2 2 2 2 2 2 2 2 2 2 2 2 2 2 2 2 2 2 2 2 2 2
left_child=1 2 14 33 16 25 -7 8 18 10 11 12 -5 -13 17 20 42 22 27 -20 21 -11 -1 34 28 -6 30 -3 -12 47 -10 -19 -26 38 35 -9 45 -38 39 41 -41 -2 -4 -22 -18 -16 -31 -17 51 -36 -28 -40 53 -25
right_child=3 7 4 9 5 6 -8 23 26 15 24 13 -14 -15 36 29 44 31 19 -21 43 -23 -24 52 32 -27 50 -29 -30 46 -32 -33 -34 -35 49 -37 37 -39 48 40 -42 -43 -44 -45 -46 -47 -48 -49 -50 -51 -52 -53 -54 -55
leaf_value=0.13060663069891967 -0.058905961678320545 0.059352703047627055 -0.012997732471563215 0.031385240921204115 0.06914637012683543 0.042411656285760178 0.081177607335456023 -0.0012797373913113581 0.0050848393796106058 0.14513164067615711 0.059935669609408063 0.23558216397980331 0.14875691799435461 -0.018712926867300268 0.0378449528491831 0.0087202361362595151 0.084505559156391435 0.05039445782092751 0.0099534133902332515 0.10520849156376576 0.14279700536942605 -0.0053045195714191955 -0.018306522590682491 0.17165898409820557 0.084470291453476773 0.15728809671127236 0.15600477521530315 0.10932492267266264 -0.004546000818595645 -0.086912429259396087 -0.10879861177304638 -0.12462662645917949 0.14982879114874037 0.16747265792531954 -0.11035493628353654 -0.13041506913284054 -0.062850170082556361 0.15144155142525509 -0.070239456729140892 -0.02442058354227785 0.51019446920010636 0.030043700329387038 0.14148050560468414 -0.010725488644433505 -0.1203918022025664 -0.053158874798911217 0.17224191590452234 0.17043179503493394 0.2874151405998514 0.096465426593703107 0.039098402306190251 -0.11154307908185124 0.16376820697871158 0.18392162983670024
leaf_weight=13109.675007671118 1222.2211552448571 1649.6210184246302 112.18923522531986 5489.7928169965744 575.29247564077377 9320.8627127632499 27988.04026542604 2120.6967727690935 2766.3413372561336 391.68710032850504 4869.880606085062 108.16279792785645 748.54088469967246 5661.6256744600832 322.37743813544512 30.745594650506973 30.602685004472733 542.96320669353008 2475.6465792432427 1487.8919489607215 705.10280521214008 1324.0913202688098 229.97163401171565 38.606057658791542 1817.2799469456077 3453.9492690116167 154.1772198677063 4321.6061180233955 666.0377562046051 56.293208435177803 188.69334071874619 83.346168994903564 677.09710620343685 43.722049504518509 237.19754908978939 138.02365166693926 45.52709424495697 170.39993534982204 111.67920211702585 23.012449156492949 20.949793972074986 281.626693546772 152.45795448124409 57.921673119068146 576.71642240136862 249.36245353519917 20.007434770464897 1043.7997622787952 3.5184794664382926 12.022940978407858 32.690703898668289 381.29503253102303 38.566097050905228 59.048027157783508
leaf_count=15917 17326 3500 319 25178 1087 20441 56393 7764 10494 485 10874 140 1311 41848 1348 83 61 1189 7548 2674 670 5314 1610 23 3467 3006 122 7003 2370 218 1589 320 873 30 1250 807 250 388 1187 218 92 816 223 196 2602 1407 24 785 3 25 59 5662 24 31
internal_value=0 0.078407 0.086906 0.0379773 0.0758971 0.0786286 0.0714927 0.0476113 0.0589153 0.0453606 0.037278 0.0169206 0.0454687 -0.0139458 0.118402 0.0899829 -0.0535963 0.123513 0.0756484 0.0457117 0.0604678 0.0290379 0.128039 -0.0082927 0.0677194 0.144703 0.00600508 0.0955195 0.0521777 0.153555 -0.00218717 0.0271035 0.102212 -0.0457131 -0.0182342 -0.00917081 0.0277894 0.106259 -0.0502726 -0.0345059 0.230345 -0.0422483 0.0759941 0.131143 -0.110067 -0.00184606 -0.0189574 0.165805 -0.0994251 -0.100377 0.135553 -0.102186 0.174741 0.179074
internal_weight=0 72684.6 56963.7 25756.1 42210.1 41338.1 37308.9 15720.8 13076.7 23668.1 20038.4 12008.1 6238.33 5769.79 14753.6 3629.65 871.966 13966 9934.77 3963.54 2478.8 1715.78 13339.6 2644.16 8030.3 4029.24 3141.9 5971.23 5535.92 1150.85 2955.03 626.309 2494.38 2088.02 2507.94 2258.72 787.667 215.927 2044.3 1547.81 43.9622 1503.85 264.647 763.024 607.319 571.74 76.3006 1074.55 496.493 249.22 186.868 492.974 136.22 97.6541
internal_count=268644 149474 106561 119170 84132 80927 76834 42913 32989 93836 86061 68477 26489 41988 22429 7775 3205 19036 20725 10222 6665 5799 17527 9924 17584 4093 12264 10503 13244 1110 12083 1509 4340 25334 9846 8571 3393 638 25304 18452 310 18142 542 866 2663 2755 242 868 6852 1275 181 6849 78 54
is_linear=0
shrinkage=0.1


Tree=10
num_leaves=59
num_cat=0
split_feature=32 128 129 122 109 118 77 134 114 71 89 136 54 104 69 131 108 80 1 135 32 24 23 50 106 29 83 45 0 131 114 22 102 105 32 102 10 59 64 43 32 30 15 26 101 52 40 6 44 34 12 124 136 30 97 107 97 109
split_gain=2590.58 1919.22 1683.27 1464.93 1317.87 1376.08 765.161 540.074 684.018 516.939 498.71 724.975 452.175 561.539 296.481 256.451 238.674 272.489 200.028 163.556 153.261 198.997 150.688 133.679 134.176 112.212 103.414 114.247 98.9827 98.3335 70.6521 68.8642 250.723 101.706 262.66 40.4797 131.73 33.4042 80.9834 45.6848 29.754 58.8587 152.982 27.5598 23.9326 12.472 7.63317 47.5415 6.9851 5.47874 59.7075 3.72111 3.36679 1.61077 1.14498 0.750803 0.142315 0.0112693
threshold=0.95433855056762706 1.0000000180025095e-35 1.0000000180025095e-35 -1.0233626961708067 -1.1423271298408506 -1.5884078741073606 -1.2756226062774656 1.0000000180025095e-35 -0.93117117881774891 -0.28418135643005366 -1.0351116657257078 1.0000000180025095e-35 1.0631362795829775 -0.80317068099975575 -0.11627868935465811 1.0000000180025095e-35 -0.8660391867160796 -1.3291876316070554 0.35339069366455084 1.0000000180025095e-35 0.9579640030860902 1.2917087674140932 1.2977281212806704 1.1018886566162112 -0.8454047143459319 0.9587724804878236 -1.3870216012001035 1.0677549839019778 0.47148039937019354 1.0000000180025095e-35 -1.0236701369285581 1.3281412124633791 -0.79879337549209584 -0.85178565979003895 0.95114240050315868 -0.88468226790428151 0.78948464989662182 0.77918952703475963 0.38197225332260137 1.0795590281486513 0.95394647121429454 1.0382652878761294 0.942643702030182 1.1880381703376772 -0.80607035756111134 1.008366644382477 0.9667131006717683 0.66547742486000072 1.0320619940757754 0.90949583053588878 0.76606470346450817 -1.2622171044349668 1.0000000180025095e-35 1.0958639383316042 -1.0139432549476621 -0.84300845861434925 -0.41830340027809138 -0.86026826500892628
decision_type=2 2 2 2 2 2 2 2 2 2 2 2 2 2 2 2 2 2 2 2 2 2 2 2 2 2 2 2 2 2 2 2 2 2 2 2 2 2 2 2 2 2 2 2 2 2 2 2 2 2 2 2 2 2 2 2 2 2
left_child=1 2 3 4 9 -6 20 8 -5 -1 11 12 13 -8 18 -14 17 -13 19 -12 21 26 -20 44 -25 30 29 -28 -18 -2 56 40 33 43 -35 53 -37 46 -39 -40 49 42 -42 -33 -16 -23 47 -22 -47 55 -51 -32 -48 -27 -9 -3 -4 -43
right_child=6 31 25 7 5 -7 10 54 -10 -11 14 16 15 -15 23 -17 28 -19 22 -21 37 45 -24 24 -26 35 27 -29 -30 -31 51 32 -34 34 -36 36 -38 38 39 -41 41 57 -44 -45 -46 48 52 -49 -50 50 -52 -53 -54 -55 -56 -57 -58 -59
leaf_value=0.053166319099683862 -0.058478663719178516 -0.11684186867376876 -0.11383999986388349 0.054472030491755898 0.13502562651034561 0.072281206221960159 -0.0043677716324711574 0.1708264079150944 -0.051954412050051482 -0.10992549684065843 0.13718738514866544 -0.018176503168027935 -0.08491326688412372 0.063647294160919729 0.084756133936362041 0.17188666899748817 0.0967426740826801 0.054294864468193142 -0.07922757575228799 -0.073144155438710376 0.25768291888101569 0.10240503026966503 0.074084026167294925 0.018337495785007981 0.12258066577217891 -0.11277451685424066 0.21676753123492543 0.041651763278307913 0.21638875492211201 0.13614166110601883 0.21818029665578542 0.074548113415172923 0.30549040797851368 -0.010912231934037887 0.69232508628463607 -0.073429820250006592 0.12897708931431956 0.34013909802390163 -0.039853323682595101 -0.086618199893026937 -0.11061103281247955 -0.11332296448164031 0.94914347445079406 -0.090535416804694749 0.22047042689497071 -0.067731290746882708 -0.11201852823908753 -0.11334913090725628 -0.12722105661695884 -0.11185696846290541 0.10483560684310905 0.14553197512432245 -0.15304970114906249 -0.089436114819304663 0.1536535604595998 -0.10732176032882852 -0.14682359737208359 -0.10631742478829576
leaf_weight=305.32549406588078 155.13821104168892 176.75862376391888 9.4366221502423269 966.52101986855268 3671.8665207326412 72717.79116224125 5095.1632739305496 127.54571661353111 1609.6530506722629 534.68034514784813 915.46404585242271 596.03837652504444 697.70430704578757 1593.4931895285845 18.510914787650108 41.183268301188946 481.6224045753479 4004.6416660547256 77.037496313452721 38.526664510369301 3.9681150317192104 2.6864624619483939 382.05298533290625 1127.1652742102742 138.6654764264822 216.87188186496496 44.86440497636795 219.67817259952426 80.736401125788689 31.178749863058329 13.698879919946195 10.422413062304257 19.367903217673302 75.517683822661638 5.712972752749919 548.39253903180361 34.15656902641058 5.0994276329874983 495.89347208291292 360.94723722338676 3.6288434900343445 6.826881632208825 2.180767297744751 340.36519619449973 43.597525075078011 24.639444794505835 85.643000330775976 26.624748609960079 99.205077778548002 116.61678209528327 14.271908372640608 14.527515821158884 26.090278267860413 34.242021732032299 55.815769158303738 155.90969873219728 1.5186648666858662 3.4599868021905396
leaf_count=681 2380 1479 125 2611 3603 144289 28939 70 10909 2467 977 1823 8086 11478 39 172 845 9750 321 126 15 8 990 3611 452 2292 83 1123 78 362 13 41 34 572 8 5868 209 32 5422 6067 50 70 9 2685 38 213 956 275 856 1465 161 27 117 358 42 2795 12 65
internal_value=0 0.0682184 0.0698621 0.0713692 0.0739273 0.0752972 0.0252253 -0.000223134 -0.0120257 -0.0506449 0.0320569 0.0236417 0.00363532 0.011836 0.0707111 -0.0706 0.0524229 0.0449059 0.102593 0.128693 -0.0409965 5.68976e-05 0.0483576 0.0367848 0.0297568 -0.0682564 0.0311573 0.0713501 0.11392 -0.0259104 0.0971322 -0.0745369 -0.0465018 -0.062282 0.0385466 -0.0760296 -0.0615621 -0.0645996 -0.0571885 -0.0595532 -0.10092 0.0327383 0.287192 -0.0856305 0.180022 -0.110761 -0.109482 -0.0652236 -0.115385 -0.105561 -0.0882291 0.18079 -0.1216 -0.109592 0.165599 -0.11238 -0.118412 -0.110967
internal_weight=0 81793.1 80862 79989.2 77229.7 76389.7 16913.3 2759.54 2576.17 840.006 15331.6 12590.6 7427.54 6688.66 2741.02 738.888 5163.04 4600.68 1413.08 953.991 1581.66 577.391 459.09 1327.94 1265.83 872.845 450.86 264.543 562.359 186.317 39.1817 931.04 451.386 432.018 81.2307 833.663 582.549 1004.27 861.94 856.841 479.653 16.0965 5.80961 350.788 62.1084 126.531 142.326 30.5929 123.845 463.557 130.889 28.2264 111.733 251.114 183.361 332.668 10.9553 10.2869
internal_count=268644 183010 173576 164672 151040 147892 85634 13632 13520 3148 67725 61171 48675 40417 6554 8258 12496 11573 2414 1103 17909 5025 1311 4140 4063 8904 3948 1206 923 2742 177 9434 3340 3306 580 8727 6077 12884 11521 11489 6094 194 59 2726 77 1077 1363 290 1069 5900 1626 40 1073 2650 112 4274 137 135
is_linear=0
shrinkage=0.1


Tree=11
num_leaves=55
num_cat=0
split_feature=106 134 130 30 37 17 78 122 57 32 72 136 134 53 71 116 136 74 53 21 130 31 109 36 103 5 28 71 43 108 54 0 104 5 89 134 5 32 80 83 96 76 70 30 74 135 118 114 93 109 105 44 76 100
split_gain=2240.05 1936.17 1378.52 1290.68 1633.55 1243.51 1141.65 1037.96 1078.65 714.094 709.333 663.444 597.294 576.894 830.818 494.945 616.312 453.568 763.05 450.846 414.937 614.211 359.479 306.942 296.786 237.877 233.95 223.743 222.581 211.848 311.371 184.767 182.985 344.872 178.397 156.38 149.826 136.498 124.119 95.0756 95.0702 87.5124 76.6967 54.762 42.4917 37.2341 28.1785 25.0156 88.4946 21.6207 10.9002 9.97684 1.83873 0.032428
threshold=-0.86680340766906727 1.0000000180025095e-35 1.0000000180025095e-35 1.072567939758301 0.9622391164302827 1.2487343549728396 -1.3339286446571348 -1.0643852353096006 0.80208677053451549 0.95020177960395824 -0.56666085124015797 1.0000000180025095e-35 1.0000000180025095e-35 1.0846544504165652 -0.49094296991825098 -1.4949155449867246 1.0000000180025095e-35 -0.9836595058441161 1.0799403786659243 1.2669283747673037 1.0000000180025095e-35 0.99965611100196849 -1.1295025944709776 0.8895583748817445 -0.75981447100639332 0.65847355127334606 1.37710577249527 -0.43102549016475672 1.1416614651679995 -0.8660391867160796 1.0104307532310488 0.36123667657375341 -0.86046907305717457 0.6261611580848695 -1.1444088220596311 1.0000000180025095e-35 0.67223423719406139 0.9579640030860902 -1.3590727448463438 -1.4318735003471372 -0.85789218544960011 -1.1304599642753599 -0.27235919237136835 1.075289309024811 -1.0062906146049497 1.0000000180025095e-35 -1.2665594220161436 -0.91812196373939503 -1.1052422523498533 -0.85393592715263356 -0.87559485435485829 1.1985340714454653 -1.2541945576667783 -0.68256616592407215
decision_type=2 2 2 2 2 2 2 2 2 2 2 2 2 2 2 2 2 2 2 2 2 2 2 2 2 2 2 2 2 2 2 2 2 2 2 2 2 2 2 2 2 2 2 2 2 2 2 2 2 2 2 2 2 2
left_child=1 2 3 4 5 -1 35 8 -5 12 17 20 15 14 -14 23 -17 41 19 -19 25 -22 -6 -8 28 -11 -9 -15 31 30 -13 -12 47 40 -35 36 37 39 -31 -2 -34 44 -20 -43 -3 52 -30 50 -49 -39 -4 53 -38 -26
right_child=6 10 32 7 22 -7 9 26 -10 11 24 29 13 27 -16 16 -18 18 42 -21 21 -23 -24 -25 51 -27 -28 -29 46 38 -32 -33 33 34 -36 -37 45 49 -40 -41 -42 43 -44 -45 -46 -47 -48 48 -50 -51 -52 -53 -54 -55
leaf_value=0.064141200541231222 -0.10515460721159549 0.15605713202286142 -0.1108996858300661 0.069237894490863441 -0.098818642158975012 0.10673499874447115 -0.060692503327946859 -0.0030910305441439385 0.011278925351390799 -0.0057223955194979845 -0.050561815979113613 -0.030665850419268871 0.091275499088659978 0.1584401053419979 -0.027958084739334532 0.0075451314515145671 0.066840427154986518 -0.052387196632545187 0.16142941468223318 0.082930627147079286 0.10541483236305119 -0.013494913798899498 0.0041798348607793604 0.15784700446292249 -0.19583537220420744 -0.11379569189637669 -0.10400092835517037 0.070248181329205142 0.16918756086758016 0.046923949730855341 0.046637741655746835 0.14221663699845574 -0.083539934384033732 -0.034165434960586764 0.24694313736540718 0.14801739712036807 -0.10744427467677231 -0.10150251263801716 0.11396178316781294 0.0015769187977151874 -0.0065428614002556191 0.1234210478404264 0.12041148693813393 -0.1534084111239534 0.13021914908019189 0.18379344290614896 0.042278937051873411 -0.11479323975391208 0.23334927347444295 -0.058743842078439495 -0.07430304666287009 -0.048947248604521806 -0.12760048774734264 -0.19127053311710684
leaf_weight=29721.942852884531 92.788644980639219 1687.9431378990412 339.29013242572546 9402.8199579268694 425.30402225255966 8908.6340213268995 74.171624779701233 3495.8717665299773 4876.1788360625505 6197.1136047653854 283.11029425263405 593.0706741809845 2085.2717592865229 1074.2456136643887 811.94641362130642 4473.9818880446255 2882.1381888315082 259.21738250553608 1392.0124317258596 4909.4910067468882 866.77334813401103 870.80761759728193 1667.0256763547659 481.33904831111431 21.722796142101288 210.58560039848089 245.91191495209932 392.87365193665028 91.627454310655594 482.19232911616564 4290.6172210425138 60.308163776993752 310.17183341830969 33.701622880995274 68.383069016039371 42.054395362734795 283.81877063587308 155.21375921368599 646.44618555903435 830.24481395632029 332.01078852266073 13.002027481794359 677.83633127808571 15.865461423993109 1021.7684373408556 4.3498232662677756 21.625051274895668 25.517958991229534 10.227771095931528 496.6350546143949 107.07009255886078 5.163042038679122 53.844718988984823 54.872795850038528
leaf_count=56625 2070 1110 2746 17881 1771 11657 203 11916 15384 40263 802 1934 3167 723 2334 20564 4987 806 985 7894 4458 6860 4819 359 87 1411 1274 694 73 1065 10182 70 2201 202 149 30 5217 1927 950 7275 1524 13 783 59 924 5 40 240 20 8368 844 14 465 220
internal_value=0 0.0641917 0.0572515 0.0594422 0.0693026 0.0739638 0.0309237 0.0371598 0.0494453 0.0363825 0.103771 0.0210775 0.0540334 0.0837323 0.0578602 0.0376504 0.0307771 0.109805 0.0966903 0.0761443 0.00247913 0.0458219 -0.0167565 0.128668 -0.00803001 -0.00927417 -0.00972288 0.134824 0.0233839 0.046274 0.0372501 -0.0167077 -0.0476806 -0.0165918 0.15414 -0.0427361 -0.046921 -0.0338925 0.085321 -0.00915235 -0.0437322 0.144469 0.147997 -0.0287234 0.146314 -0.106914 0.144955 -0.0956749 -0.0151807 -0.0689252 -0.102121 -0.183496 -0.110658 -0.192565
internal_weight=0 70485.6 59970.1 58743.7 40722.9 38630.6 28392.5 18020.8 14279 26433.6 10515.6 14157.6 12276 4364.34 2897.22 7911.63 7356.12 9977.14 7238.56 5168.71 8145.28 1737.58 2092.33 555.511 538.43 6407.7 3741.78 1467.12 456.671 6012.33 4883.69 343.418 1226.37 744.267 102.085 1958.95 1916.9 1574.88 1128.64 923.033 642.183 2738.58 2069.85 28.8675 2709.71 342.013 113.253 482.106 35.7457 651.849 446.36 81.7586 337.663 76.5956
internal_count=268644 143133 129253 121327 74872 68282 125511 46455 33265 100154 13880 67123 33031 6918 5501 26113 25551 12574 10468 8700 52992 11318 6590 562 1306 41674 13190 1417 985 14131 12116 872 7926 4076 351 25357 25327 19640 2015 9345 3725 2106 1768 72 2034 5687 113 3850 260 10295 3590 321 5682 307
is_linear=0
shrinkage=0.1


Tree=12
num_leaves=63
num_cat=0
split_feature=128 129 31 29 109 117 105 134 69 54 106 32 81 101 110 28 0 32 0 127 93 127 75 94 3 70 124 5 46 7 28 49 104 109 52 102 119 31 108 88 46 27 53 107 101 15 114 44 29 33 30 72 54 73 29 80 98 86 122 77 81 31
split_gain=1876.02 1827.3 1547.19 1053.12 1069.22 1338.67 745.367 1098.38 689.333 553.619 484.555 448.252 382.271 343.706 295.206 276.509 265.316 226.258 141.288 178.262 142.221 135.83 186.086 126.239 125.268 109.143 171.917 147.354 158.692 154.994 99.1948 98.6636 96.1692 105.843 70.7141 119.593 53.901 51.7394 132.277 318.235 118.627 60.8635 82.8829 132.644 57.773 249.429 50.2698 38.2842 57.6541 16.8274 16.534 56.9492 13.2682 7.90981 6.38654 0.252026 0.112806 0.0536709 0.0468165 0.0339464 0.0177815 0.00657024
threshold=1.0000000180025095e-35 1.0000000180025095e-35 0.99965611100196849 1.2229657173156741 -1.1348521113395689 -1.5371002554893491 -0.85008791089057911 1.0000000180025095e-35 -0.0067037087865173808 1.0001756548881533 -0.95229932665824879 0.96341618895530712 -1.2467381954193113 -0.86899489164352406 -0.9280259609222411 1.37710577249527 0.67038705945014965 0.96108222007751476 0.37749719619750982 -1.9208054542541502 -0.98975354433059681 -1.767654240131378 -1.0825357437133787 -1.0551776289939878 0.83429008722305309 -0.2197117283940315 -1.7013000249862669 0.61457070708274852 1.1051270365715029 0.61267575621604931 0.9926070272922517 1.1009255051612856 -0.78253087401390065 -0.94510948657989491 1.0647154450416567 -0.88468226790428151 -1.298378527164459 1.0051347613334658 -0.88507944345474232 -1.2409732937812803 1.0923081040382387 1.1437997221946719 1.1011375784873965 -0.79008570313453663 -0.79799279570579518 0.95144191384315502 -1.0175365209579466 1.1442562341690066 1.0744672417640688 0.94809183478355419 1.0958639383316042 -0.74602699279785145 0.95099022984504711 -0.67786946892738331 1.0789965987205508 -1.2862331867218015 -0.49556615948677057 -1.3292701840400694 -1.3263228535652158 -1.2821468114852903 -1.2596035599708555 0.98624852299690258
decision_type=2 2 2 2 2 2 2 2 2 2 2 2 2 2 2 2 2 2 2 2 2 2 2 2 2 2 2 2 2 2 2 2 2 2 2 2 2 2 2 2 2 2 2 2 2 2 2 2 2 2 2 2 2 2 2 2 2 2 2 2 2 2
left_child=1 2 3 4 8 -6 7 10 -1 12 -4 30 -8 -9 -11 16 -5 37 19 20 -13 22 -20 -23 -17 27 32 28 31 -30 46 -19 61 -34 35 -32 -36 41 50 59 -41 42 43 -2 52 -46 56 48 -28 -44 58 -52 -43 -49 -21 57 -3 -29 -39 -40 -57 -27
right_child=17 11 6 15 5 -7 9 13 -10 14 -12 18 -14 -15 -16 24 -18 25 21 54 -22 23 -24 -25 -26 26 47 55 29 -31 34 -33 33 -35 36 -37 -38 38 39 40 -42 44 49 -45 45 -47 -48 53 -50 -51 51 -53 -54 -55 -56 60 -58 -59 -60 -61 -62 -63
leaf_value=0.041338495218879751 0.13823401021012757 -0.11176668693814232 0.075466361483958314 -0.018547750822223191 0.12322269536077038 0.06136946328325852 -0.061913281833447333 0.125995773306815 -0.084811056938023849 -0.0063647310675881896 0.0154477902629548 0.1740673022948388 0.096352836731959324 0.066425582314951881 0.035219161909394801 -0.096668996366503473 0.094397195266481035 -0.12182338501547288 0.3660411818403404 -0.072642349917092064 0.0037785169546939441 0.18121951724650887 0.087179103902232893 -0.058597964588494533 0.13469318949841261 -0.12375551879182776 -0.0045406635926099528 -0.10719001914117593 0.057065825872551296 -0.074939597922680554 -0.10430842534656914 0.27836521018187754 0.24722669514899762 -0.071431838707292444 0.0071560909943709427 -0.0013456196073946764 -0.095411895432225627 -0.12580752918909102 -0.10881410558766536 0.34569072732180384 -0.0010685209009672699 -0.048879351481011246 -0.11142658952692586 -0.10732781693111292 -0.095121693838642177 0.19785897827373458 0.1691448526465397 -0.11115680764869047 -0.083515056298629986 0.030646050957528721 -0.116211996621988 0.37509725498847968 -0.099481771105420086 -0.046157585514249193 -0.11323511668045108 -0.12188261556726682 -0.14307068175768542 -0.11347053403740089 -0.11702798680336948 -0.11401507644804616 -0.13089541912535915 -0.11839245996380439
leaf_weight=982.59525666385889 57.724337633699179 6.686418514698742 1640.1464296132326 909.93542763590813 3700.0369707942009 64407.779089268297 1426.6082963198423 1524.2055181860924 774.68141615018249 2695.8268718272448 7479.0104468651116 55.435776725411415 170.89641002565622 2656.9235390424728 4654.9996216036379 434.35989260673523 269.60799753665924 7.276150155812501 28.778928589075804 63.26580860465765 425.41968276724219 28.515243865549564 142.01346716657281 95.335100937634706 24.734690427780151 2.8406207486987105 210.12164533883333 21.853080708533525 371.78307893872261 116.91905958205462 186.7226243391633 40.185110773891211 42.60370472073555 13.799615010619162 54.36343614757061 284.98191538453102 890.53908072039485 6.5952798873186103 22.635241977870464 34.556862205266953 13.807739265263079 55.945689979940653 69.748564187437296 35.540487810969353 133.48205149918795 37.144335515797138 25.479170985519886 116.67426955327392 165.05089361965656 9.4684783294796926 9.5876059904694539 3.1293208301067343 702.0899550691247 22.300243109464645 100.05614447593689 3.1678292825818062 1.3905471898615358 36.05702032148838 76.805641561746597 28.164372988045216 7.0845227241516096 11.664278127253054
leaf_count=2113 405 100 2695 3193 3522 130736 7170 1430 3113 10368 26896 433 379 4751 18517 1985 634 58 163 919 3532 225 893 956 35 19 2646 374 2711 1273 2039 157 59 84 388 2643 11457 42 322 118 128 457 988 902 1614 141 28 1492 2007 60 81 12 8484 201 1073 22 10 355 635 271 40 90
internal_value=0 0.0515174 0.0537181 0.060884 0.0627426 0.0647297 0.0306881 0.0457014 -0.0142735 0.00837333 0.0262426 -0.0348468 -0.0449824 0.0881415 0.0199688 -0.0183595 0.00726805 -0.0364715 0.0189891 -0.00724744 0.0234104 0.0763499 0.134168 -0.0033825 -0.0842039 -0.00497364 -0.0357612 0.0248321 0.0424385 0.0254843 -0.0696996 0.217013 0.110206 0.169264 -0.0737249 -0.0421031 -0.0895108 -0.0653687 -0.0179305 0.0630977 0.246694 -0.0737816 -0.0192292 0.0446576 -0.0839137 -0.0313416 0.100232 -0.0558922 -0.0392841 -0.0944452 -0.101527 0.00468705 -0.0957471 -0.100727 -0.0975108 -0.113659 -0.117156 -0.111101 -0.117722 -0.111698 -0.128111 -0.119443
internal_weight=0 96141.3 93752.3 71503.7 69865.1 68107.8 22248.6 13300.3 1757.28 8948.33 9119.16 2388.98 1597.5 4181.13 7350.83 1638.64 1179.54 2485.81 938.82 644.177 480.855 294.643 170.792 123.85 459.095 1189.38 585.055 604.326 536.163 488.702 1450.16 47.4613 70.9082 56.4033 1416.61 471.705 944.903 1296.43 195.282 99.1642 48.3646 1101.14 172.482 93.2648 928.662 170.626 33.5561 514.147 375.173 79.217 96.1178 12.7169 758.036 138.975 163.322 68.1625 8.07697 57.9101 83.4009 50.7996 10.2524 14.5049
internal_count=268644 242396 217537 145331 139484 134258 72206 35772 5226 36434 29591 24859 7549 6181 28885 5847 3827 26248 8194 5957 3965 2237 1056 1181 2020 11588 6598 4990 4199 3984 16665 215 252 143 16527 4682 11845 14660 1609 839 246 13051 2355 1307 10696 1755 138 6346 4653 1048 770 93 8941 1693 1992 791 110 729 677 593 62 109
is_linear=0
shrinkage=0.1


Tree=13
num_leaves=62
num_cat=0
split_feature=106 134 130 30 104 105 74 81 57 55 72 117 72 31 53 136 74 54 72 30 105 103 133 43 98 106 80 107 55 130 34 58 24 54 82 114 30 104 70 30 53 77 118 112 31 32 54 108 44 26 64 112 32 92 125 47 106 21 68 118 100
split_gain=1604.29 1574.37 1093.94 993.015 1489.07 1435.16 978.713 884.227 797.484 649.999 609.711 816.697 589.95 500.788 500.745 462.627 431.336 610.75 478.544 421.692 320.63 242.766 204.537 183.32 172.467 164.466 164.284 150.629 252.654 147.85 150.368 112.827 104.573 78.4054 76.3967 59.0318 76.2223 84.9966 52.9662 30.4322 90.699 25.2746 23.518 16.6833 49.3816 12.3609 26.66 8.33081 8.29752 6.5014 36.1291 5.95372 2.06806 1.15858 0.257529 0.187278 0.132947 0.049392 0.0430126 0.0292947 0.0204328
threshold=-0.86680340766906727 1.0000000180025095e-35 1.0000000180025095e-35 1.0756674408912661 -0.88101035356521595 -0.8348674178123473 -1.000749886035919 -1.3959731459617613 0.78324970602989208 1.0868152379989626 -0.6273408532142638 -1.0725618600845335 -0.56666085124015797 0.99944165349006664 1.0066569447517397 1.0000000180025095e-35 -1.001656651496887 1.0551377534866335 -0.63676193356513966 1.0482071042060854 -0.88339853286743153 -0.75981447100639332 1.0000000180025095e-35 1.1416614651679995 -0.74107083678245533 -0.87943273782730091 -1.2485282421112058 -0.89482182264327992 1.0004163384437563 1.0000000180025095e-35 0.92737403512001049 0.85375604033470165 1.207841753959656 0.99331822991371166 -1.4379344582557676 -0.91706389188766468 1.0529106855392458 -0.81411626935005177 -0.27136234939098353 1.0729475021362307 1.0086117386817934 -1.3060985803604124 -1.2665594220161436 -0.948490411043167 0.99468097090721141 0.96461403369903576 1.0246129035949709 -0.87332627177238453 1.1985340714454653 1.2781551480293276 0.38197225332260137 -0.90520527958869923 0.96646952629089367 -1.1540185213088987 -2.1138209104537959 1.2407589554786684 -0.8660098910331725 1.165748715400696 -0.66726884245872486 -0.92184326052665699 -0.68256616592407215
decision_type=2 2 2 2 2 2 2 2 2 2 2 2 2 2 2 2 2 2 2 2 2 2 2 2 2 2 2 2 2 2 2 2 2 2 2 2 2 2 2 2 2 2 2 2 2 2 2 2 2 2 2 2 2 2 2 2 2 2 2 2 2
left_child=1 2 3 4 19 -6 20 34 -8 10 11 31 16 -13 26 -16 43 18 -18 -1 -5 23 29 24 -14 39 -12 28 -27 32 -31 -9 -11 -29 45 49 37 -37 -19 40 -4 -38 -25 44 -3 56 53 -45 60 52 -51 -41 -36 -47 55 -24 -2 -56 -58 -48 -23
right_child=7 12 25 6 5 -7 8 9 -10 22 14 13 21 -15 15 -17 17 38 -20 -21 -22 48 54 42 -26 27 -28 33 -30 30 -32 -33 -34 -35 35 36 41 -39 -40 51 -42 -43 -44 47 -46 46 59 -49 -50 50 -52 -53 -54 -55 57 -57 58 -59 -60 -61 -62
leaf_value=0.10145726742722455 -0.14132183773585161 -0.10528922871323987 0.033596612421243843 -0.001449033698200263 0.028464181530069251 0.085473884813186407 0.067620467144900526 0.040722185071461886 0.012058479463738149 0.093087801936687156 -0.14173031487242022 0.053916967790121964 0.01160461501323254 0.013348688925900971 -0.0073988434871747073 0.03166998343453075 0.091085709022476674 0.15041459686611117 0.03387608559098973 0.06803839265090858 -0.083301768368381907 -0.1837951244912148 -0.17297550758725139 0.14847596368904833 -0.1741439972027673 0.12940143862244866 0.22767227050447816 -0.0093868098256021312 -0.0655140830568329 -0.083010991712924295 0.2509628569984047 0.14945554996639329 0.15799643730416627 -0.10726312249466088 -0.10863093826813218 0.072002603912537572 -0.10016543550815843 -0.032823650664096066 0.11302674406390029 -0.11608391052486805 -0.090472277132044934 0.020802492085405203 0.032123082479818814 0.1414672570231563 0.14782853541531854 0.22370647785037845 -0.10479322773872053 0.098188509403630622 -0.050184004639468954 -0.11105168332373708 0.46038838955364358 -0.029400314108978039 -0.079278633963726225 0.12877456642107937 -0.15240088531700613 -0.19586416165917858 -0.11500120023044294 -0.16638985747419646 -0.10499660067618771 -0.11720558985985965 -0.18015668603983637
leaf_weight=5581.1729454025626 1.0177752673625935 10.985384494066237 72.735115952789783 4350.0766862854362 20214.496619172394 5649.9296056106687 5997.3493400588632 109.74120733141899 4537.8398599773645 658.29638301953673 13.246610239148138 6021.256161365658 282.96619014441967 6151.5460505113006 8037.7042805217206 4865.6416766420007 3978.7430569529533 1118.519437789917 2311.5982728004456 11672.796546064317 537.71753549575806 21.561307817697525 11.368490308523183 90.45291756093502 60.711644873023033 153.15652818977833 132.07945205271244 171.83205912262201 117.53752323240042 69.744028396904469 16.711590781807899 731.80991198122501 398.4354052208364 156.28361259028316 124.75613421201706 101.65586855635047 153.2737212702632 323.50858717039227 573.03241090476513 221.02419219911098 310.26048018783331 19.465572439134121 21.501277968287468 1691.7552963495255 25.83198943734169 2.1979005597531796 7.8103319741785517 45.678152173757553 5.1636121124029151 6.0950970239937297 1.3517915122210977 8.2180614918470365 29.722563285380602 3.0971944145858279 4.6738320365548116 5.2143946439027777 4.3533609099686137 5.4871793538331985 333.76599583774805 2.5132949873805037 54.318580836057663
leaf_count=7582 7 33 418 14402 46085 7968 10773 264 13122 867 80 16791 642 27061 47518 11516 5103 757 4824 18810 2585 87 47 73 230 365 82 1050 621 350 11 591 365 1297 2441 841 2401 5072 621 1929 2181 158 40 1171 17 11 187 48 14 78 13 65 648 31 22 21 55 23 7937 22 220
internal_value=0 0.0525827 0.0463603 0.0483064 0.0560958 0.0409176 0.0265297 0.0243874 0.0436882 0.0279604 0.0246872 0.0400024 0.0887049 0.0334157 0.00941233 0.00733338 0.09432 0.0844066 0.0700621 0.0788485 -0.0104538 -0.0133711 0.10088 0.0149944 -0.0212084 -0.0477136 0.194001 -0.0104509 0.0447676 0.107275 -0.0184549 0.135276 0.117561 -0.0560059 -0.0629127 -0.0450237 -0.0305184 -0.00775993 0.137749 -0.0841589 -0.0669102 -0.0865339 0.12613 0.138918 0.0723045 -0.101228 -0.0142469 0.140329 -0.172844 -0.0985839 -0.0073214 -0.112976 -0.102983 0.168179 -0.172491 -0.180173 -0.105234 -0.159955 -0.105125 -0.107815 -0.181191
internal_weight=0 70045.2 59752.4 58541.4 43118.4 25864.4 15423 28347.5 10535.2 27233 26063 13014.4 10292.8 12172.8 13048.7 12903.3 9756.14 7981.89 6290.34 17254 4887.79 536.676 1169.93 455.632 343.678 1211.05 145.326 598.81 270.694 1143.19 86.4556 841.551 1056.73 328.116 1114.59 759.829 597.904 425.164 1691.55 612.238 382.996 172.739 111.954 1774.25 36.8174 354.756 15.6187 1737.43 81.0435 161.926 7.44689 229.242 154.479 5.29509 26.7439 16.5829 339.137 10.161 338.119 10.3236 75.8799
internal_count=268644 143133 129253 121327 80445 54053 40882 125511 23895 105609 103903 44707 13880 43852 59196 59034 12574 11305 9927 26392 16987 1306 1706 985 872 7926 162 3333 986 1593 361 855 1232 2347 19902 11652 8472 5913 1378 4593 2599 2559 113 1269 50 8250 251 1219 321 3180 91 1994 3089 42 113 68 7999 45 7992 209 307
is_linear=0
shrinkage=0.1


Tree=14
num_leaves=56
num_cat=0
split_feature=108 31 37 30 73 117 30 69 76 74 105 134 79 55 0 107 72 57 101 72 0 22 112 52 104 120 88 0 29 26 114 131 73 31 134 30 52 0 104 128 103 12 26 136 122 122 71 106 32 32 20 107 29 0 84
split_gain=1380.08 1230.71 1117.64 966.503 895.166 922.698 849.627 595.275 563.238 555.878 435.065 896.281 420.776 419.811 414.313 408.1 380.815 366.418 336.961 317.21 295.587 225.503 220.777 260.247 185.089 182.618 170.176 165.521 157.708 143.656 133.573 101.007 179.682 120.024 99.9193 86.5381 71.4744 110.229 88.1148 69.4911 62.4873 161.315 87.7649 54.2058 31.6438 19.0692 125.829 7.05727 4.14147 34.5125 1.71861 0.68016 0.195811 0.0877496 0.011873
threshold=-0.84733113646507252 0.99888846278190624 0.96279838681221019 1.0848813652992251 -0.78460434079170216 -1.5321681499481199 1.0538106560707095 -0.048552194610238068 -1.2200126051902769 -0.99458670616149891 -0.85051974654197682 1.0000000180025095e-35 -1.0440683364868162 0.96827960014343273 0.58875820040702831 -0.98708921670913685 -0.65261638164520253 0.97016406059265148 -0.86899489164352406 -0.70054328441619862 0.57055637240409862 1.4398438334465029 -0.8480209708213805 1.0742998719215395 -0.78039583563804615 -1.2163946032524107 -1.2634917497634885 0.51161482930183422 1.083106577396393 0.94228759407997142 -0.87745893001556385 1.0000000180025095e-35 -0.86433973908424366 1.0011547207832339 1.0000000180025095e-35 1.0332296490669253 1.0658082365989687 0.45874184370040899 -0.88336959481239308 1.0000000180025095e-35 -0.77998819947242726 0.75964343547821056 1.1280433535575869 1.0000000180025095e-35 -1.0986644625663755 -1.0620133280754087 -0.49094296991825098 -0.86680340766906727 0.95779395103454601 0.9579640030860902 1.7294624447822573 -0.84300845861434925 1.0641472339630129 0.19482260942459109 -1.4256172776222227
decision_type=2 2 2 2 2 2 2 2 2 2 2 2 2 2 2 2 2 2 2 2 2 2 2 2 2 2 2 2 2 2 2 2 2 2 2 2 2 2 2 2 2 2 2 2 2 2 2 2 2 2 2 2 2 2 2
left_child=1 2 3 4 6 -6 -1 17 21 14 11 12 -10 19 -5 29 -15 24 -13 -12 -11 36 23 26 -4 -17 28 39 30 -9 -2 40 44 -34 -30 -19 38 -38 -3 -28 42 -42 -25 -29 -33 46 -24 51 50 -50 -49 52 -47 -48 -55
right_child=22 8 7 9 5 -7 -8 15 10 20 13 18 -14 16 -16 25 -18 35 -20 -21 -22 -23 45 31 -26 -27 27 43 34 -31 -32 32 33 -35 -36 -37 37 -39 -40 -41 41 -43 -44 -45 -46 47 53 48 49 -51 -52 -53 -54 54 -56
leaf_value=0.098885467855627407 -0.02532408230739655 0.010156556641514431 0.0042343466957281027 -0.079201626540219117 0.086623467397942161 0.039048797594422854 0.058513744176865085 0.19783655270479719 0.0098370365661140918 0.014355850406771904 0.18046956251802415 0.11088472189275425 0.059408883675775806 0.084836707128073618 0.0054286243659675479 0.011065256115758114 0.013473003772644763 0.09154935662705932 0.053806527114854369 -0.038023469366750717 0.079217999316935295 0.70934405523389699 0.39259721012464088 0.043522173561859279 0.11379721128915801 -0.056897006829177303 0.1502619864302995 -0.060739626968374899 -0.032972316604613597 -0.12237731967785931 0.4948732412776421 0.037230972840653603 0.17285035105514701 -0.11174417037856416 0.15182098663593932 0.19138004478479212 -0.05065385657636972 0.19285353696723342 -0.097988929838069727 -0.073535291779991463 -0.048742060385665975 0.22497424036639602 -0.097161367532495199 0.088209786884924826 -0.11375360341811612 -0.17394545079424856 -0.1309487039491036 -0.10590010273847501 0.39528359613601283 -0.10547189244450755 -0.14249598935544441 -0.15050745013929823 -0.20468116031018729 -0.1044401532913084 -0.10845679369714872
leaf_weight=7377.4723583720624 8.8835847862064856 88.398509580641985 1210.9610071256757 783.06355758011341 4722.5461902320385 29809.244558393955 17766.273894261569 14.407249569892882 7822.065711133182 1478.1237031370401 68.808525606989861 1623.9081888496876 2192.1918240711093 825.88125216588378 2213.9815276302397 1127.342859826982 7904.6427951902151 219.76052557677031 2848.5500912517309 1935.6454178877175 1339.100898951292 3.7429593950510016 5.8688217476010314 48.544570859521627 176.68577815592289 608.93651041388512 188.49761202931404 81.095439784228802 507.3483972530812 508.35397623479366 11.108333103358744 17.292451228946447 73.973755832761526 18.531159069389105 31.050966441631317 143.55227288976312 75.606746073812246 24.650568425655365 510.05751113593578 14.976971570402382 436.80418350733817 22.647876339033246 512.46161486208439 34.967551827430725 70.363665539771318 3.4364572167396528 1.4297321140766133 321.41932244598866 1.5369472503662098 13.170911967754362 13.366220686584709 6.9643815010786048 5.2232877239584923 24.055919112637635 10.602962359786035
leaf_count=12250 130 664 5337 2863 6496 60020 32526 13 28901 3559 120 1598 3837 2898 7201 3935 32865 404 5035 8263 2235 11 6 276 647 6628 299 380 5804 2217 17 70 477 204 20 182 621 140 4169 132 7829 233 8002 47 566 17 8 7184 28 315 82 35 24 654 170
internal_value=0 0.0421402 0.0490762 0.0522141 0.0560061 0.0455551 0.0703593 -0.00217134 0.0235455 0.0132948 0.0260054 0.0373113 0.0206887 0.0107482 -0.0166834 -0.0360919 0.0202238 0.041592 0.0745311 -0.0305231 0.0451865 -0.0647769 -0.0333376 -0.0201484 0.0181847 -0.01277 0.0212312 0.0794319 -0.012074 -0.113552 0.263719 -0.0504064 0.0186241 0.115839 -0.0223148 0.130994 -0.0689238 0.00921804 -0.0820147 0.133789 -0.0625937 -0.0352497 -0.0849878 -0.015864 -0.083968 -0.100682 -0.0368351 -0.108019 -0.10508 -0.0531438 -0.107361 -0.173773 -0.192484 -0.10667 -0.105669
internal_weight=0 95424 69499.8 65489.8 59675.5 34531.8 25143.7 4010 25924.2 5814.27 25221.7 14486.7 10014.3 10735 2997.05 2259.04 8730.52 1750.96 4472.46 2004.45 2817.22 702.456 2485.62 2078.55 1387.65 1736.28 877.929 319.538 558.391 522.761 19.9919 1200.62 180.161 92.5049 538.399 363.313 698.713 100.257 598.456 203.475 1020.46 459.452 561.006 116.063 87.6561 407.075 41.9574 365.118 349.493 14.7079 334.786 15.6241 8.65974 36.0886 34.6589
internal_count=268644 235635 146513 127150 111292 66516 44776 19363 89122 15858 83517 39371 32738 44146 10064 12793 35763 6570 6633 8383 5794 5605 33009 24486 5984 10563 6829 858 5971 2230 147 17657 1317 681 5824 586 5594 761 4833 431 16340 8062 8278 427 636 8523 838 7685 7609 343 7266 76 41 832 824
is_linear=0
shrinkage=0.1


Tree=15
num_leaves=63
num_cat=0
split_feature=128 129 31 110 118 103 32 79 110 136 0 32 3 30 34 54 28 68 114 127 115 75 36 127 6 55 124 79 111 114 77 37 36 29 52 102 120 31 108 77 27 53 125 48 101 15 2 57 114 97 36 32 30 67 101 54 35 54 73 122 6 122
split_gain=1223.54 1216.3 939.699 820.557 1048.97 977.122 415.21 282.842 265.732 219.305 259.136 218.994 167.919 174.335 139.216 118.512 154.421 175.641 118.447 105.949 162.079 116.456 88.028 159.82 148.688 157.869 113.482 97.078 101.594 82.9034 192.696 76.9548 81.5856 75.5641 61.6146 118.947 47.7419 47.1032 113.682 220.103 62.2606 75.74 94.091 61.7822 53.991 184.33 46.9668 76.5766 43.0178 40.2796 21.8748 16.7851 15.182 39.5776 13.6856 11.888 10.2426 8.49818 8.41744 4.18387 0.12936 0.0418672
threshold=1.0000000180025095e-35 1.0000000180025095e-35 1.0055459141731264 -1.2101149559020994 -1.594280958175659 -0.83269736170768727 0.96341618895530712 -1.2896250486373899 -1.2004212141036985 1.0000000180025095e-35 0.467348262667656 0.96108222007751476 0.67293727397918712 1.0930700302124026 0.82153606414794933 1.0610397458076479 1.0929099917411806 0.15122080594301227 -1.0140636563301084 -2.0526498556137081 -1.0222934484481809 -0.99476909637451161 0.94966208934783947 -1.8049644231796262 0.55510318279266369 0.9872567653656007 -1.7013000249862669 -1.1553801894187925 -0.99985551834106434 -0.94211217761039723 -1.2724222540855405 0.99369698762893688 0.89650398492813121 0.9587724804878236 1.0647154450416567 -0.88468226790428151 -1.3525950908660886 1.0051347613334658 -0.88507944345474232 -1.2590136528015134 1.1437997221946719 1.1011375784873965 -1.2396315336227415 1.1020796298980715 -0.79799279570579518 0.95144191384315502 0.41429726779460913 0.92570942640304577 -1.0236701369285581 -0.69466251134872425 0.97579419612884533 0.96004915237426769 1.0958639383316042 -0.066681519150733934 -0.74490961432456959 0.95099022984504711 0.93516868352890026 1.0624201297760012 -0.76178079843521107 -1.1460012793540952 0.10269614309072496 -1.3290254473686216
decision_type=2 2 2 2 2 2 2 2 2 2 2 2 2 2 2 2 2 2 2 2 2 2 2 2 2 2 2 2 2 2 2 2 2 2 2 2 2 2 2 2 2 2 2 2 2 2 2 2 2 2 2 2 2 2 2 2 2 2 2 2 2 2
left_child=1 2 3 31 8 -6 33 9 -5 14 -11 37 13 -9 -4 19 17 -17 -14 21 -21 -8 23 24 56 -26 27 28 -24 58 -31 32 -1 48 35 -35 -36 40 52 -40 41 42 -2 -41 55 -46 54 -48 60 -29 -33 -43 61 -54 -28 -42 -13 -18 -25 -50 -3 -39
right_child=11 6 7 4 5 -7 15 12 -10 10 -12 22 18 -15 -16 16 57 -19 -20 20 -22 -23 26 29 25 -27 46 49 -30 30 -32 50 -34 34 36 -37 -38 38 39 43 44 51 -44 -45 45 -47 47 -49 59 -51 -52 -53 53 -55 -56 -57 -58 -59 -60 -61 -62 -63
leaf_value=0.016375097376777881 0.11331780349729806 -0.14807806412656907 0.43757238293425016 0.034543794981422633 0.050493804341621443 0.028375041292150495 0.3757499453558989 0.018325751388337311 0.11909327420527774 -0.055191437834155879 0.049615976845800082 -0.12436199339759553 -0.13332434407229674 -0.049804814263725211 -0.070450841510832071 0.20133475491076813 -0.034926051275164072 -0.080177975724119166 0.126253557471633 -0.08559196529338714 0.049151948947674474 0.085491236078324553 0.24681659550452684 -0.10786960846573682 -0.060227899904257191 0.14319671961496591 -0.11193479728612227 -0.097747101488671759 -0.12434948627641446 -0.055570349676053059 0.16732211164269287 0.23976219433316084 -0.11472130707774444 -0.10720681020421281 0.001163301503411664 -0.0028634026979345306 -0.093722391600394958 -0.1241992951491378 -0.11063274304831638 0.23339077466004082 -0.050617666931977938 -0.11147884018729166 -0.11087144748690443 -0.038121332336728347 -0.093047768020542931 0.14929860290861643 -0.094090849185988118 0.0062984883256601834 0.1791670826960286 0.25537356923108323 0.0095519891441430832 0.029431309120105761 -0.11552572252863701 0.26296951257121881 -0.048536954266596155 -0.098429048825012258 0.022009029038780145 -0.10561422258904417 0.012765665913371645 0.10090243895999929 -0.11266757429610622 -0.11561588707356177
leaf_weight=54.101914897561073 62.67640976421535 1.1852829083800296 5.429290145635604 445.83561347424984 49093.299402976409 33669.923340884969 17.141457587480545 4426.4453959316015 2236.2480943202972 425.43965849280357 529.5434081107378 33.868924591690302 19.315967887639999 410.3995213508606 833.01221472769976 46.125266186892986 19.244490370154381 42.662053119391203 195.45955850929022 109.30318537354469 487.08645173721015 71.39269832894206 37.294159568846226 96.184825364500284 46.920248482376337 204.0907616019249 111.51873229444027 27.075710207223896 9.1920853033661825 128.61632067896426 55.533919516950846 8.0104264765977877 387.34401802718639 176.40431058779359 56.669666279107332 286.98853107169271 824.99451746232808 6.170005500316619 45.274301441386342 46.769550316035748 56.494117552414536 61.177757009863853 26.693503051996231 10.210429027676581 122.85448852740228 42.154029130935669 113.74722007289529 228.87084941379726 11.327269505709411 3.6678607463836661 8.5153132639825326 9.8089267723262292 9.0191078558564168 3.9825893193483344 49.015639539808035 654.47691994719207 5.5665252618491641 146.29017347097397 6.1541191693395367 17.205288592725992 7.9598818626254797 71.951583363115788
leaf_count=128 497 7 5 841 96601 87201 64 16550 1932 1559 1257 278 67 1819 7254 219 203 497 330 816 4076 276 35 863 316 1142 1434 176 66 2223 276 13 1945 2034 398 2643 11413 41 589 158 457 950 810 92 1614 141 1205 2805 9 2 35 98 80 13 657 8484 48 2043 62 31 130 636
internal_value=0 0.0381434 0.0399331 0.0427745 0.04349 0.0414954 -0.0333427 0.00427502 0.105039 -0.029841 0.00292486 -0.0343443 0.0163869 0.012545 -0.0671612 0.0179652 -0.0403284 0.0660687 0.102908 0.0396104 0.0244568 0.141689 -0.0031222 0.0245394 0.0768118 0.105172 -0.0306195 0.0822466 0.173423 -0.028455 0.011647 -0.0907234 -0.0986546 -0.0681945 -0.072107 -0.0425848 -0.0876235 -0.0637284 -0.0184208 0.0539589 -0.0721826 -0.0148951 0.0463557 0.184738 -0.0826697 -0.0311366 -0.0479436 -0.0270302 0.0714798 -0.0556181 0.12114 -0.0920079 -0.0996419 0.000412302 -0.0925777 -0.0946299 -0.103701 -0.0973963 -0.100615 0.131973 -0.117257 -0.116294
internal_weight=0 95070.3 92748.3 85903.3 85445.3 82763.2 2321.98 6845.05 2682.08 1793.42 954.983 2387.03 5051.62 4836.84 838.442 939.246 254.322 88.7873 214.776 684.924 596.39 88.5342 1157.32 576.936 290.446 251.011 580.382 77.2298 46.4862 286.489 184.15 457.972 441.446 1382.73 1345.06 463.393 881.664 1229.71 193.378 102.254 1036.34 160.357 89.3699 56.98 875.98 165.009 503.152 342.618 37.6777 30.7436 16.5257 70.9867 91.1233 13.0017 160.534 710.971 39.4354 165.535 102.339 28.5326 9.14516 78.1216
internal_count=268644 242396 217537 188696 186575 183802 24859 28841 2773 10075 2816 26248 18766 18369 7259 8194 2962 716 397 5232 4892 340 11588 5208 1784 1458 6380 279 101 3424 2499 2121 2073 16665 16488 4677 11811 14660 1609 839 13051 2355 1307 250 10696 1755 6101 4010 177 178 48 1048 770 93 2091 8941 326 2246 925 40 137 677
is_linear=0
shrinkage=0.1


Tree=16
num_leaves=57
num_cat=0
split_feature=106 134 130 29 32 106 108 77 74 55 96 42 71 101 54 71 30 34 96 134 28 123 57 103 83 62 133 104 5 130 34 108 3 69 0 31 51 100 76 30 134 74 4 30 135 110 54 29 3 41 114 77 66 125 47 21
split_gain=1051.6 1333.64 856.549 791.098 1173.74 973.645 827.189 593.103 523.158 494.046 585.522 695.72 662.485 502.792 425.808 635.204 325.581 322.459 356.355 262.573 245.302 230.576 226.657 208.823 197.805 178.735 167.523 150.314 240.494 126.177 120.434 110.07 108.917 96.5169 95.3235 95.2087 134.572 84.3346 77.3531 71.7892 57.8736 47.5227 159.825 43.7155 26.2276 21.4101 38.8632 9.47992 9.07108 8.567 5.05291 3.24615 2.05604 0.179546 0.105638 0.0407466
threshold=-0.86680340766906727 1.0000000180025095e-35 1.0000000180025095e-35 1.2198668718338015 0.86574310064315807 -0.96321347355842579 -1.0703623890876768 -1.2896199226379392 -0.9836595058441161 1.0868152379989626 -0.97348591685295094 1.0062100887298586 -0.48227867484092707 -0.85545229911804188 1.040138363838196 -0.41491363942623133 1.075289309024811 0.90949583053588878 -0.83043450117111195 1.0000000180025095e-35 1.37710577249527 -1.2447840571403501 0.69847121834754955 -0.75824198126792897 -1.1783679723739622 0.51683741807937633 1.0000000180025095e-35 -0.86046907305717457 0.6261611580848695 1.0000000180025095e-35 0.92737403512001049 -0.89919710159301747 0.83429008722305309 0.072196859866380705 0.25585919618606573 0.99922031164169323 1.0980805158615115 -0.93927699327468861 -1.1304599642753599 1.0341122746467593 1.0000000180025095e-35 -1.0062906146049497 0.68564811348915111 1.075289309024811 1.0000000180025095e-35 -0.90255558490753163 0.93413928151130687 1.1503516435623171 0.64009529352188121 0.9056718945503236 -0.99657058715820301 -1.311813950538635 0.11659353598952295 -2.1138209104537959 1.2407589554786684 1.165748715400696
decision_type=2 2 2 2 2 2 2 2 2 2 2 2 2 2 2 2 2 2 2 2 2 2 2 2 2 2 2 2 2 2 2 2 2 2 2 2 2 2 2 2 2 2 2 2 2 2 2 2 2 2 2 2 2 2 2 2
left_child=1 2 3 4 6 -6 -1 19 38 10 16 13 -13 -12 17 34 21 18 -10 25 22 -9 -5 -17 -19 44 29 45 39 33 -31 -30 -22 -11 -16 36 -27 -37 41 -29 -18 49 -43 -40 51 47 -47 -4 52 -3 -45 -2 -21 54 -28 -55
right_child=7 8 27 20 5 -7 -8 9 14 26 11 12 -14 -15 15 23 40 24 -20 48 32 -23 -24 -25 -26 35 53 28 31 30 -32 -33 -34 -35 -36 37 -38 -39 43 -41 -42 42 -44 50 -46 46 -48 -49 -50 -51 -52 -53 -54 55 -56 -57
leaf_value=-0.072255929415629458 -0.10643652818992638 0.11517817945288072 -0.083299935798970604 0.0060967468695392385 0.063028704231260058 0.02344428926352779 0.070609215949106463 0.16800206012209074 0.054420426070998576 0.11920569210325088 -0.0071732314308963138 0.068869478534913195 0.0085677369276909842 -0.12235686734246148 0.13636173904623788 0.019645798285583081 -0.07900921305746017 -0.14584794356422776 -0.1556733243313419 0.16754267616958701 -0.10023475796476498 0.049272991784245913 -0.11911727050342358 -0.16291026260774502 0.0026293319668653013 0.024275723988667248 -0.16572065739525016 -0.12559148938036924 0.17150159007771346 -0.081944234406994443 0.21118765023520028 -0.052299316360312535 0.10702999173534636 0.047886206622813433 0.095460165591362833 0.26308701886279867 -0.062333379287411408 -0.060861530624919925 0.09295363726063241 -0.031622458587002217 0.058374172508103173 0.10491255022512587 -0.16096189273347761 -0.20031821450052678 0.11198953222470383 0.02253084921005543 -0.11475568114291844 -0.11639168194566768 0.07732364210146403 0.13209121524473319 -0.078576840931520953 -0.12667927836012866 0.13177433770741778 -0.14706465001994556 -0.18302365452877961 -0.1599825123063417
leaf_weight=420.03189892321825 207.40316018648446 419.76785488426685 134.53723577409983 1449.790713544935 7500.3747475482523 36222.153868991882 11537.47520532459 169.40043707191944 4096.8034605979919 756.94701051898301 931.06228668987751 2050.5062739085406 16338.996437786147 639.10952458530664 1059.8186014294624 506.39900048077106 228.77091478556395 125.5043088644743 82.356963187456131 27.062378883361816 444.44907899573445 4751.2941078972071 160.57658768072724 71.50714835524559 314.74111504852772 505.70414257049561 11.144972234964376 95.726420111954212 83.298543773591518 70.401985369622707 17.499957755208015 29.851203359663486 26.887689411640167 253.23305970430374 1232.3554219007492 8.1301672086119634 278.03835600800812 695.72777810506523 11.808606520295145 539.45620369911194 35.408760577440262 880.19153656065464 23.205586478114128 10.730051681399344 5.2074099630117408 39.923068583011627 42.645584911108017 242.80569250136614 26.706342220306396 1045.2429213672876 4.9970278292894355 128.17734222859144 39.567171022295952 4.4856027439236623 5.1629120409488669 5.3590926826000214
leaf_count=1778 4772 362 1101 4338 11572 83872 16923 269 6632 939 3271 5766 72192 3684 773 1026 1273 535 293 15 2030 12023 779 287 743 4103 47 623 175 378 11 176 35 400 1485 55 5923 9123 13 3102 50 848 76 44 8 227 414 2108 34 748 15 1077 32 22 21 23
internal_value=0 0.0395198 0.0338217 0.0355648 0.0378276 0.0302348 0.0655908 0.0165904 0.0735112 0.0205135 0.0176137 0.0098362 0.0152916 -0.0540566 0.0604996 0.0907497 0.0475541 0.0417049 0.0502802 -0.0370372 -0.0249603 0.0533604 -0.00638888 -0.00294275 -0.0396983 -0.0453888 0.0853706 -0.0495087 -0.0218576 0.0913279 -0.0235861 0.112458 -0.0884112 0.101327 0.114372 -0.0304241 -0.00644949 -0.0571196 0.114184 -0.0457842 -0.0605953 0.116122 0.098083 -0.0524564 -0.110713 -0.0945004 -0.0483758 -0.104593 0.126565 0.127245 -0.161637 -0.114168 0.146302 -0.164761 -0.171199 -0.154097
internal_weight=0 68855.4 58970 57761.7 55680 43722.5 11957.5 28190.5 9885.43 26268.8 25144.5 19959.7 18389.5 1570.17 7489.49 2870.08 5184.87 4619.41 4179.16 1921.72 2081.7 4920.69 1610.37 577.906 440.245 1828.39 1124.23 1208.24 748.332 1098.08 87.9019 113.15 471.337 1010.18 2292.17 1487.6 783.742 703.858 2395.94 635.183 264.18 2368.41 903.397 27.5357 340.788 459.912 82.5687 377.343 93.3359 1465.01 15.7271 335.581 66.6295 26.1526 16.3079 9.8447
internal_count=268644 143133 129253 121327 114145 95444 18701 125511 13880 100369 98528 84913 77958 6955 11774 3571 13615 8203 6925 25142 7182 12292 5117 1313 1278 25061 1841 7926 4076 1728 389 351 2065 1339 2258 19204 10026 9178 2106 3725 1323 2034 924 72 5857 3850 641 3209 81 1110 59 5849 47 113 68 45
is_linear=0
shrinkage=0.1


Tree=17
num_leaves=62
num_cat=0
split_feature=128 129 31 29 73 34 30 105 134 32 53 79 110 102 28 125 57 32 75 73 29 68 101 53 104 0 33 101 30 78 3 4 28 53 103 27 22 102 57 10 26 125 51 0 31 63 34 12 1 108 107 105 78 81 93 83 76 32 32 95 58
split_gain=940.197 933.31 766.856 765.284 831.541 837.899 766.869 374.07 584.389 361.446 360.286 313.214 305.398 296.759 264.632 256.917 230.757 201.396 117.144 107.236 277.008 223.103 110.01 106.977 104.464 92.6845 145.405 111.82 155.453 108.982 90.8079 66.5959 62.2968 57.2603 96.6538 70.3253 55.0347 132.337 68.3565 108.49 40.9834 40.8396 33.8958 32.7273 19.3369 12.8212 6.71382 56.5638 126.476 0.543501 0.155715 0.139893 0.0687137 0.0453292 0.0327111 0.00845658 0.00837974 0.00469725 0.00403744 0.0033165 0.00292095
