tree
version=v4
num_class=1
num_tree_per_iteration=1
label_index=0
max_feature_idx=136
objective=binary sigmoid:1
feature_names=Column_0 Column_1 Column_2 Column_3 Column_4 Column_5 Column_6 Column_7 Column_8 Column_9 Column_10 Column_11 Column_12 Column_13 Column_14 Column_15 Column_16 Column_17 Column_18 Column_19 Column_20 Column_21 Column_22 Column_23 Column_24 Column_25 Column_26 Column_27 Column_28 Column_29 Column_30 Column_31 Column_32 Column_33 Column_34 Column_35 Column_36 Column_37 Column_38 Column_39 Column_40 Column_41 Column_42 Column_43 Column_44 Column_45 Column_46 Column_47 Column_48 Column_49 Column_50 Column_51 Column_52 Column_53 Column_54 Column_55 Column_56 Column_57 Column_58 Column_59 Column_60 Column_61 Column_62 Column_63 Column_64 Column_65 Column_66 Column_67 Column_68 Column_69 Column_70 Column_71 Column_72 Column_73 Column_74 Column_75 Column_76 Column_77 Column_78 Column_79 Column_80 Column_81 Column_82 Column_83 Column_84 Column_85 Column_86 Column_87 Column_88 Column_89 Column_90 Column_91 Column_92 Column_93 Column_94 Column_95 Column_96 Column_97 Column_98 Column_99 Column_100 Column_101 Column_102 Column_103 Column_104 Column_105 Column_106 Column_107 Column_108 Column_109 Column_110 Column_111 Column_112 Column_113 Column_114 Column_115 Column_116 Column_117 Column_118 Column_119 Column_120 Column_121 Column_122 Column_123 Column_124 Column_125 Column_126 Column_127 Column_128 Column_129 Column_130 Column_131 Column_132 Column_133 Column_134 Column_135 Column_136
feature_infos=[-1.8014661073684692:2.1873281002044678] [-1.7160434722900391:2.0962586402893066] [-1.6382262706756592:2.0136351585388184] [-1.5680137872695923:1.9394575357437134] [-1.5054070949554443:1.8737261295318604] [-1.4504051208496094:1.8164401054382324] [-1.4123568534851074:1.7788288593292236] [-1.3844102621078491:1.76683509349823] [-1.3517893552780151:1.9168174266815186] [-1.3099035024642944:1.9795591831207275] [-1.2559221982955933:1.9582076072692871] [-1.1870334148406982:1.9951491355895996] [-1.1039742231369019:2.0683317184448242] [-1.0067610740661621:2.1760303974151611] [-0.90047705173492432:2.2825961112976074] [-0.78966546058654785:2.4052433967590332] [-0.67814630270004272:2.5269482135772705] [-0.65620064735412598:2.5277442932128906] [-0.66012513637542725:2.5653238296508789] [-0.66667592525482178:2.5221147537231445] [-0.8555336594581604:2.4413206577301025] [-0.86833834648132324:2.3840618133544922] [-0.86565589904785156:2.2409591674804688] [-0.70636492967605591:2.1797337532043457] [-0.68053698539733887:2.1614029407501221] [-0.84136444330215454:2.0620582103729248] [-1.1302109956741333:1.9191513061523438] [-1.5701906681060791:1.7312250137329102] [-1.8748650550842285:1.5516149997711182] [-2.1668190956115723:1.3462176322937012] [-2.5042393207550049:1.1459542512893677] [-2.6881959438323975:1.0652625560760498] [-2.6073334217071533:1.0182701349258423] [-2.3245775699615479:1.0153312683105469] [-1.6179424524307251:1.0222163200378418] [-0.85442560911178589:1.0559519529342651] [-0.66409575939178467:1.2523990869522095] [-0.67050886154174805:1.4357191324234009] [-0.67336314916610718:1.5244829654693604] [-0.67729061841964722:1.2584017515182495] [-0.67391806840896606:1.2342766523361206] [-0.77278417348861694:1.2273765802383423] [-0.78214722871780396:1.2681889533996582] [-0.67822211980819702:1.3808037042617798] [-0.67549598217010498:1.5838102102279663] [-0.67939788103103638:1.7493973970413208] [-0.67687302827835083:1.7343066930770874] [-0.68031680583953857:1.8940913677215576] [-0.67687547206878662:2.0411467552185059] [-0.68022686243057251:2.1347439289093018] [-0.67672491073608398:2.1180493831634521] [-0.68208664655685425:2.1010029315948486] [-0.6882440447807312:2.3278176784515381] [-0.69760811328887939:2.41339111328125] [-0.68820065259933472:2.0181429386138916] [-0.66498374938964844:1.7058380842208862] [-0.63047897815704346:1.5109990835189819] [-0.6819922924041748:1.3641012907028198] [-0.88048118352890015:1.3483799695968628] [-0.69688475131988525:1.3266682624816895] [-0.62303602695465088:1.2987289428710938] [-0.62908732891082764:1.4118657112121582] [-0.65896600484848022:1.6471337080001831] [-0.67422842979431152:1.5962808132171631] [-0.81091159582138062:1.2496439218521118] [-0.97404611110687256:1.0751444101333618] [-1.2528316974639893:0.99085426330566406] [-1.6713657379150391:0.88485002517700195] [-1.8910553455352783:0.75389385223388672] [-2.0949718952178955:0.60495084524154663] [-1.9126988649368286:0.45876148343086243] [-1.723555326461792:0.33052113652229309] [-1.5550380945205688:0.23037496209144592] [-1.4402464628219604:0.15855956077575684] [-1.4517455101013184:0.30397361516952515] [-1.6804615259170532:0.78198343515396118] [-1.8599822521209717:1.2524018287658691] [-1.985605001449585:0.97948074340820312] [-2.0616223812103271:1.1285310983657837] [-2.1171634197235107:0.92254304885864258] [-2.168381929397583:0.73609095811843872] [-2.1978850364685059:0.28676301240921021] [-2.2107267379760742:0.33890664577484131] [-2.208972692489624:0.39074629545211792] [-2.1915850639343262:0.5232703685760498] [-2.1574652194976807:0.47703936696052551] [-2.1063995361328125:0.50853937864303589] [-2.0390708446502686:0.53271615505218506] [-1.9571486711502075:0.55223846435546875] [-1.8642418384552002:0.56802195310592651] [-1.7650643587112427:0.65060514211654663] [-1.8478662967681885:1.0689502954483032] [-1.648851752281189:1.4172115325927734] [-1.5750191211700439:1.6287872791290283] [-1.5245249271392822:1.6645923852920532] [-1.4843816757202148:1.6171708106994629] [-1.4547033309936523:1.5604556798934937] [-1.4384253025054932:1.5581306219100952] [-1.4264529943466187:1.5645072460174561] [-1.5819015502929688:1.5648646354675293] [-2.0638625621795654:1.5687597990036011] [-2.4585905075073242:1.5660412311553955] [-2.604130744934082:1.569068431854248] [-2.5047333240509033:1.5662518739700317] [-2.1062953472137451:1.5664080381393433] [-1.4165751934051514:1.5589512586593628] [-1.1201972961425781:1.5623693466186523] [-1.1215335130691528:1.561995267868042] [-1.168958306312561:1.5723429918289185] [-1.225764274597168:1.5757462978363037] [-1.3042765855789185:1.5827798843383789] [-1.5627152919769287:1.5861003398895264] [-2.1400496959686279:1.5904401540756226] [-2.4733853340148926:1.5879726409912109] [-2.4821960926055908:1.5877697467803955] [-1.9469403028488159:1.5865405797958374] [-1.6131480932235718:1.5868538618087769] [-1.6321159601211548:1.611059308052063] [-1.6862318515777588:2.2872264385223389] [-1.7458088397979736:2.4594569206237793] [-1.820858359336853:2.1168181896209717] [-1.9280952215194702:1.6493175029754639] [-2.1567583084106445:1.6308574676513672] [-2.3918964862823486:1.6220458745956421] [-2.6616356372833252:1.8138364553451538] [-2.9659750461578369:2.1645474433898926] [-3.3559722900390625:3.0688047409057617] [-3.8750591278076172:4.2020993232727051] [0:1] [0:1] [0:1] [0:1] [0:1] [0:1] [0:1] [0:1] [0:1]
tree_sizes=5447 5736 5135 5238 5586 3772 6522 6876 6860 6696 6888 6930 6566 6551 6708 6961 6768 6233 6799 6889 6547 6803 6575 6780 6927 6729 6843 6044 6667 6399 6124 6424 6763 6904 5604 6459 6910 6921 6489 6948 5377 6694 5749 6467 6598 5710 6367 6822 6909 6677 6465 6617 6602 6959 6618 6119 6916 6372 6946 6345 6200 6676 6832 6559 6621 6805 6899 6903 6896 6570 6610 6807 4711 6588 6605 6505 5991 6675 4345 6908 6781 4828 6815 6495 6706 6831 4321 6735 6668 6208 6851 4421 6389 4534 4535 6492 6914 6173 5733 6484 6940 6704 6484 6246 6615 5687 4421 6880 6580 6040 6512 6605 6099 6085 6599 6703 6914 6465 5949 6162 6296 6696 6479 6469 6386 6688 6381 6706 4852 6314 6921 6266 6584 6618 6654 6789 6903 5424 6859 6649 6798 6238 6225 6649 6246 5459 6924 6449 6452 6971 6354 6228 5805 6606 6920 6655 6017 6602 5385 4131 6482 5831 5824 6381 6657 6827 6875 6750 6510 6613 4338 5486 6148 6902 6428 5087 6824 6068 6201 4526 6169 6896 6589 6937 6451 6231 6333 6648 6687 6902 6532 6356 6553 6184 6159 6259 6202 5399 6214 6884

Tree=0
num_leaves=50
num_cat=0
split_feature=31 31 135 71 38 45 71 3 73 2 73 46 105 136 73 100 5 59 72 37 29 23 24 73 39 36 72 134 38 38 107 30 72 105 32 0 40 107 24 120 103 33 101 31 36 120 86 2 2
split_gain=124182 73510.4 67180.9 78376.1 38734.1 27782.5 20288.1 18599.2 20781.9 19931.6 18113.7 14560.4 11662.2 9911.7 8473.53 8334.66 8083.52 10020.9 7445.16 6989.17 5774.28 4846.26 4064.52 4903.01 3881.96 3661.29 4950.97 3053.06 2917.09 2836.81 2583.04 2220.62 5241.73 2251.64 2105.64 1873.83 1663.25 1385.98 1307.85 742.597 618.213 148.256 829.308 42.8053 377.653 11.9528 1.05985 1.77636e-15 1.77636e-15
threshold=0.88033148646354686 1.001746714115143 1.0000000180025095e-35 -0.4071646779775619 0.97944316267967235 1.1205213069915774 -0.43174791336059565 0.48789599537849432 -0.78696730732917775 0.52751830220222484 -0.53640818595886219 1.161133408546448 -0.89872586727142323 1.0000000180025095e-35 -0.81840083003044117 -1.0153923034667967 0.59009733796119701 0.80386555194854747 -0.59948343038558949 0.96165627241134655 1.2357863783836367 1.2439128160476687 1.0737726688385012 -0.43594062328338617 1.0035477280616762 0.92016172409057628 -0.63198238611221302 1.0000000180025095e-35 0.96123564243316661 0.98483166098594677 -1.0359704494476316 1.0575959086418154 -0.61858704686164845 -0.88477557897567738 0.85513681173324596 -0.12520188093185422 1.0824653506278994 -1.026809513568878 1.4248021245002749 -1.6818192601203916 -0.88262861967086781 0.86786454916000377 -0.55268993973731984 0.86965602636337291 0.91255822777748119 -1.7493651509284971 -1.1415355205535886 0.018749074079096321 1.0000000180025095e-35
decision_type=2 2 2 2 2 2 2 2 2 2 2 2 2 2 2 2 2 2 2 2 2 2 2 2 2 2 2 2 2 2 2 2 2 2 2 2 2 2 2 2 2 2 2 2 2 2 2 2 2
left_child=22 2 3 5 10 6 -2 18 9 14 -5 -6 15 -11 -9 46 17 -10 25 27 -17 -21 30 36 -7 26 -3 -20 -18 34 -1 32 -14 -33 39 -36 37 -24 -39 -25 -27 43 -43 45 -45 -32 -4 48 -31
right_child=1 7 12 4 11 24 -8 8 16 13 -12 -13 31 -15 -16 20 28 -19 19 21 -22 -23 23 29 -26 40 -28 -29 -30 47 41 33 -34 -35 35 -37 -38 38 -40 -41 -42 42 -44 44 -46 -47 -48 -49 -50
leaf_value=-0.61898011392094698 -2.3781552474193082 -3.2541046003973135 -0.30503626373870674 -1.6133842732535508 -1.7347129310230029 -2.8169172047748372 -1.7181120487790866 -2.4693841078377785 -1.7816412481359343 -1.3775776809185509 -0.81250971165492869 -2.2881986626033108 -2.4074986038066912 -2.0686672392843755 -1.8106550025350066 -1.7624455650558597 -0.82007150945487073 -1.0717216829952863 -1.3900096666077926 -1.7935050347823278 -2.6489251033103431 -3.0152406095459972 -0.72803500698100976 -2.6769735894933357 -3.3286808278694497 -1.0729886561958577 -1.7502100188378398 -3.5199655416587121 -1.5057875455769472 -3.5199655416587121 -3.4716953584468051 -1.3887328228549016 -1.3186752653719869 -1.0978996515719186 -0.97553259861307495 -3.5199655416587121 -1.1319971732531227 -3.4343756819446432 -2.9047834942529245 -0.76684610495489913 -3.3234754731930214 -3.5199655416587121 -0.26986375098172255 -2.1147253311361052 -3.5199655416587121 -3.5199655416587121 -0.26986375098172255 -3.5199655416587117 -3.5199655416587117
leaf_weight=3.1508118081837884 3548.9872876945883 34.380601745098829 14.215645743533967 696.75151916407049 923.3032094668597 442.0401763189584 536.02684849686921 261.01144128851593 341.78308753110468 2047.9113367479295 474.89525218866765 979.52025431022048 60.253506347537041 230.93127578124404 775.38080127723515 847.72569292597473 572.1474903896451 475.39591553062201 184.52952367253602 63.532012030482292 80.451894458383322 66.402538726106286 2.1825899146497241 25.300049355253577 222.99469281546772 1.2451362870633591 60.256170190870762 6.9843963701277962 69.583575583994389 11.722709326073522 63.120119107887149 621.87792246416211 166.09275459125638 465.43873916938901 23.948909496888522 3.2922044564038506 3.8277136590331784 142.39162087067962 69.337972672656178 2.2133581805974272 62.024910215288401 4.8306177537888288 0.93745362758636375 2.1681842654943493 16.214876154437661 273.92987173236907 21.561433434486389 0.76920664869248945 1.1076575741171844
leaf_count=14 76153 1029 20 9797 14066 11361 8080 5831 5362 24125 2999 20166 1310 4264 12382 13142 3655 4194 2196 1004 1937 1834 12 616 6835 11 927 227 906 381 2022 7393 1862 4224 189 107 36 4510 1841 13 1898 157 1 41 527 8903 23 25 36
internal_value=-3.41668 -1.83759 -1.99537 -2.1345 -1.74111 -2.38913 -2.29155 -1.53418 -1.47456 -1.61297 -1.28877 -2.01963 -1.5174 -1.44761 -1.97655 -1.78155 -1.16005 -1.36864 -2.12798 -1.85177 -1.83928 -2.41787 -3.24828 -2.96618 -2.98852 -2.69028 -2.29656 -1.46769 -0.894424 -2.22732 -3.46979 -1.32356 -1.60852 -1.26424 -1.90626 -1.28304 -3.19813 -3.2351 -3.26094 -2.52331 -3.27919 -3.49466 -2.99174 -3.50282 -3.35422 -3.51093 -0.283839 -3.51997 -3.51997
internal_weight=0 15355.6 10102.1 7824.52 3074.47 4750.05 4085.01 5253.5 4774.14 3315.23 1171.65 1902.82 2277.62 2278.84 1036.39 963.955 1458.91 817.179 479.355 321.448 928.178 129.935 650.446 286.094 665.035 157.907 94.6368 191.514 641.731 68.3541 364.352 1313.66 226.346 1087.32 54.7545 27.2411 217.74 213.912 211.73 27.5134 63.27 361.201 5.76807 355.433 18.3831 337.05 35.7771 13.5996 12.8304
internal_count=268644 249213 179368 149457 47028 102429 84233 69845 60719 46602 12796 34232 29911 28389 18213 15122 14117 9556 9126 5261 15079 2838 19431 7766 18196 3865 1956 2423 4561 1367 11665 14789 3172 11617 925 296 6399 6363 6351 629 1909 11651 158 11493 568 10925 43 442 417
is_linear=0
shrinkage=1


Tree=1
num_leaves=53
num_cat=0
split_feature=31 71 107 37 136 73 71 131 73 31 116 36 57 36 105 72 52 38 108 91 78 97 103 47 74 128 104 32 51 106 30 54 39 110 106 106 69 104 110 109 107 13 33 49 101 31 38 31 39 28 32 64
split_gain=4742.4 7341.79 3590.91 4733.8 3278.81 4147.19 2829.84 2671.89 4321.57 3371.08 4121.12 2950.04 2471.11 2219.41 2038.24 1907.61 1189.74 1111.17 1058.59 1077.56 1259.48 1052.58 808.954 732.935 585.771 686.661 436.947 399.918 367.531 373.768 204.498 198.528 191.861 173.487 109.403 506.752 381.322 75.9327 41.5775 305.17 36.3435 32.7858 23.5754 21.6434 19.4187 0.567994 0.126833 0.0698785 0.0481699 0.0192333 0.0161779 0.00336919
threshold=0.89576590061187755 -0.2435747683048248 -0.8695126175880431 0.90516269207000744 1.0000000180025095e-35 -0.84696102142333973 -0.46889248490333552 1.0000000180025095e-35 -0.84696102142333973 1.001746714115143 -0.93369212746620167 0.90556874871253978 0.83475488424301159 0.92896050214767467 -0.81584569811820973 -0.62247279286384571 1.1436927318573 0.97091528773307811 -1.0734991431236265 -1.1501098275184629 -1.2909766435623167 -0.90617120265960682 -0.82258290052413929 1.2001152038574221 -1.0625569820404051 1.0000000180025095e-35 -0.92054733633995045 0.88785043358802807 1.1304383277893069 -0.98684653639793385 0.93199416995048534 1.1604761481285097 1.0406230688095095 -0.92635768651962269 -0.88678359985351551 -0.88741999864578236 0.034712539985775955 -0.71158108115196217 -1.1875686049461363 -1.1178616881370542 -1.0044972300529478 0.38726764917373663 0.91955330967903148 1.21305388212204 -0.78264445066452015 0.88033148646354686 0.99716749787330639 0.88033148646354686 1.0601038336753847 1.0798031687736513 0.86554518342018139 0.3798274844884873
decision_type=2 2 2 2 2 2 2 2 2 2 2 2 2 2 2 2 2 2 2 2 2 2 2 2 2 2 2 2 2 2 2 2 2 2 2 2 2 2 2 2 2 2 2 2 2 2 2 2 2 2 2 2
left_child=14 2 3 4 15 -6 21 8 12 10 -9 -10 -4 -8 16 -2 18 -11 30 33 -21 -5 26 -24 25 51 27 -3 -26 -30 40 46 34 -20 35 47 -37 48 39 -36 -1 -39 43 -28 -44 -40 -25 -16 50 -29 -34 -18
right_child=1 22 7 6 5 -7 13 9 11 17 -12 -13 -14 -15 32 -17 24 -19 19 20 -22 -23 23 31 28 -27 42 49 29 -31 -32 -33 37 -35 38 36 -38 41 45 -41 -42 -43 44 -45 -46 -47 -48 -49 -50 -51 -52 -53
leaf_value=-0.1273074353671271 0.29008861932874386 1.0477143961868929 0.34599974949815288 0.1915394796932966 0.18215653181600577 0.60346246090248279 0.2758616324645341 0.24564894228094825 0.4262522789870391 0.36962892429964378 0.73289453896852341 0.31171590168089119 0.093818737066451122 0.17891969361088156 -0.10432857355995968 0.38369426832230913 -0.10426822507873867 0.055179028312871282 0.49860452705983926 2.7157387557050363 0.29906807023943305 0.055311853819022622 0.99500255170526319 -0.13962678152472174 1.298022712047707 2.2025211357260055 0.83917957304384339 -0.11014490287269996 0.25710995544861731 -0.054480342914526615 0.22218220092641677 0.69062996483307681 -0.10332155882584226 -0.10663968965104298 -0.1030170654248953 1.4337303278528755 0.23613389744864813 0.15555611759073876 -0.10363668211692999 1.0399311219348355 0.024039154524303028 0.40670579803792339 0.95723738633434419 1.0071371187923517 1.0540306680058338 -0.11638320490313828 -0.11157615267972712 -0.12097568778901467 -0.13040128332385201 -0.12206871032446145 -0.11668349247941388 -0.11240718901054268
leaf_weight=80.614805495366454 18683.404670048505 5.2628497779369336 556.28801072388887 1468.4338413476944 333.73829402029514 779.05008105933666 11664.720749817789 248.02820455282927 2723.3517322689295 2605.2873350977898 578.38020461052656 12903.597764296457 1288.7936052083969 2961.1523934416473 39.989837711676955 2464.2955873608589 1.8051741085946553 117.44308720529079 5.0399787724018088 2.161495739594101 939.0282976180315 924.13511326909065 13.783881455659865 1.8239627629518533 2.171167353168129 2.6412458494305611 12.828319102525713 4.9336818009614944 45.295524882152677 256.51592906937003 24.989114210009575 3.8013870120048514 3.8839033450931337 78.502220323309302 18.895524382591251 3.954348584637045 8.1144917458295804 9.6181298270821589 274.21658849902451 2.6656466424465171 19.754578288644552 11.309880770742891 25.688666604459286 19.088948026299477 107.303068369627 40.067174751311541 13.866939596831797 2.6912310421466819 1.0054108351469038 1.8638052791357038 1.1818360015749929 0.70813151262700547
leaf_count=928 66990 4 2501 7828 3155 3647 39916 2342 10717 5047 2504 50326 8835 21128 1246 10998 49 592 71 11 3883 8018 17 10 17 8 33 59 74 4675 31 15 133 1590 665 34 44 64 9390 63 199 3 41 22 75 414 158 26 6 15 13 14
internal_value=0 0.299355 0.297298 0.279446 0.3098 0.477108 0.239742 0.330656 0.314587 0.409758 0.586659 0.331676 0.169851 0.256235 0.137949 0.300996 0.193697 0.356065 0.240511 0.274067 0.304618 0.138921 0.889259 0.436903 0.0195339 1.07664 0.974318 0.393275 0.0016089 -0.00771722 -0.0337898 0.0422453 -0.0568565 -0.0701262 -0.0746774 0.0564005 0.628526 0.200956 -0.0960459 0.0382877 -0.0975196 0.291282 1.01681 0.939631 1.03533 -0.105262 -0.114837 -0.105378 -0.110407 -0.113414 -0.106439 -0.106561
internal_weight=0 60510.3 60300.1 39278.9 22260.5 1112.79 17018.4 21021.2 17472 3549.14 826.408 15626.9 1845.08 14625.9 1876.82 21147.7 1459.23 2722.73 1150.09 1024.73 941.19 2392.57 210.246 33.2762 309.137 5.15455 176.969 12.0603 303.983 301.811 125.358 19.4923 417.594 83.5422 390.595 54.7499 12.0688 26.9992 335.845 21.5612 100.369 20.928 164.909 31.9173 132.992 314.284 15.6909 42.6811 6.07115 6.79749 5.06574 2.51331
internal_count=268644 244993 244544 161680 84790 6802 76890 82864 72379 10485 4846 61043 11336 61044 23651 77988 11550 5639 6713 5555 3894 15846 449 200 4837 71 249 78 4766 4749 1158 183 12101 1661 11882 1350 78 219 10532 728 1127 67 171 55 116 9804 168 1272 152 74 146 63
is_linear=0
shrinkage=0.1


Tree=2
num_leaves=47
num_cat=0
split_feature=30 30 71 97 73 107 118 39 73 49 74 1 29 105 37 70 131 97 31 136 127 73 111 4 121 75 7 13 53 106 118 29 72 99 108 73 125 71 65 28 120 118 44 39 40 65
split_gain=2741.85 1401.71 3208.38 2405.19 2363.76 1943.87 1857 1735.35 1587.71 1894.08 1401.27 1266.78 1173.92 1513.39 1094.58 1426.84 956.807 935.476 1158.88 916.862 832.189 793.221 754.538 752.714 677.51 793.672 424.502 401.921 368.781 313.105 286.797 143.471 164.116 195.237 149.938 107.827 110.537 98.9118 92.8408 70.0025 12.4211 29.7522 7.82998 0.0978115 0.0693009 0.0200796
threshold=0.89323142170906078 1.0721994638442995 -0.51422858238220204 -0.94001007080078114 -0.80464261770248402 -0.87846574187278736 -0.92606171965599049 0.95666098594665538 -0.84800416231155384 0.94287639856338512 -1.0625569820404051 0.48865309357643133 1.1472971439361574 -0.8949311077594756 0.83679321408271801 -0.43178148567676539 1.0000000180025095e-35 -0.95651522278785694 1.001746714115143 1.0000000180025095e-35 -1.995074927806854 -0.84360390901565541 -0.90573328733444203 0.68876194953918468 -1.1627346277236936 -1.0245727896690366 0.84811958670616161 0.98062527179718029 1.0333847403526308 -0.98684653639793385 -0.90262025594711293 0.91733789443969738 -0.32679390907287592 -0.49426212906837458 -1.0517697334289549 -0.96593478322029103 -1.1112260222434995 -0.63001313805580128 0.10904330015182497 1.0269324183464053 -1.7493651509284971 -1.6015267968177793 1.2010506391525271 1.0601038336753847 1.0824653506278994 0.47550247609615331
decision_type=2 2 2 2 2 2 2 2 2 2 2 2 2 2 2 2 2 2 2 2 2 2 2 2 2 2 2 2 2 2 2 2 2 2 2 2 2 2 2 2 2 2 2 2 2 2
left_child=29 2 6 11 7 -6 12 -5 14 23 28 21 27 -14 24 30 -13 18 -11 -12 -19 -4 -17 38 37 -26 -25 -2 -8 42 -16 39 35 45 -35 36 -33 -3 -10 40 41 -31 -1 -42 -37 -34
right_child=1 8 3 4 5 -7 10 -9 9 17 19 16 13 -15 15 22 -18 20 -20 -21 -22 -23 -24 26 25 -27 -28 -29 -30 31 -32 32 33 34 -36 44 -38 -39 -40 -41 43 -43 -44 -45 -46 -47
leaf_value=0.25057394863259125 0.051493150439151286 -0.11732750497029334 0.11376399591373987 0.20680504272839983 0.1956240138322379 0.24172038901077775 -0.040541446904715422 0.07054512454424694 -0.11773624434105673 0.48308084646884047 0.26812015265743189 0.21799049762384401 0.022684095221599788 0.20749985763014203 -0.039567143057105209 0.14338178004295954 0.30874946558051164 0.32122874080910696 0.28509334914461781 -0.048598181692378735 0.23184862810856188 0.36634707796118215 0.24147889683475188 0.5134489504253541 0.23632884698845824 0.43856556500603272 0.82054570143358552 -0.11320624462700855 0.26412241985416346 -0.10341773290140105 0.1459889408609874 0.35168377447383947 -0.1174119918286841 0.79932507372846129 0.23378152079399081 -0.10574071847255534 -0.10530679940164429 0.074819531389070812 0.32429926588274038 0.18188207300433207 -0.10333703019832066 0.044980877007678062 0.16746738809644071 -0.12074519373218746 -0.12910301634148103 -0.10682253030161482
leaf_weight=29.877215143293142 1475.6835246030241 48.326560497283936 134.57567482069135 1766.1901789885014 18809.882054211572 17809.970447752625 235.60770864412189 1985.2147933673114 17.677115820348266 402.91989120095968 1649.1493754200637 3394.8799208700657 650.43117848783731 1389.7786682024598 337.96846840530634 1440.9590830132365 1765.7163650300354 1313.062841501087 1110.3569772690535 96.76553113386035 5040.4129821658134 1633.5284386817366 1720.0628711469471 192.33897571265697 9243.9094851352274 198.21434284746647 58.764502629637718 164.70629926212132 47.789595948532224 39.574255699291825 110.53990577161312 12.409072304144503 2.2381568737328044 6.6816999390721348 15.7103028986603 54.385544357821345 9.2296952176839095 60.117404580116272 6.4980444908142081 9.5273358821868879 237.82858303003013 20.512990625575185 18.268810480833054 3.2720369733870021 1.3000716306269158 8.9553694222122413
leaf_count=33 9774 429 1130 7246 75691 53203 2884 13746 154 720 6001 11568 4727 3997 1821 4910 2488 3510 1787 1022 13278 4371 3630 437 23493 890 66 1693 229 1371 406 8 34 20 71 1503 255 264 1 49 8729 682 34 51 9 229
internal_value=0 0.219799 0.211092 0.21964 0.210298 0.218043 0.140285 0.134697 0.241464 0.276173 0.217087 0.274072 0.0979392 0.148579 0.21999 0.173078 0.249044 0.26715 0.337809 0.250566 0.250321 0.347122 0.196761 0.534009 0.23772 0.240574 0.585317 0.0349562 0.0108344 -0.0225538 0.00616523 -0.0501417 0.0474955 0.23207 0.402538 -0.0326739 0.156761 -0.0108082 0.00107854 -0.0849933 -0.0934353 -0.0527564 0.21904 -0.103573 -0.106286 -0.10894
internal_weight=0 74312 53009.9 47300 40371.3 36619.9 5709.91 3751.4 21302.1 8142.03 2029.31 6928.7 3680.6 2040.21 13160.1 3609.53 5160.6 7866.75 1513.28 1745.91 6353.48 1768.1 3161.02 275.279 9550.57 9442.12 251.103 1640.39 283.397 469.771 448.508 421.625 110.91 33.5855 22.392 77.3244 21.6388 108.444 24.1752 310.715 301.188 60.0872 48.146 241.101 55.6856 11.1935
internal_count=268644 255566 199770 169443 149886 128894 30327 20992 55796 19953 10136 19557 20191 8724 35843 10767 14056 19295 2507 7023 16788 5501 8540 658 25076 24383 503 11467 3113 13078 2227 13011 2129 354 91 1775 263 693 155 10882 10833 2053 67 8780 1512 263
is_linear=0
shrinkage=0.1


Tree=3
num_leaves=48
num_cat=0
split_feature=30 70 48 107 71 38 32 71 109 130 108 40 38 60 31 40 103 38 118 65 108 40 51 49 106 36 116 108 29 72 100 73 69 125 33 28 113 120 74 30 95 133 27 31 39 40 56
split_gain=1737.29 1173.73 2908.56 1232.84 1247.92 3148.01 864.163 717.011 841.094 626.63 602.349 568.9 554.906 538.282 1025.74 520.456 1151.45 823.098 474.537 456.689 424.547 416.554 340.259 289.967 250.033 181.534 171.497 152.301 122.571 109.124 116.439 89.4976 82.4476 76.0841 74.4628 58.5159 57.4458 12.798 27.6309 5.56898 21.0984 40.7763 0.250138 0.0949802 0.0725855 0.0490427 0.0159641
threshold=0.89323142170906078 -0.17218042165040967 1.1701471209526064 -1.0192763209342954 -0.38012631237506861 0.97566312551498424 0.87490081787109386 -0.36444982886314387 -1.1222234964370725 1.0000000180025095e-35 -0.81805273890495289 1.0616782307624819 0.94776377081871044 0.82944896817207348 0.97539493441581737 1.0684311389923098 -0.75489646196365345 0.97944316267967235 -1.5255632400512693 0.43019992113113409 -1.0734991431236265 1.0589646697044375 0.94579109549522411 1.171041011810303 -0.98684653639793385 0.9702625870704652 -1.3501773476600645 -0.78773826360702504 0.91733789443969738 -0.32679390907287592 -0.53125718235969532 -0.96593478322029103 -0.025928454473614689 -1.1112260222434995 0.94734585285186779 1.0269324183464053 -1.3578687310218809 -1.7493651509284971 -0.39759430289268488 0.86573198437690746 -0.27013212442398066 1.0000000180025095e-35 0.94388064742088329 0.88033148646354686 1.052842438220978 1.0824653506278994 0.97271507978439342
decision_type=2 2 2 2 2 2 2 2 2 2 2 2 2 2 2 2 2 2 2 2 2 2 2 2 2 2 2 2 2 2 2 2 2 2 2 2 2 2 2 2 2 2 2 2 2 2 2
left_child=24 2 3 12 5 -5 11 13 23 -6 15 18 22 21 -15 17 -17 -8 20 -10 -3 -4 -2 -9 39 -14 43 34 35 31 46 33 -20 -30 -12 37 -32 38 -26 40 41 42 -1 -13 -39 -33 -31
right_child=1 6 7 4 9 -7 10 8 19 -11 27 26 25 14 -16 16 -18 -19 32 -21 -22 -23 -24 -25 28 -27 -28 -29 29 30 36 45 -34 -35 -36 -37 -38 44 -40 -41 -42 -43 -44 -45 -46 -47 -48
leaf_value=-0.16360138057116227 0.44136204207741198 -0.016195106129215795 0.029637557515514269 0.17955774042646289 0.21251962669486077 0.10148009509755673 0.20298143810514424 0.060593449501449848 0.19002970693599233 0.34410796115943509 -0.12585535164014491 -0.1052157719907338 -0.12163356181932423 -0.12348228293682753 0.5163454123692961 0.29800985993139312 0.071813815715194587 0.31902032045173906 0.078942007048316595 0.062955966787327192 0.20616032699094444 -0.11735874573334532 0.075582629723864425 -0.14662742592469769 0.040997968649324951 0.49298723084407037 0.25634608361837552 0.30501802645325349 0.27526231032375126 -0.11844074915552479 0.39361711442597641 -0.10522528194529493 -0.14453030606556339 -0.10481133880820137 0.071090416762524658 0.15000659148712894 0.10024190823771045 -0.10300506367025955 -0.10304916637350421 0.21403176816843678 0.28669634000159994 0.2163992973687158 -0.11768038068379748 -0.11200407161213739 -0.11743920656995102 -0.12562534989212465 -0.10687436512698245
leaf_weight=3.3162478953599948 27.14571226388216 93.090761926025152 962.84308479912579 63309.123047340661 5489.246966406703 5622.5859344173223 962.99149982631207 136.10003896057606 927.3413198068738 387.43206162750721 51.140336990356445 29.713253112509847 186.95596611127257 44.178752426058054 57.885362040251493 465.31027027964592 435.84211249649525 1673.7415533103049 24.629306953400373 406.92206870019436 1106.6847694180906 241.03884486109018 402.71500285714865 134.02620126307011 21.044032005593181 4.9323440305888644 14.723990298807619 13.997439771890638 14.15275923535228 1.3722489830106486 17.437049347907308 49.438855946063995 50.076012400910258 8.3888410702347738 30.735262244939804 10.346651595085858 10.813470346853135 215.28642898984253 36.263319704681635 30.74243588745594 6.9205126762390128 7.6633963920176029 1.8467790745198724 67.288321137428284 3.5412254408001891 1.2072264440357674 9.1506863627582771
leaf_count=27 73 472 7126 186830 10548 24877 510 345 2282 590 328 858 1083 402 194 1110 2796 4548 53 2326 2099 2112 1951 804 709 2 7 20 8 17 21 1503 378 255 131 49 72 8714 1344 11 1 3 25 711 66 9 244
internal_value=0 0.175014 0.17201 0.175795 0.17696 0.173189 0.221889 0.0739149 0.118696 0.221195 0.247516 0.154714 0.0355623 0.0188996 0.239394 0.254218 0.18861 0.27664 0.173681 0.151275 0.188908 0.00020625 0.0986816 -0.0422215 -0.022234 -0.105835 -0.0616549 0.000189511 -0.0487999 0.0399208 0.175558 -0.0319371 -0.0708546 0.133818 -0.0519239 -0.0834732 0.281322 -0.0922216 -0.0501531 0.187414 0.145975 0.0700492 -0.147176 -0.109925 -0.103239 -0.105712 -0.108383
internal_weight=0 83360.4 78340.5 75430.1 74808.4 68931.7 5019.96 2910.34 1604.39 5876.68 3633.76 1386.21 621.749 1305.95 102.064 3537.89 901.152 2636.73 1274.48 1334.26 1199.78 1203.88 429.861 270.126 448.932 191.888 111.726 95.873 398.443 111.961 38.7735 73.1877 74.7053 22.5416 81.8756 286.482 28.2505 276.135 57.3074 50.4894 19.7469 12.8264 5.16303 97.0016 218.828 50.6461 10.5229
internal_count=268644 255566 241545 225954 222845 211707 14021 15591 5757 11138 9443 4578 3109 9834 596 8964 3906 5058 3002 4608 2571 9238 2024 1149 13078 1085 1576 479 13011 2129 354 1775 431 263 459 10882 93 10833 2053 67 56 55 52 1569 8780 1512 261
is_linear=0
shrinkage=0.1


Tree=4
num_leaves=51
num_cat=0
split_feature=119 117 75 116 112 77 30 75 112 130 38 5 75 106 74 120 136 90 97 74 4 115 33 109 111 124 53 115 90 50 50 2 118 85 31 71 31 40 31 115 74 131 21 118 30 74 29 52 38 91
split_gain=1367.04 1130.72 1496.76 1888.8 1222.54 3671.85 1176.03 1153.04 1049.2 1012.36 926.118 843.664 780.258 712.295 643.9 901.496 600.316 418.57 330.244 529.495 329.848 324.579 309.855 305.444 302.343 248.448 207.274 183.3 104.261 89.6589 201.618 95.2641 72.222 5.69944 0.319061 0.253261 0.115026 0.0746605 0.0629366 0.0600804 0.0293373 0.020295 0.00825938 0.017797 0.00865885 0.00615878 0.0049299 0.00621206 0.00280026 0.00135621
threshold=-0.81514796614646901 -0.911596119403839 -1.1107497811317442 -0.94554024934768666 -0.93099376559257496 -1.2381351590156553 1.0833151936531069 -1.1555964946746824 -0.93356648087501515 1.0000000180025095e-35 0.97334241867065441 0.51126524806022655 -1.1585094928741453 -0.90484619140624989 -1.0569109320640562 -0.91165035963058461 1.0000000180025095e-35 -1.2935670018196104 -0.95928445458412159 -1.008182644844055 0.563561111688614 -0.92769911885261525 0.87828955054283153 -0.83122238516807545 -0.87834003567695607 -1.4599664211273191 1.0075703263282778 -0.93636256456375111 -1.251668334007263 1.0749788880348208 1.0757116079330447 0.62252596020698558 -0.9200877547264098 -1.4164079427719114 0.88033148646354686 -0.43174791336059565 0.89576590061187755 1.0883190631866457 0.89576590061187755 -0.91529914736747731 -1.0091481208801267 1.0000000180025095e-35 1.6886762380599978 -0.30993750691413874 0.89323142170906078 -1.0625569820404051 1.115308463573456 1.145438075065613 0.66598117351531994 -1.1501098275184629
decision_type=2 2 2 2 2 2 2 2 2 2 2 2 2 2 2 2 2 2 2 2 2 2 2 2 2 2 2 2 2 2 2 2 2 2 2 2 2 2 2 2 2 2 2 2 2 2 2 2 2 2
left_child=1 2 3 18 5 8 -7 32 -4 14 -9 25 17 -13 15 26 21 -11 19 -1 35 -16 -17 -18 -22 -6 -3 -20 -19 34 -31 36 -5 -33 39 -14 37 -32 40 46 45 48 44 -44 -41 -36 47 -2 -40 -48
right_child=29 9 4 7 11 6 -8 10 -10 12 -12 13 20 -15 16 22 23 28 27 -21 24 -23 -24 -25 -26 -27 -28 -29 -30 30 31 33 -34 -35 38 -37 -38 -39 41 42 -42 -43 43 -45 -46 -47 49 -49 -50 -51
leaf_value=-0.063926123750154037 -0.1069379016387505 -0.089263160770526942 -0.10360778826480772 -0.14004384013358628 0.068832647181661766 0.13679706566339073 0.17628475557284151 0.13405926556536671 0.0937056542325439 0.34778678126949641 -0.021505509637153943 0.017922544625418372 -0.11791275991856837 0.17756982795000806 0.087817587963292712 0.22018885395129836 -0.056606570041457763 -0.0075561127754599795 -0.11260752307599034 0.14185493141640659 -0.0047538568088122436 0.22114484082490635 0.094869622406553444 1.0228093507770264 0.21258367261696556 -0.12458588578172869 0.067420335080137464 0.073861185099944396 -0.12776218939007192 0.78065172575959618 -0.10609585142803386 0.24307748261135151 0.10914051508989693 0.12772709539169078 -0.10973271530701426 -0.13409916650807982 -0.12455244397782964 -0.12783602147635909 -0.11508557027253058 -0.10222609591489117 -0.12356189609615689 -0.12370707863713433 -0.10397786182504545 -0.12238048033895706 -0.10394070782743986 -0.11437658291335691 -0.10880908919237478 -0.11376152200801788 -0.11871855984542364 -0.11129092204510851
leaf_weight=283.4307259991765 13.438009299337866 162.62279473245144 773.55602406524122 178.85313199833035 203.12074604444206 49850.735975541174 8886.6357816532254 6579.8739275392145 413.56891573965549 25.173006594181061 406.31874493137002 284.96754240989685 19.898377522826195 14489.738561697304 189.66940854862332 656.19170559383929 99.814492903649807 124.92735057324171 416.95050045289099 223.7539356648922 76.199422396719456 4893.6152913458645 282.12578795105219 2.6922316197305909 400.04671583883464 98.67205448076129 175.59583050012589 60.346758000552654 170.81323412805796 3.4060910977423182 28.583639543503526 7.3988055810332325 12.440312229096888 10.173007316887377 43.174430184066296 18.798751074820757 4.4288049042224875 1.6720709167420853 14.33567419648171 47.825631784275174 1.6621796861290921 3.8086418583989134 1.9705596733838322 0.716631805524229 76.66842963732779 3.0581353455781928 3.265173863619566 1.4812118727713812 2.4901736974716178 6.7609472349286062
leaf_count=1381 249 777 4940 992 924 164068 17984 17008 1390 18 2003 1292 181 29797 1260 528 776 676 2972 519 484 7454 847 8 895 697 583 285 1192 3 818 2 38 53 536 113 30 11 126 2260 11 25 62 15 2172 29 47 19 19 75
internal_value=0 0.144543 0.141231 0.100563 0.145656 0.139252 0.142771 0.118379 -0.034868 0.182283 0.125012 0.17111 0.0787233 0.174491 0.195677 0.132056 0.211339 -0.0436647 -0.0293276 0.026858 0.154996 0.21617 0.182509 -0.0282568 0.17781 0.00559388 -0.00791646 -0.0890315 -0.0769845 -0.0782229 0.0351916 -0.0133979 -0.123839 0.176297 -0.106833 -0.125776 -0.109501 -0.107297 -0.112498 -0.104281 -0.110509 -0.117115 -0.1034 -0.108886 -0.103282 -0.11004 -0.108768 -0.107615 -0.115623 -0.110483
internal_weight=0 90461.1 83163 8161.97 75001 59924.5 58737.4 7177.49 1187.12 7298.18 6986.19 15076.5 835.857 14774.7 6462.33 1276.54 5185.79 320.914 984.482 507.185 514.943 5083.28 938.317 102.507 476.246 301.793 338.219 477.297 295.741 276.318 55.6624 52.2563 191.293 17.5718 220.656 38.6971 34.6845 30.2557 68.5292 152.127 47.8947 20.6345 127.181 2.68719 124.494 46.2326 24.9453 14.9192 16.8258 10.0261
internal_count=268644 262082 246290 25198 221092 188382 182052 20041 6330 15792 19011 32710 3559 31089 12233 2735 9498 1886 5157 1900 1673 8714 1375 784 1379 1621 1360 3257 1868 6562 917 914 1030 55 5645 294 859 829 746 4899 576 170 4509 77 4432 565 390 268 145 122
is_linear=0
shrinkage=0.1


Tree=5
num_leaves=34
num_cat=0
split_feature=29 3 71 38 3 73 130 32 75 40 103 108 110 72 7 35 62 30 28 121 122 116 43 107 32 31 31 30 91 39 74 76 110
split_gain=1062.18 852.052 772.023 3003.49 2075.07 1240.8 896.415 682.354 736.556 622.365 1076.73 610.164 391.712 367.266 454.456 181.505 170.62 146.596 44.4124 12.1762 59.0666 204.425 2.24072 0.782841 0.766101 0.323177 0.0856311 0.0727736 0.0510747 0.0445947 0.0441789 0.0227258 0.00192794
threshold=0.91733789443969738 0.83016422390937816 -0.37275806069374079 0.9964008927345277 0.41582612693309789 -0.75263687968254078 1.0000000180025095e-35 0.87202775478363048 -0.55827048420906056 1.0607814192771914 -0.82258290052413929 -1.0764016509056089 -1.2049179673194883 -0.56658607721328724 0.52269878983497631 0.91958108544349682 0.75787061452865612 1.0244977474212649 1.0269324183464053 -1.8760555386543272 -2.065581083297729 -1.5070000886917112 1.1703612804412844 -1.0359704494476316 0.91897743940353405 0.89576590061187755 0.88033148646354686 1.0791094899177553 -1.1005261540412901 1.052842438220978 -1.0053097605705259 -1.0938921570777891 -1.1875686049461363
decision_type=2 2 2 2 2 2 2 2 2 2 2 2 2 2 2 2 2 2 2 2 2 2 2 2 2 2 2 2 2 2 2 2 2
left_child=15 2 3 4 6 -6 -2 8 16 11 -11 -9 -10 17 -15 18 -4 -5 19 20 32 -22 -17 -21 25 26 28 31 -3 -25 -28 -27 -1
right_child=1 24 7 13 5 -7 -8 9 12 10 -12 -13 -14 14 -16 22 -18 -19 -20 23 21 -23 -24 29 -26 27 30 -29 -30 -31 -32 -33 -34
leaf_value=-0.10465046436944579 0.046387241302316119 -0.10336463171475133 -0.10588767911463899 0.022497521847785865 0.12066849264667552 0.15766740583960065 0.22545960640932777 0.053507106882197175 -0.078910400176023174 0.25566937291647235 0.075940053672827551 0.17069955439298568 0.1290588629529775 -0.094660336628338906 0.07076941593726431 0.18914697677807005 0.16198764290632023 -0.10804901123253839 0.11170640223646351 -0.17649072192910042 -0.10320262544188225 0.8179333946119679 0.13715845366555929 -0.1030457867971863 -0.19451520437865866 -0.11465404699658505 -0.10882227728008456 -0.13402845384283299 -0.11125758473800627 -0.1156473678818947 -0.12292467744261693 -0.12203510503885764 -0.10275763291833938
leaf_weight=6.1733874641358844 4449.6755811087787 80.318146558478475 218.47759730741382 103.84569084271789 65666.560590483248 10515.562164084986 298.28459687530994 467.49700175970793 98.260783391073346 403.25011406093836 1922.3008296340704 8942.22236417979 1156.6281000040472 242.7072236686945 525.8347490131855 15.828541692346333 26.681094393134117 501.06139617040753 11.055802572518585 1.4677700251340855 9.0363504439592344 3.2851778194308272 17.407951464876533 213.08807401172817 1.0283235758543003 17.542734518647201 40.974356345832348 2.6100543439388266 9.1303136833012086 2.8457339089363805 2.3487478345632544 5.4727432653307906 41.928026745095849
leaf_count=184 19277 2712 1194 772 169660 25211 1560 1194 1005 226 8920 14471 3614 1899 1801 14 54 3247 51 6 330 25 27 8617 5 160 553 15 105 59 16 39 1621
internal_value=0 0.122509 0.122894 0.119289 0.121778 0.125776 0.0576372 0.145311 0.0818022 0.153429 0.107105 0.164877 0.112774 -0.0273506 0.0185263 -0.0593865 -0.0767343 -0.0856378 -0.0848482 -0.0926699 -0.0529599 0.142392 0.161917 -0.103707 -0.108481 -0.107922 -0.105938 -0.118204 -0.10417 -0.103212 -0.109587 -0.116409 -0.103001
internal_weight=0 95698.3 95538.8 82303.5 80930.1 76182.1 4747.96 13235.3 1500.05 11735.3 2325.55 9409.72 1254.89 1373.45 768.542 322.117 245.159 604.907 288.88 277.825 60.4229 12.3215 33.2365 217.402 159.425 158.397 132.772 25.6255 89.4485 215.934 43.3231 23.0155 48.1014
internal_count=268644 257710 254105 223427 215708 194871 20837 30678 5867 24811 9146 15665 4619 7719 3700 10934 1248 4019 10893 10842 2160 355 41 8682 3605 3600 3386 214 2817 8676 569 199 1805
is_linear=0
shrinkage=0.1


Tree=6
num_leaves=60
num_cat=0
split_feature=54 105 107 71 35 30 72 73 99 39 29 108 72 63 116 69 56 34 105 54 103 68 107 130 105 58 72 109 74 124 32 104 53 70 33 31 50 54 115 105 98 35 104 64 37 64 108 55 35 106 102 38 31 72 73 30 36 135 52
split_gain=899.148 1586.28 1254.05 1317.66 1211.83 1176.25 1032.12 897.691 2337.5 1098.5 736.303 632.404 592.172 907.188 556.39 473.097 445.665 360.075 348.987 576.179 388.904 309.921 336.087 299.1 322.778 279.819 250.119 222.041 173.842 165.564 160.549 151.305 145.759 135.103 124.41 115.48 110.628 104.825 104.55 103.012 93.4314 92.0685 80.6141 80.5184 74.8087 150.611 55.613 34.033 31.1271 19.6504 53.6114 9.79136 4.39113 0.557593 0.384497 0.242261 0.113584 0.0902751 0.0299519
threshold=1.0746163725852969 -0.89296117424964894 -1.0122181773185728 -0.34567597508430475 0.87424063682556163 1.0318374037742617 -0.54722258448600758 -0.76706302165985096 -0.84116429090499867 0.89294672012329113 1.050770163536072 -1.0582383275032041 -0.48840908706188196 0.65260505676269542 -1.0178563594818113 -0.018068404868245121 1.0020132064819338 0.84634760022163402 -0.91624799370765675 0.95228484272956859 -0.90602704882621754 0.14767882227897647 -0.99601116776466359 1.0000000180025095e-35 -0.8360711634159087 0.90026000142097484 -0.54911193251609791 -1.1478608250617979 -0.81528112292289723 -1.7794523835182188 0.94028550386428844 -0.88875490427017201 1.0771016478538515 -0.3285693079233169 0.89792898297309887 0.93332743644714367 1.1232395172119143 1.1604761481285097 -1.3885951042175291 -0.92698881030082692 -0.83279094099998463 0.88097509741783153 -0.92054733633995045 0.56536602973937999 0.92996135354042064 0.46958722174167639 -1.0764016509056089 0.93785309791564953 0.89572760462760936 -0.91330131888389576 -0.65289720892906178 0.97944316267967235 0.88033148646354686 -0.59420070052146901 -0.72482448816299427 0.93199416995048534 0.91934919357299816 1.0000000180025095e-35 1.1632979512214663
decision_type=2 2 2 2 2 2 2 2 2 2 2 2 2 2 2 2 2 2 2 2 2 2 2 2 2 2 2 2 2 2 2 2 2 2 2 2 2 2 2 2 2 2 2 2 2 2 2 2 2 2 2 2 2 2 2 2 2 2 2
left_child=2 16 4 5 18 6 14 8 -7 -9 -8 38 23 15 -4 -14 39 46 19 20 -1 22 -19 26 -25 -23 -13 55 29 -18 44 41 -29 -21 35 -30 -33 -15 49 40 53 -32 -36 56 45 -6 -5 -46 -42 51 -51 -3 -48 -2 58 -20 -40 -56 -41
right_child=1 11 3 17 30 7 10 9 -10 -11 -12 12 13 37 -16 -17 28 21 27 33 -22 25 -24 24 -26 -27 -28 32 34 -31 31 36 -34 -35 42 -37 -38 -39 43 54 48 -43 -44 -45 47 -47 52 -49 -50 50 -52 -53 -54 -55 57 -57 -58 -59 -60
leaf_value=-0.027620384165715564 -0.10683245506320548 -0.16758130194713267 -0.045119916785382824 0.11449365143578792 -0.094669908439257155 0.10669780779089399 -0.0088680335694848005 0.2363413832373106 0.010136206380959901 0.12182452376530804 0.12201366714174884 -0.050545515171859047 0.054483623710978847 -0.060412749899635437 0.050069002568050469 0.19320616974524762 0.78649305891795951 0.12982233243550709 -0.14784415914958382 -0.12562402700890082 0.18642494878945051 -0.13205892681795134 0.1810071847794878 -0.11889266096809237 0.10878583917935802 0.10574753373627302 0.027793654653013439 0.18955812576238415 0.1509044582667598 0.26488296681541001 0.21376592346613177 0.21571657800923305 -0.055168895574523119 0.0082489838151361041 0.024895608150349982 -0.1415039395919051 -0.12885496724533901 0.098022108851954212 -0.15341679862999161 -0.11573992782462808 0.053719090596134382 -0.13407041406903791 0.23076282567959416 0.23817851162785564 -0.023483467340626146 0.17772190118930309 -0.10888621451778409 -0.14584111832542918 0.2425784507886932 0.18571018159857378 -0.10762842081011387 -0.1186382846150823 -0.17474476946756812 -0.14772544414015071 -0.12757926665402902 -0.17095875976876268 -0.13064985402757481 -0.138500147389649 -0.10585514832243147
leaf_weight=122.11449499614537 11.515062626451256 52.166751060634851 940.42711873725057 9.5936957057565433 142.25482691824436 58459.449761517346 512.12497510015965 874.69897971302271 2619.2590472400188 19774.869888711721 2674.9160501211882 707.08515031449497 380.38862862065434 312.05054214224219 1769.3615494407713 695.04255763441324 10.146973483264448 2018.8882584776729 6.7596148066222694 157.95923341065645 278.42677702754736 59.345864715054631 3518.5848015453666 71.492989497259259 482.53340525738895 297.63752682320774 962.10902664065361 377.12132929265499 79.982504716143012 15.201787143945692 8.8231589272618276 42.598676208406687 26.016123283654451 144.20217089354992 19.665993075817823 16.250044982880354 11.926360256969927 48.21240627579391 3.9566802978515643 6.7663826793432218 14.235902046784757 55.324905995279551 580.08189098536968 15.239507637917994 24.43611017614603 23.677296459674835 15.760816819965838 325.96625672653317 22.551552474498749 7.5719499588012686 35.166637329384685 188.84611270949244 28.30710144340992 4.6935106441378585 18.308299463242292 13.773484840989111 4.9114470928907394 12.90431095659733 5.6044488921761513
leaf_count=535 307 290 5094 15 730 137022 1687 1885 13027 46513 5958 5827 1193 7569 11983 2072 6 2100 35 1026 701 643 4465 683 2372 1367 4444 261 125 38 27 73 88 594 93 99 79 226 19 74 146 353 292 12 88 7 402 2006 18 1 1069 2308 125 25 140 59 30 67 151
internal_value=0 0.0626322 0.107057 0.10863 0.0234615 0.105539 0.0624052 0.108651 0.102557 0.126675 0.100982 0.0364867 0.0480686 0.0981306 0.0170339 0.144139 0.189435 0.154176 0.0857406 0.04252 0.121168 0.156524 0.162346 0.0157399 0.0794056 0.066214 -0.0053915 0.157427 0.216445 0.473681 -0.0870088 0.0178737 0.173765 -0.0617351 0.207077 0.101528 0.140348 -0.0392101 -0.101164 -0.0122975 0.0813594 -0.0862277 0.224012 0.0987663 -0.111115 -0.0558016 -0.103691 -0.137308 0.169494 -0.11815 -0.0556579 -0.129232 -0.151191 -0.118674 -0.126181 -0.163349 -0.140808 -0.132094 -0.111262
internal_weight=0 4784.68 95334.6 93573.2 1761.38 87625.1 5896.83 81728.3 61078.7 20649.6 3187.04 3966.77 3658.91 1435.69 2709.79 1075.43 817.909 5948.12 1126.37 702.703 400.541 5894.46 5537.47 2223.22 554.026 356.983 1669.19 423.671 721.329 25.3488 635.008 118.673 403.137 302.161 695.98 96.2325 54.525 360.263 307.859 96.5795 52.996 64.1481 599.748 24.1076 516.334 165.932 53.6616 350.402 36.7875 283.751 42.7386 241.013 44.0679 16.2086 43.5834 20.5331 8.86813 31.2126 12.3708
internal_count=268644 29696 238948 232286 6662 223169 24722 198447 150049 48398 7645 28115 24386 11060 17077 3265 1581 9117 3299 2856 1236 8575 6565 13326 3055 2010 10271 443 653 44 3363 532 349 1620 609 224 152 7795 3729 928 496 380 385 61 2831 737 542 2094 164 3668 1070 2598 527 332 432 94 49 207 225
is_linear=0
shrinkage=0.1


Tree=7
num_leaves=63
num_cat=0
split_feature=108 106 128 53 77 112 55 31 72 31 131 108 29 73 108 22 38 37 76 31 130 111 36 73 47 31 31 17 130 35 80 32 32 105 110 72 95 127 38 116 33 14 136 77 77 68 59 98 80 107 64 76 79 86 130 24 31 31 72 71 74 28
split_gain=732.199 1650.3 1075.67 1063.72 1053.35 3368.72 1096.19 901.27 1606.12 1396.79 1351.01 898.312 852.718 905.589 1106.03 793.287 709.705 698.818 650.854 624.974 583.627 577.883 555.347 959.346 542.316 502.79 694.687 483.205 470.8 377.514 354.193 327.562 380.115 318.298 313.612 299.334 287.643 524.793 316.846 284.685 261.017 256.318 247.65 246.41 240.897 192.713 161.726 145.311 143.433 136.388 99.2228 83.8826 76.557 115.225 20.66 92.2559 1.28862 0.520444 0.272805 0.105737 0.0819766 0.0814913
threshold=-0.89960637688636769 -0.89467748999595631 1.0000000180025095e-35 1.1041176319122317 -1.2253739237785337 -0.94316479563713063 0.85901644825935375 0.99491870403289806 -0.48116745054721827 0.9356493651866914 1.0000000180025095e-35 -0.89148369431495655 1.1443237066268923 -0.78135818243026722 -0.90677809715270985 1.3239851593971255 0.94393482804298412 0.92064750194549572 -1.1652587652206419 0.98276183009147655 1.0000000180025095e-35 -1.2550812363624571 0.9298696517944337 -0.73554152250289906 1.1916950941085818 0.98440515995025646 1.001746714115143 1.0739963054656985 1.0000000180025095e-35 0.93128138780593883 -1.2524721622467039 0.96248069405555736 0.93204373121261608 -0.90853092074394215 -0.90293970704078663 -0.81943079829215992 -0.85620778799056996 -2.0971806049346919 1.0085241794586184 -0.90828731656074513 0.94558030366897594 0.79711684584617626 1.0000000180025095e-35 -1.2270979881286619 -1.1322035789489744 -0.19842743128538129 0.88067227602005016 -0.78852215409278859 -1.1771041750907896 -0.84461870789527882 0.3198466449975968 -1.1888559460639951 -1.2533717751502989 -1.2163197398185728 1.0000000180025095e-35 1.1796040534973147 1.0019697546958926 1.001746714115143 -0.61052069067955006 -0.40604661405086512 -1.0836788415908811 1.1207021474838259
decision_type=2 2 2 2 2 2 2 2 2 2 2 2 2 2 2 2 2 2 2 2 2 2 2 2 2 2 2 2 2 2 2 2 2 2 2 2 2 2 2 2 2 2 2 2 2 2 2 2 2 2 2 2 2 2 2 2 2 2 2 2 2 2
left_child=1 7 12 4 5 19 51 8 9 39 17 -8 13 15 -15 -3 -11 28 50 49 22 24 35 -24 -10 34 -27 -19 -9 -23 52 32 -32 56 -22 -6 37 40 41 -1 48 -39 -20 -21 -33 -35 -40 -42 -5 -2 -14 -7 57 -54 58 -56 -12 -4 60 -57 -38 -60
right_child=3 2 30 36 20 6 11 10 21 16 33 -13 18 14 -16 -17 -18 27 42 43 25 29 23 -25 -26 26 -28 -29 -30 -31 31 44 -34 45 -36 -37 54 38 46 -41 47 -43 -44 -45 -46 -47 -48 -49 -50 -51 -52 -53 53 -55 55 59 -58 -59 61 -61 -62 -63
leaf_value=-0.080238017136925299 0.011031911347402003 -0.076020452423079865 -0.1273555434979167 -0.12792259363405808 0.1773055016885044 -0.11895564403049926 -0.029956384729086807 0.13680332108040436 0.091074858119169044 0.080033011196797177 -0.12686825039704405 0.10018752259010258 -0.12405627510936222 0.026645657426024285 0.11634277220114514 0.029372826975897399 0.019456782411854966 0.16055532293786021 0.094694585624894814 -0.13960417209398165 -0.066715431443749237 0.12041102198386983 0.018558092111909712 0.12084255424337804 -0.11063385220787512 0.20613992877375714 0.11506097219095257 0.011904714122581503 -0.035866380293984833 0.20017852137475844 -0.053744671858453941 -0.027163450682521323 0.26029899332534279 0.1655444403344484 0.19041774529627034 0.11674581155913551 -0.14378657484116819 0.24523298097797183 -0.12370507654398542 0.43442769276446402 0.026881765557544887 0.019458952997862409 0.19510048250226841 -0.012358397001423087 0.16467833253979169 -0.0066757424622115244 0.050259096672091323 0.32581183422423454 0.43082435362350718 0.20846529917930079 0.098417213910942089 0.0064927488391682874 0.14953083943590892 -0.14625032868415297 0.26227266752128864 -0.11508709660788537 -0.16127666469876284 -0.1602874912390112 -0.12572684836362114 -0.12985234593112069 -0.10895578461427435 -0.13991803264451744
leaf_weight=706.71515912376344 67.775198295712471 1234.8562252111733 5.9093561992049244 29.110295280814171 871.59774442017078 240.99690004996955 539.70133431628346 9654.4544407352805 416.33730114251375 12282.964834176004 11.995271794497965 30677.701352933422 151.35712254047394 5000.0918263886124 1895.9814079385251 1693.7456959076226 2295.5288398787379 296.5003365278244 2510.2094026133418 742.75733443722129 157.36103545129299 6466.368916656822 1600.5848979689181 2146.9618896469474 196.06123362854123 1857.8608521223068 1524.7055721431971 833.10594111680984 160.53354832530022 653.2465301156044 42.218815010040998 99.876957409083843 442.55999021232128 74.361498415470123 67.899131080135703 12838.162674141116 0.71568567492067714 55.888130497187376 237.24032470397651 10.913623429834841 19.664405025541782 501.4814680069685 272.2994943857193 191.4015093408525 189.9236825555563 514.70719764381647 68.976536564528942 93.969557076692581 5.4552506431937209 72.329687885940075 23.107899203896523 68.438423996791244 35.733193129301071 20.858636267483234 7.8585579339414826 6.3007394745945957 117.50518289208412 25.536853030323982 132.62013194710016 21.065150201320648 12.098823700100182 4.1737968400120726
leaf_count=3794 374 6635 37 185 1824 4340 1815 14558 778 35738 74 67004 614 28309 4530 6165 8315 797 4276 4163 950 10701 5261 4280 3519 3709 2803 2694 631 582 260 409 876 108 290 25110 10 94 1722 13 87 3600 480 708 467 1813 310 142 3 288 40 195 32 106 38 72 525 114 860 125 269 23
internal_value=0 0.0824494 0.052986 0.0993297 0.101409 0.0901473 0.0960811 0.0940375 0.0825667 0.0637902 0.116686 0.0979375 0.0456918 0.0315217 0.0513067 -0.0150667 0.0704947 0.125407 0.0927727 -0.0839938 0.118838 0.119712 0.111271 0.0771567 0.0264972 0.155452 0.165086 0.0509227 0.133979 0.12773 0.161067 0.18267 0.232949 -0.0161412 0.010791 0.120596 0.00608024 0.0270355 -0.00279904 -0.072411 0.200887 0.0420976 0.10452 -0.113533 0.0985619 0.0150646 -0.084519 0.274082 -0.0397393 0.112958 -0.0945897 -0.09121 -0.029001 0.0405117 -0.10863 -0.0397283 -0.15809 -0.154099 -0.124853 -0.126453 -0.110901 -0.12616
internal_weight=0 48335.6 13644.3 54862.9 53666.2 32601.1 31526.8 34691.3 23028.1 15296.1 11663.2 31217.4 12781.6 9824.68 6896.07 2928.6 14578.5 10944.6 2956.97 1074.26 21065.1 7732.01 17457.3 3747.55 612.399 3607.83 3382.57 1129.61 9814.99 7119.62 862.617 774.579 484.779 718.569 225.26 13709.8 1196.62 1011.79 863.586 717.629 148.2 557.37 2782.51 934.159 289.801 589.069 306.217 113.634 34.5655 140.105 174.465 309.435 88.038 56.5918 184.833 35.2244 129.5 31.4462 149.608 27.3659 12.8145 136.794
internal_count=268644 137990 53350 130654 123114 78887 73354 84640 63440 47860 21200 68819 51049 45639 32839 12800 44053 18680 5410 5533 44227 15580 36475 9541 4297 7752 6512 3491 15189 11283 2301 2012 1136 2520 1240 26934 7540 6143 5726 3807 417 3694 4756 4871 876 1921 2032 229 188 662 654 4535 289 138 1397 235 599 151 1162 197 279 883
is_linear=0
shrinkage=0.1


Tree=8
num_leaves=63
num_cat=0
split_feature=31 134 71 4 106 135 106 83 76 131 133 53 104 36 70 72 29 115 63 74 96 37 71 111 56 45 71 30 31 75 59 111 36 126 72 38 78 74 91 32 131 62 55 124 72 93 33 72 116 123 106 55 104 31 31 5 72 87 45 89 38 74
split_gain=713.082 1039.66 1048.36 1113.47 1011.86 890.092 932.915 1080.39 824.212 1066.12 1024.15 1577.33 1067.42 783.501 755.526 708.681 676.14 639.995 606.979 541.266 1004.7 957.428 536.833 523.419 520.883 458.592 447.83 392.053 365.557 360.909 316.708 344.098 304.925 480.668 252.042 573.238 332.257 243.489 395.725 226.41 215.761 202.598 227.395 192.872 424.988 146.385 82.923 82.2848 76.9113 53.3201 105.506 53.1489 27.3935 4.56228 1.7242 1.38127 0.478238 0.416252 0.29676 0.279641 0.2315 0.0347742
threshold=0.99850496649742138 1.0000000180025095e-35 -0.43609237670898432 0.69695129990577709 -0.81811031699180592 1.0000000180025095e-35 -0.8560834228992461 -1.1445702910423277 -1.1908411383628843 1.0000000180025095e-35 1.0000000180025095e-35 0.99040210247039806 -0.91596773266792286 0.92371472716331493 -0.36583462357521052 -0.75322681665420521 0.91733789443969738 -0.95163199305534352 0.049675688147544868 -0.95561084151267994 -0.97539266943931568 0.94446083903312694 -0.52593672275543202 -0.90303388237953175 0.96593847870826732 1.1385288238525393 -0.38169685006141657 1.0858978629112246 0.978288233280182 -1.1744980216026304 0.78430509567260753 -0.96080675721168507 0.95224961638450634 -1.6954773068428037 -0.5769219398498534 0.97706806659698497 -1.3357553482055662 -0.9262908101081847 -1.0238138437271116 0.95970076322555553 1.0000000180025095e-35 0.63781270384788524 1.0216022729873659 -1.0971699357032774 -0.76303595304489125 -0.99436372518539418 0.86704581975936901 -0.55850073695182789 -0.94847851991653431 -1.3391606807708738 -0.81584987044334401 1.0136851668357851 -0.82197561860084523 1.007501542568207 1.0018586516380312 0.59107410907745372 -0.56658607721328724 -1.260729134082794 1.1331694126129153 -1.2145247459411619 0.986372470855713 -1.0625569820404051
decision_type=2 2 2 2 2 2 2 2 2 2 2 2 2 2 2 2 2 2 2 2 2 2 2 2 2 2 2 2 2 2 2 2 2 2 2 2 2 2 2 2 2 2 2 2 2 2 2 2 2 2 2 2 2 2 2 2 2 2 2 2 2 2
left_child=1 8 3 37 5 6 7 13 9 17 12 22 18 -2 -13 61 -14 48 -10 20 -8 -21 -12 59 -19 30 47 -9 -28 -25 45 -32 34 41 35 40 -37 52 -39 43 -6 57 -43 44 -7 -4 -17 -27 -1 50 -36 -51 -3 -45 56 60 -35 -34 -56 -11 -41 -5
right_child=4 2 25 15 32 39 19 27 10 23 11 14 16 -15 -16 46 -18 24 -20 21 -22 -23 -24 29 -26 26 28 -29 -30 -31 31 -33 33 54 49 36 -38 38 -40 55 -42 42 -44 53 -46 -47 -48 -49 -50 51 -52 -53 -54 -55 58 -57 -58 -59 -60 -61 -62 -63
leaf_value=-0.14065321895788235 0.060590290057740637 -0.12411964679985231 0.36559639797370747 -0.11989358604848344 0.13000036761046002 -0.054785844280120989 0.097748099055220833 0.084299236070976766 0.14926781591815283 -0.13611398367016753 0.070385517179298238 -0.0997552669931593 -0.076578959030038349 -0.013603984080363616 0.025371176255025864 0.39375267068586156 0.092307458038476842 -0.0060549162874088446 0.013285360315223919 0.13495466209803328 0.022045483473129221 0.078353586323612612 0.16862769713401979 -0.0064189711812159978 0.064854899838189525 -0.12479005173478089 -0.044199868144382121 0.14167407198205775 0.2200701516365241 0.16603127612449581 0.13173853700608879 -0.15379777557535365 -0.17755726131973354 -0.14818260314924403 0.19484075339260593 -0.095635662961017762 0.09354970202679555 0.12035584991779642 -0.079246613412475492 -0.15951568636460317 0.19157527903157309 0.16647694053197051 -0.15169883975522247 0.18863512357309184 0.13116300071823792 -0.14556317510321404 0.19504026391051507 -0.014363170037083241 0.11097347372408622 0.17738080883149931 -0.16399466269212556 0.23387376494693518 -0.071661710678275911 0.21293458500653376 -0.20441574207422375 -0.21144593826107388 -0.16488525959169181 -0.15009296057993465 -0.17526712349540391 -0.12310674406868637 -0.13290860451557024 -0.12912973754316373
leaf_weight=266.76825045794249 15186.28625844419 623.15259627625346 6.1445221900939933 4.5307537987828246 2128.2814951315522 127.32326729595661 6217.0694482289255 3073.7161393724382 373.666159696877 24.152814492583275 1304.6402464732528 549.22921498306096 238.63083823490888 1570.5004166774452 3975.3932004384696 81.323648855090141 35870.40587659739 2213.8334327908233 2700.8646865515038 6562.1309557259083 2441.6473645195365 5487.7534499876201 969.58562731742859 139.56691492162645 1946.9732744563371 197.15096356347203 94.043315669521689 1944.3531429767609 118.04549412429333 930.1980017889291 1003.20902107656 44.058030335232615 8.0505194067955035 36.596229430288076 26.007170781493187 156.5411903001368 228.1011588871479 135.65085952170193 370.91813910193741 16.381089583039291 776.76370794326067 235.41681149601936 24.83110561221838 121.41458939015865 3546.6201524287462 63.515812359750271 28.311069183051586 102.59436118975282 12.726714666932819 358.79401057213545 11.962756171822546 310.78851921856403 118.4717977270484 212.49162565171719 9.3343848884105665 5.3090512156486502 32.248224020004272 17.545755378901958 5.5811243429779998 52.3590905405581 4.0856612846255294 40.647230066359043
leaf_count=1544 36237 4112 5 34 3623 380 10519 7460 1044 132 4398 3161 9783 6315 15284 45 84020 11151 11088 8073 8008 11863 2216 1336 5215 1766 473 1937 205 1620 2423 212 34 173 25 703 436 505 2842 75 544 238 120 41 4077 312 81 509 60 257 51 100 816 29 38 22 136 84 25 361 32 236
internal_value=0 0.0724063 0.0154959 -0.0478628 0.0888604 0.0845398 0.0802774 0.0658261 0.0757521 0.039482 0.0801587 0.0443308 0.0863752 0.0536366 0.0101825 0.205094 0.0911914 0.0172864 0.0298121 0.0954729 0.0764009 0.109177 0.11227 0.125461 0.027126 0.0700727 -0.00831221 0.10653 0.102889 0.143533 0.105993 0.119726 0.134885 0.0479844 0.142921 0.131275 0.0165553 -0.0792369 -0.0257964 0.129432 0.146465 0.109716 0.136119 0.131332 0.124719 -0.100475 0.342439 -0.086994 -0.129195 0.197065 0.0817865 0.203602 -0.11574 0.204099 -0.162685 -0.165994 -0.156006 -0.158731 -0.193509 -0.127213 -0.154204 -0.128203
internal_weight=0 54600.8 3031.77 1403.01 50883.9 46517.1 42483.5 21774.9 51569 5586.58 45982.4 6798.85 39183.6 16756.8 4524.62 154.813 36109 4440.3 3074.53 20708.6 8658.72 12049.9 2274.23 1146.28 4160.81 1628.76 511.834 5018.07 212.089 1069.76 1116.93 1047.27 4366.84 369.604 3997.24 3289.69 384.642 1248.19 506.569 4033.63 2905.05 285.844 260.248 4007.85 3673.94 69.6603 109.635 299.745 279.495 707.552 37.9699 669.583 741.624 333.906 83.76 25.7758 68.8445 25.5963 14.9155 76.5119 20.4668 45.178
internal_count=268644 166989 14576 8671 101655 95068 90412 51949 152413 21419 130994 25059 105935 42552 18445 396 93803 17970 12132 38463 18527 19936 6614 3449 16366 5905 2953 9397 678 2956 2952 2635 6587 848 5739 5306 1139 8275 3347 4656 4167 476 358 4527 4457 317 126 2275 1604 433 76 357 4928 70 372 129 309 118 63 493 107 270
is_linear=0
shrinkage=0.1


Tree=9
num_leaves=61
num_cat=0
split_feature=38 60 70 47 72 30 131 70 33 72 36 104 72 38 134 40 107 57 30 133 72 66 72 33 59 110 14 53 72 38 54 26 38 72 136 72 32 73 46 72 73 100 57 37 126 42 100 31 37 6 38 108 59 31 3 0 48 73 72 69
split_gain=667.831 1986.77 1739.84 1634.22 1055.49 1197.18 1897.77 911.645 876.792 814.522 1581.04 870.952 921.279 750.855 776.975 710.441 899.565 784.758 664.591 626.551 624.576 577.342 561.433 541.292 518.249 496.667 473.256 461.462 450.233 444.989 390.409 366.75 349.126 335.15 322.048 336.068 508.384 401.658 241.384 233.622 229.43 198.485 170.319 142.475 136.776 237.655 129.806 126.092 78.9385 57.5411 24.6221 15.9585 3.4554 3.30465 1.32123 0.495718 0.285044 0.2645 0.247929 0.227174
threshold=0.96713334321975719 0.74304747581481945 -0.26759056746959681 1.1068728566169741 -0.63434895873069752 1.0648626685142519 1.0000000180025095e-35 -0.30175097286701197 0.84736022353172313 -0.56658607721328724 0.95136272907257091 -0.80874577164649952 -0.61052069067955006 0.96224865317344677 1.0000000180025095e-35 1.0607814192771914 -0.99829635024070729 1.0242362022399905 1.0346472859382632 1.0000000180025095e-35 -0.68731957674026478 0.25996321439743048 -0.53215840458869923 0.94674476981163036 0.87804794311523449 -1.0886106491088865 0.92151978611946117 1.1165870428085329 -0.62799865007400502 0.8928259313106538 1.0316755771636965 1.2407161593437197 0.94887238740921032 -0.55409598350524891 1.0000000180025095e-35 -0.6201670467853545 0.95549729466438305 -0.73173293471336354 1.0995790362358095 -0.6731046438217162 -0.78216972947120655 -0.86265572905540455 0.86185580492019664 0.94321158528327953 -1.7130827307701109 1.0919125676155093 -0.69904953241348255 0.9286978840827943 0.92598634958267223 0.19953705370426181 0.9675823748111726 -1.0764016509056089 0.80386555194854747 1.001746714115143 0.48789599537849432 0.355364739894867 1.1189675927162173 -0.76012971997261036 -0.60968637466430653 -0.10146835446357726
decision_type=2 2 2 2 2 2 2 2 2 2 2 2 2 2 2 2 2 2 2 2 2 2 2 2 2 2 2 2 2 2 2 2 2 2 2 2 2 2 2 2 2 2 2 2 2 2 2 2 2 2 2 2 2 2 2 2 2 2 2 2
left_child=2 34 3 4 5 6 -1 25 47 10 11 21 -13 14 -9 16 24 23 33 26 -7 -3 42 -17 -11 38 32 -18 -27 -20 -15 -24 -10 -6 35 39 43 -38 -5 41 -28 -2 -21 -37 45 -12 -19 48 51 -50 -41 -4 55 -46 59 57 -57 -36 -56 -54
right_child=1 9 8 7 18 20 -8 13 19 15 44 12 -14 30 -16 17 27 46 29 22 -22 -23 31 -25 -26 28 40 -29 -30 -31 -32 -33 -34 -35 52 36 37 -39 -40 50 -42 -43 -44 -45 53 -47 -48 -49 49 -51 -52 -53 54 -55 58 56 -58 -59 -60 -61
leaf_value=0.01539649786628744 0.081885409864052586 0.082416017393643889 -0.039399000673270762 0.18770672973170788 -0.084933662752261108 0.06942065776722546 0.10757427998658249 0.084673721901478441 0.16484173160468699 -0.025728248282612599 0.029771642262357935 -0.032749800739985173 0.090166152635850733 -0.11247767886931842 -0.018925831603257913 -0.035411931920236034 0.10578024307753225 0.16685151065193665 0.16265085087214254 0.16994978576181863 0.097298735427289729 -0.025529666808230891 0.0068194185275101717 0.05646750099612205 0.17201345508587024 -0.019333718659142074 -0.14299553671859719 0.024961589622818553 0.066162096790896366 0.10230457879212129 0.024874693052707043 0.15472471037774116 0.11621393588383232 0.069767185264293458 -0.11008575068949383 -0.00061550843445676577 -0.00089570329637531088 0.11720566869932408 -0.10819640405163373 -0.038097361651057038 0.05078896959253032 0.96113112101332421 -0.15244482197219941 -0.10450224547838967 -0.14184203148437752 -0.11925632324549935 0.0067812418781098248 0.16832516487810878 -0.12630011806916061 0.12540423130231279 -0.13461824683590715 -0.13937548955263862 -0.12750895200354706 -0.17230451688374782 -0.17035023777350661 -0.15902342645887782 -0.14752650597508962 -0.14439308932337844 -0.19502936084454209 -0.16278637646438515
leaf_weight=8075.0585083980113 26.737448532134298 690.97235593944788 17.716303702443838 29.000382401049137 255.57606118172407 25411.385315686464 3087.511974840425 4512.942371558398 1766.2889251708984 898.63556311745197 178.2718317322433 689.67345697805285 5264.0533176995814 358.50700256973505 862.23147616907954 1156.3303451854736 10172.386993192136 468.62991107627749 1439.5372438728809 18.147346526384354 11753.390525333583 1751.2306724395603 365.71437682211399 1439.3341449014843 155.46841198951006 1972.9985942132771 82.760194882750511 759.23197735846043 895.52944454550743 8083.7182523086667 489.49193654209375 309.55521228909492 8996.8659544624388 309.7843477409333 4.9267404340207577 186.49018983915448 985.47787366807461 406.85958360135555 558.24190740287304 28.842972464859486 233.39488194137812 2.840212106704711 168.8863131403923 451.9262906499207 273.40975039172918 267.68105040863156 56.801447609439492 18.794106304645538 14.763559456914662 23.601803477853537 315.79669683612883 161.60469215270132 3.8999304622411728 40.944934643805027 4.816165134310725 27.249652354046702 103.37266865745187 4.1320033185183984 26.298681527376175 3.4316844269633284
leaf_count=30929 266 2920 51 86 1344 51402 7344 11627 1313 2904 525 3474 11922 1705 3789 10816 18452 281 2690 18 21799 7992 1011 4941 126 10617 347 4916 2508 14397 2057 387 11386 725 66 568 3391 877 3372 126 355 1 849 2166 1547 1790 370 23 191 17 2001 2862 37 188 21 119 488 29 107 16
internal_value=0 0.0574532 0.0756729 0.069447 0.0757529 0.0696113 0.0408924 0.0313887 0.110486 0.0663295 0.0427949 0.0552996 0.0759277 0.0542587 0.0680553 0.0805938 0.09166 0.038097 0.105173 0.114262 0.0782371 0.0050114 0.0321558 0.0155366 0.00343642 -0.00979564 0.120652 0.100167 0.00735733 0.111427 -0.0331935 0.0746218 0.124194 -0.000166671 -0.0259216 -0.0163121 -0.000265194 0.0336151 -0.0935835 -0.103393 6.18275e-05 0.166315 -0.121164 -0.0741555 -0.095292 -0.0596817 0.149547 -0.0801888 -0.101644 0.0285447 -0.12654 -0.129498 -0.155663 -0.14581 -0.182211 -0.148356 -0.149925 -0.125735 -0.191209 -0.144021
internal_weight=0 26846.2 80273 68094.9 58416 48327.3 11162.6 9678.94 12178.1 24263.1 9156.24 8395.93 5953.73 6223.17 5375.17 15106.8 11985.7 3121.1 10088.6 11941.6 37164.8 2442.2 862.303 2595.66 1054.1 3455.77 11079.3 10931.6 2868.53 9523.26 847.999 675.27 10763.2 565.36 2583.1 2404.97 2030.75 1392.34 587.242 374.217 316.155 29.5777 187.034 638.416 760.308 445.953 525.431 236.48 217.686 38.3654 344.64 179.321 178.128 314.355 38.4465 139.681 130.622 9.05874 31.1148 7.33161
internal_count=268644 83443 185201 166391 130630 111474 38273 35761 18810 73164 30358 26308 15396 19178 15416 42806 26398 16408 19156 15666 73201 10912 2265 15757 3030 16583 13401 23368 13125 17087 3762 1398 12699 2069 10279 9396 7002 4268 3458 2394 702 267 867 2734 4050 2315 651 3144 3121 208 2127 2913 883 1735 181 702 607 95 128 53
is_linear=0
shrinkage=0.1


Tree=10
num_leaves=63
num_cat=0
split_feature=31 71 30 28 104 70 106 36 32 38 72 71 72 4 72 36 72 110 38 60 37 72 72 73 5 26 12 48 45 113 71 26 136 23 107 135 37 105 89 127 72 37 106 74 24 109 76 103 135 12 7 46 102 69 5 62 107 81 80 44 72 41
split_gain=586.32 825.32 1126.87 777.791 828.27 767.131 748.839 1215.35 636.864 572.718 965.852 815.77 564.702 684.973 511.61 478.942 466.975 454.298 414.036 669.035 1057.57 568.569 511.382 441.963 371.469 361.885 328.057 324.204 318.672 536.801 426.654 1036 293.126 287.55 264.9 234.921 215.408 214.001 182.103 179.544 175.026 569.236 172.042 171.425 266.011 165.563 148.214 139.202 137.31 141.368 135.659 132.409 130.069 128.704 114.379 111.982 99.3665 86.5828 77.152 65.4187 42.779 7.62216
threshold=0.99850496649742138 -0.34567597508430475 1.0714770555496218 1.0989993214607241 -0.91132754087448109 -0.37527154386043543 -0.85494571924209584 0.84392532706260692 0.86717063188552868 0.94393482804298412 -0.68116226792335499 -0.4464788138866424 -0.71786311268806446 0.64929199218750011 -0.55557334423065174 0.92371472716331493 -0.61693266034126271 -0.90453860163688649 0.9964008927345277 0.76109254360198986 0.95169731974601757 -0.55557334423065174 -0.65361824631690968 -0.78849259018897999 0.56769466400146495 1.6096401214599612 0.92089027166366588 1.0054396390914919 1.1933224797248843 -1.3149330019950864 -0.30828920006752009 1.1420279145240786 1.0000000180025095e-35 1.3994190692901614 -0.99601116776466359 1.0000000180025095e-35 0.86853817105293285 -0.81952548027038563 -1.2157596945762632 -1.8942876458168028 -0.5769219398498534 0.95575645565986644 -0.85455760359764088 -0.51424658298492421 1.0737726688385012 -1.1426973342895506 -1.1860836744308469 -0.86298885941505421 1.0000000180025095e-35 0.52948233485221874 0.54105237126350414 1.2435789704322817 -0.86533853411674488 -0.21487262099981305 0.52354279160499584 0.75787061452865612 -0.98012086749076832 -0.50767564773559559 -0.50509732961654652 1.1290047168731692 -0.55409598350524891 1.120127320289612
decision_type=2 2 2 2 2 2 2 2 2 2 2 2 2 2 2 2 2 2 2 2 2 2 2 2 2 2 2 2 2 2 2 2 2 2 2 2 2 2 2 2 2 2 2 2 2 2 2 2 2 2 2 2 2 2 2 2 2 2 2 2 2 2
left_child=1 2 3 48 17 24 7 12 43 10 26 32 13 33 -6 -13 -12 -5 19 20 22 42 -8 -22 35 -26 -9 -15 30 56 31 -10 -11 -2 -32 -4 46 -31 53 50 41 -21 -20 55 57 -46 -7 -40 51 -50 -23 -1 -38 -14 -42 58 -30 -45 -3 -44 -41 -57
right_child=6 8 5 4 14 36 18 9 28 11 16 15 38 27 -16 -17 -18 -19 21 40 23 39 -24 -25 25 -27 -28 -29 29 37 34 -33 -34 -35 -36 -37 52 -39 47 60 54 -43 59 44 45 -47 -48 -49 49 -51 -52 -53 -54 -55 -56 61 -58 -59 -60 -61 -62 -63
leaf_value=-0.057935338256731889 0.28367744684018897 -0.16458259895732721 -0.13237432419039605 -0.059878721593740317 0.03890933340928595 0.29368966209805525 0.06203648495808959 0.025457384810297391 -0.10179264956914065 -0.012011986705907465 0.066683468337227977 0.088259855563118036 -0.10018828803707298 0.10986898320595646 0.070058093924463702 0.017883306347834572 0.12368014796552979 0.068087544954951604 0.48886743271785504 0.15454015004600546 -0.10891025671254165 0.0095977452250781709 0.098137695241626979 0.028615689950719 0.070193729678707864 -0.10788284261095603 -0.1476041295776431 0.030549266892392915 -0.11577755104435748 0.11062048078582526 0.092801817418117785 0.09207428643724852 -0.15394633227304119 -0.098550939432315562 0.14832163090809161 0.1101952280864975 -0.056018373031218371 -0.034134829646137753 0.13460428773188035 0.05827002203499463 0.077789462372733584 0.032716459564048776 -0.046184957975549647 0.12354893129530749 -0.13968726086854602 0.073182423911960032 0.16757738515376477 -0.081095056187748829 -0.087661323620764467 0.14197768270459649 0.12044099597012124 0.1556737833979786 0.1257268322849136 0.16790707386328071 0.15587569831419798 0.052356074917090836 0.047400271682443512 -0.080167156129674386 -0.026762803176500469 -0.1407925810968072 -0.1760166133146491 0.16046504398399827
leaf_weight=1020.8860492436215 21.104260131716728 92.275966857559979 148.72778772562742 1154.4281738847494 21179.643455741927 110.26876740157604 5727.732368234545 4534.1658956222236 299.47527235001326 2370.6472781822085 8706.819339774549 1894.5155722647905 57.718444034457207 1615.5078888237476 7020.9824315346777 1975.168749909848 1721.7012373059988 365.18801257386804 4.9996668845415106 889.64786081761122 270.65343844145536 152.68759496510029 12458.176822762936 1710.4534957706928 14882.099658995867 115.00064788758755 112.24540422856808 756.63840907812119 207.29485748615116 558.48728320002556 1479.7015358507633 3464.3611177802086 155.02006205543876 292.03630321472883 2049.9523580186069 54.576164871454239 60.086443945765495 124.98378979414701 3055.6110906377435 10.171338319778441 211.04455578327179 674.24439237639308 122.67574420198798 23.093398516997695 38.65242431499064 667.63530969433486 601.73596194386482 30.214900687336922 41.163396356627345 76.868128044530749 398.81795497983694 29.86771220061928 114.25381325930357 25.960738345980644 1687.561106748879 11.076319510117173 45.511014411225915 216.0353656988591 72.556968985125422 180.8172660022974 33.338069379329681 15.859477376565337
leaf_count=8677 13 737 818 6189 73805 51 11023 10712 1203 9079 17923 3019 242 1890 16086 6965 1874 1800 8 1140 1383 490 19041 4038 29793 615 447 1642 1560 1063 1865 5944 774 1102 2042 81 218 651 2807 14 433 2135 423 30 401 2224 688 104 177 92 450 193 196 18 1288 74 198 9107 398 1037 141 13
internal_value=0 0.0562239 0.0508194 0.0396423 0.0427891 0.0722813 0.0709591 0.0595728 0.0833277 0.0485598 0.0591977 0.0234844 0.0999591 0.0662184 0.0466643 0.0523382 0.0760934 -0.0291264 0.0836412 0.0861815 0.0792092 0.0172049 0.0867675 0.00982727 0.0670081 0.0688282 0.0212767 0.0845685 0.0930204 0.0380987 0.100071 0.076649 -0.0207236 -0.0727905 0.125047 -0.0672575 0.162714 0.0841496 0.128545 0.0743244 0.126791 0.102018 -0.092966 0.0131818 0.0306681 0.0615329 0.187108 0.132492 -0.0403758 0.0618913 0.0897534 -0.0518635 0.0630883 -0.017014 0.147196 -0.0730257 -0.0864017 -0.0604937 -0.103916 -0.102551 -0.121247 0.116009
internal_weight=0 56342.7 46975.8 30889 29720.2 16086.7 51858.1 27325.1 9366.95 21470.3 15074.9 6395.35 5854.79 2685.29 28200.6 3869.68 10428.5 1519.62 24533 23629.5 20167 903.508 18185.9 1981.11 15200.4 14997.1 4646.41 2372.15 8229.77 936.277 7293.49 3763.84 2525.67 313.141 3529.65 203.304 886.345 683.471 3169.51 595.015 3462.5 1563.89 308.493 1137.19 945.416 706.288 712.005 3085.83 1168.79 118.032 551.506 1050.75 174.34 83.6792 1898.61 191.769 252.806 239.129 164.833 303.493 43.5094 26.9358
internal_count=268644 166989 139479 107019 97880 32460 101655 58611 27510 50793 30956 19837 7818 4647 89891 9984 19797 7989 43044 40481 35485 2563 30064 5421 31307 30408 11159 3532 14526 3472 11054 7147 9853 1115 3907 899 1153 1714 3171 1095 4996 3275 1468 12984 11762 2625 739 2911 9139 269 940 8870 414 260 1721 1222 1758 9137 1135 1460 155 87
is_linear=0
shrinkage=0.1


Tree=11
num_leaves=63
num_cat=0
split_feature=37 72 70 47 133 71 30 131 32 58 108 105 134 75 36 136 33 71 38 73 73 37 73 105 38 104 106 37 134 29 37 102 41 72 30 15 134 102 135 71 1 102 30 61 52 111 38 105 19 31 99 72 37 1 59 73 31 71 37 107 36 38
split_gain=550.544 1455.72 1108.08 1546.65 877.514 803.752 1042.01 1293.18 667.612 792.419 663.411 621.44 719.043 970.534 652.386 604.749 599.593 597.5 595.419 591.793 532.706 515.661 834.109 515.066 486.963 1016.76 480.871 458.286 395.671 391.588 391.053 388.816 371.858 431.985 321.839 321.43 289.271 286.865 262.887 241.95 206.292 202.845 178.022 155.278 155.079 148.788 138.971 129.948 100.538 98.4337 166.22 87.1084 84.284 7.84583 3.83332 3.42839 2.53444 1.66279 1.48076 0.664615 0.633798 0.529246
threshold=0.9530133605003358 -0.57479867339134205 -0.26468440890312189 1.1068728566169741 1.0000000180025095e-35 -0.46054302155971522 1.0609847307205202 1.0000000180025095e-35 0.96440300345420849 0.95767274498939525 -1.0564790964126585 -0.9121362268924712 1.0000000180025095e-35 -1.031886041164398 0.92288884520530712 1.0000000180025095e-35 0.84940218925476085 -0.49925470352172846 0.99292197823524486 -0.77559512853622425 -0.61988544464111317 0.9714527726173402 -0.73173293471336354 -0.82018861174583424 0.9675823748111726 -0.81823530793189991 -0.83140033483505238 0.96053019165992748 1.0000000180025095e-35 1.0984957814216616 0.97809946537017833 -0.82248398661613453 1.0556619763374331 -0.53917047381401051 1.0428537726402285 0.96039626002311718 1.0000000180025095e-35 -0.79494526982307423 1.0000000180025095e-35 -0.38641867041587824 0.36562407016754156 -0.72195124626159657 1.0308240056037905 0.60315737128257763 1.0734799504280093 -1.239189565181732 0.97428205609321605 -0.78562131524085987 1.2675112485885622 0.98138689994812023 -0.8221139907836913 -0.57586589455604542 0.94158166646957409 0.40422242879867559 0.80386555194854747 -0.53640818595886219 1.001746714115143 -0.4071646779775619 0.96165627241134655 -1.0165787935256956 0.94187900424003612 0.97944316267967235
decision_type=2 2 2 2 2 2 2 2 2 2 2 2 2 2 2 2 2 2 2 2 2 2 2 2 2 2 2 2 2 2 2 2 2 2 2 2 2 2 2 2 2 2 2 2 2 2 2 2 2 2 2 2 2 2 2 2 2 2 2 2 2 2
left_child=2 15 3 5 16 6 7 -1 9 10 36 38 14 -14 -13 18 45 -8 19 27 -12 23 30 39 35 -26 -24 -2 -21 37 -23 -31 33 48 -35 -18 -3 -7 40 -10 -5 42 -11 -40 -25 46 -4 -43 -6 50 -20 -51 -47 57 -55 61 -56 58 -17 -57 -59 -34
right_child=1 8 4 11 32 29 17 -9 21 41 20 12 13 -15 -16 53 24 -19 49 28 -22 22 26 44 25 -27 -28 -29 -30 31 -32 -33 55 34 -36 -37 -38 -39 43 -41 -42 47 -44 -45 -46 52 -48 -49 -50 51 -52 -53 -54 54 56 59 -58 60 -60 -61 -62 -63
leaf_value=0.0015806478084000747 0.0021093987659403235 -0.10229350679587242 0.062438668443724067 -0.11251825335609694 -0.15205753515067999 -0.068449626278647799 0.056822929530138566 0.091791691226265612 -0.04638008723108078 0.14133534825177441 0.017509274388056471 0.050018100960811024 -0.11691791444945093 0.032759981026987128 -0.022677901174460141 -0.13925242614668148 0.11623152767013478 0.086170418257716541 -0.12030004642230983 0.057418255137146282 0.094764021556022038 0.031640131020963823 0.022847642339355382 -0.080287918179088799 -0.0095997807490073722 0.087124761449664426 0.10797930356908299 -0.11875806889592583 -0.11786143208901004 0.080765568560941733 -0.096380482662097713 0.13242776154934952 -0.15351101942143053 0.011910642623182215 0.16044216750481557 0.079740699985477906 0.27933555731143406 0.091801352582965526 -0.15590929566794678 0.097136158301052988 0.047420770015917289 -0.12354464233505713 0.39688686969527642 0.090186377473572721 0.14958520093290076 -0.13019288516164071 -0.10736889424132728 0.12103162784471595 0.22208854967044647 -0.12477635832172332 0.16163223782827418 0.0039815368578923682 0.027678766853508698 -0.13842278561717208 -0.15657436935123947 -0.16968501269718247 -0.1922341638657297 -0.1612925080880257 -0.11144016777905803 -0.22138474284583901 -0.1387485770386048 -0.1343833746984546
leaf_weight=6340.313220385462 1090.029787439853 482.27666756045073 200.91200640238822 576.50480306521058 150.61384119838476 250.40801274497062 36107.251187570393 2120.5077623398975 228.5342995300889 620.06015679240227 4325.4921803604811 7797.5501093454659 754.92207111418247 1016.5427277646959 1466.676615037024 57.122765425592661 6667.2122793309391 8587.2899680882692 46.190494759008288 2214.2847375124693 1124.624677490443 589.86773922294378 917.21512084454298 29.869762152433395 1333.4075140506029 5876.0264074588194 2398.7512311711907 440.46413186937571 136.73961677402258 4043.5701383650303 400.6788401119411 2277.2150518745184 113.7230965886265 630.33665849640965 189.81074337661266 3783.862071081996 20.715046957135201 201.67057543247938 31.110249493271112 241.71183095127344 93.759940723888576 46.70332452468574 28.512994103133678 145.78696369286627 1679.4598200321198 147.67923569213599 63.406311520375311 40.617079824209213 7.5417017936706534 440.3425328489393 38.211530378088355 59.661671619862318 43.860883820801973 25.235013101249933 27.818030431866646 3.4841658025979987 70.294897019863129 32.064666554331779 28.791809089481831 8.6840216107666475 20.407817598432302 16.573718264698982
leaf_count=26428 4218 4377 1341 3314 772 1040 73288 5798 924 515 13491 24226 4563 4721 5885 424 7023 14669 629 5806 3407 1347 2979 94 3771 10773 3948 2779 1543 6555 1700 3027 526 1683 159 5064 6 390 144 398 511 499 11 286 1265 4325 2299 154 1 2924 143 220 940 132 135 16 291 138 334 49 132 94
internal_value=0 0.0404956 0.0596785 0.0539687 0.0809931 0.0605037 0.0563698 0.0241899 0.0575771 0.0354106 0.0233093 0.0210111 0.0273472 -0.0310263 0.0385092 -0.00710728 0.0863053 0.0624615 0.00155116 0.0157193 0.0334507 0.080437 0.0603778 0.120071 0.0892282 0.0692353 0.0844314 -0.0326753 0.0472237 0.0929475 -0.0201446 0.0993781 -0.00487557 0.0171055 0.046286 0.10302 -0.0865766 0.00303774 -0.0615272 0.0273889 -0.0901452 0.133306 0.15257 0.0469065 0.145568 -0.0269293 0.0217042 -0.00978001 -0.134216 -0.0925509 0.00733983 -0.109413 -0.0940418 -0.154844 -0.173183 -0.155819 -0.182124 -0.138498 -0.129932 -0.206581 -0.152525 -0.151078
internal_weight=0 17902.8 91048.2 71811.1 19237.1 59928.2 53155.4 8460.82 13175.1 6689 5953.11 11882.9 11035.7 1771.46 9264.23 4727.66 18116.4 44694.5 4465.92 3881.52 5450.12 6486.09 4306.51 2179.58 17660.5 7209.43 3315.97 1530.49 2351.02 6772.86 990.547 6320.79 1120.77 978.303 820.147 10451.1 502.992 452.079 847.162 470.246 670.265 735.894 648.573 176.897 1709.33 455.858 264.318 87.3204 158.156 584.406 84.402 500.004 191.54 261.735 123.348 142.465 98.1129 138.387 85.9146 12.1682 52.4725 130.297
internal_count=268644 54963 213681 174845 38836 131195 120183 32226 35115 22460 21281 43650 39395 9284 30111 19848 35536 87957 18262 14346 16898 12655 9974 2681 26631 14544 6927 6997 7349 11012 3047 9582 3300 2615 1842 12087 4383 1430 4255 1322 3825 1179 526 430 1359 8905 3640 653 773 3916 772 3144 5265 1586 558 685 426 1028 758 65 270 620
is_linear=0
shrinkage=0.1


Tree=12
num_leaves=60
num_cat=0
split_feature=117 75 115 75 112 77 125 30 130 43 38 1 117 75 136 39 75 92 106 75 136 74 120 115 76 95 122 0 116 98 111 116 100 93 32 74 113 50 111 31 74 98 115 113 21 54 93 111 75 115 4 4 72 31 30 31 46 31 31
split_gain=492.459 873.481 1447.79 912.687 678.68 1823.72 757.055 640.152 623.223 605.536 597.896 537.797 504.304 543.952 658.189 489.503 475.86 369.604 359.309 346.462 330.344 342.645 613.612 339.247 302.413 287.871 421.837 285.55 242.799 237.991 200.039 183.397 244.216 181.805 315.616 144.952 127.335 125.114 114.809 108.662 102.272 114.945 95.8055 94.6893 57.0083 49.8775 45.7898 42.7723 37.1849 99.6038 29.0328 135.655 22.7902 9.54465 5.91316 5.41523 3.18451 0.285641 0.0663391
threshold=-0.911596119403839 -1.1046591401100156 -0.93063277006149281 -1.1477801799774168 -0.93099376559257496 -1.2431651353836057 -1.170528709888458 1.0888060331344607 1.0000000180025095e-35 0.69860714673995983 0.97995305061340343 0.64504319429397594 -0.96505784988403309 -1.1238425374031065 1.0000000180025095e-35 1.0355648398399355 -1.1585094928741453 -1.1520349979400633 -0.90484619140624989 -1.1555964946746824 1.0000000180025095e-35 -1.0569109320640562 -0.9177241027355193 -0.92769911885261525 -1.1908411383628843 -1.0070972442626951 -1.1443933844566343 0.62658664584159862 -0.94655105471611012 -0.93265280127525318 -0.87834003567695607 -0.92099490761756886 -0.95547151565551747 -1.1526322960853574 0.95642462372779857 -0.95561084151267994 -0.89628124237060536 0.90171641111373912 -0.91317534446716297 1.0010185837745669 -1.0043652057647703 -0.98363301157951344 -0.93545630574226368 -0.9507482349872588 1.4457836747169497 1.0618324875831606 -1.1234156489372251 -0.92102515697479237 -1.1617611050605772 -0.87521827220916737 0.73368296027183544 0.72978824377059948 -0.61693266034126271 1.001746714115143 1.0422115325927737 1.001746714115143 1.161133408546448 1.001746714115143 0.88033148646354686
decision_type=2 2 2 2 2 2 2 2 2 2 2 2 2 2 2 2 2 2 2 2 2 2 2 2 2 2 2 2 2 2 2 2 2 2 2 2 2 2 2 2 2 2 2 2 2 2 2 2 2 2 2 2 2 2 2 2 2 2 2
left_child=1 2 12 17 5 28 7 -7 9 31 11 -5 25 42 -15 18 33 19 27 -4 21 22 -11 -23 -20 26 -1 -6 38 30 37 32 58 34 55 -12 -32 -18 -3 45 57 -42 -14 -17 -27 -31 -19 -8 53 -50 51 -33 -41 -35 -52 -10 -45 -22 -2
right_child=8 4 3 10 15 6 47 -9 16 20 35 -13 13 14 -16 43 29 46 24 -21 40 23 -24 -25 -26 44 -28 -29 -30 39 36 50 -34 48 -36 -37 -38 -39 -40 52 41 -43 -44 56 -46 -47 -48 -49 49 -51 54 -53 -54 -55 -56 -57 -58 -59 -60
leaf_value=0.098268463776953183 -0.11733330478025789 -0.13446779824879138 -0.14541771563358566 0.067900004051646312 0.095102986655447086 0.047312189647199306 -0.12303853461925383 0.07965070439258233 -0.11248313777636468 -0.088214865933832959 -0.11916084369094869 -0.10852127656801858 -0.14998159620942339 0.029522953853815061 -0.1217189859447859 0.20220877265793105 0.18204042302809054 0.039113423315809158 0.050810452268938169 0.060236742156504278 -0.12262783801569543 -0.0097380456438904191 0.078419313401602575 0.10614390111490223 0.083550430800551634 -0.13768663617085822 -0.098699904607702074 -0.10157704596933353 0.28873983423891747 -0.14446313359942473 0.32485541244841731 -0.10491002168908502 0.41442527235699944 -0.12384955109307959 0.19352073022685132 0.030731584344845866 0.10036877726555159 -0.10171006072677675 0.014927764098140686 0.017308349671645299 0.29192415934763422 -0.044677135733559518 -0.059495588436237382 -0.18410080286277469 0.1271979942411797 0.035197432669289729 -0.14848643729209637 0.056242327426155564 -0.14563036480215527 0.1262558255531544 -0.10685406103157909 0.44177208145065905 0.18871639305333004 -0.1647810445470117 -0.14423795299959216 -0.17532262828685669 -0.13370524804967182 -0.13507275988586767 -0.13118637505976846
leaf_weight=171.18110670149326 12.319053968414666 621.28551125898957 113.10206624865532 7378.5681572370231 114.65604065358639 64268.952293745242 266.89498668350279 6765.6901194788516 39.621707525104284 272.72443365305662 226.5376502238214 176.93259933590889 228.93652103841305 2553.7836575228721 324.28207217156887 8.6724920943379384 19.447361722588539 13.596423760056494 3777.8583952262998 297.10882496833801 66.252128929831088 264.12164716701955 1164.8796209227294 5806.3670399272814 11142.014467086643 537.04804875701666 298.03721107542515 207.24844066053629 14.696951843798159 85.701518272981048 26.953109656460583 29.808591137640178 16.923859119415283 155.60470448993146 57.036847412586212 90.204925552010536 404.11511684861034 77.327897207811475 56.083677258342505 15.88825659453869 14.248859167098997 35.226167722605169 239.33956259489059 14.099392279982565 8.2498290091752988 18.851555191911757 302.06912300363183 14.005773223936556 38.539828851819038 20.717243507504463 111.65512410178781 5.35439559072256 15.156385421752928 89.874619022011757 68.126831099390984 20.972463473677635 113.28718723356724 25.558062851428986 4.8052001148462287
leaf_count=265 112 3394 458 13552 188 171122 1334 10789 1047 1019 1173 621 1228 6173 1621 11 53 27 7908 454 468 1820 1991 7134 17176 3091 1184 972 34 486 50 1277 22 1043 30 201 644 439 228 39 17 208 864 58 5 209 1472 36 207 31 2995 3 2 389 360 86 662 135 27
internal_value=0 0.0486563 0.0244285 0.0482326 0.0522492 0.0481766 0.0497444 0.0503923 0.0730944 0.0828598 0.0581259 0.0637686 -0.0225051 -0.00378083 0.012482 0.0713194 0.00205897 -0.0590618 0.0730051 0.00353434 0.0878553 0.090706 0.0468075 0.101102 0.0752603 -0.0842663 -0.0268415 -0.0315235 -0.113374 0.05488 0.0852366 -0.0706092 0.145026 -0.0809106 0.0246881 -0.0764731 0.114405 -0.0446893 -0.122098 -0.0632896 -0.0636356 0.0522644 -0.103733 -0.117516 -0.133679 -0.112069 -0.140406 -0.1141 -0.121673 -0.0505745 -0.104767 -0.0216648 0.100992 -0.138835 -0.12102 -0.134233 -0.139283 -0.126092 -0.121221
internal_weight=0 100344 12959 8598.12 87385.4 72007.6 71315.5 71034.6 8984.18 7898.37 7872.24 7555.5 4360.86 3346.34 2878.07 15377.8 1085.81 725.876 15241.8 410.211 7649.38 7508.09 1437.6 6070.49 14919.9 1014.52 469.218 321.904 692.066 663.441 527.843 248.993 34.0481 422.367 117.631 316.743 431.068 96.7753 677.369 135.598 141.285 49.475 468.276 136.059 545.298 104.553 315.666 280.901 304.736 59.2571 214.945 35.163 31.0446 245.479 179.782 60.5942 127.387 91.8102 17.1243
internal_count=268644 246301 32389 17958 213912 186937 183281 181911 22343 17588 15547 14173 14431 9886 7794 26975 4755 2411 26244 912 12792 11964 3010 8954 25084 4545 1449 1160 3656 1922 1186 4796 161 2833 1163 1374 694 492 3622 736 828 225 2092 731 3096 695 1499 1370 1670 238 4635 1280 41 1432 3355 1133 720 603 139
is_linear=0
shrinkage=0.1


Tree=13
num_leaves=60
num_cat=0
split_feature=31 72 30 106 135 73 32 134 71 6 107 83 40 70 133 76 75 109 67 73 31 73 111 39 108 110 131 72 35 59 36 72 124 71 76 109 36 32 112 128 108 73 44 62 72 31 49 59 60 55 31 58 72 106 41 31 75 107 31
split_gain=443.652 695.102 790.71 609.601 636.597 700.04 590.944 586.022 769.556 788.23 577.943 825.216 492.678 1028.99 928.396 460.2 352.619 331.472 278.47 244.672 560.35 596.219 228.609 406.501 201.377 197.723 190.866 327.476 312.951 238.212 204.341 415.003 187.656 351.564 269.817 175.958 163.295 288.452 278.77 266.635 236.18 254.012 153.193 123.582 112.359 95.9793 93.3996 85.2338 72.2363 71.4205 95.0547 69.8036 52.1924 28.4956 3.77681 2.69711 3.93089 1.2583 0.864458
threshold=0.99850496649742138 -0.48116745054721827 1.0120043754577639 -0.81811031699180592 1.0000000180025095e-35 -0.93017512559890736 0.87202775478363048 1.0000000180025095e-35 -0.4464788138866424 0.74537348747253429 -0.87729674577713002 -1.1445702910423277 0.9683939814567567 -0.33204971253871912 1.0000000180025095e-35 -1.1505694389343259 -0.55827048420906056 -0.92912772297859181 0.27535130083560949 -0.48110872507095331 0.9235057830810548 -0.52113178372383107 -1.2449203133583067 1.0081747174263003 -1.0764016509056089 -1.2049179673194883 1.0000000180025095e-35 -0.64673292636871327 0.89853879809379589 0.7864091992378236 0.91934919357299816 -0.6201670467853545 -1.0971699357032774 -0.63354566693305958 -1.1918808817863462 -0.93718719482421864 0.88768345117568981 0.88785043358802807 -1.2007295489311216 1.0000000180025095e-35 -1.0517697334289549 -0.61988544464111317 1.1912331581115725 0.75787061452865612 -0.69910836219787587 0.99906843900680553 0.93710345029830944 0.80456101894378673 0.73721244931221019 1.0072339773178103 0.99951305985450756 0.91019713878631603 -0.39377404749393458 -0.81347730755805958 1.120127320289612 1.007501542568207 -1.1744980216026304 -1.0192763209342954 1.0013263225555422
decision_type=2 2 2 2 2 2 2 2 2 2 2 2 2 2 2 2 2 2 2 2 2 2 2 2 2 2 2 2 2 2 2 2 2 2 2 2 2 2 2 2 2 2 2 2 2 2 2 2 2 2 2 2 2 2 2 2 2 2 2
left_child=1 2 36 4 5 35 16 12 9 -9 11 -7 13 -4 -14 -12 43 -10 25 20 21 -8 23 -21 -22 -18 27 28 29 -5 47 -32 33 46 -35 -2 37 39 -39 -1 57 -42 -24 52 58 -37 -6 -29 -30 53 -51 -20 -3 -46 -45 56 -34 -38 -28
right_child=3 6 7 26 32 10 19 8 17 -11 15 -13 14 -15 -16 -17 18 -19 51 22 24 -23 42 -25 -26 -27 44 30 48 -31 31 -33 55 34 -36 45 40 38 -40 -41 41 -43 -44 54 49 -47 -48 -49 -50 50 -52 -53 -54 -55 -56 -57 -58 -59 -60
leaf_value=-0.049034619595350597 0.12085360580700449 -0.15711577183767456 0.043605028622530691 -0.047690996489177635 0.14913239053923596 0.017445539101029982 -0.12437114824999485 -0.1025927014944589 0.010469143916707141 0.12562664587511457 0.047615688231512548 0.065568558629526125 0.036160530633459406 0.11754447344509365 -0.034874931808611002 0.07768611594466529 -0.08864454895924806 0.1063976186141533 -0.11583403947677258 0.1198433585269687 -0.03058714963083177 0.044632627953292592 0.13008784216469715 -0.062236734587357526 0.096695175771831454 0.075635651785512487 -0.16745124274631598 0.1097903396572241 -0.15498860852127594 0.15524739355919076 -0.031340950584008397 0.091721943183303845 0.16616903996795646 -0.21365865969812192 0.087015996949594249 0.14307905374009378 -0.14034400720022547 0.11791946261510194 -0.11578548675442427 0.12189436085595462 -0.068068797909049308 0.031700379749568554 -0.05255627341448843 0.060394849874308654 0.11560957926698601 -0.15925838478064078 -0.19146312474121072 0.19869873516899375 -0.019406066597139199 0.16665950926408807 -0.16323096580623958 -0.014078580100986234 -0.04334963380688403 0.15615111695787734 0.13970499562383523 0.16701391517181263 0.12921959254665777 -0.15952559066223893 -0.22506523184801763
leaf_weight=717.17345008812845 27.793268248438835 151.71594532206655 24312.052808210254 101.13290175795555 9.3297985047101957 11911.312153853476 252.77942778915167 998.53034826740623 1411.3851280808449 178.37214667350054 19408.566423751414 5084.428997695446 15436.89325652644 2040.1115848049521 2088.8062612526119 6898.3140086382627 79.842827467247844 483.63829223811626 81.655880426056683 313.99125464260578 130.02924974262714 1198.2514440864325 1625.4076426178217 201.16967444680631 2821.4190714582801 889.0540905315429 5.7036658227443677 225.85056936740875 114.17334132641554 135.11969127506018 307.18152136728168 2539.0868213679641 58.201004505157471 30.092438504099846 3633.3495162501931 11.013829693198202 46.845950189977884 307.71774365752935 61.189053103327751 104.56741782929748 644.2793368017301 422.55546756461263 47.257937867194414 9.9612434711307287 266.55252981185913 225.11638034880161 58.755389347672462 206.33716787397861 59.918685294687748 16.869267053902149 18.112622112035751 386.58238408435136 54.924407497048378 495.94383911788464 15.115783795714378 205.00617198646069 56.980813771486282 126.6804329380393 4.7925532758235931
leaf_count=8175 24 851 56610 363 9 31471 945 6808 5702 388 37647 9467 43856 3995 8619 10806 705 992 1246 134 433 2004 1341 1035 4017 1716 24 248 577 157 987 3287 8 123 4215 31 250 441 263 1207 3703 949 231 56 210 966 239 117 218 11 86 9414 314 282 11 29 33 578 20
internal_value=0 0.0393433 0.0348522 0.0520751 0.0487515 0.0452254 0.0661951 0.0377316 -0.00449219 -0.0680036 0.0462151 0.031842 0.0406877 0.0493292 0.0276941 0.0555009 0.0130395 0.0349515 0.031497 0.0796556 0.0660726 0.015191 0.106988 0.0487413 0.0910876 0.062098 0.0872698 0.0776277 -0.00659081 0.0683753 0.0881689 0.0784405 0.0866658 0.0803617 0.0845462 -0.117143 -0.0207578 0.00569518 0.0791558 -0.0272837 -0.0461506 -0.0285519 0.124928 -0.101436 0.13129 -0.145156 -0.144791 0.152237 -0.108324 0.135569 -0.00414835 -0.0318237 -0.126877 0.141979 0.108201 0.160134 0.14789 -0.154347 -0.193758
internal_weight=0 57640 49380.8 52115 47618.3 43566.5 8259.16 46949.8 3071.93 1176.9 43302.6 16995.7 43877.9 26352.2 17525.7 26306.9 1668.85 1895.02 1437.14 6590.31 4402.48 1451.03 2187.83 515.161 2951.45 968.897 4496.78 3688.8 410.345 236.253 3278.46 2846.27 4051.72 3731.53 3663.44 263.923 2431.01 1190.65 368.907 821.741 1240.36 1066.83 1672.67 231.717 807.974 236.13 68.0852 432.188 174.092 797.478 34.9819 468.238 206.64 762.496 25.077 320.188 115.182 173.526 10.4962
internal_count=268644 166989 142536 101655 95068 90412 24453 126970 13890 7196 89391 40938 113080 60605 52475 48453 14313 6694 13081 10140 7399 2949 2741 1169 4450 2421 6587 5954 1315 520 4639 4274 4656 4586 4338 1021 15566 10086 704 9382 5480 4652 1572 1232 633 997 248 365 795 589 97 10660 1165 492 67 70 41 828 44
is_linear=0
shrinkage=0.1


Tree=14
num_leaves=61
num_cat=0
split_feature=37 60 71 30 131 33 107 32 71 111 136 109 4 72 37 69 117 75 108 136 133 39 107 72 32 95 72 106 39 35 72 72 38 81 38 59 69 130 36 34 115 105 127 131 104 32 135 61 120 122 40 38 31 67 31 59 59 46 39 71
split_gain=461.408 1191.14 1184.41 1380.68 1326.8 708.47 551.268 545.905 536.2 791.083 534.643 513.823 506.084 646.768 785.687 490.076 483.565 469.66 863.918 440.402 433.153 1258.39 429.026 391.988 638.669 354.335 324.859 324.455 306.389 304.451 1218.55 345.519 297.42 297.357 288.036 260.116 259.956 255.79 240.214 206.857 160.938 121.058 97.2329 88.6152 87.9764 62.0656 60.8014 59.902 38.8788 45.452 20.4505 7.29495 7.08704 4.19971 4.05318 2.13332 2.04583 0.950338 0.769034 0.570231
threshold=0.94321158528327953 0.74304747581481945 -0.45399081707000727 1.0609847307205202 1.0000000180025095e-35 0.84057968854904186 -1.0192763209342954 0.96460998058319103 -0.30828920006752009 -1.2449203133583067 1.0000000180025095e-35 -1.1058775782585142 0.51901346445083629 -0.65361824631690968 0.85194623470306408 -0.23013552278280255 -0.91479861736297596 -1.1063340902328489 -0.89269107580184925 1.0000000180025095e-35 1.0000000180025095e-35 0.96106708049774181 -0.8686372935771941 -0.62092274427413929 0.95511296391487133 -0.9454633593559264 -0.59139075875282276 -0.89347949624061573 0.91399651765823375 0.93838095664978038 -0.56281882524490345 -0.5769219398498534 0.94776377081871044 -1.2608962059020994 0.9467202126979829 0.78785058856010448 -0.14431916177272794 1.0000000180025095e-35 0.92209461331367504 0.92163130640983593 -1.377931475639343 -0.91808524727821339 -1.616039454936981 1.0000000180025095e-35 -1.003489017486572 0.94266504049301159 1.0000000180025095e-35 0.67329016327857982 -1.7493651509284971 -2.065581083297729 1.0417236089706423 0.96713334321975719 0.88033148646354686 0.14756444096565249 1.0019697546958926 0.80386555194854747 0.80386555194854747 1.1314686536788943 0.99660852551460277 -0.44050005078315729
decision_type=2 2 2 2 2 2 2 2 2 2 2 2 2 2 2 2 2 2 2 2 2 2 2 2 2 2 2 2 2 2 2 2 2 2 2 2 2 2 2 2 2 2 2 2 2 2 2 2 2 2 2 2 2 2 2 2 2 2 2 2
left_child=2 10 3 4 17 44 32 8 11 40 23 50 15 16 -15 46 -14 35 -19 -13 34 -22 33 38 45 36 -26 -11 -17 31 -31 -24 41 39 -8 -1 -6 -35 42 -9 -10 -7 -2 -34 -4 -25 -5 -40 49 -46 -3 53 -50 59 -27 58 -55 -57 -53 -12
right_child=1 7 5 12 25 6 20 22 9 27 51 19 13 14 -16 28 -18 18 -20 -21 21 -23 29 24 26 54 -28 -29 -30 30 -32 -33 43 37 -36 -37 -38 -39 47 -41 -42 -43 -44 -45 48 -47 -48 -49 52 -51 -52 55 -54 56 -56 57 -58 -59 -60 -61
leaf_value=-0.077935954552133715 0.2958228743316762 -0.18863577939914042 0.14241414694087104 -0.13328080209991286 0.050382684251282298 -0.028688114384957022 0.096846692417456776 0.092667551374927548 -0.08425393881457624 0.097853612555228467 -0.14492828203792024 0.025839923994974687 0.036914361561014956 0.15843290395600065 0.061448028851974569 0.18489739503975353 0.068832711754798701 -0.023120628073120097 0.041684263142155488 -0.032389657886951403 0.09497852984794089 -0.036288917126214057 0.056886687501123148 -0.14127078462149886 -0.012983020203636281 -0.11610485200676546 0.068858044624394363 -0.022280675630623314 0.00419112359125567 -0.10087155093159897 0.065959650385498558 0.11502884176928221 -0.15957386204387988 0.047260734257215338 0.067460278897138445 -0.0076430054251242904 0.11271933276885865 -0.085455766926171559 -0.12139550964321139 -0.12266015737618532 0.11342838791617715 0.10495772264380668 -0.11556463571568315 0.18969495074674914 -0.10240153798061931 -0.068544006213486719 -0.035121225006747685 -0.011940936820680797 -0.1063904669901695 0.15131337854039567 -0.11769455667934794 -0.15186230364135553 -0.14230630554925422 -0.19500772220210338 -0.16556060194218059 -0.18245348014768947 -0.24161973563727637 -0.14253414935108363 -0.13444610479980737 -0.17258289096278898
leaf_weight=1263.5966243548319 21.41402238607407 53.141710199415684 14.418372748885302 289.25481831654906 1629.8693075533956 183.29785034060478 4398.4583451971412 54.658224478363991 377.21741885971278 2177.392249032855 15.308399751782419 9622.1128530316055 32158.083668008447 941.81452828645706 7385.7218696400523 103.44055792689323 5568.395415879786 5005.4070129171014 3492.407039552927 1501.5486377924681 1550.2403930872679 1380.7679394390434 2211.6874146647751 222.92271718755364 996.44851033017039 65.006230152212083 944.96409676969051 250.6962610706687 1009.553944889456 500.88942370004952 3476.7653467953205 1900.2625291123986 166.99734530318528 1032.3226852864027 13801.0748845255 902.37790255434811 1134.7327080210671 168.99620750546455 449.4651405364275 242.77566664293408 46.2308709025383 107.54209460318089 7.8519023302942506 7.5945706367492667 18.259697377681736 247.76581898331642 80.710103221237659 56.258918873034418 100.62973039038479 11.512871132232247 172.66987778060138 101.5020299050957 121.00572905316949 45.5578922778368 22.241353414952755 29.933681450784206 11.869423702359198 7.4473726227879515 33.795008497312665 14.536241084337233
leaf_count=7459 39 242 20 1646 4686 648 5785 59 5520 3634 76 31143 66684 937 12924 111 8639 21437 10931 4642 2803 5060 4011 1102 3208 1608 1921 2345 3322 2214 6157 1542 856 3280 22346 3248 1423 831 2567 1033 32 140 131 1 898 1120 230 301 4525 246 920 477 678 184 109 128 50 52 222 61
internal_value=0 0.0294231 0.0444751 0.0373231 0.00912036 0.0644482 0.0664455 0.0371355 0.024688 0.0634542 -0.0277862 0.0149481 0.0453417 0.0471932 0.0724167 -0.0121579 0.0416255 -0.00708249 0.0035127 0.0179797 0.0688167 0.0331398 0.0555709 -0.01566 0.00151575 0.0697069 0.0268523 0.0854499 0.0209858 0.0646758 0.0449513 0.083756 -0.0412066 0.00642719 0.0745624 -0.0486508 0.0759688 0.0285908 -0.0930998 -0.0830903 -0.0626715 0.0207293 0.18545 -0.144381 -0.0978094 -0.102988 -0.111867 -0.109219 -0.111586 -0.00429152 -0.13439 -0.165264 -0.125999 -0.188828 -0.128712 -0.153354 -0.204642 -0.1745 -0.147512 -0.158398
internal_weight=0 26996.4 82914.4 61052.6 13515.6 21861.8 21596 23789.4 14201 2851.54 3207.04 11349.5 47537 46054 8327.54 1482.96 37726.5 10663.8 8497.81 11123.7 21130.5 2931.01 9588.36 2947.09 2412.1 2851.85 1941.41 2428.09 1112.99 8089.6 3977.65 4111.95 465.432 1498.75 18199.5 2165.97 2764.6 1201.32 534.99 297.434 423.448 290.84 29.2659 174.592 265.826 470.689 369.965 505.724 251.408 29.7726 225.812 259.95 221.635 87.272 87.2476 172.678 57.4273 37.3811 135.297 29.8446
internal_count=268644 79244 189400 145394 50901 44006 37639 67605 48478 11531 11639 36947 94493 89184 13861 5309 75323 43075 32368 35785 35994 7863 19127 10389 7351 7826 5129 5979 3433 13924 8371 5553 1645 5203 28131 10707 6109 4111 3038 1092 5552 788 170 857 6367 2222 1876 2868 6347 1144 1162 1250 5203 371 1717 879 234 180 699 137
is_linear=0
shrinkage=0.1


Tree=15
num_leaves=63
num_cat=0
split_feature=37 72 71 45 133 134 136 53 104 37 71 30 131 31 71 136 37 72 58 32 58 108 37 37 72 107 105 14 74 38 136 56 134 12 38 43 56 124 134 69 126 135 72 36 40 37 102 105 102 105 30 112 78 104 0 59 31 32 71 37 36 70
split_gain=439.707 1025.21 967.1 1349.42 726.968 780.62 642.768 619.146 650.004 1067.38 603.103 758.774 946.454 526.385 499.234 468.063 477.727 470.321 436.795 419.798 568.239 501.476 445.359 378.993 680.889 361.083 354.266 341.537 338.065 303.918 978.232 367.875 277.564 276.746 267.141 258.094 214.529 206.289 200.951 196.354 189.341 177.72 172.569 165.779 153.052 150.004 147.458 105.011 98.2809 125.672 91.094 69.8353 49.2427 44.8511 5.67955 3.14604 1.68424 1.37905 1.26438 1.16599 0.446666 0.0260049
threshold=0.9530133605003358 -0.57479867339134205 -0.43787653744220728 1.0911055207252505 1.0000000180025095e-35 1.0000000180025095e-35 1.0000000180025095e-35 1.1181461811065676 -0.81514963507652272 0.9411628544330598 -0.46054302155971522 1.064348101615906 1.0000000180025095e-35 0.99973037838935863 -0.50477600097656239 1.0000000180025095e-35 0.96339902281761181 -0.60968637466430653 0.83512386679649364 0.96460998058319103 0.95767274498939525 -1.0564790964126585 0.97500899434089672 0.98028263449668895 -0.53917047381401051 -1.026809513568878 -0.82018861174583424 0.88601189851760875 -0.92542415857315052 0.94393482804298412 1.0000000180025095e-35 0.93683946132659923 1.0000000180025095e-35 0.73977392911911022 0.99292197823524486 1.1399553418159487 0.94580245018005382 -1.3798496723175047 1.0000000180025095e-35 -0.14822883158922193 -1.7818751335144041 1.0000000180025095e-35 -0.56000405550003041 0.89182364940643322 0.99238979816436779 0.92064750194549572 -0.72195124626159657 -0.78562131524085987 -0.87424740195274342 -0.82387036085128773 1.0308240056037905 -1.1961581110954282 -1.2294390201568601 -0.84421390295028675 0.35847087204456335 0.80386555194854747 1.001746714115143 0.8704003393650056 -0.4071646779775619 0.96165627241134655 0.9432370960712434 -0.27326233685016627
decision_type=2 2 2 2 2 2 2 2 2 2 2 2 2 2 2 2 2 2 2 2 2 2 2 2 2 2 2 2 2 2 2 2 2 2 2 2 2 2 2 2 2 2 2 2 2 2 2 2 2 2 2 2 2 2 2 2 2 2 2 2 2 2
left_child=2 15 3 10 5 6 -5 8 9 25 11 12 -1 18 -13 16 17 37 -10 20 21 38 -23 26 40 -4 42 -11 -7 31 -31 -12 -19 34 -18 -26 -28 -2 -3 53 -25 48 -21 57 -15 -41 50 -48 -9 -50 -22 -45 -35 -6 58 61 -57 -43 59 -17 -60 -56
right_child=1 19 7 4 39 28 -8 41 13 27 29 14 -14 44 -16 54 33 32 -20 23 46 22 -24 24 35 -27 36 -29 -30 30 -32 -33 -34 52 -36 -37 -38 -39 -40 45 -42 43 -44 51 -46 -47 47 -49 49 -51 -52 -53 -54 -55 55 56 -58 -59 60 -61 -62 -63
leaf_value=7.1155773055796561e-05 -0.013379179976349213 -0.10190683200758646 -0.084510786011886246 0.028620668660107651 -0.12763431528934396 -0.12972606538399511 -0.07860723933385444 0.11603340322526312 -0.14923162071401302 0.013966803220017733 0.065687336760537549 0.037212928883534072 0.064792645211450076 -0.13163895821705437 0.065099926412373527 -0.13683006649334428 0.0054506793389618091 0.03922021081627558 0.065402736584735111 -0.053645478579575051 0.11293265637832919 0.036948333264943817 -0.022880772688473557 -0.024613879668181529 0.075875738846963192 0.064383751848189882 -0.18283234934504494 -0.061731314831583867 -0.023341264476609197 0.066249080434903532 -0.14495855233650198 0.13381350498516992 -0.11892223496579879 -0.17042810965371882 -0.0884751310710582 -0.012562671470056758 0.091721215080196705 -0.13604801522801191 0.20461592546090049 0.088487432440965436 -0.13851497659997442 -0.13230175102058309 0.04900311156099562 -0.066756474426897666 0.11153973340578305 -0.10933373648146348 -0.12307197009517229 0.096306794931515227 -0.10811975968583228 -0.016184666898267364 0.27999896848594874 0.13132380626456824 -0.066863037983912174 -0.066055789271776091 -0.1233786636522038 -0.1530699206278798 -0.18240856165707028 -0.17707963292974782 -0.155063009200333 -0.11200543262192171 -0.13494757754203032 -0.13339114358199139
leaf_weight=9946.2471398040652 294.46321979537606 460.73419509083033 166.00166070833802 6656.6900115152821 527.93814828246832 500.01934933289886 610.28698044642806 32.374316472560167 96.221825828775764 1938.1489705555141 2467.9229605766013 33337.466250799596 2923.5871693557128 26.069685876369476 7950.4309020936489 56.294116362929344 686.83294686116278 2342.8876883015037 6487.6514633959159 261.92392180860043 580.22682106494904 4002.9539116993546 1805.3027265388519 443.64517363905907 1458.2432280778885 8642.3806923874654 28.721174091100693 860.72142370045185 741.91198525484651 1657.2430381625891 252.73458527773619 1167.6522751040757 116.50457532703876 210.75672347936779 541.58317349478602 426.49955328553915 3126.5448791645467 256.51337861642241 22.428955033421516 95.839276224374771 217.492371506989 11.393682879395785 437.08025374263525 20.731131872162223 3583.2742316499352 63.881375350058079 44.92480079177767 42.425150603055954 302.15497650206089 292.74659430328757 34.582357615232468 125.8386195898056 58.697343526408076 152.43236831203103 3.0017259828746345 27.539432004094124 67.591409116983414 17.353068426251411 33.864252127707005 28.498714420944452 16.377493243664503 19.097882881760597
leaf_count=36044 1809 4378 649 20720 3186 3557 2437 33 1020 5129 4431 66070 7075 84 12693 435 2467 5871 12688 1097 516 10519 6746 1600 2479 13516 121 2550 3952 2478 997 1138 1285 1228 3599 1468 3555 1703 6 255 954 125 1011 68 3116 323 499 154 1886 6370 12 100 300 919 21 137 285 72 154 336 113 105
internal_value=0 0.022501 0.0395357 0.0336587 -0.00166784 0.00709412 0.0196156 0.0574897 0.0606653 0.0444839 0.0391906 0.0359744 0.0147737 0.0790915 0.0425829 -0.0173593 -0.00994196 0.0130202 0.0622659 0.0366685 0.0197323 0.0102096 0.0183525 0.055175 0.0252335 0.0615777 0.0749523 -0.00931223 -0.0661733 0.0705996 0.0383014 0.0875677 0.0317288 -0.0560906 -0.0359593 0.055863 0.0892221 -0.070489 -0.0876777 -0.0904139 -0.0620836 -0.0287681 0.0105396 0.0602418 0.109783 0.00936749 0.105057 -0.0165215 -0.0536453 -0.0628792 0.12233 0.103307 -0.147868 -0.113838 -0.149916 -0.16602 -0.173915 -0.159332 -0.135935 -0.128487 -0.148506 -0.132031
internal_weight=0 18154.2 91655.3 69052.3 9349 8508.91 7266.98 22603.1 21800.5 11607.3 59703.3 54157.7 12869.8 10193.2 41287.9 4760.5 4508.24 3010.37 6583.87 13393.7 6993.58 6291.42 5808.26 6400.15 2545.88 8808.38 3854.27 2798.87 1241.93 5545.55 1909.98 3635.58 2459.39 1497.87 1228.42 1884.74 3155.27 550.977 483.163 840.091 661.138 802.592 699.004 175.317 3609.34 159.721 702.159 87.35 627.276 594.902 614.809 146.57 269.454 680.371 252.265 117.23 95.1308 28.7468 135.035 84.7928 50.2417 22.0996
internal_count=268644 54963 213681 166275 35349 30666 23157 47406 38752 21844 130926 121882 43119 16908 78763 19848 18262 10668 13708 35115 22830 21649 17265 12285 6501 14165 5784 7679 7509 9044 3475 5569 7156 7594 6066 3947 3676 3512 4384 4683 2554 8654 2108 365 3200 578 1181 653 8289 8256 528 168 1528 4105 1586 548 422 197 1038 771 267 126
is_linear=0
shrinkage=0.1


Tree=16
num_leaves=62
num_cat=0
split_feature=135 73 107 72 128 38 50 75 96 32 54 32 118 123 66 105 118 89 75 114 30 103 45 78 106 94 27 60 31 31 114 111 119 76 36 106 37 106 58 55 49 56 45 85 122 68 73 109 100 31 123 31 31 29 31 119 55 31 31 15 114
split_gain=372.54 647.262 568.46 841.751 830.467 924.257 682.03 538.013 1432.38 454.992 436.041 432.606 399.972 509.351 426.596 505.479 398.865 410.98 332.714 325.698 271.062 351.314 264.669 260.357 257.662 255.448 273.09 236.18 243.554 198.681 177.964 124.744 134.165 113.714 303.94 284.784 135.54 127.447 119.461 94.2467 203.144 136.156 89.8514 83.947 80.9993 68.079 26.1927 21.8506 10.0937 4.43441 2.6847 2.16549 1.79429 1.01214 0.864006 0.52701 0.43942 0.101831 0.0261195 0.0224058 0.0200126
threshold=1.0000000180025095e-35 -0.93625542521476735 -0.87729674577713002 -0.48116745054721827 1.0000000180025095e-35 0.9300316870212556 1.1573302745819094 -1.0731185674667356 -0.93492209911346424 0.8704003393650056 1.0001806616783144 0.92729702591896068 -0.9133845567703246 -1.0727780461311338 -0.19767471402883527 -0.92570653557777394 -0.93022367358207692 -1.1687518358230589 -0.55827048420906056 -0.94149702787399281 1.0828145146369936 -0.95906582474708546 1.1933224797248843 -1.2146331071853635 -0.93717104196548451 -1.1032659411430357 1.3777338862419131 0.82944896817207348 0.97718322277069103 0.99040013551712047 -0.99731153249740589 -0.98990264534950245 -0.86449581384658802 -0.99946048855781544 0.87078058719635021 -0.91778093576431263 0.92064750194549572 -0.92163380980491627 0.7217085361480714 1.0360773205757143 1.1383107304573061 0.93095239996910106 0.70812174677848827 -1.3255462050437925 -1.0356990694999693 -0.12019341066479682 -0.67984753847122181 -0.81647229194641102 -0.79120969772338856 1.001746714115143 -1.0301670432090757 0.88415008783340465 1.0028412342071535 1.2357863783836367 0.88033148646354686 -0.89486300945281971 0.89656147360801708 0.89576590061187755 0.88033148646354686 1.236609220504761 -0.96536195278167714
decision_type=2 2 2 2 2 2 2 2 2 2 2 2 2 2 2 2 2 2 2 2 2 2 2 2 2 2 2 2 2 2 2 2 2 2 2 2 2 2 2 2 2 2 2 2 2 2 2 2 2 2 2 2 2 2 2 2 2 2 2 2 2
left_child=1 25 3 4 5 -3 7 8 -4 18 -9 12 13 14 30 -16 44 -18 -5 51 42 -22 -11 -6 39 47 31 29 -29 -8 -2 32 -27 34 38 -36 45 -38 -26 40 41 -13 -21 -33 -15 -35 -42 49 -41 55 -51 60 54 -53 -28 -1 -54 58 -49 -59 -14
right_child=11 2 6 9 23 -7 27 10 -10 22 -12 24 19 16 15 -17 17 -19 -20 20 21 -23 -24 -25 33 26 52 28 -30 -31 -32 43 -34 36 35 -37 37 -39 -40 48 46 -43 -44 -45 -46 -47 -48 57 -50 50 -52 53 56 -55 -56 -57 -58 59 -60 -61 -62
leaf_value=-0.13523069487942982 -0.13409721215085049 0.026487164848768771 0.038867402862615169 -0.13853939909245278 0.016442692614250024 -0.007762146131960912 -0.081685397557885578 0.09768481899494362 -0.04356951361667119 0.071628747648038768 0.048541951081992309 0.012053782014259315 -0.11861224343702337 0.14106951783652161 -0.073535711641864954 0.040735127784799145 -0.12472576475865521 0.025609497637838315 0.018098168128172065 -0.043485880184272518 0.13407937115789201 -0.0040962131493763052 0.0063868948147270763 0.10688717256719238 -0.08685223563136403 0.56006354703468808 -0.11748995936231697 -0.13296547126719402 0.10537269703876884 -0.00034858677247531398 0.26398514748467766 0.16038779005923431 0.10359085857596979 0.25876799630911335 -0.2279498696120705 0.02638039616046935 0.0066393510175965197 0.11122814627986199 0.093837252122691672 0.19800018093064489 -0.036881732646209052 0.13160163331591904 0.13371760334830327 -0.010534586058903762 -0.14922257359781196 0.13495225355039686 -0.15935769019664839 -0.10280382840781266 0.11123616436079985 -0.16298694910102851 -0.19785276985609918 -0.17084391736933191 -0.19502922680792412 -0.12859346697170396 -0.13982382515422906 -0.15283751483806787 -0.1596451458828676 -0.11791679663199489 -0.10655087537984881 -0.10990751982461644 -0.12538814456336703
leaf_weight=22.95943059772253 12.491873040795324 19066.772614631802 24366.5264188773 152.39128487091511 424.97382160276175 13428.746491244063 694.44520132103935 2027.3309134077281 2307.3185177501291 5506.3061471618712 16503.844999100082 543.3715561106801 9.9060266297310609 10.014363527297972 399.60773316211998 12375.488772279583 218.31868562102318 1088.4228953570127 1231.1494872896001 29.572239488363266 294.75393655896187 489.73278920352459 700.95627435855567 1267.6939453817904 37.328850716352463 8.9518699869513529 22.463595952838659 53.689311838708818 212.86731689423323 529.15436987578869 111.18757753819227 34.708881673403084 22.936666545458138 48.388895064592361 50.154934823513031 360.35086628049612 178.71600367873907 334.72362016141415 1848.1034162193537 24.426023527979851 23.698683857917786 115.52418197691441 883.17896701395512 166.94507573451847 239.19155374914408 539.79366562515497 66.344366036355495 56.407450042199343 29.725351348519325 45.430901408195496 42.977020144462585 33.139073461294174 4.86137327551842 6.8402917385101309 75.672918811440468 65.499276381917298 12.622202441096304 5.7961394041776648 27.757557604461908 8.789335295557974 7.7838830798864356
leaf_count=124 75 48693 53026 982 1005 48540 4314 3747 8701 7362 32045 1101 79 14 1278 20270 715 2365 12733 128 80 1152 2576 2770 98 5 194 418 514 2117 83 133 212 13 215 587 360 313 1643 12 71 119 628 803 1013 376 304 2478 33 198 174 140 20 40 381 320 56 47 491 109 51
internal_value=0 0.0303371 0.0310533 0.0225791 0.0158908 0.0123337 0.0386353 0.0408296 0.0317365 0.0527027 0.0539182 0.045315 0.0379037 0.0324304 0.0389501 0.0371607 -0.0216177 0.000492828 0.000845189 0.082986 0.0909271 0.0478203 0.0642613 0.0841795 0.0739139 -0.0710887 -0.0142784 -0.0279292 0.0573671 -0.0465107 0.223778 0.0479477 0.231734 0.085955 0.0732826 -0.00469326 0.112366 0.0748233 0.0902599 0.0229728 0.0137612 0.0330141 0.127976 0.0188847 -0.137557 0.145138 -0.127123 -0.143058 0.150373 -0.164097 -0.179936 -0.150725 -0.13997 -0.163615 -0.134712 -0.148268 -0.169484 -0.105376 -0.10404 -0.11309 -0.121594
internal_weight=0 89098.9 88474.2 41779 34188.2 32495.5 46695.2 45205 26673.8 7590.8 18531.2 20410.3 16209.6 14454.7 12898.8 12775.1 1555.95 1306.74 1383.54 1754.91 1697.24 784.487 6207.26 1692.67 4200.65 624.78 349.163 1490.16 266.557 1223.6 123.679 233.542 31.8885 3397.56 2295.94 410.506 1101.62 513.44 1885.43 803.09 748.939 658.896 912.751 201.654 249.206 588.183 90.043 275.617 54.1514 176.867 88.4079 57.6693 115.62 39.9794 98.1365 88.4587 17.4836 98.7505 84.165 14.5855 17.6899
internal_count=268644 235288 229543 124661 101008 97233 104882 97519 61727 23653 35792 33356 28111 25813 21706 21548 4107 3080 13715 2298 1988 1232 9938 3775 5245 5745 1804 7363 932 6431 158 1153 217 3605 2543 802 1062 673 1741 1640 1595 1220 756 936 1027 389 375 3941 45 816 372 310 651 180 575 444 76 3125 2969 156 130
is_linear=0
shrinkage=0.1


Tree=17
num_leaves=57
num_cat=0
split_feature=117 75 115 131 75 75 98 111 77 76 114 110 120 130 31 43 39 75 77 111 136 75 118 90 115 91 98 111 93 32 116 104 50 90 5 74 31 31 31 110 111 32 54 117 83 75 115 4 79 19 31 30 31 53 31 31
split_gain=331.077 732.8 779.106 802.018 682.711 642.703 518.164 474.728 1749.02 525.637 1344.77 509.601 464.955 422.872 390.905 388.41 373.386 369.61 276.311 1771.14 248.445 261.002 258.41 242.622 208.233 203.467 191.118 149.434 144.126 222.042 141.651 141.799 96.5256 95.1357 90.1437 82.2773 80.3902 80.0267 79.1434 77.5244 70.662 57.5 46.7824 45.3317 43.2131 28.953 76.9923 26.3998 81.337 15.6618 8.30034 6.1474 4.26051 2.79071 0.34726 0.0435287
threshold=-0.911596119403839 -1.1189228892326353 -0.93545630574226368 1.0000000180025095e-35 -1.1555964946746824 -1.136752128601074 -0.99511322379112233 -0.91083130240440358 -1.2516148686408994 -1.1660377383232114 -0.96862292289733876 -0.92020627856254567 -0.99718478322029103 1.0000000180025095e-35 0.98039710521698009 0.69860714673995983 1.0355648398399355 -1.1585094928741453 -1.2650430202484129 -0.90001726150512684 1.0000000180025095e-35 -1.1887069940567014 -0.86860203742980946 -1.2062305212020872 -0.92769911885261525 -1.1972219347953794 -0.93265280127525318 -0.87834003567695607 -1.1526322960853574 0.95642462372779857 -0.92099490761756886 -0.93315163254737843 0.90171641111373912 -1.2062305212020872 0.76395204663276683 -1.0043652057647703 1.0007060170173647 1.0010185837745669 0.99652978777885448 -0.87008643150329579 -0.91142922639846791 0.97086527943611156 1.0618324875831606 -1.0300006866455076 -1.2980287075042722 -1.1617611050605772 -0.87521827220916737 0.73368296027183544 -1.1498730778694151 1.1507606506347658 1.001746714115143 1.0422115325927737 1.001746714115143 1.0886285901069643 1.001746714115143 0.88033148646354686
decision_type=2 2 2 2 2 2 2 2 2 2 2 2 2 2 2 2 2 2 2 2 2 2 2 2 2 2 2 2 2 2 2 2 2 2 2 2 2 2 2 2 2 2 2 2 2 2 2 2 2 2 2 2 2 2 2 2
left_child=1 2 33 5 38 25 -6 8 14 10 -10 -11 -7 15 40 30 18 28 19 -9 21 22 -17 -20 -23 -4 27 32 29 52 31 55 -19 -1 41 54 -29 42 -5 -37 -3 -35 -28 -18 -16 50 -47 48 -32 -39 -30 -49 -15 -45 -22 -2
right_child=13 7 3 4 6 12 -8 16 9 11 -12 -13 -14 17 44 20 43 26 23 -21 35 24 -24 -25 -26 -27 37 36 45 -31 47 -33 -34 34 -36 39 -38 49 -40 -41 -42 -43 -44 53 -46 46 -48 51 -50 -51 -52 -53 -54 -55 -56 -57
leaf_value=0.20570420015254332 -0.11649165252649765 0.030404811097952927 0.031598455999748608 0.090970315122055598 -0.15848615100106866 -0.081112912209965832 0.076701387070005872 -0.14928447589411412 -0.11492750875163378 0.027609174673548672 0.018951857158408341 0.049894485927432425 0.019143400354565153 -0.11291937045346141 -0.15843347769647637 -0.1166642032183096 0.05294606033504428 0.13512119012623633 -0.067740976704236969 0.048915263966748279 -0.12268098866101995 -0.0098894275578800955 0.043436173563077385 0.064350318566407133 0.071867233783097811 -0.12200618329251776 -0.14559941655021114 0.14830413369735881 -0.12290662752869344 0.14764451127443662 0.27373537705243495 0.27106958328313252 -0.10255914021538742 -0.13071989467615067 0.20402677641553446 -0.12719085885000186 0.057133759692692389 0.1486947620106884 -0.17750174205137692 0.12216335298032764 0.26174601462239744 0.10700441529479353 0.026581063329364486 -0.17725493264223519 0.036598330132049925 -0.14522999139776879 0.092332923754252075 -0.10565046038758684 -0.1051322470073721 0.0042394447383795157 -0.16160457927725047 -0.14534817002585793 -0.17096780985218862 -0.13192948901351978 -0.13633723876263887 -0.12832515556863919
leaf_weight=9.0428220145404321 11.914296731352808 32.808217501267791 98.603112019598484 11.945832416415213 98.048565253615379 577.50492878630757 2101.6245632730424 488.65940716676414 851.50255912169814 59692.716969689354 6311.0855239108205 12391.083270083182 2324.5101977773011 32.513539407867938 612.50603873841465 152.06590346992016 13.89408342540264 22.01154812425375 141.69536653161049 5829.641461700201 65.57105416059494 327.05896838614717 299.12708455044776 7457.2581457067281 6562.1024783002213 687.53141206875443 84.146656576544046 143.76343453489244 149.51098951511085 57.774484619498253 7.1703860387206069 21.935847487300634 76.367137417197227 539.22482050955296 8.3907550573348981 19.828431144356728 295.53054059296846 14.103287979960443 135.85951155424118 33.589561606757343 22.09508578851819 10.370355434715746 19.422657376155257 15.593350440263746 11.575391352176664 37.576818600296974 21.418372288346291 91.931065319571644 27.016820832621306 16.043156370520592 88.079802483320236 67.761423654854298 20.689747914671898 105.42277216538787 26.005412817001343 4.2057906389236441
leaf_count=23 115 152 183 22 382 2222 2649 2409 4430 157152 14232 23533 5008 1047 3114 608 32 53 481 10990 468 2020 717 11869 8619 3212 486 296 1043 30 8 21 439 2841 7 145 398 3 572 80 14 16 209 66 30 207 31 2995 1272 38 389 360 86 660 135 25
internal_value=0 0.0282211 -0.00398135 0.00654748 0.0522389 -0.0225347 0.0662181 0.0304836 0.0275034 0.0288727 0.00303601 0.03144 -0.000807741 0.0484523 -0.132311 0.0566506 0.047434 -0.0101868 0.049039 0.0335864 0.0605997 0.0631602 -0.0105226 0.0618873 0.0679859 -0.10274 0.035415 0.0620221 -0.0853075 0.0119069 -0.0707981 0.105595 -0.0493798 -0.116053 -0.121268 -0.0690262 0.0869702 -0.0715722 -0.155803 0.0296046 0.123505 -0.126234 -0.11331 -0.118128 -0.154816 -0.121684 -0.0589821 -0.105422 -0.025669 0.0718194 -0.137253 -0.122495 -0.135493 -0.13777 -0.126559 -0.119579
internal_weight=0 100580 6602.66 6035.63 2347.48 3688.15 2199.67 93977.5 79925.4 79246.4 7162.59 72083.8 2902.02 8796.24 678.985 7717.28 14052.2 1078.95 13917.3 6318.3 7485.35 7340.35 451.193 7598.95 6889.16 786.135 671.388 537.673 407.564 110.978 231.936 38.0559 98.3787 567.029 557.986 144.994 439.294 133.716 147.805 53.418 54.9033 549.595 103.569 134.91 624.081 296.586 58.9952 193.88 34.1872 30.1464 237.591 159.692 53.2033 121.016 91.5765 16.1201
internal_count=268644 246301 17137 14250 3625 10625 3031 229164 202657 199347 18662 180685 7230 22343 3310 17588 26507 4755 25749 13399 12792 11964 1325 12350 10639 3395 1922 1186 2833 1163 4796 161 492 2887 2864 828 694 736 594 225 166 2857 695 758 3144 1670 238 4635 1280 41 1432 3355 1133 726 603 140
is_linear=0
shrinkage=0.1


Tree=18
num_leaves=62
num_cat=0
split_feature=38 70 60 30 72 37 136 38 71 133 73 37 136 3 73 130 74 136 34 111 136 30 104 27 118 107 31 83 94 31 89 51 136 61 41 17 49 69 44 56 28 43 69 29 71 38 74 32 77 131 28 108 39 32 0 60 44 72 71 14 59
