tree
version=v4
num_class=1
num_tree_per_iteration=1
label_index=0
max_feature_idx=136
objective=binary sigmoid:1
feature_names=Column_0 Column_1 Column_2 Column_3 Column_4 Column_5 Column_6 Column_7 Column_8 Column_9 Column_10 Column_11 Column_12 Column_13 Column_14 Column_15 Column_16 Column_17 Column_18 Column_19 Column_20 Column_21 Column_22 Column_23 Column_24 Column_25 Column_26 Column_27 Column_28 Column_29 Column_30 Column_31 Column_32 Column_33 Column_34 Column_35 Column_36 Column_37 Column_38 Column_39 Column_40 Column_41 Column_42 Column_43 Column_44 Column_45 Column_46 Column_47 Column_48 Column_49 Column_50 Column_51 Column_52 Column_53 Column_54 Column_55 Column_56 Column_57 Column_58 Column_59 Column_60 Column_61 Column_62 Column_63 Column_64 Column_65 Column_66 Column_67 Column_68 Column_69 Column_70 Column_71 Column_72 Column_73 Column_74 Column_75 Column_76 Column_77 Column_78 Column_79 Column_80 Column_81 Column_82 Column_83 Column_84 Column_85 Column_86 Column_87 Column_88 Column_89 Column_90 Column_91 Column_92 Column_93 Column_94 Column_95 Column_96 Column_97 Column_98 Column_99 Column_100 Column_101 Column_102 Column_103 Column_104 Column_105 Column_106 Column_107 Column_108 Column_109 Column_110 Column_111 Column_112 Column_113 Column_114 Column_115 Column_116 Column_117 Column_118 Column_119 Column_120 Column_121 Column_122 Column_123 Column_124 Column_125 Column_126 Column_127 Column_128 Column_129 Column_130 Column_131 Column_132 Column_133 Column_134 Column_135 Column_136
feature_infos=[-1.8014661073684692:2.1475074291229248] [-1.7160434722900391:2.0597634315490723] [-1.6382262706756592:1.9801409244537354] [-1.5680137872695923:1.9086390733718872] [-1.5054070949554443:1.8452587127685547] [-1.4504051208496094:1.7899996042251587] [-1.4123568534851074:1.7536556720733643] [-1.3844102621078491:1.77842116355896] [-1.3517893552780151:2.0758624076843262] [-1.3099035024642944:2.0974209308624268] [-1.2559221982955933:1.9997674226760864] [-1.1870334148406982:2.073509693145752] [-1.1039742231369019:2.1457490921020508] [-1.0067610740661621:2.2142360210418701] [-0.90047705173492432:2.2825961112976074] [-0.78966546058654785:2.355140209197998] [-0.67814630270004272:2.3999395370483398] [-0.65620064735412598:2.4998569488525391] [-0.66012513637542725:2.5653238296508789] [-0.66667592525482178:2.5221147537231445] [-0.8555336594581604:2.4413206577301025] [-0.86833834648132324:2.3840618133544922] [-0.86565589904785156:2.2409591674804688] [-0.70636492967605591:2.1797337532043457] [-0.68053698539733887:2.1696581840515137] [-0.94777458906173706:2.0883691310882568] [-1.274228572845459:1.9448176622390747] [-1.700652003288269:1.7025836706161499] [-1.9202775955200195:1.5450669527053833] [-2.1668190956115723:1.3473584651947021] [-2.5042393207550049:1.1459542512893677] [-2.6881959438323975:1.0652625560760498] [-2.6397361755371094:1.0082290172576904] [-2.3245775699615479:0.99408984184265137] [-1.6179424524307251:0.99887841939926147] [-0.8696785569190979:1.0987448692321777] [-0.66328972578048706:1.3781088590621948] [-0.67049169540405273:1.4172744750976562] [-0.67192721366882324:1.4165236949920654] [-0.67710685729980469:1.3777114152908325] [-0.67391806840896606:1.3165556192398071] [-0.77278417348861694:1.2266663312911987] [-0.78214722871780396:1.2687077522277832] [-0.67822211980819702:1.5027958154678345] [-0.67593681812286377:1.6759111881256104] [-0.67998087406158447:1.7528411149978638] [-0.67735743522644043:1.7343066930770874] [-0.68056988716125488:1.8940913677215576] [-0.67851173877716064:2.0411467552185059] [-0.68057990074157715:2.1347439289093018] [-0.67633002996444702:2.1180493831634521] [-0.68167710304260254:2.1010029315948486] [-0.6882440447807312:2.2836933135986328] [-0.69760811328887939:2.324758768081665] [-0.68820065259933472:2.0119130611419678] [-0.66498374938964844:1.7058380842208862] [-0.63047897815704346:1.5109990835189819] [-0.64525216817855835:1.3603483438491821] [-0.88048118352890015:1.3460699319839478] [-0.73171019554138184:1.3262704610824585] [-0.62303602695465088:1.3006186485290527] [-0.62908732891082764:1.6912268400192261] [-0.65896600484848022:1.8743280172348022] [-0.67422842979431152:1.7138135433197021] [-0.93073725700378418:1.3433690071105957] [-1.1305865049362183:1.0751444101333618] [-1.2528316974639893:0.99085426330566406] [-1.6713657379150391:0.88485002517700195] [-1.8910553455352783:0.75389385223388672] [-2.0949718952178955:0.60495084524154663] [-1.9126988649368286:0.45876148343086243] [-1.7446892261505127:0.33052113652229309] [-1.674402117729187:0.23037496209144592] [-1.5674382448196411:0.15855956077575684] [-1.3374539613723755:0.30397361516952515] [-1.5821062326431274:0.9557119607925415] [-1.8401819467544556:1.4404212236404419] [-2.0371255874633789:1.2026444673538208] [-2.1728529930114746:1.1285310983657837] [-2.2573421001434326:0.92254304885864258] [-2.3058340549468994:0.73609095811843872] [-2.3315773010253906:0.28676301240921021] [-2.3403120040893555:0.33890664577484131] [-2.3343968391418457:0.39074629545211792] [-2.3124566078186035:0.5232703685760498] [-2.2730567455291748:0.47703936696052551] [-2.2140905857086182:0.50853937864303589] [-2.1362462043762207:0.53271615505218506] [-2.0426793098449707:0.59374678134918213] [-1.9374580383300781:0.56802195310592651] [-1.8240519762039185:0.64909452199935913] [-1.8478662967681885:1.0685811042785645] [-1.648851752281189:1.4172115325927734] [-1.5798866748809814:1.6287872791290283] [-1.5245249271392822:1.6645923852920532] [-1.4861346483230591:1.6165035963058472] [-1.4547033309936523:1.5600550174713135] [-1.4384253025054932:1.5597559213638306] [-1.4264529943466187:1.5645072460174561] [-1.5388252735137939:1.5648646354675293] [-2.0638625621795654:1.5687597990036011] [-2.4619696140289307:1.5660412311553955] [-2.648137092590332:1.569068431854248] [-2.5047333240509033:1.5662518739700317] [-2.1062953472137451:1.5674868822097778] [-1.4475361108779907:1.5623446702957153] [-1.1201972961425781:1.563502311706543] [-1.1055401563644409:1.5619508028030396] [-1.1654683351516724:1.5697338581085205] [-1.225186824798584:1.5736351013183594] [-1.369315505027771:1.5824931859970093] [-1.6010570526123047:1.5858457088470459] [-2.1418814659118652:1.5901247262954712] [-2.4733853340148926:1.5896482467651367] [-2.5047738552093506:1.5896980762481689] [-2.0072333812713623:1.5865405797958374] [-1.577265739440918:1.5868538618087769] [-1.6321159601211548:1.7016431093215942] [-1.6864286661148071:2.5795986652374268] [-1.7459897994995117:2.8008601665496826] [-1.820858359336853:2.5472877025604248] [-1.9280952215194702:1.7180403470993042] [-2.15055251121521:1.6308574676513672] [-2.3795907497406006:1.6220458745956421] [-2.6580204963684082:1.6080794334411621] [-2.9761693477630615:2.1645474433898926] [-3.3320021629333496:3.0688047409057617] [-3.8750591278076172:4.2020993232727051] [0:1] [0:1] [0:1] [0:1] [0:1] [0:1] [0:1] [0:1] [0:1]
tree_sizes=5524 6681 6209 5618 4793 6072 5977 5774 6198 6442 6223 6105 6318 6230 6321 6336 5956 6105 6651 6448 6887 6955 5781 6695 6583 6905 6452 6063 6910 6471 6928 6763 5584 6961 5684 5429 6694 5557 6592 6377 6688 6949 5147 6796 5822 6835 5520 5506 6032 5636 6589 6930 6672 5750 6551 6924 6963 5399 5881 6623 5524 6826 6155 5877 6515 6616 6145 6952 6599 5215 6268 6676 6012 6805 6932 5512 6814 6450 6946 6496 5222 6652 6831 6930 6914 6818 6182 5947 6408 5253 6571 6937 6479 6727 6937 6038 6698 6929 6939 6780 6949 6084 5452 6935 6712 6600 6800 6923 6761 6717 6484 6938 6120 6933 6961 6717 6272 6970 5963 6650 6370 6784 6933 6738 6586 6602 6802 6925 6824 6491 6935 6499 6144 6591 6721 5895 6809 6828 5670 6811 6949 6924 6163 6173 6803 6902 6327 6136 6254 6405 4560 6851 6450 6456 6960 6720 6775 6135 6575 6733 5732 5466 6257 6568 6462 4746 5933 6728 6373 6835 6236 4534 6474 6335 6425 6934 4668 6828 6814 6955 6947 6914 6452 5188 6952 6486 6786 6821 6819 6189 5944 6573 6926 6695 3684 5540 6534 6706 6089 6494

Tree=0
num_leaves=51
num_cat=0
split_feature=108 101 82 113 75 77 114 31 122 53 31 113 125 35 78 110 124 133 126 60 108 53 104 30 66 45 116 114 107 39 80 114 108 51 20 39 107 50 31 12 33 107 39 129 108 107 0 0 35 39
split_gain=95590.6 104919 78090 84764.1 78579.5 35896.5 34313.5 33383.9 32155.4 36622.9 28846 21511.2 18529.5 15235.2 10520.3 10471.2 9371.19 7165.67 6981.99 4509.18 4119.2 4407.48 5435.9 5432.52 3345.6 2853.55 4614.87 2659.03 2278.58 2262.16 1645.32 1384.85 1102.07 2314.68 2971.14 1298.88 1000.92 2084.41 1006.14 789.961 564.261 365.187 221.654 100.711 619.983 40.6866 7.10543e-15 3.55271e-15 3.55271e-15 3.55271e-15
threshold=-1.0458941459655759 -0.77703833580017079 -1.3784065246582029 -0.95228266716003407 -1.1072130203247068 -1.2209712266921995 -1.3913587927818296 0.99696049094200145 -2.0657891035079952 1.1285665631294253 0.99829620122909557 -0.93194976449012745 -1.5658352375030515 0.8706132471561433 -1.3635197281837461 -0.86237508058547963 -1.4848128557205198 1.0000000180025095e-35 -1.6000232100486753 0.78414720296859752 -1.061969995498657 1.096629321575165 -0.88411992788314808 1.0875583291053774 0.1461407616734505 1.2150301933288576 -1.4566903114318845 -0.86280015110969532 -0.85833001136779774 0.99831813573837291 -1.399365961551666 -1.3835752010345457 -1.0550273656845091 1.1390062570571902 1.2139644026756289 0.99891322851181041 -1.0222848653793333 1.0992918610572817 0.93515533208847057 1.0000000180025095e-35 0.95117974281311046 -1.000827372074127 1.002463221549988 1.0000000180025095e-35 -1.0566181540489195 -0.9983835220336913 0.5434960424900056 0.30105954408645635 0.834272861480713 0.965205878019333
decision_type=2 2 2 2 2 2 2 2 2 2 2 2 2 2 2 2 2 2 2 2 2 2 2 2 2 2 2 2 2 2 2 2 2 2 2 2 2 2 2 2 2 2 2 2 2 2 2 2 2 2
left_child=13 2 14 5 7 16 29 -5 25 12 -7 -6 -10 20 19 28 -4 -11 -17 30 36 22 23 -22 -24 31 -27 -21 -16 -3 -2 -8 40 34 35 -34 46 38 -38 -31 43 -39 -41 45 -45 -15 -1 -36 -23 -50
right_child=1 6 3 4 11 10 8 -9 9 17 -12 -13 -14 32 15 18 -18 -19 -20 27 21 48 24 -25 -26 26 -28 -29 -30 39 -32 -33 33 -35 47 -37 37 41 -40 42 -42 -43 -44 44 -46 -47 -48 -49 49 -51
leaf_value=-3.4189299416896137 -3.3274363343119591 -1.1439691206189613 -1.1997878772568309 -3.075840105970729 -1.6235967582865418 -2.3374836536043686 -1.1018768962883261 -1.9771327245602071 -1.3174641678937793 -2.8271553691273374 -1.9167540198416457 -1.136250355492558 -2.5275776860648387 -3.4189299416896137 -1.0886102823072012 -1.3716653892512725 -3.2047569342503142 -1.6320676492345338 -2.4530035714601741 -2.829209686625048 -3.1197009698107103 -3.4189299416896137 -0.78866637824850239 -0.83048662146393726 -1.9444517644840682 -3.4189299416896137 -0.60288494059760822 -0.9913126251497868 -3.0758202546275575 -0.46223912264949263 -2.5371091741609164 -0.49674169614291852 -1.5964425109112659 -3.4189299416896137 -3.4189299416896137 -2.7106812923106349 -0.73813533965464018 -3.4189299416896137 -2.4246038357961135 -2.5843257876037109 -1.3063373273758638 -2.7143595320044529 -3.4189299416896137 -3.4189299416896137 -0.75276981443939084 -3.348098382942351 -3.4189299416896137 -3.4189299416896137 -3.4189299416896133 -3.4189299416896137
leaf_weight=32.265800647437572 421.26243574172258 4.8406258933246127 24.811918158084154 377.14248294755816 1901.4813802577555 3143.96319469437 41.586035303771496 1036.8384559191763 2677.7746158801019 223.30599726364017 3383.1897020749748 1729.4963362030685 132.81115015223622 266.31123092025518 5.9070405922830096 82.029736809432507 385.63102751970291 64.710336204618216 219.46342493221164 18.673657827079296 55.203048292547464 1.217577382922175 37.680675689131021 12.763154793530701 74.685637447983027 9.2671167477965355 15.642128236591816 13.60869464278221 248.73916041478515 0.93112832307815452 28.098144192248583 417.36015665531158 22.659074496477842 86.549458969384432 24.960336349904541 19.43567818030715 6.1617370359599581 19.751810878515244 8.3063047863543016 3.298639900982379 1.3031658567488182 11.7222857773304 90.066904742270708 5.6143845990300179 1.0325931049883355 116.60304867848754 1.1837557889521111 4.5997367799282065 1.0484694130718732 22.017857674509287
leaf_count=954 12084 37 203 9904 23323 60192 301 16250 24945 5329 51055 13091 2786 7874 42 807 10606 799 4446 446 1473 36 159 59 1147 274 38 84 6532 1 592 587 272 2559 738 442 23 584 166 71 12 267 2663 166 4 3368 35 136 31 651
internal_value=-3.3153 -1.88844 -2.02171 -1.94964 -1.63775 -2.17645 -1.4171 -2.27018 -1.36631 -1.4847 -2.11941 -1.39147 -1.37465 -2.98602 -2.85388 -2.55758 -3.08355 -2.55865 -2.15879 -3.19601 -2.39141 -2.15419 -1.98387 -2.68982 -1.55687 -0.60815 -1.65055 -2.05444 -3.02972 -3.25231 -3.27802 -0.551574 -3.29358 -3.07089 -2.65051 -2.1109 -3.00281 -2.69984 -1.70636 -3.36054 -3.38371 -3.15652 -3.38944 -3.39066 -3.00475 -3.39736 -3.41893 -3.41893 -3.41893 -3.41893
internal_weight=0 16701.9 13020.3 11982.6 5044.96 6937.6 3681.59 1413.98 3582.46 3098.6 6527.15 3630.98 2810.59 833.077 1037.78 556.139 410.443 288.016 301.493 481.643 284.008 204.616 180.333 67.9662 112.366 483.855 24.9092 32.2824 254.646 99.1373 449.361 458.946 549.069 158.204 71.6548 42.0948 79.3917 45.9421 14.468 94.2967 390.864 31.4741 93.3655 389.561 6.64698 382.914 33.4496 29.5601 24.2839 23.0663
internal_count=268644 247488 209657 184624 62568 122056 37831 26154 35059 33859 111247 36414 27731 21156 25033 11827 10809 6128 5253 13206 5585 3556 2838 1532 1306 1200 312 530 6574 2772 12676 888 15571 4147 1588 714 2029 1040 189 2735 11424 851 2734 11412 170 11242 989 874 718 682
is_linear=0
shrinkage=1


Tree=1
num_leaves=62
num_cat=0
split_feature=30 83 104 28 104 29 79 46 124 135 40 29 107 76 136 74 107 81 99 26 75 29 0 31 82 30 14 104 53 103 133 30 105 92 129 25 2 106 69 29 101 94 71 33 30 49 129 79 110 62 31 106 74 121 100 31 107 73 100 75 32
split_gain=9242.16 11297.2 8823.52 7783.24 9837.61 7167.06 9091.56 6186.64 6423.52 5470.5 4590.23 4083.17 4068.84 4055.03 3523.39 2758.16 2648.26 2541.14 2422.82 2204.41 2178.45 1956.21 1927.54 1662.05 1494.46 1451.1 1291.33 1170.85 1019.7 1777.65 921.133 895.572 1713.42 1378.17 893.328 882.204 789.142 711.498 544.01 469.243 469.03 433.9 328.822 328.173 315.608 306.15 290.352 268.35 391.167 197.461 188.303 180.375 196.139 147.426 128.837 103.954 74.1054 14.6966 1.84079 0.00470385 0.0005457
threshold=1.0937854647636416 -1.0046308040618894 -0.89164811372756947 1.2048774361610415 -0.84714263677597035 1.1670047640800478 -0.96243616938590992 1.1582127213478091 -1.3733270168304441 1.0000000180025095e-35 0.98748761415481578 1.2353284955024721 -0.97587528824806202 -1.1637472510337827 1.0000000180025095e-35 -0.97860744595527638 -1.0089330077171323 -1.2610333561897276 -0.97778901457786549 1.4815627932548525 -1.1072130203247068 1.1479225754737856 0.54925790429115307 0.99542653560638439 -1.3762595653533933 1.0869573354721072 1.0355811119079592 -0.92299717664718617 0.92537033557891857 -0.90277370810508717 1.0000000180025095e-35 1.1029903888702395 -0.92977389693260182 -1.0629897117614744 1.0000000180025095e-35 1.3557151556015017 0.67441707849502575 -0.97900307178497303 -0.23359882086515424 1.1573541164398196 -0.95505306124687184 -0.84251505136489857 -0.63956850767135609 0.85613960027694713 1.0864154696464541 1.0343447923660281 1.0000000180025095e-35 -0.98935675621032704 -1.049720764160156 0.23234925419092181 0.9635620415210725 -0.97900307178497303 -0.88262084126472462 -0.9941749870777129 -0.88222846388816822 0.99794739484786998 -0.98271536827087391 -0.87114176154136647 -0.92047089338302601 -1.1107571721076963 0.91233518719673168
decision_type=2 2 2 2 2 2 2 2 2 2 2 2 2 2 2 2 2 2 2 2 2 2 2 2 2 2 2 2 2 2 2 2 2 2 2 2 2 2 2 2 2 2 2 2 2 2 2 2 2 2 2 2 2 2 2 2 2 2 2 2 2
left_child=2 18 5 4 10 24 11 8 -6 13 15 14 -9 23 -7 -4 41 44 40 37 22 -15 60 -5 26 -19 35 -13 29 -26 -18 32 -22 -33 -12 -1 -24 42 -30 -28 45 -8 -3 53 -11 49 -47 48 -39 -2 57 52 -52 -42 -44 -49 -53 -21 -59 -45 -20
right_child=1 19 3 9 7 6 16 12 -10 17 34 27 -14 21 -16 -17 30 25 20 50 31 -23 36 -25 28 -27 39 -29 38 -31 -32 33 -34 -35 -36 -37 -38 47 -40 -41 43 -43 54 59 -46 46 -48 55 -50 -51 51 56 -54 -55 -56 -57 -58 58 -60 -61 -62
leaf_value=0.47528933439925236 0.11864215903632623 0.83656695111711898 0.080571077310629222 0.18596703499309364 0.36540224055771142 0.10758520568195683 -0.1171306635047227 0.015402418215079899 0.24976570764268616 -0.086793622172774226 -0.036590605828352572 -0.068919173599219202 0.26326736414048252 0.41716816769648946 0.41882341659843603 0.27400456627995406 -0.10984177283574544 0.22492979937167315 -0.11204242666452131 1.043374621103798 -0.05529379719085864 0.5649486007452631 0.76029336460766117 0.38122333975545375 -0.020844323809103258 0.53403579050399097 0.028187772274518564 0.4043079964671904 0.014651790204881381 0.61691007236366446 0.90930902708885686 0.37053856428336163 0.37777112124352619 0.63575359436613177 0.24944432952320997 1.4052972619210717 1.62476040452432 -0.11331858477195503 -0.10727972254215555 1.8864236970027815 -0.12043729223821087 0.39685994523077944 -0.11515203351126546 -0.11385729147115911 0.15304567951945619 -0.11421118314369952 0.79955867415165138 0.94913723816892015 0.64603733746781122 -0.11581525523880563 0.26729351283016678 1.0469494838464821 0.94290375978716223 0.3457503868364078 0.46920672112522405 0.71843490382359365 0.82278968318690371 1.1060751241117894 1.1319911856416993 -0.11855096281287301 -0.113883741344993
leaf_weight=51.205440122634172 56.831488400697708 5.8154616057872799 1066.3061106279492 508.53195509687066 18934.238572254777 2681.4278041422367 19.711396707221866 704.14244340732694 6436.8608821853995 257.85893396288157 1133.6676065139472 55.226989179849625 11139.434845803306 1541.7464350946248 420.80814848840237 2388.0057069025934 9.1694709286093694 746.81422566622496 1.7261691913008714 23.876695543527603 95.795573204755783 2137.750995837152 201.78480347245932 3054.3134248629212 121.65853447280824 190.6434440985322 79.866858329623938 980.90897832810879 851.08667741715908 68.210440915077925 270.0974889472127 465.83951712399721 1973.2136891260743 338.16440877318382 120.82448843121529 12.737067319452761 11.142995644360779 8.173163063824175 641.87380741350353 1.3824496753513802 7.2024938687682143 98.480044260621071 19.37326633557678 17.957715123891834 69.696169331669807 5.6503785625100109 9.0420761108398438 33.802375450730324 39.906026929616928 97.631345927715302 7.3020027354359653 88.070718795061111 10.441883862018583 116.59893262386322 4.6854551341384605 46.262910626828671 17.714456506073475 33.967908471822739 141.90472488105297 2.4232708737254134 23.818576529622078
leaf_count=375 317 17 9257 3537 67116 18639 228 12531 39070 2546 12057 473 30346 4985 850 12925 113 5331 21 32 940 6307 490 7194 1369 560 1363 845 9397 398 651 809 4103 1013 877 29 77 81 8038 5 58 259 197 168 386 52 5 76 117 1002 64 115 19 360 14 43 61 25 69 19 223
internal_value=0 0.453693 0.294671 0.308673 0.290976 0.183714 0.251085 0.308207 0.336064 0.395882 0.154794 0.207209 0.248531 0.429396 0.149804 0.214294 0.70792 0.204012 0.38994 0.907348 0.416631 0.503027 0.70706 0.353354 0.0165477 0.28779 0.32437 0.379085 -0.0100107 0.208269 0.875846 0.392524 0.35772 0.482088 -0.00904159 0.660543 0.805533 0.60124 -0.0377707 0.0598055 0.124896 0.311139 0.161765 0.257415 -0.0357614 0.0119402 0.448144 0.703695 0.516952 -0.0295514 1.05697 0.959923 0.664875 0.318629 -0.0013477 0.815834 1.00941 1.11699 1.12699 -0.114415 -0.113759
internal_weight=0 3906.12 56794.7 50430.8 41923.5 6363.85 4535.83 37214.7 25371.1 8507.36 4708.8 4138.37 11843.6 7242.34 3102.24 3454.31 397.458 1265.01 3424.82 481.297 3111.49 3679.5 238.473 3562.85 1828.02 937.458 145.192 1036.14 1682.83 189.869 279.267 2873.01 2069.01 804.004 1254.49 63.9425 212.928 158.019 1492.96 81.2493 313.338 118.191 29.8742 144.182 327.555 169.155 14.6925 128.144 48.0792 154.463 323.278 123.529 17.7439 123.801 24.0587 80.0653 105.785 199.749 175.873 20.381 25.5447
internal_count=268644 10587 258057 215025 184179 43032 22058 149063 106186 30846 35116 20807 42877 22023 19489 22182 1251 8823 9657 930 7676 11292 811 10731 20974 5891 1772 1318 19202 1767 764 6865 5043 1822 12934 404 567 545 17435 1368 1981 487 228 605 2932 1376 57 317 198 1319 385 259 83 418 211 119 176 126 94 187 244
is_linear=0
shrinkage=0.1


Tree=2
num_leaves=57
num_cat=0
split_feature=96 30 104 102 30 91 45 114 32 30 103 30 105 118 109 47 126 123 1 35 57 56 36 127 129 94 32 104 39 127 105 129 27 105 53 105 130 49 28 123 79 101 31 61 29 104 80 31 120 74 112 78 28 20 75 73
split_gain=3763.49 3535.14 10767.2 4879.22 3792.39 3519.28 6484.69 3462.96 2914.61 2759.69 2453.94 4424.01 2440.85 2040.93 1990.01 1675.58 1531.4 1410.55 1366.77 1334.34 1423 1250.54 1043.98 885.891 533.746 502.687 284.076 257.618 163.574 166.238 135.868 135.22 119.212 368.671 208.706 112.303 85.2876 128.076 70.9827 51.8767 1.05994 0.194909 0.137597 0.132416 0.089111 0.0453172 0.0391463 0.0255214 0.0121065 0.00870097 0.0047332 0.00403373 0.00186499 0.00156414 0.00150839 0.00081343
threshold=-1.0494689941406248 1.0630865693092348 -0.83012288808822621 -0.84600692987442005 1.069444000720978 -1.0424957275390623 1.1183934211730959 -1.3951418399810789 0.97097143530845653 1.0539588928222658 -0.86453497409820546 1.0881277322769167 -0.90988314151763905 -0.89590761065483082 -0.8603297472000121 1.127901077270508 -1.4250221848487852 -1.0774331688880918 0.4541816264390946 0.82413420081138622 0.88348507881164562 0.96054047346115123 0.89449754357337963 -2.1591974496841426 1.0000000180025095e-35 -1.0999850630760191 0.92351123690605175 -0.85018590092658985 0.99717119336128246 -3.3061156272888179 -0.90515032410621632 1.0000000180025095e-35 1.2788797020912173 -0.88322049379348744 0.98133033514022838 -0.86077177524566639 1.0000000180025095e-35 1.131515681743622 1.2315487265586855 -2.3049956560134883 -1.378497779369354 -0.77703833580017079 0.99696049094200145 0.27335129678249365 1.1428008675575259 -0.89164811372756947 -1.399365961551666 0.99696049094200145 -0.94585585594177235 -1.0120157599449155 -0.93105706572532643 -1.3635197281837461 1.2048774361610415 1.595698416233063 -1.1039155721664426 -0.91575276851654042
decision_type=2 2 2 2 2 2 2 2 2 2 2 2 2 2 2 2 2 2 2 2 2 2 2 2 2 2 2 2 2 2 2 2 2 2 2 2 2 2 2 2 2 2 2 2 2 2 2 2 2 2 2 2 2 2 2 2
left_child=25 2 5 4 13 14 12 28 9 -9 11 -6 -7 18 21 19 -16 -15 -3 27 -21 -2 -12 -10 -8 32 43 -5 29 -4 31 55 40 42 35 -35 41 -38 -36 -30 46 -17 53 -27 47 -46 51 -42 54 -44 -50 -1 -48 -34 -45 -28
right_child=1 3 7 15 10 6 24 8 23 -11 22 -13 -14 17 16 36 -18 -19 -20 20 -22 -23 -24 -25 -26 26 30 -29 39 -31 -32 -33 33 34 38 -37 37 -39 -40 -41 44 -43 49 48 45 -47 52 -49 50 -51 -52 -53 -54 -55 -56 -57
leaf_value=-0.10444602911847267 -0.0017031843484643435 -0.086687300491537819 0.35770314205381459 0.57299205897026018 0.18084874272461199 0.094560928965414182 -0.031121443890581524 0.22949601502261463 0.23175717327891757 0.30873597290947646 0.33379400981814072 0.28614720956038109 0.27268276547309905 0.85239678490123216 0.49456408958674186 -0.11829903829782172 0.1200355289690913 -0.1124487314682017 0.13952761229958863 0.28537834694915559 0.40521765110272084 0.16645585885268088 0.10410382856422642 -0.035359625098665422 0.22202751810003668 -0.13417844713495961 -0.11299191644070522 0.2572118671084041 0.096802461663106187 -0.11406940830532464 0.63810556836754762 0.41458225984045366 -0.10490248652158736 -0.11665033311834663 0.19302925564789225 0.41432080104030933 0.32508002723263185 -0.12178670780464261 0.544110590061889 -0.10432213367124187 -0.10710408460555554 -0.1383996442816777 -0.11399075268812063 -0.11331719506186932 -0.1138017651188851 -0.11960742490307415 -0.10903953191568903 -0.11405513993122973 -0.11318747708318233 -0.12075846419413255 -0.10651228534987266 -0.11154642297059124 -0.11159049354228545 -0.10918548490065449 -0.11669588506517302 -0.1152845749924782
leaf_weight=167.96975392475724 3197.1858365610242 297.66712234728038 16.727767959237102 319.31561847031116 7943.1614035386592 1010.3492747806013 1350.4790446534753 29399.248876489699 164.79133145883679 5167.6899099349976 3751.9205553606153 8017.1328106876463 3224.8176701981574 62.845960393548012 153.78639751300216 65.122100966051221 376.34101212397218 19.965907078236341 2599.844593949616 2058.2434983905405 1910.6362964306027 513.23020787537098 208.89959521591663 503.54585728421807 88.762131763622165 3.2122721374034873 4.8503610566258422 28.109100326895714 13.371112756431101 13.494291100651024 14.602121084928511 15.14706951379776 20.419265650212768 17.426005814224485 8.8141161873936671 5.1636938378214827 12.354938447475435 13.337535940110682 16.613822564482689 313.74305195361376 5.930148731917142 5.2100187838077536 74.957880064845085 3.7390116080641747 16.702730506658554 68.932846900075674 12.488356918096544 48.332444131374359 1.3876072987914057 1.9490921869873989 4.5303807258605993 0.80392478406429191 3.7195529714226714 0.88982514292001624 2.0435055494308445 2.2726381644606608
leaf_count=4168 23418 2958 14 543 33636 9387 12128 84882 277 13803 6651 17828 11980 151 854 530 3765 286 12958 5676 3199 2382 1155 2825 555 19 48 73 236 246 18 5 474 188 43 19 35 98 25 8697 113 26 705 41 160 513 165 462 17 15 92 9 40 16 17 20
internal_value=0 0.225599 0.208529 0.254038 0.235486 0.116368 0.167871 0.234202 0.237343 0.241342 0.251226 0.233742 0.23019 0.130278 0.0474506 0.350328 0.228684 0.619773 0.116288 0.35952 0.34307 0.0215568 0.32168 0.0305031 -0.015509 -0.0436419 0.252092 0.547443 -0.0755359 0.147054 0.401043 0.245606 -0.0761491 -0.00117105 0.225913 0.00472235 -0.062827 0.0931015 0.422415 -0.096101 -0.109898 -0.119788 -0.112192 -0.116194 -0.116466 -0.118475 -0.104931 -0.113295 -0.111257 -0.114162 -0.108077 -0.10448 -0.109625 -0.105081 -0.114511 -0.113723
internal_weight=0 72821.3 45507.6 27313.8 22901.4 9914.95 5674.41 35592.6 35235.3 34566.9 19921.1 15960.3 4235.17 2980.32 4240.54 4412.33 530.127 82.8119 2897.51 4316.3 3968.88 3710.42 3960.82 668.337 1439.24 522.898 51.785 347.425 357.336 30.2221 36.8722 22.2701 471.113 146.234 48.0176 22.5897 96.0246 25.6925 25.4279 327.114 324.88 70.3321 98.2161 14.9128 139.898 85.6356 184.982 54.2626 11.7005 76.907 5.91799 168.774 16.2079 21.3091 5.78252 7.123
internal_count=268644 261252 175449 85803 75623 64469 34050 110980 101787 98685 59270 51464 21367 16353 30419 10180 4619 437 15916 9491 8875 25800 7806 3102 12683 7392 277 616 9193 260 91 73 7115 1485 275 207 689 133 68 8933 5630 556 1210 186 1248 673 4382 575 167 720 109 4177 205 490 58 68
is_linear=0
shrinkage=0.1


Tree=3
num_leaves=52
num_cat=0
split_feature=100 29 122 105 34 93 30 104 129 120 31 2 14 30 30 2 55 26 110 50 0 77 103 0 73 103 101 113 73 112 131 37 121 30 72 53 85 121 27 8 20 59 75 113 40 31 75 123 75 110 23
split_gain=2615.55 2842.54 4007.43 3329.55 5366.44 3762.41 2388.54 3980.68 1734.59 1559.23 762.51 711.478 558.435 422.405 382.147 300.488 283.174 272.18 257.829 240.317 293.26 209.405 170.539 170.414 163.233 139.155 134.689 263.125 132.47 162.096 126.347 116.547 116.221 111.389 109.366 75.6119 71.076 69.9869 64.9926 57.3853 51.3173 22.1036 0.513446 0.319095 0.0945831 0.0607976 0.0494157 0.0234391 0.0167619 0.00630524 0.0011869
threshold=-0.96601763367652882 1.230004668235779 -1.019190192222595 -0.89939585328102101 0.83370533585548412 -0.87857595086097706 1.0799772143363955 -0.87787070870399464 1.0000000180025095e-35 -0.9626580774784087 0.98925718665122997 0.59151181578636181 1.0060024857521059 1.1009208559989931 1.082814157009125 0.5054222345352174 1.111085891723633 1.2337642908096316 -0.9060857594013213 1.1004111766815188 0.51989373564720165 -1.1538516283035276 -0.93523687124252308 0.65182518959045421 -0.93294072151184071 -0.96972295641899098 -0.98649263381957997 -0.99821704626083363 -0.91059863567352284 -0.92847037315368641 1.0000000180025095e-35 0.68256127834320079 -0.96578222513198841 1.1057819128036501 -0.73278144001960743 0.80490872263908397 -1.1008354425430296 -0.97226613759994496 1.1835825443267824 0.65272188186645519 1.7777687311172488 0.81837284564971935 -1.1072130203247068 -0.93119555711746205 0.68859848380088817 0.98324275016784679 -1.1055030822753904 -1.0888413190841673 -1.1072130203247068 -0.86406758427619923 1.3411182761192324
decision_type=2 2 2 2 2 2 2 2 2 2 2 2 2 2 2 2 2 2 2 2 2 2 2 2 2 2 2 2 2 2 2 2 2 2 2 2 2 2 2 2 2 2 2 2 2 2 2 2 2 2 2
left_child=12 2 3 4 5 -2 7 -5 -6 11 -8 34 15 16 19 47 26 38 42 37 -21 31 33 -20 -17 44 27 -14 29 -24 32 -13 -27 43 45 -23 -30 -4 -18 -26 -28 -41 -16 -11 -15 -3 -32 49 -46 50 -1
right_child=1 9 14 6 8 -7 10 -9 -10 22 -12 21 13 25 18 24 17 -19 23 20 -22 35 28 -25 39 30 40 -29 36 -31 46 -33 -34 -35 -36 -37 -38 -39 -40 41 -42 -43 -44 -45 48 -47 -48 -49 -50 -51 -52
leaf_value=-0.1096730870197358 0.12127466394717996 -0.1218747489695383 0.002009786406379859 0.021942865094260577 -0.006811286014340466 0.3020652134542805 0.16983480291069061 0.18325617296506602 0.30235080948631748 -0.12331993847507715 0.25774075019256165 0.24101916169289514 -0.11091502330387777 -0.12928157387936423 -0.1171984687576416 0.73938830203553385 -0.10992424716394184 0.95172054037833476 0.047784755664883431 0.023443369308002362 0.8517543210960854 0.36860253492270267 0.022730761748732363 0.2424595128058894 0.4650860119600011 0.19823711057615914 -0.10886206339790272 0.088494291499482444 0.23935246813200153 0.20392289872053804 -0.11354660291461716 -0.14402656400168198 -0.027707477951868637 0.21807592071791235 0.34206525612618804 0.32533506228555442 0.34165705853258554 -0.11297361642842532 0.34448081863793495 0.10948736845657114 0.11353447880630003 0.35286126402269985 -0.14736389292488106 -0.14744227727045586 -0.10963904564673438 -0.12988781505419447 -0.12679517847869981 -0.12204171505861079 -0.11669669482709394 -0.11626094253276952 -0.11262700312229497
leaf_weight=5.0667374283075306 3580.51397369802 19.372961632907391 59.325744535773993 1569.6919975094497 2858.7520491108298 1696.523299202323 1202.2338668778539 60099.425830533728 193.779575381428 16.110291041433811 5505.4206026680768 21.156638666987419 128.46963892132044 6.1500665992498424 6.4476451724767676 12.83170288056135 7.0722959749400633 5.1842826679348937 152.78494159504771 17.059269301593307 5.7033107280731192 934.03156773746014 50.889031670987606 63.719296995550394 13.891190052032472 149.31977943331003 347.85029244795442 136.45740013755858 265.40551100671291 1657.7845404520631 14.235007718205454 12.508676990866659 26.860861238092184 14.538094475865362 5.7552637010812751 711.60580906271935 91.260887913405895 491.43945730105042 5.6719207763671875 11.222031928598883 10.69445478916168 5.5910038948059073 45.189087525010109 8.313694506883623 4.5418138913810298 18.520896434783936 3.5093759298324576 3.1075684130191794 12.989078819751736 2.5760283991694459 1.8594410046935079
leaf_count=65 16017 137 250 10619 24295 4140 3721 179929 664 124 9140 18 1586 39 73 16 91 8 906 125 2 450 182 95 3 435 4468 2039 169 1309 145 61 219 9 3 694 28 5637 1 59 42 1 211 39 64 110 24 27 113 22 20
internal_value=0 0.179813 0.175661 0.178043 0.11835 0.179397 0.185314 0.17915 0.0128148 0.263943 0.241985 0.334482 0.0098078 -0.0101632 -0.0413553 0.315356 -0.0510081 0.340823 0.057191 -0.0874286 0.230982 0.344842 0.206187 0.105079 0.43986 0.110228 -0.0622755 -0.00820419 0.210097 0.198526 0.138173 0.0979517 0.163789 -0.00108058 -0.064103 0.349893 0.265529 -0.100588 0.0923125 0.314684 -0.102229 0.190419 -0.143597 -0.131531 -0.118611 -0.125791 -0.116167 -0.114503 -0.114868 -0.112037 -0.110466
internal_weight=0 81375.3 77548 76706.3 8329.57 5277.04 68376.8 61669.1 3052.53 3827.25 6707.65 1722.95 915.152 859.006 841.669 56.1457 641.4 17.9285 268.141 573.528 22.7626 1679.3 2104.3 216.504 43.5359 217.606 623.472 264.927 2065.34 1708.67 193.925 33.6653 176.181 38.9621 43.6491 1645.64 356.666 550.765 12.7442 30.7042 358.545 16.813 51.6367 24.424 23.681 37.8939 17.7444 12.6098 17.5309 9.50221 6.92618
internal_count=268644 259157 255824 248525 45116 20157 203409 190548 24959 3333 12861 1473 9487 9274 7299 213 8235 100 1285 6014 127 1223 1860 1001 79 1039 8135 3625 1688 1491 823 79 654 172 250 1144 197 5887 92 63 4510 60 284 163 216 247 169 134 177 107 85
is_linear=0
shrinkage=0.1


Tree=4
num_leaves=44
num_cat=0
split_feature=32 114 100 29 125 106 30 73 99 75 130 14 74 30 116 69 4 26 127 114 2 100 97 22 127 93 88 12 92 94 66 123 101 39 68 101 74 0 127 35 124 98 1
split_gain=2093.28 2014.21 1865.06 1908.51 3617.73 2719.66 1473.4 863.261 593.285 643.359 454.525 360.243 355.551 346.746 322.559 248.347 229.157 209.087 206.829 185.127 131.829 107.165 79.3397 146.099 72.2004 174.668 66.9896 59.2501 25.6304 100.927 8.6193 16.7684 1.11413 0.419391 0.643838 0.207698 0.0911345 0.0630056 0.0738583 0.0228167 0.0210592 0.0190301 9.09888e-05
threshold=0.97097143530845653 -1.3990371227264402 -0.96601763367652882 1.2226817607879641 -1.2192621827125547 -0.90851902961730946 1.0893813967704775 -0.91398632526397694 -0.75896370410919178 -1.1227059960365293 1.0000000180025095e-35 1.0060024857521059 -1.0304370522499082 1.1009208559989931 -1.053225517272949 -0.012873177882283924 0.60010680556297313 1.5825439691543581 -1.9942834377288816 -0.96078673005104054 0.5054222345352174 -0.9691338539123534 -0.77594178915023793 1.1937099695205691 -1.9762517809867857 -0.9919912815093993 -1.2148602604866026 1.0000000180025095e-35 -1.1051906943321226 -1.0396845936775205 0.30840040743350988 -1.5697381496429441 -0.77703833580017079 0.99831813573837291 0.15606547892093661 -0.77703833580017079 -0.75563496351242054 0.070729330182075514 -2.1591974496841426 0.8706132471561433 -1.1543770432472227 -0.94018495082855214 0.30761624872684484
decision_type=2 2 2 2 2 2 2 2 2 2 2 2 2 2 2 2 2 2 2 2 2 2 2 2 2 2 2 2 2 2 2 2 2 2 2 2 2 2 2 2 2 2 2
left_child=1 17 11 4 5 -4 -6 12 9 28 24 20 -5 19 35 22 -9 27 -16 -13 40 -15 30 -24 25 -11 -22 -1 29 41 -10 -32 -26 34 -29 -12 -25 -17 42 -35 -3 -2 -39
right_child=8 2 3 7 6 -7 -8 16 15 10 14 13 -14 21 18 37 -18 -19 -20 -21 26 -23 23 36 32 -27 -28 33 -30 -31 31 -33 -34 39 -36 -37 -38 38 -40 -41 -42 -43 -44
leaf_value=0.16476533347571501 -0.12931808060134528 -0.1109839560459643 0.10697245049568925 -0.14427829727799696 -0.065013413092075256 0.15855303340358359 0.12431638558521585 -0.1232578476128766 0.26713118110634004 0.31075832909722012 -0.12491740938583502 0.011767623240548197 0.17209458577324138 0.036315655941595769 0.47976254410986663 -0.13237973767885575 0.25134496833323383 0.33621147330980605 0.12825107561472046 -0.10010170532902657 0.10036732647678817 0.17537951269945692 0.32244347889700153 -0.15118403285375312 -0.1266439189952073 -0.076561681582026517 0.37639970158436109 -0.11100792383572014 0.41233095486664528 0.43091002858638527 0.28420250756689341 0.16087997793008824 -0.14134621491825006 -0.10615858490650117 -0.15245421453771077 -0.14270571741339402 -0.13305554776217909 -0.15277232286372061 -0.14040161777822763 -0.10410766745784816 -0.12316821155546687 -0.11688201292418775 -0.15335488164036798
leaf_weight=8.2944428063929063 2.5112751871347401 6.7913615927100164 12037.934026712552 36.046067018061876 1100.6112174428999 67767.968069406226 656.05002272501588 16.429534316062927 77.617649182677269 12.145681291818617 29.313788712024689 263.53507904708385 2445.726861409843 134.37977964989841 22.8177550137043 3.1096066199243095 2700.816017434001 11.376827292144297 62.834452450275421 337.20779333822429 11.500180739909409 94.302435681223869 11.752241611480715 11.586290970444677 244.57231214269996 281.45257837884128 37.334685433655977 28.662719219923019 25.287659168243408 9.8860569149255735 18.900804907083511 26.462515532970428 65.305183500051498 69.949267255142331 4.3118908889591685 8.4577785730361921 3.6456018090248099 6.5571453869342839 7.9931722283363316 241.60916900634766 1.7930755093693731 2.4126236513257044 4.5355644822120667
leaf_count=19 18 82 56854 207 9678 173141 1914 116 15 5 188 2753 2560 858 17 20 2188 4 199 5303 54 181 2 52 1697 1422 22 468 5 10 4 39 330 1464 22 41 22 29 39 6543 15 24 20
internal_value=0 0.148943 0.149918 0.151393 0.147648 0.150773 0.00569448 0.210137 -0.00114651 -0.0388024 -0.0603129 0.00563496 0.167499 -0.0111343 0.11454 0.166615 0.24908 -0.0857392 0.221894 -0.0510266 0.247868 0.0936619 0.212821 0.0575414 -0.096074 -0.0605389 0.311397 -0.0993449 0.351147 0.246676 0.246892 0.212263 -0.129742 -0.105703 -0.116428 -0.128901 -0.146845 -0.145579 -0.14773 -0.104568 -0.113529 -0.123225 -0.153011
internal_weight=0 88012.6 87648.4 86761.6 81562.6 79805.9 1756.66 5199.02 939.158 766.997 726.9 886.844 2481.77 829.425 123.424 172.161 2717.25 364.204 85.6522 600.743 57.4193 228.682 149.965 26.9841 603.476 293.598 48.8349 352.827 40.0976 14.81 122.981 45.3633 309.877 344.533 32.9746 37.7716 15.2319 22.1955 19.0859 311.558 8.58444 4.9239 11.0927
internal_count=268644 264446 255926 246658 241587 229995 11592 5071 4198 3956 3899 9268 2767 9095 445 242 2304 8520 216 8056 173 1039 134 76 3454 1427 76 8516 57 52 58 43 2027 8497 490 229 74 108 88 8007 97 42 49
is_linear=0
shrinkage=0.1


Tree=5
num_leaves=56
num_cat=0
split_feature=32 114 104 30 125 69 102 102 30 30 5 5 4 127 130 75 117 117 53 57 33 29 22 79 33 46 104 59 128 106 65 127 12 56 67 36 80 92 122 101 102 32 51 101 39 100 37 111 101 104 10 108 35 53 107
split_gain=1544.58 1511.67 1680.87 5595.88 2765.93 2375.56 2656.05 2013.73 2956.47 1554.25 1944.33 898.83 685.027 658.405 531.569 502.971 349.679 309.338 257.091 214.226 220.942 212.24 1314.81 163.21 155.542 169.03 145.807 168.366 125.259 162.844 103.534 83.5889 52.3655 32.614 27.4001 25.1623 74.5767 21.8451 93.4492 0.7381 0.289325 0.282963 0.176874 0.168804 0.129029 0.108093 0.093595 0.143323 0.0754877 0.0237118 0.0147308 0.0134335 0.0124735 0.0121277 0.00557969
threshold=0.97034713625907909 -1.3951418399810789 -0.82059577107429493 1.0584307909011843 -1.3727921843528745 -0.089614361524581895 -0.81608110666275013 -0.83305227756500233 1.0676047801971438 1.0525855422019961 0.57261690497398388 0.62594166398048412 0.5977940857410432 -2.1591974496841426 1.0000000180025095e-35 -1.1240121126174925 -1.1544931530952451 -1.0741937756538389 1.0393070578575136 0.95470955967903148 0.95479512214660656 1.1038870215415957 1.2592492103576662 -1.2191987037658689 0.82940745353698742 1.1943330168724062 -0.78853920102119435 0.82064843177795421 1.0000000180025095e-35 -0.87400946021080006 0.39623571932315832 -2.6104012727737422 1.0000000180025095e-35 0.97882089018821727 0.20258574187755587 0.97595566511154186 -1.1770669817924497 -1.1051906943321226 -1.1540569067001341 -0.77703833580017079 -0.77912151813507069 0.97097143530845653 1.1795166134834292 -0.77703833580017079 0.99831813573837291 -0.78770652413368214 0.92695397138595592 -1.2424820661544798 -0.77703833580017079 -0.84832194447517384 0.45720259845256811 -1.061969995498657 0.8706132471561433 1.096629321575165 -0.97587528824806202
decision_type=2 2 2 2 2 2 2 2 2 2 2 2 2 2 2 2 2 2 2 2 2 2 2 2 2 2 2 2 2 2 2 2 2 2 2 2 2 2 2 2 2 2 2 2 2 2 2 2 2 2 2 2 2 2 2
left_child=1 24 3 5 9 6 -3 8 -5 10 -4 -9 -11 16 15 37 31 41 -7 23 -21 34 -23 -17 25 30 27 -19 29 -18 50 -2 -27 -32 -6 -30 -37 38 -15 49 -31 45 -41 -28 -34 -16 47 51 -43 -33 -1 -26 53 -48 -54
right_child=13 2 4 7 21 18 -8 11 -10 12 -12 -13 -14 14 17 19 28 26 -20 20 -22 22 -24 -25 46 32 43 -29 35 40 33 39 44 -35 -36 36 -38 -39 -40 42 -42 48 -44 -45 -46 -47 52 -49 -50 -51 -52 -53 54 -55 -56
leaf_value=-0.11810490146458408 0.22847566459261334 0.033261408819425006 0.14692972471621429 0.067862786844715348 -0.10936851772522969 0.11402756509995984 0.12326416879843088 0.20146846016354664 0.14046449093470653 0.21565753978117788 0.044779086088975253 0.011503808099743239 -0.060185438023040765 0.34599311105022573 -0.13621355961464876 -0.12927388344682506 0.31066664936610977 -0.025342185451936367 -0.095154971274031885 0.15203871295990201 -0.14080565144775176 0.86195468280300269 -0.072585567056736397 -0.014786074248520676 -0.10510882737373778 0.16876278241359277 -0.13237352652252019 0.26156462834714811 0.2414203750586259 -0.12198405256652822 0.31323474960927666 -0.11546802705980728 -0.12058202099970482 0.13492850708785659 0.023346663296095763 -0.0041170236256577002 0.24981257425472558 0.30679591291495195 -0.11938543506228755 -0.14942417606878863 -0.15104124299775332 -0.12231507508366256 -0.12908110903850187 -0.15581738459537522 -0.10540067430497937 -0.157122261586011 -0.10970698090150287 -0.13076264057479645 -0.1351599770284245 -0.12313618020944313 -0.1089161206099625 -0.11213940939794714 -0.10347018206496815 -0.10484908471316808 -0.10449962107325124
leaf_weight=2.1871359795331946 7.259710729122161 7249.1897954419255 30045.376085940748 6933.9196401517838 428.00447772815824 62.490818224847317 5986.7367956377566 5107.7813536524773 29352.428079150617 3634.7408623322845 1986.5199993103743 261.8445606008172 92.315861031413078 11.302551522850992 6.3977984488010406 480.17741156369448 12.150228172540663 24.530867859721184 982.45784663408995 73.576357342302799 39.645991798490286 16.970615778118372 133.33923960477114 168.11053225398064 9.2425726819783449 7.7987909466028205 5.9425043277442455 123.06383347138762 167.75435611605644 4.2460268586873999 23.800190474838018 7.9119000062346485 6.2666493803262702 18.028850700706244 16.143240805715322 17.771112620830536 33.122985109686852 30.243237018585205 6.9791567325592032 24.75251987576485 17.758966997265819 22.05427910387516 5.1659589111804953 6.3567100614309293 52.504288541153073 4.029979929327963 6.741996634751561 3.2074077092111102 5.772847160696986 8.2244992777705175 8.6238695271313173 3.8497378192842016 169.87309884466231 21.614604512229562 76.300047371536493
leaf_count=26 7 41352 56170 29133 6833 184 18251 8032 69271 5360 9286 1176 422 3 33 2919 6 104 6671 157 206 51 1463 870 218 11 38 152 35 29 18 81 78 47 113 51 6 5 60 113 80 151 33 28 1172 18 112 25 30 55 123 55 5304 524 1893
internal_value=0 0.126558 0.127409 0.11653 0.14415 0.0625108 0.0739705 0.135049 0.126591 0.147706 0.140595 0.192205 0.208825 0.0173854 -0.0216154 -0.0575285 0.145832 0.125198 -0.0826453 -0.0774199 0.0494962 -0.0697845 0.032928 -0.0995855 -0.0650232 0.0311768 0.186313 0.213879 0.194914 0.016817 0.165085 -0.086901 -0.0747109 0.236382 -0.104545 0.222735 0.161146 0.25463 0.168332 -0.136614 -0.145434 -0.130245 -0.145912 -0.14449 -0.107019 -0.144294 -0.104455 -0.111817 -0.12498 -0.119376 -0.110775 -0.107176 -0.104018 -0.106004 -0.103789
internal_weight=0 92700.3 92290.3 55936.8 36353.4 14280.9 13235.9 41656 36286.3 35759 32031.9 5369.63 3727.06 1314.3 1008.18 810.035 306.118 198.149 1044.95 761.51 113.222 594.458 150.31 648.288 410.039 119.21 159.894 147.595 252.804 34.1552 52.64 53.3146 66.5697 41.829 444.148 218.648 50.8941 48.5249 18.2817 46.0549 22.005 38.2549 29.9185 12.2992 58.7709 10.4278 290.829 16.2997 27.8271 16.1364 10.811 13.0923 274.53 28.3566 246.173
internal_count=268644 263374 253768 174070 79698 66458 59603 107612 98404 71238 65456 9208 5782 5270 4774 4220 496 554 6855 4152 363 8460 1514 3789 9606 1475 322 256 207 115 214 289 1261 65 6946 92 57 68 63 282 109 232 146 66 1250 51 8131 298 181 136 149 273 7833 636 7197
is_linear=0
shrinkage=0.1


Tree=6
num_leaves=55
num_cat=0
split_feature=29 122 105 34 80 37 5 105 57 74 113 30 38 129 64 5 121 30 2 51 2 52 102 113 103 115 29 98 116 41 87 123 97 105 76 30 11 2 107 100 74 51 121 69 101 101 112 127 111 75 59 113 133 97
split_gain=1552.79 2482.67 1964.85 3266.96 2095.91 1566.88 5118.49 2694.03 1801.95 1728.58 2115.9 1534.71 966.503 918.027 890.533 624.069 452.524 441.18 402.021 392.211 311.871 307.856 220.428 218.333 213.555 172.039 170.381 183.01 166.843 130.115 122.985 105.245 108.74 92.3319 235.742 90.5157 103.296 88.3357 64.106 56.1669 110.065 105.043 51.6204 49.2307 114.899 25.0567 62.9893 21.2312 18.6843 2.29643 0.73601 0.468432 0.394067 0.0709018
threshold=1.2353284955024721 -1.019190192222595 -0.9000762104988097 0.84987714886665355 -1.0158314704895017 0.92646697163581859 0.57654240727424633 -0.86488887667655934 0.89772090315818798 -0.98847278952598561 -0.92814895510673512 1.0947538614273074 0.90615805983543407 1.0000000180025095e-35 0.32137560844421392 0.44038291275501257 -0.99206390976905812 1.082814157009125 0.61966630816459667 1.0898669362068178 0.57271340489387523 1.0376031398773196 -0.94096297025680531 -0.99527972936630238 -0.93523687124252308 -0.99370846152305592 1.2194860577583315 -1.0049920678138731 -0.91979289054870594 0.90234875679016124 -1.141707122325897 -1.0301419496536253 -0.99395835399627674 -0.93591460585594166 -1.1297235488891599 1.0967386960983279 1.064683794975281 0.70318490266799938 -0.99499440193176258 -0.96316254138946522 -1.0196785926818845 0.82003635168075573 -0.97226613759994496 -0.45826840400695795 -0.94243746995925892 -0.92895156145095814 -0.92847037315368641 -1.286690294742584 -0.918837010860443 -1.1072130203247068 0.85420733690261852 -0.93194976449012745 1.0000000180025095e-35 -0.96099537611007679
decision_type=2 2 2 2 2 2 2 2 2 2 2 2 2 2 2 2 2 2 2 2 2 2 2 2 2 2 2 2 2 2 2 2 2 2 2 2 2 2 2 2 2 2 2 2 2 2 2 2 2 2 2 2 2 2
left_child=1 2 3 4 11 9 7 -7 -8 10 -4 -1 -11 15 -6 -5 18 19 38 33 50 -15 23 -19 25 -18 27 -24 -28 -22 31 37 -33 34 -3 51 -37 -26 -2 40 -20 -42 -35 47 -45 46 -32 -41 -47 -25 -21 -27 53 -40
right_child=16 17 5 13 14 6 8 -9 -10 12 -12 -13 -14 21 -16 -17 24 22 39 20 29 -23 26 49 30 35 28 -29 -30 -31 45 32 -34 42 -36 36 -38 -39 52 43 41 -43 -44 44 -46 48 -48 -49 -50 -51 -52 -53 -54 -55
leaf_value=0.0020932868071911023 0.18100896318916243 0.50446463926740359 0.02796392911026074 0.055886318328754084 0.17654964484051328 -0.014737021588114161 -0.062261192299988138 0.11921878693564258 0.053488197180205359 0.16244561324816389 0.1248589133618989 0.11571572791901419 0.12526115637062388 -0.13780459093832995 0.0066068660777720018 -0.079274966228085886 0.72151762536292841 0.68500475369486724 0.31656888509746328 -0.11200894715961554 -0.11053635117364913 0.23389774479167619 0.11198845515705724 -0.10975962309478976 0.070094262429901008 -0.11914372273032825 -0.0043462868599807641 -0.09875206299706149 0.15224812623768957 0.31048226731705975 0.047640768832411744 -0.1891663691805319 0.083987634359444799 -0.021674924022568196 -0.11252819517676382 -0.14262641008219903 0.12350174304198186 0.16215395019352669 -0.13316650564280791 0.22572126549378912 0.21122283712349621 -0.12964663972695609 -0.11360134390694272 -0.04283043601880264 0.19603110913180355 0.22987245838652465 0.15964147970946146 0.1813411723413102 0.16610690809864373 -0.14113614621495124 -0.16699045496603646 -0.14355450686872487 -0.16019816214669691 -0.12420279974117882
leaf_weight=2559.0704535320401 7.843772128224372 8.9386008381843585 3513.9546380415559 421.93174929358065 2934.2452845573425 1570.715324928984 2077.6974995955825 33991.487196030095 3813.5757544115186 10792.914937671274 6283.8377551399171 2220.0508874803782 19838.454110106453 26.016919564455748 344.55916479974985 1794.433985479176 3.305677816271781 3.4357076808810225 17.946566596627235 34.020464530214667 8.515863645821808 155.22114701196551 68.606096286326647 43.385219488292933 193.80761024728417 33.239381343126297 94.927512623369694 103.18502265959978 240.19926189258695 53.184160307049751 52.401995226740837 23.56212967634201 38.203904047608376 67.577666331082582 20.158366438001394 19.580939412117004 57.161654371768236 225.51409831643105 15.748922389000649 1422.1839796304703 15.689333096146582 21.332583673298359 635.89068946987391 22.369093924760818 201.93298454582691 82.28238371014595 1202.6469605118036 116.6353347375989 104.07330963015556 50.451567463576794 2.6224061399698249 10.296122327446936 4.2952417582273474 20.069622531533245
leaf_count=14309 7 62 13262 3859 7161 10045 10222 79471 15946 16412 19498 4816 39967 141 2000 14499 10 2 15 476 119 375 387 641 282 281 242 914 278 45 121 98 47 275 226 123 115 109 91 504 34 146 9547 69 127 21 628 91 46 268 11 50 19 134
internal_value=0 0.10542 0.107449 0.0666265 0.0971178 0.112661 0.0990001 0.113302 0.0126664 0.126669 0.0901078 0.0548745 0.138363 -0.0358495 0.158691 -0.0535442 0.169722 -0.0250975 0.205336 -0.0723775 0.115137 0.180539 0.0399239 -0.097962 0.137242 0.00981999 0.0663829 -0.0145912 0.107891 0.252373 0.145434 0.101654 -0.0202135 -0.0975503 0.0770123 -0.00974004 0.0555989 0.119605 -0.0804509 0.212874 0.11333 0.0148087 -0.104771 0.215978 0.17221 0.160046 0.154965 0.222357 0.194262 -0.126629 -0.115944 -0.124917 -0.131576 -0.128144
internal_weight=0 93773.3 92338.2 10455.5 8057.93 81882.6 41453.5 35562.2 5891.27 40429.2 9797.79 4779.12 30631.4 2397.6 3278.8 2216.37 3912.12 1435.1 1866.05 830.908 98.3429 181.238 604.19 97.2725 2046.08 123.584 506.918 171.791 335.127 61.7 1922.49 481.088 61.766 732.565 29.097 120.278 76.7426 419.322 47.9576 1818.09 54.9685 37.0219 703.468 1763.12 224.302 1441.4 1255.05 1538.82 186.356 93.8368 36.6429 43.5355 40.1138 35.8185
internal_count=268644 265476 251983 47160 28286 204823 115684 89516 26168 89139 32760 19125 56379 18874 9161 18358 3168 13493 1237 10761 651 516 2732 911 1931 579 1821 1301 520 164 1352 536 145 10110 288 569 238 391 251 986 195 180 9822 791 196 816 749 595 67 909 487 331 244 225
is_linear=0
shrinkage=0.1


Tree=7
num_leaves=53
num_cat=0
split_feature=29 104 30 30 135 125 38 82 32 135 102 29 101 53 104 60 29 120 2 74 30 131 106 42 56 106 111 28 87 72 105 118 55 100 105 102 73 94 23 101 107 112 30 31 116 102 75 112 133 30 97 92
split_gain=1328.2 1945.89 1907.34 1351.81 2702.21 1646.32 2027.88 858.741 745.537 1000.27 721.78 704.131 936.749 559.513 531.277 466.394 340.309 312.436 301.706 270.905 252.361 218.593 913.827 197.239 194.671 194.02 181.246 159.87 152.344 107.06 87.1376 79.8715 74.189 71.833 70.6247 69.2876 60.781 57.0452 56.1509 64.3892 54.1784 30.395 29.1241 27.2345 26.3435 35.9981 0.572176 0.280444 0.260566 0.201177 0.0497091 0.0372419
threshold=1.2353284955024721 -0.90369942784309376 1.0893813967704775 1.0881277322769167 1.0000000180025095e-35 -1.2348856329917905 0.88358688354492199 -1.2610933184623716 0.91965034604072582 1.0000000180025095e-35 -0.93870362639427174 1.2138864398002627 -0.89532729983329762 1.0898812413215639 -0.91022691130638111 0.66781499981880199 1.2226817607879641 -0.96091946959495533 0.61966630816459667 -1.0220650434494016 1.1009208559989931 1.0000000180025095e-35 -0.88355159759521473 0.87002632021904003 0.84439218044281017 -0.96987563371658314 -0.92562288045883168 1.223780155181885 -1.141707122325897 -0.82388979196548451 -0.90319380164146412 -0.94424277544021595 0.7612193524837495 -0.96316254138946522 -0.91453891992568959 -0.97155746817588795 -0.94549965858459462 -1.0457766056060789 1.6184558868408205 -0.92895156145095814 -0.99499440193176258 -1.1010255813598631 1.0864154696464541 1.0156496763229372 -0.9368375539779662 -0.94360214471817005 -1.1072130203247068 -0.94070628285408009 1.0000000180025095e-35 1.0937854647636416 -0.96099537611007679 -0.98475480079650868
decision_type=2 2 2 2 2 2 2 2 2 2 2 2 2 2 2 2 2 2 2 2 2 2 2 2 2 2 2 2 2 2 2 2 2 2 2 2 2 2 2 2 2 2 2 2 2 2 2 2 2 2 2 2
left_child=1 2 8 4 5 6 -3 42 9 14 20 12 -12 -9 -1 21 -11 18 40 -13 30 24 -23 -10 -5 -22 31 -7 29 34 -4 -19 -31 35 -28 51 -37 -35 -33 -40 -2 -39 -6 -25 -30 -46 49 -48 50 -17 -42 -20
right_child=17 3 10 15 7 27 -8 13 23 16 11 19 -14 -15 -16 46 -18 26 33 -21 25 22 -24 43 -26 -27 28 -29 44 32 -32 38 -34 37 -36 36 -38 41 39 -41 48 -43 -44 -45 45 -47 47 -49 -50 -51 -52 -53
leaf_value=0.022074899274722403 0.15842947826711221 0.15017528474803277 -0.12907239163467984 0.13998559401131799 -0.12089704305210572 -0.090632279551465189 0.0937776825829576 0.039820061990939237 0.61121799662846765 -0.11885263158586748 0.018003172675488729 0.033033333045711398 0.18048423950836984 -0.13366914610018063 0.14357149313714232 -0.14511059567970583 0.012606698668832928 0.32149886178534987 -0.11649191477893724 0.16195079535230927 0.14644729715833343 -0.12967295977589607 0.2393428698408045 -0.11468643631751296 0.1848355173684833 -0.027932853645272232 0.037950925121624721 0.019132825567821671 0.22433819670708344 0.10837283506958575 0.19770973743145889 0.17503503019823546 -0.07584641537658314 -0.17545912265020797 -0.18657005048007988 0.33756804579931554 0.072976260813000446 -0.180709026579882 -0.13356118133392297 0.18045738668105199 -0.1292830590208984 0.19002713324110135 -0.043424922592938717 -0.004796548807557895 0.0640399782009244 0.14605310036206098 -0.15085698850557461 -0.17767076856975578 -0.15160645064995273 -0.12848918624816141 -0.12143994100033749 -0.13078450356332808
leaf_weight=1475.795992616564 8.0524846166372281 6984.7636698633432 184.23441979289055 2024.1911268942058 435.13148828223348 475.1537704654038 73104.844432918355 3138.92487988621 3.8060156404972068 603.26480062864721 1339.8351702354848 181.10360268130898 482.64701779931784 197.59593433514237 475.99137636460364 12.82271094620228 292.35071321576834 5.965369150042533 11.594372346997259 1630.8117905557156 99.20433471351862 125.05417271703482 144.82627145200968 630.42453724704683 1854.3799760900438 178.80758479237556 37.494737986475229 184.10243874974549 40.751954950392246 372.2471626996994 8.5381470657885057 8.8637612648308259 23.224893946200609 4.2905737906694403 22.368162471801043 11.388811454176901 36.527566321194172 2.2140488028526297 52.613142862915993 7.4550953656435004 14.317401215434069 1868.5004920065403 54.615079373121262 23.389742307364941 55.752386074513197 1336.4100856333971 17.734746187925342 5.0003622472286215 4.0950474441051474 16.851715333759785 18.55151637643576 2.1632451191544524
leaf_count=10175 7 11287 1414 3032 3150 7935 189071 12401 18 4176 4976 466 579 1302 1823 62 910 3 102 1647 155 582 132 5671 1738 873 107 1178 16 340 48 28 72 18 95 3 102 9 374 4 88 801 313 154 124 707 86 21 19 101 134 15
internal_value=0 0.0920999 0.0435708 0.0962599 0.0935098 0.0974007 0.0986962 0.0113954 -0.0106088 0.0115554 0.0898297 0.104921 0.0610329 0.0295457 0.0517048 0.151628 -0.0759411 0.151301 0.179311 0.149065 -0.0266744 0.155374 0.0683525 -0.106577 0.161429 0.0342921 0.123025 -0.0599795 0.129077 0.0786886 -0.114599 -0.0295393 0.0975542 0.18526 -0.0459428 0.0790702 0.135865 0.188753 -0.0599181 -0.0945882 -0.0766159 0.189588 -0.112258 -0.110755 0.145089 0.142769 -0.144817 -0.156754 -0.12782 -0.135672 -0.124856 -0.118739
internal_weight=0 96386.2 7610.21 88776 84575.1 80748.9 80089.6 3826.27 3505.02 2847.4 4105.18 3634.4 1822.48 3336.52 1951.79 4200.86 895.616 3944.84 1981.7 1811.92 470.784 4148.45 269.88 657.62 3878.57 278.012 1963.15 659.256 1888.25 455.335 192.773 74.8974 395.472 1936.68 59.8629 61.674 47.9164 1875.01 68.932 60.0682 45.0164 1870.71 489.747 653.814 1432.91 1392.16 52.4095 22.7351 36.964 29.6744 32.8689 13.7576
internal_count=268644 265476 33085 232391 226637 209471 200358 17166 22927 17084 10158 7668 5555 13703 11998 5754 5086 3168 1298 2113 2490 5484 714 5843 4770 1028 1870 9113 1461 614 1462 409 412 1050 202 222 105 828 406 378 248 810 3463 5825 847 831 270 107 241 163 222 117
is_linear=0
shrinkage=0.1


Tree=8
num_leaves=57
num_cat=0
split_feature=104 69 80 114 77 112 104 124 45 77 117 58 51 115 70 123 130 29 107 106 101 70 31 32 61 5 35 39 119 69 58 55 18 28 24 114 132 111 60 38 2 45 125 122 45 126 113 125 34 52 114 64 39 133 46 114
split_gain=1456.9 3646.2 1455.69 1426.84 3934.93 2032.97 1867.08 1277.04 1241.42 1229.07 1043.64 1042.62 989.567 757.216 654.396 569.124 466.861 482.664 449.242 400.008 392.217 894.313 307.213 447.137 320.434 291.836 275.506 263.669 200.26 106.133 130.665 68.6706 65.2589 63.2491 60.5504 54.3908 196.213 132.444 48.4003 38.1665 26.7489 11.9154 10.7164 9.75206 9.90184 3.69955 2.43939 2.18826 1.97057 1.51771 1.34781 1.14831 0.824088 0.692908 0.0230574 0.00294912
threshold=-0.7590995430946349 -0.020898767746984955 -1.399365961551666 -0.92882263660430897 -1.2529153823852537 -0.91492766141891468 -0.82059577107429493 -1.2918188571929929 1.2126266956329348 -1.2721653580665586 -0.93105584383010853 0.93300229310989391 1.1124643683433535 -1.4440892934799192 -0.15789604187011716 -2.3049956560134883 1.0000000180025095e-35 1.0683451294898989 -0.80812439322471608 -0.87553492188453663 -0.75434210896491993 -0.16520319133996961 0.9988650679588319 0.95868587493896495 0.70608469843864452 0.48904550075531011 0.93932336568832409 0.99479994177818309 -1.6332989931106565 -0.018217817880213257 0.90887963771820079 1.0518795847892763 1.0294928550720217 0.84327697753906261 1.3708648681640627 -1.3440971970558164 1.0000000180025095e-35 -1.1797745823860166 0.82673069834709179 0.95451691746711742 0.60315659642219555 1.2150301933288576 -1.5658352375030515 -2.0657891035079952 1.2150301933288576 -1.6000232100486753 -1.3327202796936033 -1.5658352375030515 0.81116640567779552 1.1568244099617007 -1.3913587927818296 0.48239977657794958 0.99831813573837291 1.0000000180025095e-35 1.1409887671470644 -1.3951418399810789
decision_type=2 2 2 2 2 2 2 2 2 2 2 2 2 2 2 2 2 2 2 2 2 2 2 2 2 2 2 2 2 2 2 2 2 2 2 2 2 2 2 2 2 2 2 2 2 2 2 2 2 2 2 2 2 2 2 2
left_child=1 2 18 4 5 -4 -6 10 12 -9 -5 20 34 39 26 28 17 -15 19 40 29 25 24 -24 -20 -22 53 -23 41 30 -3 -16 -31 -33 42 43 49 -38 -28 -14 -1 46 54 44 -17 -21 -10 -18 -30 -37 -45 -44 -41 -13 -2 -43
right_child=8 11 3 7 6 -7 -8 9 15 -11 -12 14 13 16 31 35 47 -19 22 45 21 27 23 -25 -26 -27 38 -29 48 32 -32 33 -34 -35 -36 36 37 -39 -40 52 -42 55 51 50 -46 -47 -48 -49 -50 -51 -52 -53 -54 -55 -56 -57
leaf_value=0.42217484500828956 -0.19909663189418203 -0.16985731531974652 -0.09146885389465309 0.15266163235394412 0.073072949789661154 0.047036804272863608 0.10741714852941416 0.041593308557941799 -0.19716927542156604 0.11900229942288919 0.36158458774598706 -0.12405990349810952 0.10451538752021801 0.1320307863332047 0.20499004894810305 -0.25032438086661624 -0.17653063603828489 0.20639571419567138 -0.077673283764839299 -0.14774716360828996 0.11782129722032947 0.36065033808070263 0.41370691051086744 0.013872717122270582 0.06361109153741748 -0.1337263853313212 0.092916394617533718 -0.12805705765855843 0.12999920633228065 0.063858246286573633 0.031226519800131053 0.17882477597559854 -0.17618261096652546 -0.13328543886554098 0.17821689210800146 -0.19332676835717366 0.027746030213466728 0.5508667278661874 0.21606913237913383 -0.14423904967821141 0.21046901056421041 -0.10640247288081493 -0.10746343410136881 -0.10504552344101042 -0.12844809426726089 -0.11355177459431381 -0.30208877783250898 -0.12961572334216062 0.15120063000128889 -0.1248582897829375 -0.11994348858090667 -0.13224630168966342 -0.10612847997959832 -0.16023534686653065 -0.19129268372186525 -0.11086510015012925
leaf_weight=9.9698708988726157 10.495871648192407 64.528781024739146 1902.911922685802 2866.5884040668607 48910.646443031728 2391.6213733479381 23403.050542278215 2869.4472729507834 3.9226522743701935 7192.44112046808 260.85766389966011 20.232762407511476 9.0417039357125741 7317.9838854037225 7.0356378722935906 10.982705958187582 36.953954666852951 990.97865384817123 299.51185687631369 34.006008472293615 297.09280247241259 11.235910248011349 46.766517259180546 69.586005840450525 345.93785910867155 54.596649512648582 36.967832863330841 632.48429526947439 71.825973741710186 11.591282619163392 64.731312103569508 6.8710379861295214 494.52635153010488 117.9776690416038 7.1209125965833655 3.4891314804553977 11.783683657646181 8.2130876630544645 233.35962465405464 5.9404294304549685 14.869100615382193 1.6713123582303513 126.26065079495311 99.674925712868571 16.961081430315971 454.41439329273999 5.0933177471160906 13.601391069591044 112.50906209647655 44.888466142117977 155.40473489463329 21.946053624153137 126.46675984933972 7.1715194284915915 5.9222521632909766 12.994492493569849
leaf_count=7 42 306 8048 4219 140730 5638 42607 12645 23 12327 264 152 17 7234 6 52 172 635 5222 208 325 23 262 487 1427 197 49 6054 35 41 146 2 2208 1195 2 14 41 7 122 40 43 30 2634 2348 205 5372 23 85 20 322 1153 149 2826 32 24 147
internal_value=0 0.0794125 0.0823886 0.0838951 0.0786648 -0.0143352 0.0841878 0.114275 0.12106 0.0969268 0.170088 -0.0521361 0.130373 0.135174 0.086458 -0.023324 0.139057 0.1409 -0.0237094 -0.0960242 -0.0886474 -0.0494661 0.0250123 0.174581 -0.00194993 0.0787708 0.1686 -0.119527 0.107771 -0.150031 -0.0691579 -0.0989788 -0.170685 -0.116108 -0.107276 -0.100928 -0.0208846 0.242603 0.199228 -0.0942642 0.295444 -0.165973 -0.119625 -0.120266 -0.176349 -0.115933 -0.256441 -0.163909 0.14294 -0.129796 -0.114122 -0.111133 -0.107838 -0.133527 -0.196282 -0.110357
internal_weight=0 93133 91072.6 89797.6 76608.2 4294.53 72313.7 13189.3 9232.13 10061.9 3127.45 2060.4 8672.71 8500.97 429.616 559.415 8359.52 8308.96 1275.06 513.259 1630.79 995.41 761.802 116.353 645.45 351.689 297.732 643.72 208.017 635.378 129.26 131.884 506.118 124.849 171.746 351.398 68.3744 19.9968 270.327 141.449 24.839 23.6818 164.625 283.023 27.9438 488.42 9.01597 50.5553 184.335 48.3776 255.08 148.207 132.407 27.4043 16.4181 14.6658
internal_count=268644 250364 239506 226478 197023 13686 183337 29455 18280 24972 4483 10858 13860 11009 1558 4420 8126 7869 13028 5630 9300 6599 7398 749 6649 522 355 6077 278 2701 452 1203 2249 1197 2851 4142 384 48 171 2883 50 223 2849 3758 257 5580 46 257 55 336 3501 2783 2866 184 66 177
is_linear=0
shrinkage=0.1


Tree=9
num_leaves=59
num_cat=0
split_feature=104 69 103 70 134 78 31 59 130 104 44 58 47 102 68 52 116 51 31 115 31 130 47 70 40 123 35 101 119 104 103 70 70 75 113 132 112 55 88 41 38 123 45 122 45 125 52 53 133 114 39 57 127 67 1 77 26 114
split_gain=1350.03 3423.95 1464.25 2693.41 2127.99 2976.57 1888.93 1325.96 1015.98 1185.65 1002.33 857.209 828.496 793.576 1213.66 793.32 791.041 1170.86 732.898 611.729 606.795 553.629 548.779 518.971 476.691 398.497 286.515 245.637 139.513 122.225 108.512 143.904 96.7128 65.2711 61.1697 128.99 104.576 57.9422 55.1374 39.7181 34.0642 7.7413 4.88129 4.21721 4.78934 2.47871 1.88575 1.1985 1.09112 1.04184 0.573588 0.39361 0.288589 0.141887 0.063967 0.0443634 0.0340341 0.00211891
threshold=-0.76096484065055836 -0.033047087490558617 -0.77764388918876637 -0.22525656968355176 1.0000000180025095e-35 -1.1289898157119749 0.99450206756591808 0.84224984049797069 1.0000000180025095e-35 -0.7824052870273589 1.1937430500984194 0.93300229310989391 1.1686522364616396 -0.75876459479331959 0.12803848087787631 1.0890353322029116 -1.3314356207847593 1.136397182941437 1.0009124875068667 -1.4440892934799192 0.99573063850402843 1.0000000180025095e-35 1.1880743503570559 -0.15789604187011716 1.0480226874351504 -2.3049956560134883 0.92167067527771007 -0.78980523347854603 -1.6332989931106565 -0.79996761679649342 -0.76126131415367115 -0.18541731685400006 -0.16520319133996961 -1.1314446926116941 -1.302854001522064 1.0000000180025095e-35 -1.2117955684661863 1.0518795847892763 -0.25043644011020655 1.0928490757942202 0.95451691746711742 -1.3119908571243284 1.2150301933288576 -2.0657891035079952 1.2150301933288576 -1.5658352375030515 1.1788632869720461 1.1285665631294253 1.0000000180025095e-35 -1.3913587927818296 0.99831813573837291 0.99274033308029186 -1.7142083048820493 0.22273450344800952 0.68018078804016124 -1.308901786804199 1.1916033029556277 -1.3951418399810789
decision_type=2 2 2 2 2 2 2 2 2 2 2 2 2 2 2 2 2 2 2 2 2 2 2 2 2 2 2 2 2 2 2 2 2 2 2 2 2 2 2 2 2 2 2 2 2 2 2 2 2 2 2 2 2 2 2 2 2 2
left_child=1 2 3 4 6 -6 -1 27 16 20 15 13 -9 30 22 41 17 -4 -18 40 -10 24 -15 26 -21 28 48 -5 42 -28 33 -32 -16 -3 43 47 -37 -25 -39 -11 -17 53 51 44 -27 -23 -30 -36 -13 -45 -42 -12 55 56 -54 -43 -2 -44
right_child=10 11 8 7 5 -7 -8 12 9 39 25 23 -14 14 32 19 18 -19 -20 21 -22 45 -24 37 -26 34 29 -29 46 -31 31 -33 -34 -35 35 36 -38 38 -40 -41 50 52 57 49 -46 -47 -48 -49 -50 -51 -52 -53 54 -55 -56 -57 -58 -59
leaf_value=0.05714380489945832 -0.17954742661022632 0.14940475750610235 0.10579359664870712 -0.12169881471459552 0.0064763337956924823 0.14713702562163061 0.091795681390383646 0.12314835067690831 -0.054381639038480492 -0.18263039512913065 -0.18721518435078388 -0.11953777365670769 -0.04674114549933038 0.079240894152241531 -0.053552022691781734 0.093790242862112808 0.13415624030409443 -0.12101681681807575 -0.14042476630025597 0.15243993548266954 0.15423384425171313 -0.17123770353907264 -0.11856258350286797 0.18307381620768723 0.10540863475408963 -0.21374841581837561 -0.040006223485736243 -0.043140853887327892 0.14538539601642483 0.19170973363051735 0.056133675246935813 -0.16584754123986645 -0.14142906473953074 -0.14695844918886158 -0.18001143934130601 0.014635787053095616 0.39499549527885991 -0.12994115214476135 0.16684416599883464 -0.041638374117394274 -0.13768851382589611 -0.11863120995133716 -0.10575737646785902 -0.10449790307443532 -0.1211230879892292 -0.12809815428555685 0.12211007764201308 -0.12221430430038197 -0.15962774658511489 -0.11824205282084871 -0.1055568136914784 -0.23424303647512446 -0.10776948948125978 -0.16555278319469141 -0.10232981431732882 -0.13181079553059191 -0.19018968672539957 -0.10972474626273357
leaf_weight=24810.817104352638 6.0789341628551501 7.5032626688480368 793.872129464522 886.50965321622789 8705.5931852757931 1818.7188627645373 42986.958555167541 695.17336058057845 212.06721651181579 240.46894828602672 3.3934114053845432 24.287527408450842 488.94410622864962 933.88720817118883 165.15546850860119 9.0663509145379049 7873.562231015414 319.0842317622155 98.423244275152683 3854.0957412794232 407.05167756974697 50.113220885396004 165.04678797535598 7.085992030799388 4888.6451480947435 9.1222361233085412 24.539971362799406 722.3537550996989 76.747177124023438 314.54820929840207 66.42243230715394 52.118949748575687 518.1474135518074 776.28785745613277 3.9329867660999289 23.647725529968739 10.410618782043455 103.27602222189307 6.6637131236493579 21.790734440088272 5.8332375530153504 7.9244232848286629 1.5210191980004317 93.812802856788039 14.385578498244284 18.140491880476475 63.701369017362595 40.873898439109325 9.4228382706642133 133.83239390701056 116.7349070366472 3.7426246590912342 84.691597016528249 5.6138138473033896 29.026942005380988 3.7686066552996618 5.9426548779010773 11.712107658386227
leaf_count=83420 25 11 1907 4545 27880 2947 94026 1391 704 1189 23 195 1950 1898 464 17 8197 2447 464 2620 289 235 1526 6 6151 50 109 3273 13 260 126 247 4923 3665 16 86 2 1123 2 85 44 66 30 2458 197 122 34 314 43 1074 2869 17 1325 27 1325 23 24 145
internal_value=0 0.0700656 0.0736237 0.0691794 0.0726204 0.0307841 0.0791147 -0.0273165 0.109796 0.00728894 0.109473 -0.0320269 0.0529978 -0.054224 -0.0155377 0.116993 0.119741 0.0407671 0.130766 0.12073 0.0827766 0.123927 0.0495332 0.0896281 0.126142 -0.0297181 0.147299 -0.0864276 0.0993581 0.17494 -0.130635 -0.0414645 -0.120189 -0.144121 -0.0926169 -0.0157878 0.1309 -0.0940882 -0.111952 -0.170916 -0.0932506 -0.116643 -0.145217 -0.116742 -0.157066 -0.159772 0.134829 -0.127288 -0.130744 -0.112578 -0.107086 -0.21188 -0.107919 -0.178679 -0.106381 -0.122879 -0.184808 -0.109269
internal_weight=0 94255.8 91081.4 81115.1 78322.1 10524.3 67797.8 2792.98 9966.32 881.379 9576.51 3174.39 1184.12 2684.57 1782.24 9085.68 9084.94 1112.96 7971.99 8942.63 619.119 8810.99 1098.93 489.824 8742.74 490.836 372.799 1608.86 160.818 339.088 902.333 118.541 683.303 783.791 330.018 78.8652 34.0583 117.026 109.94 262.26 131.634 143.047 20.3692 251.153 23.5078 68.2537 140.449 44.8069 33.7104 227.645 122.568 7.13604 125.412 17.6354 113.719 11.693 12.0216 13.2331
internal_count=268644 249312 234714 219432 208273 30827 177446 11159 15282 2267 19332 14598 3341 12860 8811 14873 13015 4354 8661 12058 993 9128 3424 1738 8771 4459 607 7818 262 369 4049 373 5387 3676 4197 418 88 1131 1125 1274 2930 2815 215 3779 247 357 47 330 238 3532 2913 40 2739 76 2650 89 49 175
is_linear=0
shrinkage=0.1


Tree=10
num_leaves=57
num_cat=0
split_feature=29 104 125 115 77 31 90 115 117 77 136 27 101 30 122 30 100 1 80 87 69 130 61 101 2 30 0 105 70 2 15 71 3 52 73 103 0 65 102 73 30 78 24 87 43 113 31 37 124 64 103 67 75 27 102 77
split_gain=1388.7 2258.47 1261.33 4532.31 4048.46 3398.41 2357.55 1975.73 1671.74 2266.34 1301.61 1257.35 1472.07 1072.61 818.801 762.432 718.441 744.348 671.317 591.982 541.918 533.987 512.93 479.639 397.35 310.952 305.511 269.348 220.075 207.196 205.259 199.237 177.485 160.345 152.595 151.585 142.728 214.556 137.893 129.498 118.575 255.019 99.2647 68.0525 57.3217 55.9628 46.3641 42.0065 55.9436 55.3662 2.43724 0.287802 0.25991 0.0722276 0.0131223 0.012539
threshold=1.2226817607879641 -0.90222373604774464 -1.6804029345512388 -1.009144067764282 -1.1889118552207945 0.98976954817771923 -1.1066601276397703 -1.0255602002143858 -1.0886364579200742 -1.1446113586425779 1.0000000180025095e-35 1.3228257894515993 -0.89639961719512928 1.0864154696464541 -1.3917567133903501 1.0992087721824648 -0.7864607274532317 0.3541297465562821 -1.3126785755157468 -1.1896752715110777 -0.28701126575469965 1.0000000180025095e-35 0.80997973680496227 -0.94095259904861439 0.67029577493667614 1.0979109406471255 0.67130982875823986 -0.93274703621864308 -0.55759274959564198 0.53652551770210277 1.1050965785980227 -0.65554833412170399 0.59596282243728649 0.91726484894752514 -0.91398632526397694 -0.87982806563377369 0.56714311242103588 0.13370033353567126 -0.87402823567390431 -0.95430916547775257 1.0864154696464541 -1.1488544344902036 1.5171062946319582 -1.1452566981315611 0.81505349278450023 -0.91434627771377552 1.012174189090729 0.68256127834320079 -1.0972111225128172 0.05468233302235604 -0.92854493856430043 -0.12723242491483686 -1.1072130203247068 1.4548134207725527 -0.91959321498870839 -1.1339126825332639
decision_type=2 2 2 2 2 2 2 2 2 2 2 2 2 2 2 2 2 2 2 2 2 2 2 2 2 2 2 2 2 2 2 2 2 2 2 2 2 2 2 2 2 2 2 2 2 2 2 2 2 2 2 2 2 2 2 2
left_child=1 11 8 4 22 13 -7 -6 9 14 -11 18 15 -5 -3 19 17 -10 30 -13 38 -18 -4 24 31 26 28 -17 -26 51 32 45 -1 -28 40 -22 46 -38 -14 52 41 -31 -32 -41 -42 50 -20 48 -36 -49 -2 53 -27 54 -25 -55
right_child=23 2 3 5 7 6 -8 -9 16 10 -12 12 20 -15 -16 27 21 -19 36 -21 35 -23 -24 29 25 39 33 -29 -30 34 42 -33 -34 -35 47 -37 37 -39 -40 43 44 -43 -44 -45 -46 -47 -48 49 -50 -51 -52 -53 -54 55 -56 -57
leaf_value=0.058403127709381532 -0.14441872346082338 0.084350025597548881 -0.11950139282596646 -0.025115750942695809 -0.002551853717183626 0.073508103259363924 0.15559855610990966 0.095811709140716711 -0.074450023490180151 0.071384661170198468 0.15304152765269952 0.044015609575683262 0.12226238179367377 0.10379342974660598 -0.13825291992497835 -0.012625139216411368 0.11796133022145408 0.19075571318199175 -0.11031229094037316 -0.055380531664358926 -0.14046268371775958 -0.0090698005460454912 0.51046841741851157 -0.12803773735406568 -0.080044925237234943 -0.10814759211141321 0.077488445063595118 0.10307380144811869 0.11861554058972126 -0.17837531908161181 -0.057617542582263398 0.18204787888143653 0.27551726112115354 0.40415255208185602 0.16393796146657344 0.20351429119723577 -0.11980802654765069 0.097796761923445719 0.19570395525210649 0.094184560339541062 0.12740032318006667 0.099087478012545749 0.38034549257181377 0.14279455484466616 -0.012471083372910384 0.11682093745153435 -0.054731694560958034 0.06116674385161755 0.11383768212812009 0.14151871466228641 -0.17864125073917114 -0.15905677955584119 -0.13381510436930122 -0.12697427528312974 -0.13447054107381226 -0.11955172151080379
leaf_weight=80.84893399477005 85.046156641095877 218.64340822398663 2321.4156818911433 4300.9163237418979 5843.3586963005364 38845.961469627917 3844.6980227082968 3138.9614893421531 111.47383437305689 24539.748074317351 2120.7710007745773 862.67382660135627 736.68334156274796 759.43952279910445 676.53277332335711 268.54959234595299 2878.2405710853636 2090.4231770113111 1132.4297311604023 1961.8817338608205 88.935884799808264 373.89696311205626 12.997006490826605 4.9706043489277354 244.03301485255361 5.3120837267488268 632.10817774757743 802.46652095764875 72.279708258807659 44.42382300272584 84.904769584536552 23.824152782559395 70.469969782978296 15.392174288630484 1767.0887579470873 14.967570610344408 88.400926794856787 92.958043102174997 391.5354773439467 449.68467100709677 641.00939597189426 130.24595853686333 5.5110203213989726 801.00005748122931 30.702929183840752 8.2636835165321809 173.01438053511083 104.33258438110352 255.0481131374836 481.55755968391895 27.551858566701412 3.1913718581199637 15.330287568271158 3.0751845985651043 8.7591381706297451 8.7566459625959343
leaf_count=391 485 282 10172 23379 19801 86503 3931 6232 455 67412 2070 3515 1340 1410 2873 927 2633 2100 9920 10417 496 851 4 32 875 91 919 1498 62 192 1227 27 114 6 756 13 776 387 272 510 404 136 21 571 83 9 909 171 177 439 123 14 96 20 49 66
internal_value=0 0.0628578 0.0669807 0.0582312 0.00133077 0.0717163 0.0809011 0.0318223 0.0826371 0.0726252 0.0778802 0.00748847 0.0323521 -0.00576954 -0.083883 0.00221889 0.133221 0.177329 -0.0662692 -0.025023 0.127623 0.103357 -0.115994 0.112947 0.0783444 0.0887406 0.0459028 0.0740631 -0.0346496 0.136589 0.0882853 -0.0822585 0.159514 0.0852538 0.138814 -0.0909119 -0.0913977 -0.00827169 0.147749 0.121217 0.10192 0.0285203 -0.0309228 0.125317 0.121007 -0.134358 -0.102946 0.150788 0.157619 0.12721 -0.152793 -0.130742 -0.12721 -0.127207 -0.132142 -0.121481
internal_weight=0 98933.7 92077.5 59067.7 11316.7 47751 42690.7 8982.32 33009.7 27555.7 26660.5 6856.23 5127.69 5060.36 895.176 3895.57 5454.03 2201.9 1728.54 2824.56 1232.12 3252.14 2334.41 5862.99 2379.83 2235.14 963.813 1071.02 316.313 3483.16 241.735 144.686 151.319 647.5 3454.41 103.903 1486.8 181.359 1128.22 1271.33 846.382 174.67 90.4158 1250.68 671.712 120.862 1305.44 2608.03 2022.14 585.89 112.598 28.7529 20.6424 25.5616 13.7297 11.8318
internal_count=268644 262331 230108 151432 36209 115223 90434 26033 78676 72637 69482 32223 18478 24789 3155 16357 6039 2555 13745 13932 2121 3484 10176 6313 3774 3130 1862 2425 937 2539 1753 644 505 925 2358 509 11992 1163 1612 1268 815 328 1248 1081 487 617 10829 1543 933 610 608 181 187 167 81 86
is_linear=0
shrinkage=0.1


Tree=11
num_leaves=56
num_cat=0
split_feature=104 70 29 104 80 109 114 69 102 113 52 55 49 73 86 40 123 38 98 125 95 102 0 101 106 16 69 104 24 115 115 105 69 114 48 50 104 127 32 31 107 114 108 120 125 122 114 104 107 32 32 108 27 39 114
split_gain=1307.8 2296.85 1296.47 1857.98 1445.32 3196.82 1575.35 996.391 1092.12 973.699 1482.63 601.84 592.531 477.518 411.296 344.789 316.438 302.991 247.761 197.714 188.408 180.985 160.421 172.761 155.024 148.567 193.945 380.167 133.024 149.707 96.5084 87.2763 73.2899 67.0685 64.182 55.0187 54.1927 48.6326 45.4706 37.0635 33.0752 32.5939 30.0001 28.3689 19.325 15.2439 10.8029 10.6631 2.44496 1.7731 1.74065 0.960948 0.753251 0.704532 0.271274
threshold=-0.74696883559226979 -0.15789604187011716 1.2194860577583315 -0.90222373604774464 -1.3520494699478147 -0.85785433650016774 -0.98402076959609974 -0.27038000524044031 -0.90587180852890004 -1.3327202796936033 1.1421670317649844 1.0153454542160036 1.2208393812179568 -0.91924032568931568 -1.1518550515174864 1.0449151992797854 -2.3049956560134883 0.97427925467491161 -0.84967514872550953 -1.7044789791107176 -1.0333610177040098 -0.94692951440811146 0.47428990900516516 -0.93944066762924183 -0.79245150089263905 0.92055657505989086 0.014028779696673157 -0.7590995430946349 1.1432121992111208 -1.4271706938743589 -1.4440892934799192 -0.81214892864227284 1.0000000180025095e-35 -1.3599290847778318 1.2251334190368655 1.1505988836288454 -0.75003018975257862 -3.4189666509628291 0.97283661365509044 0.98366335034370433 -0.94100445508956898 -1.3913587927818296 -1.0458941459655759 -1.7585095167160032 -1.5658352375030515 -2.0657891035079952 -1.3913587927818296 -0.7590995430946349 -0.98271536827087391 0.97097143530845653 0.97097143530845653 -1.0458941459655759 1.4303744435310366 1.0006755590438845 -1.3951418399810789
decision_type=2 2 2 2 2 2 2 2 2 2 2 2 2 2 2 2 2 2 2 2 2 2 2 2 2 2 2 2 2 2 2 2 2 2 2 2 2 2 2 2 2 2 2 2 2 2 2 2 2 2 2 2 2 2 2
left_child=1 2 3 7 5 -5 -6 8 -1 10 17 31 18 14 20 28 33 30 35 -20 -4 -16 52 -24 -9 26 27 -17 29 51 40 -11 -31 -14 -18 -13 48 -19 44 -28 -2 53 -32 -43 -33 -45 -39 49 -30 -27 -49 -3 -15 -12 -55
right_child=9 15 13 4 6 -7 -8 24 -10 11 41 12 16 22 21 25 34 37 19 -21 -22 -23 23 -25 -26 47 39 -29 36 32 42 38 -34 -35 -36 -37 -38 46 -40 -41 -42 43 -44 45 -46 -47 -48 50 -50 -51 -52 -53 -54 54 -56
leaf_value=-0.0097543567458299799 -0.11908090993133545 -0.11116313469220465 0.041789944322581804 -0.064589773236116962 0.050120168976673977 0.064164651477036302 0.078974767475004135 -0.097547940833891067 0.089323780617865611 0.14661363326753507 -0.14482311401968384 0.19797467849109585 -0.083201424461493714 -0.16056746042305231 -0.0095391293242382182 -0.10801953358907211 0.16714950447109106 0.12068171391719196 0.13900626993057152 0.08232969285804477 -0.05905171229341985 0.11175811769304259 0.087915348204551491 0.13474123458810799 0.2353085297054153 -0.16875404637760522 -0.11776300257138206 0.080482248061657047 -0.11425352385285792 0.19358932703302281 0.23156682880662771 -0.2070393360016019 -0.036238421087288503 0.12381883980013603 -0.10642312866183544 0.34571313336680853 0.14537070660745555 -0.10692391633867218 0.14462064767721636 -0.18678783931799511 0.13280663538198881 -0.019973717255261782 0.14850032663767093 -0.21281096959256351 -0.10685283105893106 -0.1551029711654168 -0.20717259758016465 -0.21596427592872708 -0.16821325160528078 -0.13279337049737205 -0.15384954649223753 -0.17274579671273488 -0.12286517536412939 -0.1044466359176292 -0.11368256679308496
leaf_weight=3837.1066352110356 17.537338344380263 21.7489970587194 559.53385944664478 2955.8020316436887 42849.1866039671 5547.8004710432142 33882.955617398024 926.89419792033732 1566.8334915228188 14.420151427388189 5.004886668175458 42.343644738197327 17.61618646979332 7.8117253407835987 137.9325135499239 301.90306322462857 9.0235175192356092 7.9646284990012637 4033.9986803531647 726.3265329785645 276.99764469265938 1137.0153763070703 1058.5695801600814 3081.4870524704456 14.206599254161118 90.231039352715015 287.04678476415575 165.71843579784036 13.0681717377156 85.661433786153793 49.203407444059849 24.240728914737701 16.557075036689639 140.15602162480354 172.78865352645516 62.285806030035019 7.5489806234836569 26.500881161540747 6.4798762947320929 106.71192160993814 7.4180595465004435 12.527857795357702 373.6565575748682 69.939714096486568 93.57259875908494 132.48354241251945 18.085236474871635 72.458973318338394 23.492773082107306 16.168154701590538 4.811074621975421 2.8679989762604228 16.475097998976707 127.26363114453852 42.395473644137383
leaf_count=19269 259 420 1161 11181 108665 23701 63862 8043 3752 6 31 39 120 37 694 3242 26 31 1996 904 891 852 1477 2130 18 386 4027 437 218 72 53 99 55 48 1236 13 6 577 2 481 18 31 145 318 2328 804 88 296 117 90 22 25 118 3309 418
internal_value=0 0.0559563 0.0576536 0.0546405 0.0585267 0.0194104 0.0628616 0.00243549 0.0189726 0.10318 0.00633741 0.119311 0.12479 0.101623 0.0628851 -0.0806336 -0.00292171 0.120231 0.133704 0.130359 0.00839861 0.0986354 0.121265 0.122768 -0.0925232 -0.10217 -0.0847593 -0.0412172 0.0510253 0.103047 0.146888 -0.086264 0.156362 0.100704 -0.0928454 0.285923 -0.0985601 -0.106928 -0.113282 -0.136469 -0.0442067 -0.139932 0.158166 -0.166004 -0.127467 -0.175042 -0.147587 -0.183823 -0.148926 -0.16329 -0.212097 -0.118338 -0.134992 -0.107845 -0.106755
internal_weight=0 99072.6 97856.6 91580.8 85235.7 8503.6 76732.1 6345.04 5403.94 6233.23 889.981 5343.25 5204.54 6275.82 2111.48 1215.99 339.584 500.366 4864.95 4760.33 836.532 1274.95 4164.34 4140.06 941.101 1045.05 861.38 467.621 170.945 126.836 447.815 138.713 102.219 157.772 181.812 104.629 44.1099 52.5507 124.293 393.759 24.9554 389.615 422.86 214.951 117.813 202.423 44.5861 183.669 36.5609 106.399 77.27 24.617 24.2868 174.664 169.659
internal_count=268644 255745 245851 238491 207409 34882 172527 31082 23021 12899 6082 6817 4382 7360 3598 9894 1430 1171 2952 2900 2052 1546 3762 3607 8061 8981 8187 3679 913 572 475 2435 127 168 1262 52 341 696 2429 4508 277 4911 198 1153 2427 1122 665 794 335 476 318 445 155 3758 3727
is_linear=0
shrinkage=0.1


Tree=12
num_leaves=58
num_cat=0
split_feature=104 69 30 104 68 28 104 73 74 113 52 59 58 74 51 131 103 69 48 49 39 125 113 30 123 79 105 73 38 36 40 104 43 114 69 116 24 127 70 15 10 105 47 114 111 53 122 32 7 40 125 53 60 39 39 114 53
split_gain=1251.44 1964.81 1189.29 2232.45 1701.07 1454.85 2480.57 1412.47 1297.3 744.778 1371.11 574.534 569.16 556.024 538.109 489.407 453.712 498.041 432.929 424 421.06 1028.69 412.918 339.743 326.875 322.056 306.088 245.063 241.302 250.751 205.455 189.403 161.778 121.136 98.2495 52.1395 42.9422 42.4935 40.5724 38.7484 88.0594 28.8563 26.1716 23.0254 26.056 65.1735 15.514 5.90773 4.97347 4.86874 4.1824 4.17914 1.12534 0.502846 0.375257 0.212204 0.0827194
threshold=-0.75711214542388905 -0.015598950441926716 1.0881277322769167 -0.87943139672279347 -0.087252959609031663 1.2021754384040835 -0.83892792463302601 -0.84114202857017506 -1.0024414658546446 -1.3327202796936033 1.1421670317649844 0.88348338007926952 0.72756728529930126 -1.0208243727684019 1.1124643683433535 1.0000000180025095e-35 -0.7487032115459441 -0.0034969787811860438 1.2276877760887148 1.1829342246055605 1.0256160497665407 -1.6460325717926023 -0.92043873667716969 1.0979109406471255 -2.3049956560134883 -0.96934327483177174 -0.87407812476158131 -0.93013823032379139 0.97427925467491161 0.92798623442649852 1.0261741876602175 -0.77183619141578663 1.184582591056824 -1.3990371227264402 1.0000000180025095e-35 -1.4566903114318845 1.3708648681640627 -3.4189666509628291 -0.15380750596523282 0.86218500137329113 0.5653967857360841 -0.81131684780120839 1.1786175370216372 -1.3913587927818296 -1.2289003133773801 1.1232162714004519 -2.0657891035079952 0.97034713625907909 0.49711954593658453 1.0715945363044741 -1.5658352375030515 1.1285665631294253 0.78414720296859752 1.0006755590438845 0.99774086475372326 -1.3951418399810789 1.061867415904999
decision_type=2 2 2 2 2 2 2 2 2 2 2 2 2 2 2 2 2 2 2 2 2 2 2 2 2 2 2 2 2 2 2 2 2 2 2 2 2 2 2 2 2 2 2 2 2 2 2 2 2 2 2 2 2 2 2 2 2
left_child=1 2 3 4 8 6 -5 -7 -1 10 28 16 -6 22 36 25 39 31 20 48 30 -22 23 -4 35 -15 -17 -24 33 37 -16 -18 51 54 -34 -20 50 -30 -19 40 -3 -26 -35 53 46 -46 -45 -41 49 -13 56 -21 -52 -12 -2 -55 -11
right_child=9 11 13 5 12 7 -8 -9 -10 14 43 19 -14 15 18 26 17 38 24 32 21 -23 27 -25 41 -27 -28 -29 29 -31 -32 -33 34 42 -36 -37 -38 -39 -40 47 -42 -43 -44 44 45 -47 -48 -49 -50 -51 52 -53 -54 55 -56 -57 -58
leaf_value=-0.040670603023126389 -0.14101835591466058 -0.15065121021202965 -0.12350195857063583 0.006906409478146411 0.2417058500117884 0.041223099898422572 0.057528835046869967 0.11046498199223498 0.042344587054366396 -0.16357176544775967 -0.13830502241978329 0.10248159650038025 -0.10169694989605359 0.08630374711381554 0.035770696814009594 -0.12805395647249793 -0.085595731273493667 -0.037855976378449951 -0.038394589658743365 -0.17020192993428584 0.10563891375357477 -0.072591941329148757 -0.019626816768685135 0.030735891152489949 0.036900227885962582 0.14124524759340806 0.13757760989320719 0.10191007688178791 0.10897425143707103 0.84882772585098665 0.13521759028913985 0.11168642241428191 0.14508445265036457 0.22190487667824313 -0.12532967962207053 0.12124044742581555 0.14453646118637806 -0.13822862033078043 -0.13213231607414008 -0.1720231056994436 -0.021507151184282695 -0.10367878069471791 0.13902845534661129 -0.22073210665545787 0.075361053721103077 -0.16140715289713728 -0.15410617139566796 -0.1378903424640541 0.17052707377042023 0.17748770921658741 -0.10800106391692088 -0.12132087830202996 -0.16929221833179964 -0.10395423892779539 -0.10818802480920389 -0.11215671639246956 -0.17995774720837021
leaf_weight=2507.7989280223846 4.6957806944847134 211.26350262947381 272.92052469961345 12122.58672856912 49.861685216426849 4693.1519186962396 48036.224735466763 7913.894532378763 7549.146400462836 7.7671827971935254 4.8965268619358531 23.980627417564392 1506.632366174832 8654.3493745736778 219.14440949261189 162.53320450335741 62.318306028842926 55.736607506871223 23.784612387418747 21.80322041362524 2096.3718608021736 382.99269410967827 230.57894680649042 299.5735165849328 15.938414387404917 1216.94087809138 59.172926604747772 591.50392406433821 7.9394228421151629 2.8643518984317771 3994.3591917976737 222.1115229986608 46.740349970757961 42.005104057490826 18.856588783673942 146.38383835554123 6.6659138053655616 56.007262909784913 252.20300946012139 336.77779099904001 70.391434013843536 174.08637491986156 410.26107719168067 51.766280420124531 15.865417093038557 43.506347507238388 107.57983779162169 59.696558199822903 140.63999511301517 13.54069137573242 104.49879203177989 88.427675017155707 3.0840436071157447 138.34935034997761 13.464815612882374 40.853744871914387 5.1060807108879089
leaf_count=13729 34 1160 1496 42588 165 11389 107514 9857 25920 33 35 60 11505 12858 344 707 828 151 131 151 1939 1125 1267 880 76 607 32 1176 31 5 2233 326 46 23 196 45 2 937 3671 1495 199 1311 252 230 16 292 697 332 24 2 2638 1115 16 4023 267 442 21
internal_value=0 0.0495644 0.0514124 0.0473027 0.00658752 0.0538009 0.0473279 0.0846887 0.0216439 0.090424 0.006725 -0.0594925 -0.0906962 0.0815989 0.101382 0.0897769 -0.0908837 -0.0269451 0.105057 0.0531732 0.110805 0.0781072 0.0224126 -0.0427927 -0.00173932 0.093077 -0.0571574 0.0678212 0.111301 -0.066535 0.130045 0.0684621 -0.0569936 0.136557 0.0673508 0.0989281 -0.102531 -0.107537 -0.115068 -0.146736 -0.118375 -0.0918877 0.146726 -0.132748 -0.154682 -0.0981376 -0.175751 -0.166884 0.161897 0.12955 -0.116204 -0.130989 -0.109758 -0.106688 -0.116677 -0.105824 -0.170071
internal_weight=0 97491.4 95866.9 84379.3 11613.4 72765.9 60158.8 12607 10056.9 8120.24 940.055 1624.49 1556.49 11487.6 7180.18 10093 1270.5 592.369 7053.06 353.989 6692.87 2479.36 1394.58 572.494 360.193 9871.29 221.706 822.083 537.238 66.811 4213.5 284.43 175.828 470.427 65.5969 170.168 127.122 63.9467 307.94 678.129 281.655 190.025 452.266 402.818 218.718 59.3718 159.346 396.474 178.161 37.5213 120.456 110.231 107.583 184.1 18.1606 179.203 12.8733
internal_count=268644 251446 241690 222667 51319 171348 150102 21246 39649 17198 7284 9756 11670 19023 9914 14204 8162 4976 7204 1594 5641 3064 4819 2376 1563 13465 739 2443 1549 973 2577 1154 1508 576 242 176 2710 968 3822 3186 1359 1387 275 5735 1235 308 927 1827 86 62 2708 1266 2654 4500 301 4465 54
is_linear=0
shrinkage=0.1


Tree=13
num_leaves=57
num_cat=0
split_feature=103 71 54 101 30 49 18 73 130 114 39 136 35 132 135 0 127 126 102 71 60 104 71 106 127 17 114 126 39 52 29 69 103 50 5 52 127 53 65 21 51 59 45 101 16 37 32 94 39 53 71 67 125 42 108 32
split_gain=1187.38 3506.2 1382.29 2057.86 2550.07 1458.72 1287.27 1228.78 1056.17 1061.86 1219.02 830.675 771.978 702.804 677.732 561.09 486.606 456.542 381.643 388.772 340.151 337.98 315.05 260.636 259.481 243.179 236.215 230.9 224.131 219.894 206.983 183.934 156.321 259.946 188.986 142.922 207.746 108.95 112.508 96.1352 84.1314 80.6567 79.9225 77.6615 54.3326 46.2208 43.8791 35.155 32.4688 14.1009 11.3543 33.2115 7.90117 3.25256 1.67135 0.0661889
threshold=-0.75979977846145619 -0.37473312020301813 1.0767593979835512 -0.78782695531845082 1.0446251034736636 1.1461707353591921 1.0572004914283755 -0.66402757167816151 1.0000000180025095e-35 -1.3796735405921934 1.0042712092399599 1.0000000180025095e-35 0.95565003156661998 1.0000000180025095e-35 1.0000000180025095e-35 0.35390773415565496 -2.218270897865295 -1.8003702759742735 -0.75876459479331959 -0.34165297448635096 0.82117480039596569 -0.84532576799392689 -0.36662557721137995 -0.87605676054954518 -3.1389651298522945 1.0159088969230654 -1.0738803148269651 -1.7967235445976255 1.0530638694763186 1.1421670317649844 1.0640562176704409 -0.060152499005198472 -0.77437111735343922 1.0931577086448672 0.51160427927970897 1.1421670317649844 -3.2653242349624629 1.0554692745208742 0.38570113480091101 1.1921693086624148 1.171077609062195 0.85547825694084179 1.1766509413719179 -0.75434210896491993 1.0571573376655581 0.99968954920768749 0.97502422332763683 -0.72327953577041615 1.0071744322776797 1.1285665631294253 -0.39339569211006159 0.21684224903583529 -1.5658352375030515 1.0939811468124392 -1.0458941459655759 0.88173905014991771
decision_type=2 2 2 2 2 2 2 2 2 2 2 2 2 2 2 2 2 2 2 2 2 2 2 2 2 2 2 2 2 2 2 2 2 2 2 2 2 2 2 2 2 2 2 2 2 2 2 2 2 2 2 2 2 2 2 2
left_child=1 2 3 4 13 -6 31 11 9 10 24 -5 14 -1 17 25 26 -11 20 32 22 -9 27 47 40 -8 -14 -3 -18 53 -17 39 33 -20 -34 36 -12 38 -21 -4 -2 -24 -33 -31 -16 49 -39 -10 -37 52 -49 -52 -25 -22 -26 -51
right_child=8 18 6 7 5 -7 15 21 23 12 35 -13 16 -15 44 30 28 -19 19 37 29 -23 41 45 54 -27 -28 -29 -30 43 -32 42 34 -35 -36 48 -38 46 -40 -41 -42 -43 -44 -45 -46 -47 -48 50 -50 55 51 -53 -54 -55 -56 -57
leaf_value=-0.030754883113477401 0.1342733919284308 -0.016986041085929271 0.22335838263421187 0.08663667869699189 0.049845574512137197 -0.080711117437508223 -0.020508550980185121 -0.060948961829568431 0.27510016150310301 0.10670514303926842 0.069099754280779926 0.16392494090205934 -0.071560021643211777 0.0764715946675526 -0.17511145343842072 -0.025344031320343186 -0.02844697469778015 0.0539687908487579 0.14576894380674971 -0.16464110053101771 0.12623216418524136 0.038659601319416259 -0.15613281846001931 -0.18868210731121654 -0.11630685317491202 -0.12097536316046408 0.12784544012641783 -0.13705254350054724 -0.18541368379864442 -0.13283871103757566 0.17830085369584819 0.100086016284827 0.058450132286079107 -0.11762893905695021 -0.20729228999551311 -0.033864229227679191 -0.10769511061901647 -0.12769238553611548 0.15535812047025072 0.077631770259662267 -0.03897949349790128 -0.095898455477933214 -0.15511410671238471 0.095779088381295202 0.094410029619673735 0.028561752122478051 0.089501070728243481 0.16300731545559471 -0.13031270740271844 -0.14332199317615632 0.15643501447572075 -0.14774930281543078 -0.12302533812732584 0.16718055025745771 -0.1880111382727937 -0.12150777336559349
leaf_weight=5502.6747241020203 491.14857459440827 548.90127488970757 186.84290621429682 9194.0708100162446 67373.609173610806 866.81240819394588 313.20310850813985 559.28118079900742 12.196296900510786 9236.4706855639815 116.28075525723398 1638.4165074899793 74.734675019979477 687.65436921454966 99.500397611409426 95.068794908002019 407.55373631417751 1996.3852286357433 49.415067035704851 17.14293840713799 28.130634994246066 871.36360864713788 687.86592081654817 152.44113171100616 43.170781066641212 1043.9857609644532 289.64460051059723 226.16425775922835 117.10626716166735 58.187012722715735 105.07106406241655 25.270564422011375 603.61325484141707 154.97011331096292 28.002805337309837 37.888926127925515 155.14476227015257 316.27508246339858 30.59740548953414 59.744678970426321 29.724623158574104 328.45806329417974 23.85719308257103 19.954525483772159 8.0874553620815259 12.776220120489596 9.5835862159728986 7.4979419559240332 443.05611158907413 1.4290462285280217 7.5193485766649264 6.8675539456307888 20.833658784627914 62.484624369069934 3.5154159702360621 52.152032062411308
leaf_count=28461 381 1694 118 12520 162348 3642 978 3262 4 10173 670 817 277 3119 577 750 1008 4981 37 128 43 1696 3777 623 583 4816 181 1070 534 612 245 25 1066 896 117 208 3208 2481 35 117 120 1345 124 94 7 33 18 5 7843 12 4 42 301 24 20 374
internal_value=0 0.0433401 0.0470394 0.048866 0.0426123 0.0481872 -0.0384208 0.0868228 0.0747796 0.0787083 -0.00650394 0.0983265 0.0879053 -0.0188436 0.09494 -0.0747402 -0.00182787 0.0973325 -0.0599999 -0.0158286 -0.0872579 -0.000280319 -0.100044 -0.119701 0.104143 -0.0977903 0.0869471 -0.0520215 -0.0634826 0.0484659 0.0815671 0.152849 0.0220702 -0.0539461 0.0466684 -0.089972 -0.0319548 -0.100635 0.0404505 0.188051 0.124386 -0.136666 -0.0238431 -0.074458 -0.154851 -0.156501 -0.121305 0.139052 -0.122714 -0.166924 0.0632325 0.0112333 -0.180788 0.154469 -0.121706 -0.12209
internal_weight=0 91716.7 88546.9 86693.9 74430.8 68240.4 1853.04 12263.1 13823.1 13549.4 1319.93 10832.5 12229.5 6190.33 11340.4 1557.33 889.039 11232.9 3169.75 1209.6 1960.15 1430.64 1791.39 273.713 567.559 1357.19 364.379 775.066 524.66 168.757 200.14 295.715 836.001 204.385 631.616 752.371 271.426 373.599 47.7403 246.588 520.873 1016.32 49.1278 78.1415 107.588 239.632 325.859 34.0811 480.945 226.856 21.8848 14.3869 173.275 90.6153 46.6862 53.5811
internal_count=268644 236475 223038 215865 197570 165990 7173 18295 32169 30771 13033 13337 17738 31580 15738 6789 2000 15154 13437 4778 8659 4958 7886 1398 1104 5794 458 2764 1542 773 995 384 2116 933 1183 11929 3878 2662 163 235 501 5122 149 706 584 1343 2499 55 8051 1310 51 46 924 67 603 386
is_linear=0
shrinkage=0.1


Tree=14
num_leaves=58
num_cat=0
split_feature=104 70 29 127 116 77 31 113 102 114 40 50 55 52 16 46 123 39 68 70 2 100 70 69 104 30 127 104 113 48 125 51 105 111 111 113 69 116 32 107 115 66 122 81 104 114 127 114 101 53 114 125 32 32 101 32 17
split_gain=1118.47 1563.98 1152.49 1217.87 3104.27 3631.75 2999.41 1353.13 961.185 614.364 976.856 591.352 439.723 399.337 365.882 430.423 235.178 219.406 403.687 204.415 196.534 193.871 167.367 154.358 324.251 134.729 134.297 133.255 123.106 116.581 236.647 75.9702 71.5271 59.4456 52.3924 41.2385 39.5366 37.3178 34.5488 33.4183 23.6641 21.2349 21.1424 17.9471 14.9033 13.9657 12.7878 11.8715 6.86086 5.27933 5.19898 3.46017 2.96758 1.36248 0.72043 0.117191 0.0358642
threshold=-0.74696883559226979 -0.16171497851610181 1.2353284955024721 -1.9465638399124143 -1.014965772628784 -1.1961836814880369 0.99601367115974437 -1.2289521694183347 -0.74754032492637623 -1.3796735405921934 1.0472491979599001 1.1573221683502199 1.0153454542160036 1.1745529770851137 0.92055657505989086 1.1823044419288637 -2.3049956560134883 1.0249398946762087 0.17323173582553866 -0.66923126578330983 0.61966630816459667 -0.93940076231956471 -0.14508861303329465 0.014028779696673157 -0.7590995430946349 0.90259411931037914 -3.2653242349624629 -0.78561758995056141 -1.3249775767326353 1.2131893038749697 -2.7766363620758052 1.171077609062195 -0.81214892864227284 -1.2229821085929868 -0.8991073966026305 -1.3465002775192259 1.0000000180025095e-35 -1.4863244891166685 0.97283661365509044 -0.99499440193176258 -1.4058843255043028 0.47428072988986975 -2.0657891035079952 -1.2191410064697263 -0.76096484065055836 -1.3835752010345457 -1.875886797904968 -1.3913587927818296 -0.94768989086151112 1.1285665631294253 -1.3913587927818296 -1.5658352375030515 0.97034713625907909 0.97034713625907909 -0.77703833580017079 0.97097143530845653 0.99895402789115917
decision_type=2 2 2 2 2 2 2 2 2 2 2 2 2 2 2 2 2 2 2 2 2 2 2 2 2 2 2 2 2 2 2 2 2 2 2 2 2 2 2 2 2 2 2 2 2 2 2 2 2 2 2 2 2 2 2 2 2
left_child=1 2 3 7 5 -5 -6 11 -9 10 26 -1 32 17 15 22 40 28 -19 34 39 -22 27 24 -17 -24 31 -3 -14 30 37 35 -11 -33 48 -2 -28 -12 46 -21 -15 -18 45 -25 53 -31 -34 -32 -4 -44 -38 52 -46 54 -16 -55 -53
right_child=9 14 19 4 6 -7 -8 8 -10 12 29 -13 13 16 44 23 41 18 -20 20 21 -23 25 43 -26 -27 36 -29 -30 42 47 33 38 -35 -36 -37 50 -39 -40 -41 -42 -43 49 -45 51 -47 -48 -49 -50 -51 -52 56 -54 55 -56 -57 -58
leaf_value=0.010896523249113712 0.0057846211380872536 -0.13131722995376013 -0.13238709318284689 -0.13228595717547773 0.0025102755786833185 0.011203835586048044 0.058255888601889377 0.05399539399009784 0.10456390432495573 0.13708953771710439 -0.10585536851209383 -0.10639239976366439 0.077938494297777688 -0.013838580402553658 -0.12155450578923446 -0.10674689216932652 -0.13065889117997717 0.098544733047399219 -0.081311399335456891 0.094019221445484802 0.085153723344981891 0.13414497527801419 0.12159754490480056 -0.17520713921574263 0.058377591264814649 -0.16793530969412296 0.064377565319753069 0.12212117240119327 0.13705310802006146 -0.15861472322650835 -0.10558535524986311 -0.17244947894357204 -0.19002884151125066 0.10670018218145035 0.15535654977892399 0.13555066453589151 -0.13251590613242623 0.12128770316761706 0.12801324531233418 -0.13254156749479501 0.11079288015723961 -0.027945401849284332 -0.15334840608604769 -0.11979701453815117 -0.20696931749570788 -0.25815775646941924 -0.10615057354337364 -0.18442621418344748 -0.23206649310297633 -0.11029622401676603 -0.23759915672006149 -0.13032079148929754 -0.15648267805860028 -0.13992187933999689 -0.15576025662041942 -0.1250346082077492 -0.1429212947953914
leaf_weight=2267.7956924773753 25.973038924857974 22.890269912779331 30.698748160153627 2098.5763749890029 13268.167844844982 11060.433006295934 35413.738062269986 25847.607785766944 4398.3985352367163 12.886361479759215 8.103033719584344 530.4037500815466 409.72517506033182 18.388995163142681 6.5514402380213133 314.18261369690299 104.45757686346769 1214.8804538175464 139.080715931952 7.7068328112363806 2217.5246073827147 1270.5600856691599 23.801293004304171 77.585839238017797 191.34739956259727 49.489946660585701 9.0818545036017913 221.48954251408577 2512.6778462156653 73.668836884200573 32.993169877678156 15.475172074511649 23.492717817425728 15.045348873361943 6.3143014907836905 428.75788331776857 8.7026144322007912 67.36223616451025 5.6865675300359717 41.941310089081526 88.817433729767799 24.931855507194996 35.342393808066845 237.05493282526731 102.10175633430481 17.428630813956261 80.312387838959694 45.350594781339169 8.9089609459042531 146.7606487441808 10.257551006972788 4.0423068702220899 13.141031146049498 7.1166291683912304 102.36062283068895 20.574538126587868 5.1197605207562447
leaf_count=9697 197 262 236 9367 52381 33065 70899 58309 4030 4 193 3988 449 88 68 3676 829 1016 514 7 2157 457 72 356 534 476 35 219 1010 720 891 108 98 12 1 143 118 47 2 270 33 161 510 4025 415 113 2329 221 40 3012 46 24 59 36 458 135 26
internal_value=0 0.0403065 0.0417981 0.0396956 0.031414 -0.0116797 0.0430625 0.0551941 0.0613491 0.086328 0.0126273 -0.0113358 0.101279 0.106351 -0.0646882 -0.0401936 -0.0201152 0.113347 0.0800697 0.0974661 0.100187 0.102999 0.0586322 -0.0784711 -0.0442459 -0.0739097 0.105592 0.0983824 0.128765 -0.0991222 -0.0294844 0.117888 -0.0857585 -0.0348403 -0.11216 0.128139 -0.107187 0.0968984 -0.111986 -0.0973728 0.089415 -0.110867 -0.138327 -0.13346 -0.17147 -0.177659 -0.125134 -0.151224 -0.154808 -0.118652 -0.189367 -0.19651 -0.201212 -0.148667 -0.153703 -0.128861 -0.137362
internal_weight=0 99867.6 98468.8 94885.1 61840.9 13159 48681.9 33044.2 30246 5575.64 940.303 2798.2 4635.34 4512.96 1398.85 1137.84 236.596 4276.36 1353.96 3583.65 3537.73 3488.08 317.671 820.171 505.53 73.2912 513.293 244.38 2922.4 427.01 153.809 485.251 122.378 30.5205 45.922 454.731 28.042 75.4653 109.492 49.6481 107.206 129.389 273.201 314.641 261.008 91.0975 103.805 78.3438 39.6077 182.103 18.9602 124.405 115.243 136.603 108.912 27.6912 9.16207
internal_count=268644 255745 244904 241736 165712 42432 123280 76024 62339 12899 6366 13685 6533 4100 10841 9620 1111 2989 1530 3168 2891 2614 1029 8591 4210 548 659 481 1459 5707 1352 460 2433 120 277 340 199 240 2429 277 121 990 4355 4381 1221 833 2427 1112 276 3522 164 524 474 697 526 171 50
is_linear=0
shrinkage=0.1


Tree=15
num_leaves=58
num_cat=0
split_feature=126 52 100 0 72 101 126 134 22 80 114 105 49 15 136 37 122 72 106 58 72 114 48 36 125 45 104 115 110 104 106 38 24 118 57 18 125 115 52 32 46 49 114 74 47 111 49 33 36 113 35 123 114 133 72 122 52
split_gain=1069.7 1204.18 1095.48 1963.4 1633.66 1761.87 1469.83 1193.97 2894.4 1263.7 1172.43 1057.26 960.196 854.674 697.765 669.865 591.672 745.926 667.921 478.733 477.823 455.937 1098.58 392.504 299.652 203.851 200.297 396.333 186.445 181.135 161.347 153.291 139.112 122.605 121.957 110.365 81.9748 76.2041 59.441 59.1085 38.6658 36.9761 188.006 38.7996 26.0827 23.2891 21.5174 18.5403 16.7505 14.2103 12.993 10.696 6.72534 6.25567 4.4825 0.961029 0.000634365
threshold=-2.9565272331237789 1.137677073478699 -0.80064758658409108 0.35852167010307318 -0.55087599158287037 -0.75434210896491993 -1.7749609947204588 1.0000000180025095e-35 1.3076791167259219 -1.3520494699478147 -1.02487576007843 -0.86369383335113514 1.1613892912864687 0.89152863621711742 1.0000000180025095e-35 0.96058395504951488 -1.5421401858329771 -0.48773910105228419 -0.81901642680168141 0.9022921919822694 -0.53209021687507618 -1.3753586411476133 1.2131893038749697 0.84829163551330578 -1.7756374478340147 1.2205337882041933 -0.73949208855628956 -1.3987231254577634 -0.85165169835090626 -0.82289850711822499 -0.89522254467010487 0.97427925467491161 1.2859888076782229 -1.5367401242256162 0.98639774322509777 1.1440624594688418 -2.7766363620758052 -1.4440892934799192 1.1548967361450198 0.82561931014060985 1.2112221121788027 1.2156437635421755 -1.3658204674720762 -0.44297134876251215 1.2405744791030886 -1.1970254778861997 1.1904811859130862 0.80280748009681713 0.88509127497673046 -1.3327202796936033 0.85000503063201915 -2.3049956560134883 -1.3913587927818296 1.0000000180025095e-35 -0.31366059184074396 -2.0657891035079952 1.1745529770851137
decision_type=2 2 2 2 2 2 2 2 2 2 2 2 2 2 2 2 2 2 2 2 2 2 2 2 2 2 2 2 2 2 2 2 2 2 2 2 2 2 2 2 2 2 2 2 2 2 2 2 2 2 2 2 2 2 2 2 2
left_child=21 2 3 6 12 20 10 9 -9 -5 -2 -7 14 -14 -4 23 17 29 30 -8 -6 22 31 32 -20 33 28 -28 -25 -17 -18 37 53 41 -19 -34 54 47 -35 -40 -24 43 -43 -23 45 56 -39 -1 49 -42 -50 -46 -38 -3 -33 -53 -27
right_child=1 15 4 7 5 11 19 8 -10 -11 -12 -13 13 -15 -16 16 18 34 24 -21 -22 25 40 26 -26 44 27 -29 -30 -31 -32 36 35 38 -36 -37 52 46 39 -41 48 42 -44 -45 51 -47 -48 -49 50 -51 -52 55 -54 -55 -56 -57 -58
leaf_value=0.075894380671031034 -0.017391018570385559 -0.11788111232649415 0.077641081652428001 0.0028792424315521471 -0.015043955711467612 -0.029649730315408941 -0.11781091668097105 -0.11719590471221503 0.032806025249677309 0.048644879406355812 0.090067054033483196 0.072107535335700162 0.056449417222894566 -0.092925087546507495 0.15032588274476383 -0.14807181160647126 0.059354926424363297 -0.12323672148141063 0.1031969114446209 0.01103092687267831 -0.10468266314362702 0.16452318663332444 0.045582181104868433 -0.10810617020660394 -0.022653812618296632 -0.11500227929337095 -0.14246611450623212 0.094996007775185562 0.1157593425072012 0.14360947473782396 -0.12829311955823333 0.13166545001854282 0.12661430952282846 0.14195885872506642 0.010123597328507277 -0.0044209863783359511 -0.10477488674015344 0.13754893291179424 0.14235663389143219 0.29770647244298087 -0.15934951980558687 -0.16545311459072309 0.11444530766171666 0.12087270962610615 -0.30307847822459172 0.12425866559283022 0.10291153083996654 -0.11515897493945376 -0.0073806327896253094 -0.26418500587398991 -0.13475621136933 -0.17100475501697895 -0.19163467614778532 -0.21057712389864749 0.033454555691571859 -0.1143217183397461 -0.1129816564511881
leaf_weight=7.179131198674443 3987.2185881407931 14.983657322824001 12610.024896636605 6841.6900089196861 1939.6394560337067 1267.2380681913346 1506.885558500886 1624.7533349618316 6176.4669275768101 51073.148665672168 1362.2232842743397 5255.98782164976 1132.5485231392086 578.80135331861675 1475.2706418670714 21.991547383368015 50.627311647869647 145.56481430307031 351.47307477146387 356.64458633959293 857.59964689984918 246.10480520129204 11.184785345569251 1168.1806187657639 409.76249669678509 2.1315756961703327 124.05715591087937 162.16179694980383 38.426559917628765 667.81317988038063 482.73846786096692 14.233479499816896 142.46347172558308 88.736681401729584 129.64804759714752 117.11834098212421 17.530977252870798 352.16774009168148 35.123865678906441 80.915265217423439 47.291523307561874 26.334460556507111 270.44697185605764 1179.9710613042116 3.8360857963562038 8.6500954627990705 365.47368266806006 17.366117939352989 8.4013373609632236 17.794849447906017 171.14485578611493 3.5234680473804501 18.135614193975925 14.160946618765593 6.9002730399370185 19.796358168125153 5.7311122044920921
leaf_count=35 15749 173 20637 31369 5624 7247 6786 6776 15629 113205 2213 8402 1649 2010 826 135 185 2311 322 884 4570 82 28 8171 1301 19 1914 309 110 590 2367 3 112 24 1116 540 529 112 37 47 405 185 118 305 34 2 256 349 49 134 2167 34 83 65 66 187 57
internal_value=0 0.0368538 0.0390587 0.0328554 0.0570703 0.0238687 -0.0166705 0.0382914 0.00156525 0.0432384 0.00997294 0.0523396 0.0766602 0.00592897 0.085254 -0.0166422 0.0195089 0.0787774 -0.0246708 -0.093153 -0.0425261 0.0971836 0.0441195 -0.0624942 0.0354532 0.125577 -0.0831366 -0.00792826 -0.100977 0.13431 -0.110481 0.101866 0.0442352 0.130417 -0.060413 0.0674937 -0.0564665 0.113983 0.203569 0.250684 -0.136238 0.121723 0.0896089 0.128406 -0.0880749 0.011034 0.119909 -0.0592786 -0.144551 -0.188012 -0.128796 -0.14834 -0.148941 -0.162921 0.0995991 -0.122886 -0.113529
internal_weight=0 102087 98046.1 72929 25117.1 9320.46 7212.97 65716.1 7801.22 57914.8 5349.44 6523.23 15796.6 1711.35 14085.3 4041.17 2259.62 965.018 1294.6 1863.53 2797.24 3026.11 1054.8 1781.55 761.236 1971.3 1492.83 286.219 1206.61 689.805 533.366 798.987 288.726 1927.63 275.213 259.582 56.8003 742.187 204.776 116.039 255.817 1722.86 296.781 1426.08 43.6687 16.5128 717.641 24.5452 244.633 65.0864 179.546 27.1559 35.6666 29.1446 21.1338 23.3198 7.86269
internal_count=268644 263297 243576 192611 50965 25843 25632 166979 22405 144574 17962 15649 25122 3659 21463 19721 8327 4152 4175 7670 10194 5347 4216 11394 1623 1131 10504 2223 8281 725 2552 1433 890 798 3427 652 681 752 108 84 2783 690 303 387 333 78 368 384 2755 539 2216 255 612 238 69 221 76
is_linear=0
shrinkage=0.1


Tree=16
num_leaves=55
num_cat=0
split_feature=124 29 125 131 103 75 114 33 33 124 30 51 101 114 30 0 1 77 112 50 74 3 70 110 101 100 0 44 48 74 73 115 115 51 71 114 120 4 37 46 116 46 59 4 114 114 44 115 0 30 112 27 39 74
split_gain=999.165 1065.09 1465.67 1013.43 2411.73 2283.79 1897.08 1384 1346.11 797.927 376.893 421.862 366.986 289.238 274.624 299.486 252.033 246.74 229.764 659.232 214.538 208.832 201.168 156.808 146.58 144.163 142.639 141.999 125.967 99.1801 89.9068 83.3803 58.1045 55.1174 38.2974 20.038 20.1218 25.8241 17.9245 16.7192 135.471 11.9725 22.7263 8.14755 8.09957 5.92183 3.36069 3.30722 2.14272 2.5886 1.77944 0.795204 0.246317 0.0311706
threshold=-2.4761823415756221 1.2194860577583315 -1.2192621827125547 1.0000000180025095e-35 -0.85898646712303151 -1.1283830404281614 -0.92882263660430897 0.89116936922073375 0.93575099110603344 -1.268043518066406 1.0937854647636416 1.0777364373207095 -0.94095259904861439 -0.92794024944305409 1.0979109406471255 0.67130982875823986 0.53975209593772899 -1.232598543167114 -1.2805913090705869 1.1861803531646731 -1.0246453881263731 0.68263864517211925 -0.55759274959564198 -0.89167851209640492 -0.94768989086151112 -0.9691338539123534 0.47428990900516516 0.85773739218711864 1.234316945075989 -0.44297134876251215 -0.91398632526397694 -1.3987231254577634 -1.4440892934799192 1.1773849129676821 -0.65554833412170399 -1.3753586411476133 -1.7585095167160032 -0.13349509984254834 0.91582998633384716 1.2231222391128542 -1.4630967974662779 1.2011408209800722 0.88064146041870128 -0.021247860975563523 -1.3599290847778318 -1.3913587927818296 1.1937430500984194 -1.4271706938743589 0.60624861717224132 1.0937854647636416 -1.2867866754531858 1.4303744435310366 0.99831813573837291 -1.0304370522499082
decision_type=2 2 2 2 2 2 2 2 2 2 2 2 2 2 2 2 2 2 2 2 2 2 2 2 2 2 2 2 2 2 2 2 2 2 2 2 2 2 2 2 2 2 2 2 2 2 2 2 2 2 2 2 2 2
left_child=18 2 3 5 7 9 -7 -5 -6 -2 11 23 14 27 15 22 -13 -15 19 32 48 34 -3 -4 -17 -23 51 -12 29 33 -28 44 38 -20 -16 36 37 -21 -1 47 -41 50 -43 -35 46 -38 -30 -31 53 -50 -34 -22 -40 -14
right_child=1 12 10 4 8 6 -8 -9 -10 -11 13 16 20 17 21 24 -18 -19 28 35 26 25 -24 -25 -26 -27 30 -29 31 39 -32 -33 41 43 -36 -37 45 -39 52 40 -42 42 -44 -45 -46 -47 -48 -49 49 -51 -52 -53 -54 -55
leaf_value=0.093520023559260798 0.022245438058729687 -0.10139998838954233 -0.1166291438192298 0.055621110228464811 0.10908737581061256 0.026989630706102486 0.078845564667765641 -0.10008290465119624 -0.019505300046340365 -0.11420054227074246 0.089303350457090314 -0.079947673610492223 -0.12386409046099395 -0.13581526358505458 -0.15750244441396721 -0.017613095630992375 0.16178009119096803 0.095141848583565905 0.13730956432231498 -0.14737821270608745 -0.16075201495264013 -0.028472256641930462 0.047791868368984032 -0.051225043301594698 0.086812306634375058 0.092324438136391851 0.070208107768311864 -0.17393404698974854 -0.23138740015591988 0.10090734092232984 0.10849956048646631 0.086825175130139987 0.13743433210216907 0.21716634969861787 0.040589625299803853 0.069940287266885989 -0.10653044297019131 0.10293216179301293 -0.14761865012979072 -0.17536151965303742 0.11694562822063877 -0.016624823558053999 0.11873551788947452 0.27953501750302456 -0.26812174942487399 -0.15843579426012994 -0.1126176903317149 0.11699262748551449 -0.16605077254343564 -0.23923138816681191 0.12169383300451973 -0.12348253513359952 -0.10573303318107859 -0.13651153209971484
leaf_weight=6.1311979666352299 605.2354447171092 306.5547925196588 890.45172640681267 1094.1540216319263 6235.836055980064 74897.525432639755 7788.4859460107982 1193.6404204200953 936.26532206311822 1468.4629266224802 26.534594289958477 69.183158546686172 3.6807321831583977 53.257426373660564 44.161906663328409 202.96532604843378 114.54727172106504 351.90701886452734 89.728249162435532 8.9066339656710642 8.5200537890195864 107.70101953856647 128.1653325073421 623.06699617952108 398.0213413387537 1195.0169237367809 800.62229345738888 89.991888087242842 2.679156977683312 141.23662361502647 2619.0945958569646 30.905973166227341 170.46595803648233 39.768567882478237 12.528435818850992 4.8907285481691352 27.421545399352908 7.6717988122254601 1.5737908072769631 18.179441703483462 124.00459531694651 16.844147980213165 47.048900477588177 44.253466606140137 4.788443148136138 110.76844869926572 21.509823799133301 1345.7900141179562 13.737235728651287 7.4577027112245551 124.10952286422253 17.450873553752899 13.012884672731159 4.1410759687423733
leaf_count=7 2640 1264 6048 3150 9451 193771 13675 4798 2955 9609 33 852 28 374 240 653 365 682 19 153 41 498 231 9169 308 1020 876 466 18 69 1927 29 47 37 27 9 710 58 8 152 47 54 21 7 33 707 277 399 66 32 40 127 345 22
internal_value=0 0.0333648 0.0308475 0.0327394 0.0637834 0.0292746 0.0318741 -0.0256163 0.0923005 -0.074377 -0.0494849 -0.072334 0.074722 0.0248517 0.0446052 0.0058114 0.0707582 0.0647834 0.0986175 0.0411081 0.0954815 0.0741615 -0.0574149 -0.0897044 0.0515457 0.0823377 0.0977617 -0.113991 0.115253 0.119992 0.0995348 -0.027433 0.112881 0.191812 -0.113725 -0.129349 -0.135647 -0.0315451 -0.0499483 0.112332 0.0795717 0.122291 0.0830504 0.250015 -0.149295 -0.148136 -0.125773 0.115465 -0.175292 -0.1918 0.130803 -0.135709 -0.110252 -0.13056
internal_weight=0 102308 96438.5 94219.6 9459.9 84759.7 82686 2287.79 7172.1 2073.7 2218.94 1697.25 5869.82 521.691 2395.12 1035.71 183.73 405.164 2401.69 538.846 3474.7 1359.41 434.72 1513.52 600.987 1302.72 3445.69 116.526 1862.84 1802.96 3419.72 59.8834 379.186 173.75 56.6903 159.659 154.768 16.5784 20.7179 1629.21 142.184 358.469 63.893 84.022 28.9774 138.19 24.189 1487.03 29.0167 21.1949 294.575 25.9709 14.5867 7.82181
internal_count=268644 265398 258038 240049 20354 219695 207446 7948 12406 12249 17989 16434 7360 1555 4241 2456 1217 1056 3246 2159 3119 1785 1495 15217 961 1518 2971 499 1087 730 2803 357 522 63 267 1637 1628 211 360 667 199 162 75 44 328 1417 295 468 148 98 87 168 353 50
is_linear=0
shrinkage=0.1


Tree=17
num_leaves=56
num_cat=0
split_feature=126 52 127 114 76 75 114 0 36 105 38 21 133 101 134 32 108 15 1 113 48 69 115 90 101 35 46 38 114 118 40 113 19 23 125 107 0 63 49 49 46 108 114 47 122 113 123 116 8 114 53 99 39 127 109
split_gain=940.047 962.157 1090.74 2287.27 3705.47 1907.8 3006.3 1701.12 1687.26 1211.76 2368.52 682.323 1075.25 666.043 611.568 563.067 562.69 900.471 616.113 377.162 727.86 326.371 304.422 283.521 276.479 202.681 178.833 126.328 70.7911 69.6174 77.7579 72.2126 58.822 77.4408 55.5932 41.0164 45.7421 33.8695 30.157 27.557 26.8069 24.4606 20.482 19.5977 6.53809 7.93861 5.57443 6.31096 4.13858 3.96913 3.54561 1.30133 0.38291 0.351754 0.0415941
threshold=-2.9565272331237789 1.137677073478699 -1.967519164085388 -0.98402076959609974 -1.1400787234306333 -1.0933794379234312 -0.93393680453300465 0.34518750011920935 0.95729076862335216 -0.86612218618392933 0.93194216489791881 1.2895117402076723 1.0000000180025095e-35 -0.84655585885047901 1.0000000180025095e-35 0.94149798154830944 -1.0288726687431333 0.85428929328918468 0.39181378483772283 -1.3291562795639036 1.2131893038749697 0.034868177026510246 -1.0008398890495298 -0.62712100148200978 -0.72241178154945362 0.92441374063491832 1.2354509234428408 0.97427925467491161 -1.3990371227264402 -1.5367401242256162 1.0608382821083071 -1.320528984069824 1.1964470744132998 1.3177348971366885 -2.7766363620758052 -0.95707508921623219 -0.12611596286296842 0.65895295143127453 1.2156437635421755 1.1947042346000674 1.2059753537178042 -1.0458941459655759 -1.3753586411476133 1.2248122692108157 -2.0657891035079952 -1.3327202796936033 -2.3049956560134883 -1.4566903114318845 0.061224393546581275 -1.3913587927818296 1.1285665631294253 -0.64970690011978138 0.99717119336128246 -3.493560671806335 -1.0430125594139097
decision_type=2 2 2 2 2 2 2 2 2 2 2 2 2 2 2 2 2 2 2 2 2 2 2 2 2 2 2 2 2 2 2 2 2 2 2 2 2 2 2 2 2 2 2 2 2 2 2 2 2 2 2 2 2 2 2
left_child=19 2 9 4 22 6 -5 -6 -7 10 13 12 -11 -2 -12 -13 32 21 23 20 27 24 -4 -19 -18 -20 29 28 52 30 38 -32 35 -34 48 41 -37 -23 -21 -30 -31 -3 44 -42 45 -22 47 -28 -29 -36 -46 -35 -1 -48 -55
right_child=1 16 3 5 7 8 -8 -9 -10 11 14 15 -14 -15 -16 -17 17 18 25 26 42 37 -24 -25 -26 -27 46 34 39 40 31 -33 33 51 49 36 -38 -39 -40 -41 43 -43 -44 -45 50 -47 53 -49 -50 -51 -52 -53 -54 54 -56
leaf_value=-0.14603953478585216 -0.0066822490487978871 -0.10486755103948936 -0.14328399851761756 -0.047724406263743802 -0.12380729999890921 0.057094528414484952 0.037466485946916442 0.019847400675374265 -0.097796128320616918 0.058410656344423162 -0.064936973279501764 0.059258283255589267 -0.10021732005644644 0.068109914515108158 0.097961331759337744 0.14569747574245309 -0.0012974391124322459 -0.11777035742972436 0.021517130236052999 0.12055747878135761 -0.14560062481974417 -0.203934762970433 -0.066848332516443301 0.074333809121289063 0.074138453198339518 0.23376150359593556 -0.10665388429105159 0.024552615181681166 0.12229281900236161 0.096542723642227574 -0.13409349429400452 0.09088943225209814 0.18763806168104602 -0.14463808460803215 -0.10440772754358912 -0.13896514563125342 0.14378729785189887 -0.089028797391264694 0.082802632406339796 0.068701487483787502 0.20837365821355214 -0.15201503106951611 0.081816839778432182 0.1320603660306206 -0.1543916953228659 -0.22885486349255069 -0.14771079544421695 -0.34718962405774068 0.13008294336743895 -0.17405946473319148 -0.11155180032322554 -0.21706343697292887 -0.10630342646595162 -0.11139068007307812 -0.1269139363976276
leaf_weight=3.0723946690559378 1516.904340274632 190.21583941206336 1682.0271929372102 5819.1615471746773 869.51388643309474 27597.783572047949 14375.383773017675 15859.415423236787 721.67614315077662 16371.561260664836 2917.4116444708779 1399.4032616838813 438.76744780875742 5536.2374018412083 250.23679707199335 1632.974420145154 795.26373041793704 974.6673515830189 172.36656423844397 1362.7171236649156 74.564594991505146 36.67358804680407 754.91086821258068 83.400511842221022 1248.7687813155353 60.885202039033175 1.9638404138386247 6.0930877570062849 380.72147440910339 39.070679530501366 24.372066106647253 34.406510457396507 13.95101059228182 6.0304637644439936 15.854680610820646 11.23224064707756 11.661449432373047 85.35672889277339 250.44723492488265 128.27814819291234 127.5489174425602 261.06647895462811 4.3248627707362166 45.711903624236584 25.263832563534379 13.531870182603596 3.3795838095247772 2.4535605013370541 9.5262304190546274 16.904839433729652 82.107551649212837 4.2148404717445356 11.510324340313671 18.297934267669923 1.9058865234255744
leaf_count=20 6360 6365 8150 19734 3962 48048 45632 43417 2713 27034 18057 1873 1302 11985 618 1455 2339 4659 1091 424 788 169 3236 87 2198 49 35 64 176 28 208 68 8 54 529 145 2 581 264 194 28 1957 5 54 276 97 30 12 4 80 1414 17 321 209 19
internal_value=0 0.0299306 0.0318874 0.0248468 -0.00440137 0.0364015 0.0129183 0.0123807 0.0531474 0.0477373 0.0197638 0.0621462 0.0542703 0.0520245 -0.0520684 0.105807 -0.018419 -0.0040997 -0.0701964 0.0898873 0.0308799 0.0353045 -0.119606 -0.102628 0.0447889 0.0769188 0.113701 0.0882772 0.102563 0.117429 0.110579 -0.00239794 -0.117757 0.0343283 -0.0663306 -0.125518 0.00506158 -0.123561 0.114696 0.108787 0.171367 -0.132142 -0.133435 0.18824 -0.138198 -0.158389 -0.137161 -0.240255 0.0889156 -0.14035 -0.121632 -0.174433 -0.114675 -0.11785 -0.112855
internal_weight=0 101699 97743.4 67679.9 19165.9 48514 20194.5 16728.9 28319.5 30063.5 10220.8 19842.7 16810.3 7053.14 3167.65 3032.38 3955.75 3457.38 1291.32 2684.03 771.754 2166.06 2436.94 1058.07 2044.03 233.252 1912.28 571.961 523.582 1884.27 1671.94 58.7786 498.372 24.1963 48.3788 474.176 22.8937 122.03 1613.16 509 212.332 451.282 199.793 173.261 195.468 88.0965 28.0008 4.4174 15.6193 32.7595 107.371 10.2453 14.5827 23.5834 20.2038
internal_count=268644 263297 243576 174892 58765 116127 65366 47379 50761 68684 37020 31664 28336 18345 18675 3328 19721 11173 5886 5347 3968 5287 11386 4746 4537 1140 1379 1388 711 1074 964 276 8548 79 677 8469 147 750 688 370 110 8322 2580 82 2575 885 305 47 68 609 1690 71 341 258 228
is_linear=0
shrinkage=0.1


Tree=18
num_leaves=61
num_cat=0
split_feature=103 70 103 71 102 30 53 103 44 5 130 31 108 51 35 31 57 130 54 58 37 135 102 70 58 126 118 58 29 132 115 55 10 107 21 79 70 70 33 74 103 69 32 98 50 51 81 16 121 116 108 108 53 104 53 104 114 62 32 114
split_gain=896.421 2084.36 1084.92 1590.61 1097.44 2585.14 1515.56 1083.91 1090.93 1035.11 711.283 820.684 627.781 1022.85 542.28 496.128 484.693 478.662 449.76 442.131 412.513 399.676 381.859 562.66 364 306.875 302.13 296.892 292.915 241.546 200.016 188.465 185.803 154.632 143.387 132.17 117.947 87.8441 88.5286 86.9276 71.8768 121.45 76.7355 53.212 52.6285 52.5433 46.776 46.6005 25.6757 85.6379 19.6816 15.4476 14.6827 7.54839 5.88171 5.22748 2.64164 1.88034 1.84406 0.0780844
threshold=-0.75098511576652516 -0.19449134171009061 -0.77764388918876637 -0.41890808939933771 -0.81888207793235768 1.0630865693092348 1.0919451117515566 -0.80569037795066822 1.0880093574523928 0.54832205176353466 1.0000000180025095e-35 0.99557292461395275 -1.0274442434310911 1.163505017757416 0.95820468664169323 1.0009124875068667 0.94534364342689525 1.0000000180025095e-35 1.0778823494911196 0.93300229310989391 0.94817516207695018 1.0000000180025095e-35 -0.75876459479331959 -0.17754105478525159 0.89410671591758739 -1.9318956136703489 -1.0523135662078855 0.80701234936714183 1.1018127799034121 1.0000000180025095e-35 -1.4440892934799192 0.98431304097175609 0.54147291183471691 -0.8541574478149413 1.0151562690734866 -1.2246695160865781 -0.12367626652121542 -0.18541731685400006 0.92547544836997997 -0.7865217626094817 -0.76126131415367115 -0.028432715684175488 0.9685741961002351 -0.85965120792388905 1.1882613301277163 1.1296685934066775 -0.33733160793781275 1.0571573376655581 -1.858552038669586 -1.4684211611747739 -1.0458941459655759 -1.0458941459655759 1.1285665631294253 -0.74696883559226979 1.1285665631294253 -0.7744026482105254 -1.3913587927818296 0.70514956116676342 0.97097143530845653 -1.3951418399810789
decision_type=2 2 2 2 2 2 2 2 2 2 2 2 2 2 2 2 2 2 2 2 2 2 2 2 2 2 2 2 2 2 2 2 2 2 2 2 2 2 2 2 2 2 2 2 2 2 2 2 2 2 2 2 2 2 2 2 2 2 2 2
left_child=1 2 3 4 5 -1 -6 8 -5 -9 15 28 13 20 17 18 -13 21 -4 22 29 27 40 24 -24 33 37 -14 -12 32 -31 -25 -2 45 36 -35 -22 38 -21 54 42 -42 -3 -17 -41 -16 -39 -23 49 56 -36 59 -53 58 -19 -28 -15 -55 -27 -50
right_child=12 19 10 7 6 -7 -8 9 -10 -11 11 16 14 48 25 43 -18 39 -20 26 34 47 23 31 -26 53 55 -29 -30 30 -32 -33 -34 35 50 -37 -38 46 -40 44 41 -43 -44 -45 -46 -47 -48 -49 51 -51 -52 52 -54 57 -56 -57 -58 -59 -60 -61
