tree
version=v4
num_class=1
num_tree_per_iteration=1
label_index=0
max_feature_idx=136
objective=binary sigmoid:1
feature_names=Column_0 Column_1 Column_2 Column_3 Column_4 Column_5 Column_6 Column_7 Column_8 Column_9 Column_10 Column_11 Column_12 Column_13 Column_14 Column_15 Column_16 Column_17 Column_18 Column_19 Column_20 Column_21 Column_22 Column_23 Column_24 Column_25 Column_26 Column_27 Column_28 Column_29 Column_30 Column_31 Column_32 Column_33 Column_34 Column_35 Column_36 Column_37 Column_38 Column_39 Column_40 Column_41 Column_42 Column_43 Column_44 Column_45 Column_46 Column_47 Column_48 Column_49 Column_50 Column_51 Column_52 Column_53 Column_54 Column_55 Column_56 Column_57 Column_58 Column_59 Column_60 Column_61 Column_62 Column_63 Column_64 Column_65 Column_66 Column_67 Column_68 Column_69 Column_70 Column_71 Column_72 Column_73 Column_74 Column_75 Column_76 Column_77 Column_78 Column_79 Column_80 Column_81 Column_82 Column_83 Column_84 Column_85 Column_86 Column_87 Column_88 Column_89 Column_90 Column_91 Column_92 Column_93 Column_94 Column_95 Column_96 Column_97 Column_98 Column_99 Column_100 Column_101 Column_102 Column_103 Column_104 Column_105 Column_106 Column_107 Column_108 Column_109 Column_110 Column_111 Column_112 Column_113 Column_114 Column_115 Column_116 Column_117 Column_118 Column_119 Column_120 Column_121 Column_122 Column_123 Column_124 Column_125 Column_126 Column_127 Column_128 Column_129 Column_130 Column_131 Column_132 Column_133 Column_134 Column_135 Column_136
feature_infos=[-1.7373466491699219:2.1873281002044678] [-1.6486232280731201:2.0962586402893066] [-1.5678098201751709:2.0136351585388184] [-1.4949060678482056:1.9394575357437134] [-1.4299124479293823:1.8737261295318604] [-1.3728283643722534:1.8164401054382324] [-1.333403468132019:1.7937201261520386] [-1.3043193817138672:1.9274762868881226] [-1.2702003717422485:1.9831451177597046] [-1.226288914680481:2.0064544677734375] [-1.1696058511734009:2.0118343830108643] [-1.0977727174758911:2.0267508029937744] [-1.011857271194458:2.0683317184448242] [-0.91207128763198853:2.1760303974151611] [-0.8030850887298584:2.2759943008422852] [-0.68971306085586548:2.3805651664733887] [-0.63882678747177124:2.4481546878814697] [-0.65620064735412598:2.4658794403076172] [-0.66012513637542725:2.4605560302734375] [-0.66667592525482178:2.4363620281219482] [-0.8555336594581604:2.3619022369384766] [-0.86833834648132324:2.2948129177093506] [-0.86565589904785156:2.1489822864532471] [-0.7797551155090332:2.1787192821502686] [-1.0841877460479736:2.1696581840515137] [-1.4308524131774902:2.0883691310882568] [-1.6366665363311768:1.9448176622390747] [-1.8254417181015015:1.7314887046813965] [-1.9202775955200195:1.5598906278610229] [-2.1668190956115723:1.3473584651947021] [-2.5042393207550049:1.1459542512893677] [-2.6850478649139404:1.0691677331924438] [-2.8964071273803711:1.0182701349258423] [-2.6209216117858887:1.0153312683105469] [-1.9672813415527344:1.0222163200378418] [-1.2877312898635864:1.0559519529342651] [-0.66342759132385254:1.2162210941314697] [-0.67050886154174805:1.4357191324234009] [-0.67336314916610718:1.5244829654693604] [-0.67729061841964722:1.3697364330291748] [-0.67344343662261963:1.309401273727417] [-0.77278417348861694:1.2273765802383423] [-0.78214722871780396:1.26226806640625] [-0.67822211980819702:1.3808037042617798] [-0.67549598217010498:1.5838102102279663] [-0.67939788103103638:1.7493973970413208] [-0.67687302827835083:1.7343066930770874] [-0.68056988716125488:1.6915385723114014] [-0.67851173877716064:1.6147197484970093] [-0.68057990074157715:1.6658937931060791] [-0.67868822813034058:1.8198304176330566] [-0.68411111831665039:1.9837290048599243] [-0.6882440447807312:2.3278176784515381] [-0.69760811328887939:2.41339111328125] [-0.68820065259933472:2.0181429386138916] [-0.66555494070053101:1.5468263626098633] [-0.63047897815704346:1.3939603567123413] [-0.79989981651306152:1.3603483438491821] [-0.9627259373664856:1.3460699319839478] [-0.83332031965255737:1.3262704610824585] [-0.62303602695465088:1.3006186485290527] [-0.62908732891082764:1.2719470262527466] [-0.65896600484848022:1.6372760534286499] [-0.67422842979431152:1.5962808132171631] [-0.78019368648529053:1.2496439218521118] [-0.97404611110687256:1.0751444101333618] [-1.2528316974639893:0.99085426330566406] [-1.6713657379150391:0.88367986679077148] [-1.8910553455352783:0.75060045719146729] [-2.0949718952178955:0.59843027591705322] [-1.9126988649368286:0.44751104712486267] [-1.7446892261505127:0.31280896067619324] [-1.674402117729187:0.20481951534748077] [-1.5101885795593262:0.12430305778980255] [-1.4517455101013184:0.2961885929107666] [-1.6804615259170532:0.9557119607925415] [-1.8599822521209717:1.3625956773757935] [-1.985605001449585:1.0853415727615356] [-2.0616223812103271:1.1285310983657837] [-2.1171634197235107:0.92254304885864258] [-2.168381929397583:0.73609095811843872] [-2.1978850364685059:0.27998179197311401] [-2.2107267379760742:0.31248012185096741] [-2.208972692489624:0.36315670609474182] [-2.1915850639343262:0.5232703685760498] [-2.1574652194976807:0.45226269960403442] [-2.1063995361328125:0.47649812698364258] [-2.0390708446502686:0.49989777803421021] [-1.9571486711502075:0.67684948444366455] [-1.8639241456985474:0.53298360109329224] [-1.7629733085632324:0.65060514211654663] [-1.7565661668777466:1.0689502954483032] [-1.6520191431045532:1.4172115325927734] [-1.5958865880966187:1.6280827522277832] [-1.5394163131713867:1.6652539968490601] [-1.4922878742218018:1.6182962656021118] [-1.4526540040969849:1.5608183145523071] [-1.4226374626159668:1.5595740079879761] [-1.4104764461517334:1.5645072460174561] [-1.5819015502929688:1.5648646354675293] [-2.0638625621795654:1.5687597990036011] [-2.4585905075073242:1.5680602788925171] [-2.604130744934082:1.5700795650482178] [-2.5047333240509033:1.5650482177734375] [-2.1062953472137451:1.5674868822097778] [-1.4475361108779907:1.5623446702957153] [-1.2213733196258545:1.563502311706543] [-1.1215335130691528:1.561995267868042] [-1.1656886339187622:1.5723429918289185] [-1.225764274597168:1.5757462978363037] [-1.3317182064056396:1.5827798843383789] [-1.6010570526123047:1.5861003398895264] [-1.9974493980407715:1.5904401540756226] [-2.3280599117279053:1.5896482467651367] [-2.4821960926055908:1.5896980762481689] [-1.8361798524856567:1.5865405797958374] [-1.6131480932235718:1.5868538618087769] [-1.6279804706573486:1.611059308052063] [-1.6828017234802246:2.4495923519134521] [-1.7428308725357056:2.6529664993286133] [-1.8188323974609375:2.5047237873077393] [-1.9267433881759644:1.7488086223602295] [-2.1567583084106445:1.6308574676513672] [-2.3918964862823486:1.6220458745956421] [-2.6616356372833252:1.8138364553451538] [-2.9761693477630615:2.1341862678527832] [-3.3342947959899902:2.598928689956665] [-3.8750591278076172:3.4483489990234375] [0:1] [0:1] [0:1] [0:1] [0:1] [0:1] [0:1] [0:1] [0:1]
tree_sizes=6144 6675 5694 6177 5366 6610 6438 6870 6574 5461 6316 6225 6227 6336 5671 5451 5556 5742 6878 5465 6015 6337 6664 6907 6239 5462 6897 6587 6815 6940 6461 5491 5471 6730 6907 6912 6815 6899 6902 5492 6798 5317 6940 5132 6621 6713 5759 6807 6051 5825 6918 5380 6043 6082 5163 6716 6959 6810 6829 5210 6758 6816 5635 6450 5016 6687 6934 6818 6687 6496 6929 6441 6377 6906 6421 6946 6810 4412 6287 6696 5429 6681 6040 6874 6084 6718 6512 6927 6472 6562 6932 4428 5035 6488 6347 6949 4900 6145 6670 6922 6957 6346 6793 6925 6688 6265 6475 6373 6728 5956 6953 6910 6925 5078 6230 6917 6695 6137 6929 6394 6482 6823 6262 6246 6140 6369 6511 5481 6167 6937 5749 4965 6701 6379 6256 6273 6827 6941 5094 6910 6580 6941 6936 6581 4194 5588 5996 6802 6162 5619 6518 6575 6903 6479 5366 6286 6582 6539 3985 6938 6364 6895 6791 6175 5282 6620 6181 6370 6933 6919 4941 5752 6381 6807 5883 6482 4966 6798 6582 6919 6262 6829 6719 6407 6132 6403 6290 6803 6805 6144 6920 3793 4635 6909 6822 6500 6563 6491 5865 6672

Tree=0
num_leaves=57
num_cat=0
split_feature=108 75 102 114 77 78 31 114 122 53 74 131 124 35 75 114 88 112 111 124 11 124 108 53 102 20 66 38 45 88 30 53 76 30 51 106 50 2 108 48 29 70 135 34 102 122 52 32 53 129 108 34 126 1 0 86
split_gain=97598.3 105993 72468.9 106314 40758.9 39128 34333.9 34164.9 32564.1 34929 26266.1 23567.5 17503.9 15440.6 13919 15837 10708.9 9587.87 9446.96 7404.35 6454.19 6072.74 4367.92 4555.15 4145.03 5179.52 3808.78 2771.19 2437.76 2021 1985.33 1822.03 1679.2 1296.07 1267.19 968.561 3377.69 931.438 787.594 1501.08 3541.32 1213.64 1105.78 762.03 835.153 725.445 437.148 373.111 155.771 113.799 610.561 59.1115 31.2222 1.42109e-14 3.55271e-15 7.10543e-15
threshold=-1.0457671284675596 -1.1145666241645811 -0.77340540289878834 -0.95513585209846485 -1.231445252895355 -1.3184167146682737 1.000892221927643 -1.3909839391708372 -2.0661145448684688 1.1285132169723513 -1.0219296216964719 1.0000000180025095e-35 -1.1547382473945615 0.87082126736640941 -1.1330232620239256 -0.91734313964843739 -1.2763826251029966 -0.90901553630828846 -0.88709276914596547 -1.2628133296966551 0.65801745653152477 -1.4725326299667356 -1.0620957612991331 1.0968514084815981 -0.82406362891197193 1.4067527651786806 0.14691719412803653 0.96192556619644176 1.2173660397529604 -1.1752232909202573 1.0967885255813601 1.0755991935729983 -1.2046798467636106 1.083331882953644 1.1586858630180361 -0.95474293828010548 1.0994488000869753 0.57263112068176281 -1.0550705790519712 1.1751929521560671 0.99388524889945995 -0.16503781080245969 1.0000000180025095e-35 0.94307896494865429 -0.66098582744598378 -2.0661145448684688 1.0945035815238955 0.93419727683067333 1.0887339711189272 1.0000000180025095e-35 -1.0567139387130735 0.83150595426559459 -2.9279775619506831 0.020205143839120868 0.11433765664696695 -0.1165415085852146
decision_type=2 2 2 2 2 2 2 2 2 2 2 2 2 2 2 2 2 2 2 2 2 2 2 2 2 2 2 2 2 2 2 2 2 2 2 2 2 2 2 2 2 2 2 2 2 2 2 2 2 2 2 2 2 2 2 2
left_child=13 11 3 4 21 18 -6 27 28 -10 -7 14 17 22 20 30 -17 32 -5 -19 -2 -3 35 24 25 -24 -26 34 -9 -22 -16 33 -13 -14 -4 47 -37 -33 43 40 41 -40 -42 49 -45 -41 -38 51 -29 52 -51 -1 -15 -47 55 -25
right_child=1 2 7 5 6 10 -8 8 9 -11 -12 12 31 38 15 16 -18 19 -20 -21 29 -23 23 54 26 -27 -28 48 -30 -31 -32 37 -34 -35 -36 36 46 -39 39 45 42 -43 -44 44 -46 53 -48 -49 -50 50 -52 -53 -54 -55 -56 -57
leaf_value=-3.1462629641579327 -0.56587144035825032 -1.0559133018341473 -0.75276981443939039 -3.3164802259347663 -2.2440537441406838 -2.6496776426767261 -1.8122856443984028 -0.55275924643637353 -1.357231839560803 -2.5377289073713687 -1.2955454292012289 -3.4189299416896137 -3.3177850655443697 -3.2842809519466174 -3.2784503785638668 -2.7757569465281198 -1.6555300905164607 -1.0682574868838084 -2.1343359016929639 -1.9636794709279692 -3.3295379151069091 -3.1773261823888825 -3.4189299416896137 -3.4189299416896137 -0.87048647596800333 -1.6331974738833794 -2.0589841753519482 -2.8227306960605922 -1.778823743650209 -0.78156460276179107 -1.8887864154572576 -3.4189299416896137 -2.4836331006268502 -2.6475949633498557 -3.4189299416896137 -0.66248511539838084 -2.382398365357008 -0.83732771238575054 -0.60963415443157931 -0.75276981443939084 -3.2998431965595381 -2.7204057592654971 -2.016231167240814 -3.4189299416896137 -0.46223912264949263 -3.4189299416896137 -3.4189299416896137 -1.89831457261183 -3.4189299416896137 -3.4189299416896137 -0.75276981443939084 -3.4189299416896137 -3.4113050810703562 -3.4189299416896137 -3.4189299416896137 -3.4189299416896137
leaf_weight=10.096780288964508 8.684549253433941 13.980732176452873 6.1955586299300176 107.48916359245777 4560.014048371464 150.31279054284096 3089.5230510011315 478.34665508195758 2542.4786979295313 278.05483955517411 3045.5786642767489 30.10121863335371 108.87584894523025 20.446188043802977 215.57330854609609 149.81513600796461 198.27518836408854 144.05503527447581 182.16648269444704 257.28626944497228 523.5589501708746 387.42770995572209 36.459678299725056 22.897219117730859 42.131318762898445 29.292244870215654 74.902374342083931 4.6176820658147326 16.785855498164892 3.1316009089350691 10.795295409858225 1.8940092623233784 52.983236957341433 39.26133918017149 2.5027979537844658 6.9914005771279362 5.3120592311024692 5.3320734947919846 8.8198356293141824 1.0325931049883355 46.236187934875488 3.9412501864135256 7.8507477566599837 1.9616524502635004 1.8622566461563099 63.415488693863153 17.384299300611019 1.8104897662997235 85.974491871893406 5.1070606894791126 1.0325931049883355 37.406682930886745 361.06346091628075 24.047153312712908 0.74407506734132667 1.6910796985030199
leaf_count=272 18 95 24 3072 83197 3330 43513 931 24659 5860 27728 890 3113 578 6082 3501 2493 996 3131 3999 15029 10553 1078 677 211 362 1233 110 231 13 160 56 1089 869 74 21 104 25 22 4 1314 90 126 58 2 1875 514 27 2542 151 4 1106 10649 711 22 50
internal_value=-3.3153 -1.88787 -1.80169 -1.92147 -2.12121 -1.4601 -2.06967 -1.39704 -1.3423 -1.47361 -1.35923 -2.6243 -2.14092 -2.99637 -2.90296 -2.56108 -2.13767 -1.8447 -2.57302 -1.64228 -3.2698 -3.10344 -2.40254 -2.16224 -1.98807 -2.62339 -1.63113 -3.22484 -0.594325 -3.31439 -3.21218 -3.06453 -2.82249 -3.14016 -1.51991 -3.0356 -2.58433 -1.51398 -3.30817 -3.11765 -2.75999 -1.26154 -3.11353 -3.38377 -1.97901 -3.38782 -3.17633 -3.30728 -3.38854 -3.39762 -2.97052 -3.36098 -3.4045 -3.41893 -3.41893 -3.41893
internal_weight=0 16701.1 14951.4 11536.5 8050.95 3485.55 7649.54 3414.96 3315.67 2820.53 3195.89 1749.62 639.789 833.936 1109.83 574.459 348.09 484.426 289.656 401.341 535.375 401.408 287.12 208.118 182.786 65.7519 117.034 99.2905 495.133 526.691 226.369 155.363 83.0845 148.137 8.69836 79.0017 29.6878 7.22608 546.816 155.343 66.848 12.7611 54.0869 391.473 3.82391 88.4952 22.6964 49.314 90.5922 387.649 6.13965 47.5035 381.51 87.4626 25.3324 24.5883
internal_count=268644 247383 209050 174619 137358 37261 126710 34431 31681 30519 31058 38333 11037 21261 27296 12236 5994 6974 6203 4995 15060 10648 5677 3633 2884 1440 1444 2750 1162 15042 6242 4063 1979 3982 98 2044 639 81 15584 4142 1552 112 1440 11442 60 2590 618 1405 2652 11382 155 1378 11227 2586 749 727
is_linear=0
shrinkage=1


Tree=1
num_leaves=62
num_cat=0
split_feature=30 81 104 29 80 28 104 74 31 123 70 29 40 136 103 30 28 103 107 27 114 99 52 74 30 101 104 32 103 62 15 30 1 133 95 49 71 71 114 74 75 23 102 113 31 31 0 71 30 103 116 65 107 107 96 123 70 114 31 31 75
split_gain=10167.4 10950.2 10637.7 7401.37 9687.61 6334.07 9834.49 7666.41 6235.36 6063.25 6429.23 4693.46 3466.2 3262.77 2555.79 2384.66 2357.85 2320.22 1644.05 1477.63 1462.48 1378.7 1334.04 1204.01 1285.28 1178.12 1136.15 1073.8 1090.64 1552.57 1300 954.188 829.794 825.798 693.426 451.849 442.294 567.088 274.824 267.203 367.514 412.067 256.681 232.223 206.587 170.63 168.536 154.946 148.399 144.559 224.003 87.619 82.9781 82.3659 49.0712 9.31685 0.423247 0.174296 0.0182582 0.0145946 0.00159202
threshold=1.0938259959220888 -1.0135645270347593 -0.89155805110931385 1.1659236550331118 -0.96020126342773426 1.2020277380943301 -0.85005101561546315 -0.98759785294532765 0.99542471766471874 -1.0892219543457029 -0.21765521168708798 1.2352868914604189 0.99012157320976268 1.0000000180025095e-35 -0.85641783475875843 1.072825610637665 1.2316010594367983 -0.85341292619705189 -1.0088760256767271 1.4057159423828127 -0.91385671496391285 -0.98019945621490467 1.0151889324188235 -1.0219296216964719 1.110864579677582 -0.89405485987663258 -0.92291519045829762 0.91323819756507885 -0.88150081038475026 0.44268482923507696 1.0054327845573428 1.083331882953644 0.64834964275360119 1.0000000180025095e-35 -0.84155043959617604 1.2451311945915224 -0.58949771523475636 -0.59518215060234059 -1.1132319569587705 -1.0194975733757017 -1.086465001106262 1.6193360686302187 -0.94045147299766529 -1.0933830738067625 1.000892221927643 0.96370983123779308 0.53814369440078746 -0.53259313106536854 1.0947425961494448 -0.95142525434494007 -1.0814124345779417 0.088788863271474852 -0.9849272072315215 -0.83395856618881214 -0.8653317093849181 -1.2353391051292417 -0.60377362370491017 -0.95513585209846485 1.000892221927643 1.0011031031608584 -1.1021257638931272
decision_type=2 2 2 2 2 2 2 2 2 2 2 2 2 2 2 2 2 2 2 2 2 2 2 2 2 2 2 2 2 2 2 2 2 2 2 2 2 2 2 2 2 2 2 2 2 2 2 2 2 2 2 2 2 2 2 2 2 2 2 2 2
left_child=2 21 3 27 11 6 12 8 31 10 -8 13 17 -5 15 -9 -16 -4 34 25 -10 39 23 32 -25 38 -13 28 30 -30 -1 -7 -23 -20 -6 -14 37 -29 58 40 42 -42 -2 -40 51 55 48 -38 -24 50 -47 -27 -51 -11 -46 56 -21 59 -3 -41 -59
right_child=1 19 5 4 18 7 9 14 20 53 -12 26 35 -15 16 -17 -18 -19 33 45 -22 22 46 24 -26 44 -28 36 29 -31 -32 -33 -34 -35 -36 -37 47 -39 43 57 41 -43 -44 -45 54 49 -48 -49 -50 52 -52 -53 -54 -55 -56 -57 -58 60 -60 -61 -62
leaf_value=0.60385776983848971 0.020578617928345349 -0.1107480054803201 0.11374146237227532 0.092778073361496724 -0.11468923235971101 -0.048972327441869183 0.34040686704371881 0.24878765218229099 0.28570083725530598 0.18211038821481337 0.25254284679617961 -0.027625604431594588 -0.036973100144998584 0.37635327239034289 0.47145777866244654 0.43242978387116032 0.71389202074948277 0.30819662982416302 -0.11089374879937482 1.0423433500987833 0.47855328672528624 0.49175794039093595 0.23065408564924716 0.38573885815430131 0.66667960894803957 0.6316493410734858 0.4206640043309513 -0.10871109704491798 0.67072252794195253 -0.018844810469674671 0.0081679945007060838 0.19528013902741939 0.90792376979823308 0.8358656284145547 0.49157480500761547 0.85666474802532155 -0.0057889310831449846 0.5696533345976168 0.72232870267742721 -0.11060277871236682 1.0431631379043169 -0.11376406730282951 0.30569692940910331 -0.11266826779449202 0.40186971698958862 -0.11100151934246263 0.67093029388541081 -0.10480572386888849 -0.11550813320742444 0.94972912837517287 0.91301483830706265 0.94215406015606296 0.75356963622534634 -0.11680736433269288 0.65860850004673011 0.98589543490738496 1.0323850389491955 -0.12488754398150126 -0.11649853550841915 -0.1163280536518226 -0.12737485021732617
leaf_weight=38.5766636505723 79.964644603431225 11.659597188234331 1521.7454918809235 2694.0512022823095 23.540610210970044 619.20987057872117 24527.185771295801 933.17313583008945 1350.1406031064689 9.4760416522622091 12609.262177733704 60.485860303044319 944.47251436673105 477.68486171588302 2311.9110394604504 2918.7562550008297 485.39827247709036 1028.2048267200589 9.4967156052589399 124.16802982985973 554.81062744744122 122.84725347533822 15.858789050951598 2880.4930679053068 172.60002137720585 11.122251585125921 865.52227611839771 25.11830641888082 70.225256215780973 61.02451497130096 728.06270788982511 215.63811566308141 78.543942362070084 308.22894625365734 95.002598371356726 5.6921970248222342 202.02154257521033 24.191985625773668 9.9099870771169645 10.747548878192903 9.5529850572347623 4.5425305217504492 52.178121581673622 5.0168387293815604 10.625512883067129 3.5433623790740967 3.4990205913782111 725.89647474512458 56.526178041473031 140.20265091955662 5.3790763169527036 49.684477463364601 25.484599038958549 338.71720924414694 24.868323413655162 40.172375753521919 65.033574417233467 3.1359766572713879 10.48768921010196 7.6016170531511298 14.341788291931151
leaf_count=288 912 135 11911 19047 229 5801 102070 5406 4753 166 45351 487 10432 919 5525 7380 1198 6379 108 53 2408 687 85 5894 388 47 843 443 206 934 8040 958 406 690 278 15 1860 112 32 124 19 53 346 52 35 41 4 8584 556 183 9 68 81 5264 21 39 34 20 87 63 85
internal_value=0 0.457246 0.293244 0.1719 0.241009 0.308683 0.291711 0.38277 0.241999 0.306679 0.310574 0.193314 0.131405 0.135486 0.440774 0.38794 0.513526 0.192151 0.688992 0.87765 0.341868 0.39293 0.407578 0.417243 0.401621 0.58905 0.391382 0.00479762 0.0837445 0.350109 0.0381426 0.0141172 0.654065 0.807567 0.371181 -0.0316195 -0.0677397 0.224099 0.110049 0.124974 0.184937 0.670323 0.133161 0.44169 0.773457 0.97293 -0.00690185 -0.0832483 -0.0396676 0.898443 0.506348 0.885359 0.919558 -0.108672 0.581751 1.02963 1.03892 -0.119782 -0.113471 -0.112975 -0.126929
internal_weight=0 4049.79 56782.9 6409.13 4534.01 50373.8 40984.8 9389.04 2739.8 37484.6 37136.4 4097.74 3500.12 3171.74 6649.24 3851.93 2797.31 2549.95 436.269 537.358 1904.95 3512.43 3330.37 3254.48 3053.09 133.375 926.008 1875.12 897.889 131.25 766.639 834.848 201.391 317.726 118.543 950.165 977.228 49.3103 37.0741 182.065 146.238 14.0955 132.143 14.9268 96.3006 403.984 75.884 927.918 72.385 174.61 8.92244 60.8067 165.687 348.193 35.4938 229.374 189.202 35.8269 22.1473 18.3492 17.4778
internal_count=268644 10559 258085 43068 22601 215017 181588 33429 13920 152851 147421 21296 28737 19966 19509 12786 6723 18290 1305 917 7161 9642 8020 7375 6282 477 1330 20467 9468 1140 8328 6759 1093 798 507 10447 10999 555 306 1622 1330 72 1258 84 171 440 645 10444 641 314 50 115 264 5430 56 126 87 292 222 187 105
is_linear=0
shrinkage=0.1


Tree=2
num_leaves=52
num_cat=0
split_feature=81 113 103 30 30 126 118 50 125 130 30 103 46 102 81 108 9 92 109 117 129 28 80 48 126 69 101 14 127 107 74 71 104 105 12 127 107 39 125 55 114 122 131 102 124 102 108 103 15 34 131
split_gain=3895.48 3716.41 3148.34 10534.2 4767.77 3273.2 5365.27 3957.69 3208.13 3250.15 2912.85 6706.36 2549.39 2959.03 2066.35 1950.31 1455.34 1097.75 1037.01 1842.95 994.448 786.221 762.55 718.557 981.628 647.066 639.697 440.406 410.881 381.165 368.065 343.546 313.871 283.402 139.884 116.296 86.4396 589.785 349.589 58.4506 5.13687 4.1027 1.15415 1.48659 1.39692 0.79953 0.154273 0.0989512 0.0584985 0.0368153 0.0201258
threshold=-1.4042869210243223 -1.3396142721176145 -0.81617024540901173 1.0582209229469302 1.0370548963546755 -1.8327522873878477 -1.0861513614654539 1.1474854350090029 -1.5657132863998411 1.0000000180025095e-35 1.0887802839279177 -0.8700219690799712 1.1277592182159426 -0.81709733605384816 -0.99173718690872181 -0.81814119219779957 0.6299879550933839 -1.0790241360664365 -0.79921066761016835 -0.89717134833335865 1.0000000180025095e-35 1.1426648497581484 -1.4346219301223753 1.1966258287429812 -2.9279775619506831 -0.041071476414799683 -0.82351845502853382 0.74721327424049389 -1.7923818826675413 -0.86593413352966297 -0.96993520855903614 -0.24349570274353025 -0.72118261456489552 -0.80784204602241505 1.0000000180025095e-35 -1.7407746911048887 -0.80834528803825367 0.99791181087493908 -1.4659450054168699 1.0138383507728579 -1.3909839391708372 -2.0661145448684688 1.0000000180025095e-35 -0.77340540289878834 -1.2628133296966551 -0.77340540289878834 -1.0442209243774412 -0.98698312044143666 0.99490126967430126 0.8570406734943391 1.0000000180025095e-35
decision_type=2 2 2 2 2 2 2 2 2 2 2 2 2 2 2 2 2 2 2 2 2 2 2 2 2 2 2 2 2 2 2 2 2 2 2 2 2 2 2 2 2 2 2 2 2 2 2 2 2 2 2
left_child=15 23 3 12 8 7 -7 -6 9 -4 11 -5 13 -3 -12 29 18 -10 25 -20 -14 27 50 24 31 30 -24 -18 -27 -1 -17 39 -33 -21 -25 -29 42 38 -38 -2 47 -42 43 -31 -44 -39 49 -36 -48 -26 -23
right_child=1 2 4 10 5 6 -8 -9 17 -11 14 -13 20 -15 -16 16 21 -19 19 33 -22 22 26 34 46 28 -28 35 -30 36 -32 32 -34 -35 40 -37 37 45 -40 -41 41 -43 44 -45 -46 -47 48 -49 -50 -51 -52
leaf_value=0.42129913148382364 0.90226713991480345 0.098132784865703704 0.23676332360195163 0.14571637271798302 0.40283923625750595 -0.029751284446900172 0.28332167862448915 0.12674839100183866 0.16759656978229284 0.033945368798635571 0.26727431282337555 0.25543241159947772 -0.069339556356257617 0.27795411759103222 0.41452246760642897 0.11649512491506038 1.5506439570869444 -0.11136500287369258 1.3919759449488807 0.70510792782135057 0.17789004650544057 -0.1040210275541411 0.31195558387297995 0.41936958801527607 -0.10861691312600097 0.1687977884343293 1.4382804041200059 0.36609395495927993 -0.090695844775713019 -0.10943182826644225 0.41988893622050388 -0.11213366280883857 0.2984136469932101 0.24883719800645229 -0.11628213498084501 -0.090330818905884971 0.53649712455856924 -0.11488808866130738 -0.11621704212222395 0.52790752749416125 -0.17294178753666289 -0.1173212420814175 -0.14563871845799914 -0.13301083186645929 -0.11770885080612668 -0.13246072295543537 -0.12362826644273193 -0.10427444502145718 -0.11082172526314421 -0.10437655639725818 -0.11089993931565723
leaf_weight=15.015919849276541 8.1228289045393485 5264.1137796919793 16136.870459977537 8428.752539139241 3970.4081451781094 587.01080523431301 8111.007746566087 597.3127045109868 224.49843068420887 830.79326525330544 6806.0652116648853 16432.816490860656 1007.4665798544884 1107.6478652860969 1108.2042369898409 55.794438369572163 1.6609330177307118 379.55960094369948 20.182330802083015 16.74431087076664 194.03220007196069 46.141719602048397 89.280475024133921 5.0671490728855124 28.712216315791011 246.47048730403185 5.3443589806556693 5.6858372166752806 81.09535051509738 264.20346310548484 141.13043581694365 22.439514067023993 109.45895224064589 72.797014439478517 7.0209661275148383 307.10734125413001 25.002305060625076 35.123947285115719 12.214288868010042 8.5721517726778966 20.484923139214516 37.609918557107449 23.410347431898117 29.749543234705925 76.181850057095289 98.505167972296476 6.5663619525730592 304.65986377745867 7.8081881031394005 71.368806548416615 4.6850337684154502
leaf_count=21 7 33780 34532 42604 8410 4059 23939 3055 1108 4227 16850 47739 9817 4999 1062 415 1 2677 28 23 1161 1286 607 7 556 626 30 24 638 4240 254 404 149 82 63 6536 15 362 160 42 85 535 114 166 754 557 83 7761 89 1813 92
internal_value=0 0.226726 0.228879 0.210494 0.252935 0.29819 0.262193 0.366735 0.218771 0.226833 0.235056 0.218236 0.104198 0.129392 0.287893 0.0723907 0.150949 -0.00768881 0.249162 0.528733 -0.029414 0.0155135 0.20776 -0.0135723 0.113124 0.190676 0.37557 -0.0734104 0.104555 -0.0759554 0.333929 0.282664 0.228568 0.33416 -0.102482 -0.0820341 -0.0891851 -0.0297885 0.32228 0.71005 -0.109633 -0.136934 -0.11497 -0.111818 -0.124274 -0.127842 -0.106984 -0.104545 -0.116672 -0.105593 -0.104655
internal_weight=0 71824.5 71186.6 40349.1 30837.5 13265.7 8698.02 4567.72 17571.7 16967.7 32775.8 24861.6 7573.26 6371.76 7914.27 1673.53 1094.12 604.058 634.214 109.724 1201.5 459.906 145.452 637.892 263.049 524.491 94.6248 314.454 327.566 579.407 196.925 148.593 131.898 89.5413 374.843 312.793 564.391 170.846 37.2166 16.695 369.776 58.0948 393.545 293.953 99.5922 133.629 114.456 311.681 14.3746 100.081 50.8268
internal_count=268644 251613 240019 158012 82007 39463 27998 11465 42544 38759 108255 90343 49757 38779 17912 17031 10642 3785 2066 133 10978 8576 2015 11594 3143 1933 637 6561 1264 6389 669 602 553 105 8451 6560 6368 1094 175 49 8444 620 5274 4406 868 919 2541 7824 172 2369 1378
is_linear=0
shrinkage=0.1


Tree=3
num_leaves=57
num_cat=0
split_feature=29 126 105 34 102 32 114 126 129 30 40 29 73 127 104 103 88 102 102 119 130 52 0 29 69 127 30 98 0 112 114 74 81 30 1 30 93 103 30 53 83 25 23 29 85 102 97 113 126 102 114 117 30 30 30 77
split_gain=2856.74 5629.39 3601.69 5339.21 3821.33 2820.03 2398.5 3189.4 2039.26 1606.4 1538.93 1347.17 1086.21 812.539 793.447 761.656 664.253 592.531 572.959 545.477 516.141 435.034 694.877 564.545 517.717 409.685 331.886 259.824 249.689 287.439 242.554 269.739 241.327 217.666 217.157 214.928 212.868 335.052 194.319 185.893 179.127 155.006 147.029 144.2 167.631 122.907 121.117 118.777 91.7162 68.0934 0.343126 0.0501429 0.0539186 0.0270223 0.00415491 0.00171382
threshold=1.2228446006774905 -1.289189279079437 -0.9024851620197295 0.83150595426559459 -0.90248510241508473 0.9709795117378236 -1.383667469024658 -1.7795152664184568 1.0000000180025095e-35 1.0938259959220888 1.0473660826683047 1.2074649930000307 -0.91042235493659962 -2.154344797134399 -0.88628676533699025 -0.87171822786331166 -0.95169517397880543 -0.94614490866661061 -0.93462052941322316 -0.81920126080512989 1.0000000180025095e-35 1.0066308379173281 0.60573139786720287 1.2197031378746035 -0.4327299296855926 -1.2016167640686033 1.047604024410248 -1.0039198398590086 0.58486041426658641 -0.94969469308853138 -0.92799335718154896 -1.0140312314033506 -1.2784093022346494 1.0713930726051333 0.50460141897201549 1.088148891925812 -1.0297461152076719 -0.92820870876312245 1.1062256693840029 0.86944976449012767 -1.2385447621345518 1.4094735980033877 1.433153569698334 1.2260215878486636 -1.0598786473274229 -0.92995178699493397 -0.96199810504913319 -0.95518821477890004 -1.7795152664184568 -0.93628320097923268 -0.95513585209846485 -0.94779381155967701 1.110864579677582 1.110864579677582 1.0938259959220888 -1.190408408641815
decision_type=2 2 2 2 2 2 2 2 2 2 2 2 2 2 2 2 2 2 2 2 2 2 2 2 2 2 2 2 2 2 2 2 2 2 2 2 2 2 2 2 2 2 2 2 2 2 2 2 2 2 2 2 2 2 2 2
left_child=1 2 3 4 11 6 10 -8 14 21 -4 -1 17 26 -5 -10 -6 19 41 38 -15 23 27 35 -25 -24 -7 -23 51 45 31 -20 -32 -31 48 -3 37 50 40 -40 -2 42 -11 44 -38 -30 -45 -39 -14 -43 -36 52 -19 54 -50 -53
right_child=12 9 5 8 16 13 7 -9 15 18 -12 -13 34 20 -16 -17 -18 28 30 -21 -22 22 25 24 -26 -27 -28 -29 29 33 32 -33 -34 -35 36 -37 43 47 39 -41 -42 49 -44 46 -46 -47 -48 -49 53 -51 -52 55 -54 -55 -56 -57
leaf_value=0.0054743919795708865 0.59104820968281202 -0.10815549152087228 0.16440147981584688 -0.059186779004415629 0.14768422256583438 0.23290367978750881 0.21524811964503759 0.17078520086619423 0.11270464996278202 -0.11339086139502141 -0.088515086828733103 0.185019759195762 0.34104228407907544 -0.070204055589837 0.053538267459270976 0.53130957592568995 0.29828468159826327 -0.11805443839344053 -0.13688906260868244 1.1424072863641594 0.15060604911643505 0.18667098699898951 0.83287993652499059 -0.12722674466019232 0.2724270461547913 0.2242547502995727 -0.13673805964176661 -0.059249021941267105 0.29220874540740499 -0.048699842778505024 -0.12172646033256901 0.19865503654964881 0.29010547576371992 0.22191339214769679 -0.1197577678224777 0.010112394420307827 -0.12032136091117639 0.45229289225993957 0.21445737383368144 -0.12255232527570817 -0.099617842145370228 -0.12308200226455508 0.40019314825875307 0.40898280383342372 0.26137316282392054 0.54574962738467936 0.32150379951210539 0.25879629646517088 -0.11659740340311145 0.060397034615784044 -0.14580744597359116 -0.11187166743138027 -0.13023636666055438 -0.12801136544877331 -0.12094270770743272 -0.11564921608396897
leaf_weight=1082.3260245807469 3.8979557566344729 938.43139186501503 453.5281742811203 1694.2914035357535 350.19448248296976 190.31426591798663 27279.514056554064 39482.850497368723 81.812112204730511 8.9068123735487479 512.38584692403674 680.74852674454451 5.7054805755615261 632.30388199537992 988.85782640241086 92.735754400491714 1789.2885149400681 5.9051343798637399 34.497065961360931 4.3974977806210509 127.14631546661258 54.741715187206864 14.558478085324166 51.406882174313068 87.728517957031727 46.022509906440973 27.843705922365189 199.66580566205084 39.362409703433514 30.111480161547661 15.003202162683008 78.417384520173073 275.63148922473192 2303.478772226721 13.842248447239401 183.7460189089179 14.101015195250509 33.657567836344242 63.774920258671045 22.018156047910452 102.48296830058098 76.836556244641542 14.897411085665224 179.12116215378046 62.521631956100464 37.178348183631897 1359.5421257540584 552.16177124530077 3.0876160040497798 27.454331137239933 7.9666529148817053 1.7623648755252359 9.4442425221204758 6.1373420655727378 7.6588399112224579 3.7705069035291663
leaf_count=7262 10 10857 2213 15515 1920 255 61826 127455 421 108 10109 2003 1 3256 7487 173 3816 47 214 9 422 644 20 370 121 149 153 2725 86 127 156 83 378 2683 108 1405 109 56 191 195 749 707 11 169 109 29 890 476 26 100 38 20 58 37 54 33
internal_value=0 0.172901 0.177403 0.107757 0.183806 0.184255 0.186689 0.188953 0.00390317 0.0117177 0.0302375 0.0747994 0.251834 0.0156262 -0.0176427 0.335106 0.273634 0.208189 0.162034 0.0411917 -0.0332363 -0.03898 0.066145 -0.0652329 0.124765 0.370516 0.185726 -0.00633359 0.221693 0.224676 0.220522 0.0961413 0.268846 0.218422 0.302905 -0.0887902 0.30604 0.255586 0.0159927 0.127966 -0.0743108 -0.0222268 0.208026 0.32502 0.191129 0.415362 0.331688 0.269913 -0.00558355 -0.0747816 -0.129274 -0.122608 -0.12555 -0.122718 -0.119694 -0.114446
internal_weight=0 77574.1 75466.1 6760.25 3902.56 68705.9 67728.3 66762.4 2857.7 2107.95 965.914 1763.07 4873.09 977.608 2683.15 174.548 2139.48 2627.58 531.644 196.571 759.45 1576.3 314.989 1261.31 139.135 60.581 218.158 254.408 2431.01 2410.13 403.549 112.914 290.635 2333.59 2245.5 1122.18 2222.91 607.628 192.174 85.7931 106.381 128.095 23.8042 1615.29 76.6226 76.5408 1538.66 585.819 22.5893 104.291 21.8089 20.8822 15.3494 16.8838 10.7465 5.53287
internal_count=268644 262334 244286 38597 15001 205689 201603 189281 23596 18048 12322 9265 6310 4086 23002 594 5736 4237 1757 1154 3678 16291 3538 12753 491 169 408 3369 3083 2925 831 297 534 2810 2073 12262 1955 678 1145 386 759 926 119 1277 218 115 1059 532 118 807 146 158 105 117 80 53
is_linear=0
shrinkage=0.1


Tree=4
num_leaves=49
num_cat=0
split_feature=108 81 32 105 30 103 136 55 30 108 127 130 25 5 81 35 57 113 116 65 71 62 107 108 106 106 51 52 6 35 34 32 116 107 39 126 0 108 53 101 131 20 55 108 76 53 113 121
split_gain=2194.4 2258.05 1918.35 2046.23 4503.58 6736.04 2033.68 1924.37 1686.27 1329.66 973.311 997.855 932.092 769.124 541.935 511.061 489.563 463.491 461.169 440.442 342.967 393.335 291.077 279.21 256.791 253.759 360.408 202.206 287.979 102.865 83.6059 82.7966 69.2741 68.2399 390.945 27.6252 275.191 21.178 106.607 1.44666 1.27646 0.664199 0.401998 0.336855 0.191361 0.062087 0.0463739 0.000684941
threshold=-1.0567139387130735 -1.4042869210243223 0.96983906626701366 -0.83267673850059498 1.0672984123229983 -0.8341735005378722 1.0000000180025095e-35 0.96596619486808788 1.0539330840110781 -0.81814119219779957 -2.154344797134399 1.0000000180025095e-35 1.3064298033714297 0.56225743889808666 -1.4368815422058103 0.87020376324653637 0.95501247048378002 -1.0074410438537595 -0.85533714294433583 0.44689090549945837 -0.33380739390850062 0.62668719887733471 -0.86593413352966297 -0.79847878217697132 -0.93295612931251515 -0.92972758412361134 1.123353958129883 1.0713846087455752 0.46923545002937322 0.84541425108909618 0.94307896494865429 0.89261740446090709 -1.3240659236907957 -0.80834528803825367 0.99791181087493908 -2.9279775619506831 -0.10343625396490096 -1.0584443807601926 1.0585660934448244 -0.60848131775856007 1.0000000180025095e-35 1.3406959772109988 1.0589129328727724 -1.0620957612991331 -1.2366088032722471 1.0968514084815981 -1.3396142721176145 -1.8294852972030637
decision_type=2 2 2 2 2 2 2 2 2 2 2 2 2 2 2 2 2 2 2 2 2 2 2 2 2 2 2 2 2 2 2 2 2 2 2 2 2 2 2 2 2 2 2 2 2 2 2 2
left_child=15 9 3 4 5 -3 -6 12 -9 22 20 16 -5 19 24 25 -12 -13 -16 23 21 -4 -2 -11 -15 27 -27 28 32 -28 35 -30 -1 40 -35 36 47 46 -39 -32 -24 43 -22 -29 -21 -31 -37 -17
right_child=1 2 10 7 6 -7 -8 8 -10 13 11 17 -14 14 18 30 -18 -19 -20 44 42 -23 33 -25 -26 26 29 41 31 45 39 -33 -34 34 -36 37 -38 38 -40 -41 -42 -43 -44 -45 -46 -47 -48 -49
leaf_value=0.10106575340290036 0.31329848857313353 0.040779371424294227 -0.13530686645175247 -0.10423806384264744 0.15615575645238122 0.14785041953831071 0.22362146021849783 0.16783073908874005 0.23626623603206981 0.12885717757690412 -0.071906198525552939 -0.13487764358563212 0.19753029232762873 0.28246035874197128 0.029707989386695683 -0.10408405062063082 0.11971433749447076 0.22208126347142434 0.3636400917687368 -0.1691562351302861 -0.1500814273166961 0.24691342927124282 -0.11231579273382658 0.25475578303435636 -0.098563459449405519 0.49671705113504028 0.38264834314766122 -0.10855646843818718 0.065170109355660172 -0.11542190311250447 0.11683131768158533 -0.12385928911719729 0.23686977626371838 0.20186006546762841 -0.12880178845340864 -0.10377625251773076 1.0188806236651089 0.36608607908313467 -0.10572239128856764 0.17848088326501987 -0.12524375911744431 -0.1815058233073443 -0.11616017633193887 -0.12302258679296339 -0.14416386420354546 -0.10437765491621676 -0.10597731355066418 -0.10720683965683729
leaf_weight=78.218813734129071 18.200606096535921 8845.1262074410915 29.417692199349403 362.72174816206098 23212.199950201437 17502.261751009151 5533.0766618847847 24827.662963893265 4211.2119808383286 436.22866905480623 858.62797993980348 42.735142089426517 142.59375675395131 18.790215738117695 128.56499814987183 20.11931506916881 157.83817495033145 244.41809577867389 60.968876922503114 3.3130856603384009 24.615443758666519 317.5752859711647 306.4794933013618 295.46226530522108 301.5072941146791 31.056066386401653 5.3537345379591015 37.479215310886502 36.974282328039408 9.1148699708282965 8.6742555778473598 62.070582216605544 72.263725329190493 48.414480526000261 136.7527143470943 169.58302216790617 2.4368453025817862 5.8372576702386132 26.671002278104424 6.7825956344604483 101.72394546493888 1.5259683467447747 4.0715240761637679 28.214474100619555 40.692416444420815 11.527624782174824 219.77269529737532 0.72778046876192348
leaf_count=304 21 49362 171 2629 64460 50243 6412 52229 6181 1324 4430 231 260 6 1177 541 421 445 129 18 114 251 4406 487 7299 20 7 683 185 117 58 1009 33 175 919 4932 1 102 581 1 868 14 36 227 202 302 4609 12
internal_value=0 0.148684 0.151056 0.153156 0.141769 0.111905 0.169142 0.174389 0.177755 0.0407641 0.0452197 0.00435057 -0.0190828 0.0985083 0.00309911 -0.0142508 -0.0421511 0.168957 0.137127 0.161217 0.187037 0.214509 -0.0806146 0.179696 -0.0762107 0.0726238 0.266762 0.0376557 0.0791253 -0.00795055 -0.0847531 -0.053293 0.166281 -0.0926972 -0.0423458 -0.092692 0.0133453 -0.0985445 -0.0210034 0.143884 -0.115537 -0.116284 -0.145267 -0.114769 -0.146045 -0.109254 -0.105019 -0.104193
internal_weight=0 88213.3 86316.2 84636.9 55092.7 26347.4 28745.3 29544.2 29038.9 1897.1 1679.3 1303.62 505.316 1285.53 509.831 834.404 1016.47 287.153 189.534 775.696 375.68 346.993 611.571 731.691 320.298 373.799 57.0523 316.747 249.527 25.9962 460.605 99.0449 150.483 593.371 185.167 445.148 23.2839 421.864 32.5083 15.4569 408.203 67.2197 28.687 65.6937 44.0055 20.6425 389.356 20.8471
internal_count=268644 254906 237875 231776 170477 99605 70872 61299 58410 17031 6099 5527 2889 10642 8611 13738 4851 676 1306 2031 572 422 6389 1811 7305 2901 446 2455 1531 426 10837 1194 337 6368 1094 10778 554 10224 683 59 5274 924 150 910 220 419 9541 553
is_linear=0
shrinkage=0.1


Tree=5
num_leaves=61
num_cat=0
split_feature=29 104 27 101 30 103 126 0 115 135 30 47 32 135 30 0 69 110 73 102 102 58 29 53 111 118 30 78 114 111 3 103 0 122 127 28 3 29 28 49 101 1 1 107 114 124 105 101 95 114 2 28 29 97 130 135 75 29 108 29
split_gain=1934.53 3723.36 1968.56 2154.51 1845.67 4204.6 1777.89 5430.63 2952.08 1304.57 1164.34 1036.57 731.855 707.747 1932.53 693.191 678.431 611.254 564.805 495.995 432.054 382.925 351.621 340.024 235.281 234.49 221.936 332.418 217.734 202.501 169.014 413.549 168.69 151.222 150.146 144.027 236.912 133.046 126.728 100.344 91.9316 116.508 84.3547 82.7528 76.7279 69.3852 52.2065 63.7739 50.9791 80.1399 61.8808 43.6709 67.7366 17.5179 0.429441 0.234782 0.122603 0.0457183 0.0258762 0.02016
threshold=1.2228446006774905 -0.9044753611087798 1.3228264451026919 -0.89515036344528187 1.0804590582847597 -0.8726084530353545 -1.6002452373504636 0.43169257044792181 -0.98924595117568959 1.0000000180025095e-35 1.0967885255813601 1.0141817331314089 0.95973169803619396 1.0000000180025095e-35 1.088148891925812 0.68340349197387706 -0.29337522387504572 -0.86731413006782521 -0.91211572289466847 -0.94614490866661061 -0.93462052941322316 0.65111899375915538 1.2168382406234743 1.0595698952674868 -1.1345893740653989 -0.85617780685424794 1.0938259959220888 -1.1485096812248228 -0.93663451075553883 -0.91837882995605458 0.73613911867141735 -0.90271493792533863 0.61487171053886425 -1.116143465042114 -2.0536857843399043 1.3776342868804934 0.74729248881340038 1.2415248155593874 1.3663177490234377 1.2451311945915224 -0.94078725576400746 0.61586496233940136 0.50460141897201549 -0.90717241168022145 -0.95513585209846485 -1.1324079632759092 -0.9097309112548827 -0.9439372420310973 -0.96957239508628834 -0.95431524515151966 0.66180992126464855 1.2249371409416201 1.1613696813583376 -0.94141629338264454 1.0000000180025095e-35 1.0000000180025095e-35 -1.1385712623596189 1.2301249504089358 -0.97452208399772633 1.2260215878486636
decision_type=2 2 2 2 2 2 2 2 2 2 2 2 2 2 2 2 2 2 2 2 2 2 2 2 2 2 2 2 2 2 2 2 2 2 2 2 2 2 2 2 2 2 2 2 2 2 2 2 2 2 2 2 2 2 2 2 2 2 2 2
left_child=1 2 17 10 5 9 8 -8 -7 11 15 -3 13 23 -15 -4 24 30 19 25 -12 56 -11 -6 -5 37 27 28 -21 -23 39 -32 33 -28 -18 36 40 55 -39 -1 41 -20 -42 -29 -34 48 47 -47 49 -37 -50 54 -53 -48 -14 -2 -19 59 -59 -38
right_child=18 4 3 16 12 6 7 -9 -10 22 20 -13 51 14 -16 -17 34 21 35 26 -22 29 -24 -25 -26 -27 32 43 -30 -31 31 -33 44 -35 -36 45 57 38 -40 -41 42 -43 -44 -45 -46 46 53 -49 50 -51 -52 52 -54 -55 -56 -57 -58 58 -60 -61
leaf_value=-0.099818126295333709 -0.11856642773791459 0.1490445783041682 -0.035079408815035427 -0.048894949194466276 0.19808858270473848 0.1233274237088893 -0.038562099558190843 0.12328121584757701 0.17910886397676878 -0.10964402497333686 -0.0050341267351685223 0.014276337455197463 -0.13481450191020886 0.026181325907632065 0.19385654045249578 0.19593029900903361 0.095356905982506568 -0.10291239665141894 -0.13486739885629909 -0.15022646383796942 0.13943928832617311 -0.11619047050490688 0.14841563508711492 -0.13336323046148094 0.23514074464360368 0.35619616584124791 0.27012891086613944 0.018843399382725192 0.081754820997685773 0.29403121499322643 -0.11331797765523327 0.63374473835380529 0.28750750326532243 -0.13690118993157849 -0.12562539705961848 0.33502759203540766 -0.11827843640899126 0.21415770263612816 -0.02678715009734774 0.11062899381645291 0.0015696912909320627 0.15445415960575948 0.2102043472430084 0.18612234372339159 0.18514081849538844 -0.14498814764073759 0.20375654217416583 0.1654848994651662 0.13493688244194177 0.22772728777740547 0.24361555988872907 0.3030841434599359 -0.13128934959256669 0.27007533662944083 -0.15339908189193796 -0.12975661922657752 -0.11505841312224385 -0.1403673124507937 -0.13108358500044037 -0.12832663701848609
leaf_weight=1114.6191862057894 28.576740488409996 776.89765450917184 1703.0248466171324 30.119888972491026 5290.8823737315834 43318.341192634776 2475.7813342306763 12753.151162164286 12148.065181739628 772.98117358237505 263.81741992756724 2150.5217979159206 62.227504659444094 1053.1518593728542 1979.0422358363867 140.62053201720119 57.430488966405392 10.919958475977181 15.088829226791857 45.50766521692276 961.06672370806336 13.97737102396786 56.671060167253017 31.132716219872236 918.57574710994959 17.034872286021709 13.209007501602171 31.454441249370575 364.72792236506939 86.523150702938437 22.561199083924294 11.033809989690779 77.043979749083519 29.541882611811161 66.175216570496559 150.74428739398718 3.0984796583652514 30.745648935437202 75.270178638398647 23.127221841365099 19.728302799165249 179.45681804418564 1095.236269749701 494.50051428377628 1475.6503672227263 9.0807327628135663 348.55287149548531 24.374983593821526 56.486797958612442 129.31897601485252 722.78923736512661 6.1360857039690009 8.6520325168967229 44.968631222844124 15.538325712084768 54.522009804844856 34.778936233371496 4.365299940109252 9.6156704202294332 5.6152327805757523
leaf_count=10826 253 3653 10811 160 7510 121679 15511 37344 20571 5251 1273 12723 381 4738 3252 893 153 413 89 221 2067 150 129 223 1098 29 9 96 853 205 235 22 64 185 445 66 25 55 404 121 92 321 969 372 1132 52 154 22 107 23 194 2 58 13 73 395 364 22 58 35
internal_value=0 0.121515 0.041515 0.0753902 0.126782 0.121757 0.127235 0.0969702 0.135544 0.018672 0.0327496 0.050042 0.171082 0.17418 0.135619 -0.0174596 0.197412 -0.0649495 0.182348 0.149998 0.108322 0.127846 -0.0920167 0.19615 0.226123 0.000839519 0.162144 0.123492 0.056021 0.236979 -0.089013 0.132044 0.184825 -0.0111386 -0.0229512 0.213771 0.189893 -0.0311699 0.0430893 -0.0955403 0.195445 0.132015 0.206513 0.176118 0.19022 0.235172 0.201139 0.0812146 0.248889 0.285482 0.235738 -0.108573 0.0489468 0.211335 -0.138528 -0.125908 -0.112156 -0.130439 -0.133982 -0.124754
internal_weight=0 88357.5 5458.37 4140.83 82899.2 74452.4 70695.3 15228.9 55466.4 3757.07 3068.53 2927.42 8446.76 8354.21 3032.19 1843.65 1072.3 1317.54 5556.31 2737.79 1224.88 146.199 829.652 5322.02 948.696 206.149 2531.64 936.191 410.236 100.501 1171.34 33.595 1595.45 42.7509 123.606 2818.52 1332.2 189.115 106.016 1137.75 1309.51 194.546 1114.96 525.955 1552.69 1486.32 426.977 33.4557 1059.34 280.063 779.276 92.5539 14.7881 393.522 77.7658 83.0988 45.6989 22.6947 13.981 8.71371
internal_count=268644 262334 29236 16900 233098 216861 195105 52855 142250 21756 15044 16376 16237 15723 7990 11704 1856 12336 6310 4068 3340 1132 5380 7733 1258 1136 2932 1542 1074 355 11204 257 1390 194 598 2242 1611 1107 459 10947 1471 410 1061 468 1196 631 241 74 390 89 301 514 60 167 454 648 777 140 80 60
is_linear=0
shrinkage=0.1


Tree=6
num_leaves=59
num_cat=0
split_feature=109 127 0 134 22 126 31 29 133 129 136 69 105 39 35 135 38 114 126 105 32 43 102 29 126 126 52 104 104 103 109 0 51 54 104 103 106 1 70 115 122 114 66 32 62 110 33 122 11 24 108 68 102 114 108 35 39 113
split_gain=1575.45 2109.98 2910.07 2628.69 5700.2 3950.41 2313.74 4472.48 2611.76 1736.82 1486 1489.75 3217.96 1691.44 1358.58 1291.96 1194.27 855.905 845.088 784.71 525.073 482.338 403.357 400.631 382.366 323.865 312.233 365.718 310.703 310.069 295.473 214.727 197.948 195.084 219.609 151.846 117.667 155.719 99.6167 77.3574 76.8174 72.9664 62.2696 52.8846 39.9364 38.8043 38.7918 30.7331 112.215 17.1633 11.3368 8.98787 1.77897 1.16064 0.685366 0.507256 0.19648 0.0111428
threshold=-1.1060037612915037 -2.1059830188751216 0.30453322827816015 1.0000000180025095e-35 1.3074508905410769 -1.7795152664184568 0.99465706944465648 1.2168382406234743 1.0000000180025095e-35 1.0000000180025095e-35 1.0000000180025095e-35 -0.23327144235372541 -0.86621239781379689 0.96188637614250194 0.9368426799774171 1.0000000180025095e-35 0.96674984693527233 -1.0120652318000791 -1.7904661893844602 -0.86252889037132252 0.96624958515167247 1.1020739078521731 -0.86335960030555714 1.1771038174629214 -1.8507058620452879 -1.9016153812408445 1.1262912750244143 -0.72854319214820851 -0.80304002761840809 -0.79222193360328663 -1.083503723144531 0.29736527800560003 1.1603710651397707 1.0017616748809817 -0.83938470482826222 -0.80623337626457203 -0.93507543206214894 0.15625997632741931 -0.22788750380277631 -1.4480147361755369 -2.092268586158752 -1.2729567885398863 0.41482359170913702 0.86889901757240307 0.75761744379997265 -1.1628400087356565 0.93723252415657055 -2.0483858585357662 0.18702338635921481 1.2355557680130007 -1.0457671284675596 0.17824809998273852 -0.77340540289878834 -1.3909839391708372 -1.0620957612991331 0.87082126736640941 0.90327742695808422 -1.3396142721176145
decision_type=2 2 2 2 2 2 2 2 2 2 2 2 2 2 2 2 2 2 2 2 2 2 2 2 2 2 2 2 2 2 2 2 2 2 2 2 2 2 2 2 2 2 2 2 2 2 2 2 2 2 2 2 2 2 2 2 2 2
left_child=16 10 9 6 24 -6 7 -4 -8 20 11 22 13 -13 21 -14 19 25 -19 33 31 35 23 -2 -5 -11 27 36 -22 -23 -24 -3 39 34 41 -12 57 -38 49 40 -21 -1 -29 -41 53 -36 47 48 -28 -16 -49 -44 -40 -34 56 -56 -35 -18
right_child=1 2 3 4 5 -7 8 -9 -10 17 14 12 15 -15 38 -17 26 18 -20 32 28 29 30 -25 -26 -27 46 42 -30 -31 -32 -33 44 54 45 -37 37 -39 52 43 -42 -43 51 -45 -46 -47 -48 50 -50 -51 -52 -53 -54 -55 55 -57 -58 -59
leaf_value=-0.11599771112197338 -0.12324712852976348 -0.12776084160483836 0.050563080375437386 -0.018899245798814291 0.258573013103154 0.057562629248033216 0.13010400506127112 0.15300809317498051 -0.0017967555968058458 0.069623631486842169 0.1423858855822828 0.099755107387978936 0.14661194296941946 -0.024837891398224773 0.21985596651202971 -0.078659783873532341 -0.10417899779265444 0.15799163130032925 -0.11445147511558243 0.29481629668916765 -0.13283072058265152 -0.065559152938335294 0.10049549913312764 0.20706243489247661 -0.11477608049666461 -0.14641519769034125 -0.13081926541678199 0.34217712986101462 0.075088163994560697 0.22257900603393954 0.22609853253537049 -0.025935024487498778 -0.10543006552163675 -0.16086643986528748 0.13238733735378633 0.34724266827881956 0.013362943249713889 0.69992578443090925 -0.12847776717899204 0.22417428194193223 -0.1320196745848928 0.18442441818240013 0.19991705668453694 0.11878187559540898 0.14069862105004713 0.29878983692267908 0.11800378879972279 -0.10538475814076663 0.12381432486887534 0.030651668551701081 -0.13653544404326978 0.053790633228104859 -0.15593765078092189 -0.15089235290568589 -0.12927186909679117 -0.10825023132037968 -0.10751116222804152 -0.10648458117837643
leaf_weight=58.384467557072639 72.832019217312336 869.63468788936734 13154.52010769397 568.08307914435863 1269.2278219461441 4256.5935835018754 41383.197799174115 6303.6923525221646 1557.7080669365823 110.8637428060174 39.297881040722132 2477.3819234799594 14071.685374781489 1945.0995551925153 6.9806840717792538 259.27684932202101 27.680768182501197 967.69494103640318 129.03627732023597 6.2261737287044552 92.784152142703533 38.665618427097797 206.53112158738077 74.058095082640648 1553.3455064035952 185.49050740152597 53.642114356160164 33.645140878856182 318.88069029152393 1095.1600489616394 2010.4944884032011 271.82842913269997 10.40138349309564 0.69610381871461768 53.158414795994759 456.46212948858738 146.73628032580018 3.3796403668820849 40.408651061356068 368.19193897023797 13.061796594411133 9.3840387780219299 6.8826456069946316 54.682360727339983 7.183088816702365 19.030999250710011 7.7724567484110585 362.9702020958066 25.550236910581589 15.308812528848646 172.28276427835226 10.836335729807614 56.691181927919388 12.204785265028477 36.019953288137913 16.847699180245399 81.140166200697422 86.362801890820265
leaf_count=1069 729 5164 60496 2211 1705 14607 91756 7886 7107 291 144 9051 19115 11020 2 1100 733 995 574 4 534 193 466 50 8075 956 768 38 697 402 2422 1066 218 8 64 126 1369 11 242 287 147 167 1 144 15 24 37 8348 132 46 1701 53 276 79 232 256 1591 1644
internal_value=0 0.109784 0.10148 0.105575 0.0502384 0.103733 0.112357 0.0837512 0.125319 0.00412185 0.136291 0.128955 0.119525 0.0449565 0.224872 0.142536 0.0122249 0.0851918 0.125937 0.106594 -0.0685942 0.248728 0.203765 0.0432862 -0.0891019 -0.0655968 -0.06291 0.0181214 0.0282258 0.212753 0.214398 -0.103512 0.184803 -0.0277929 0.0548876 0.331004 -0.0293525 0.0288199 -0.100745 0.201613 0.00576335 -0.0743977 0.262274 0.210546 -0.0647071 0.176255 -0.104001 -0.106809 -0.0486655 0.0899072 -0.115411 0.110551 -0.14451 -0.129975 -0.113698 -0.122573 -0.107965 -0.105925
internal_weight=0 95858.9 72992.6 70046.4 7647.25 5525.82 62399.1 19458.2 42940.9 2946.21 22866.3 21117.4 18753.4 4422.48 1748.98 14331 1684.35 1393.09 1096.73 746.613 1553.13 1629.59 2363.92 146.89 2121.43 296.354 937.741 315.524 411.665 1133.83 2217.03 1141.46 471.952 274.662 139.958 495.76 264.159 150.116 119.389 442.162 19.288 67.7685 51.3641 422.874 29.7893 72.1894 622.218 614.445 79.1924 22.2895 535.253 17.719 97.0998 22.6062 134.704 52.8677 81.8363 114.044
internal_count=268644 249504 204120 193843 26598 16312 167245 68382 98863 10277 45384 43953 40286 20071 1431 20215 19140 2816 1569 4305 7461 865 3667 779 10286 1247 14835 3849 1231 595 2888 6230 894 3411 1324 270 3757 1380 566 582 151 1236 92 431 312 88 10986 10949 900 48 10049 54 518 297 2087 488 1599 2377
is_linear=0
shrinkage=0.1


Tree=7
num_leaves=63
num_cat=0
split_feature=127 30 104 95 106 34 134 30 0 100 35 136 103 29 31 26 109 30 133 46 68 103 5 37 32 131 105 75 106 116 115 126 1 68 5 71 39 126 126 32 55 45 73 6 103 101 48 112 89 105 33 119 69 48 102 70 95 45 37 86 102 31
split_gain=1429.2 3975.27 4360.77 3872.03 2003.38 4299.82 1905.39 2342.21 1526.63 1772.45 1446.12 1442.41 1502.5 2093.93 2193.79 1219.63 1023.11 1047.37 1016.22 1210.53 1014.81 1979.5 1364.21 1108.86 1134.69 968.879 889.154 787.738 849.224 830.184 786.741 719.105 662.493 654.332 634.444 1367.73 560.771 519.075 464.239 462.262 732.236 461.654 444.435 419.442 415.027 414.102 349.021 324.337 298.238 270.791 186.11 167.091 151.703 127.689 106.656 83.3277 79.9897 53.6305 42.3838 31.4942 2.64666 0.610771
threshold=-1.9453697800636289 1.0636126399040224 -0.83088752627372731 -0.92164018750190724 -0.90485307574272145 0.85022038221359264 1.0000000180025095e-35 1.0521135926246645 0.58856165409088146 -0.91354843974113453 0.9584161937236787 1.0000000180025095e-35 -0.83707496523857106 1.2197031378746035 0.98843932151794445 1.2693329453468325 -0.8567567467689513 1.0616806149482729 1.0000000180025095e-35 1.1718463301658633 0.0059328505303710708 -0.80798256397247303 0.54554796218872081 0.94831988215446483 0.93991282582283031 1.0000000180025095e-35 -0.88889652490615834 -1.0620994567871092 -0.89475813508033741 -0.98329460620880116 -1.043803811073303 -1.4127935171127317 0.60610976815223705 -0.065675042569637285 0.4438010454177857 -0.4436067789793014 0.89691287279129039 -2.0185856819152828 -1.7831555008888242 0.95513412356376659 0.98393902182579052 1.071959972381592 -0.9191153049468993 0.74778282642364513 -0.86676746606826771 -0.87976384162902821 1.1066610217094424 -1.0291923284530637 -1.205616235733032 -0.90763476490974415 0.95031952857971203 -1.1050636172294614 -0.038958946242928498 1.188716769218445 -0.86168697476387013 -0.30601736903190607 -1.0281125903129575 1.1891015172004702 0.99983137845993053 -0.96333229541778553 -0.77340540289878834 1.0012063384056094
decision_type=2 2 2 2 2 2 2 2 2 2 2 2 2 2 2 2 2 2 2 2 2 2 2 2 2 2 2 2 2 2 2 2 2 2 2 2 2 2 2 2 2 2 2 2 2 2 2 2 2 2 2 2 2 2 2 2 2 2 2 2 2 2
left_child=4 2 8 6 5 32 7 -4 16 43 20 12 13 14 -3 -8 17 -2 19 26 23 30 -23 24 -6 -21 -7 29 56 61 -22 -18 33 44 35 -20 -30 47 51 46 -41 -31 -15 -10 -1 -11 -14 52 -40 -35 53 -5 -12 -39 59 -36 -29 -49 -52 -34 -25 -13
right_child=1 11 3 38 10 18 15 -9 9 45 37 27 39 42 -16 -17 31 -19 34 25 21 22 -24 60 -26 -27 -28 28 36 41 -32 -33 54 49 55 -37 -38 50 48 40 -42 -43 -44 -45 -46 -47 -48 57 -50 -51 58 -53 -54 -55 -56 -57 -58 -59 -60 -61 -62 -63
leaf_value=0.11086229022242498 -0.065127864772621211 -0.0024688856371622688 0.068075768151560676 -0.040128647679466702 0.10448705500869715 0.010407100159213686 -0.083120952811566701 0.14216204079476644 0.21187615998240125 0.23974314856603718 0.18523868276048944 -0.13162149805336715 0.1980203565901214 0.099985701447020472 0.088121634355635026 0.18532306249285763 0.23027989828015749 0.03062803524786253 0.17266873874001443 -0.091662182594752173 -0.035796140766864458 0.13019837728308359 -0.044050024366040781 -0.1412227472291803 0.21952277547261972 0.25018681044991986 0.1282578341300423 0.20072465786431348 0.33016856303256642 0.14076037537463901 0.1412054703986321 0.011288465212764259 0.40076840408285036 -0.12364760589012069 -0.069178171198601465 -0.079608906035688556 0.18231527887064369 0.20106559327139095 0.10834726595407536 -0.0041785396919771624 0.18988234175861263 -0.16514498723683349 0.15746048742051555 -0.029182042056438998 0.17606423568142049 0.51216441675841362 -0.01471228279078709 0.17812308575976832 -0.11781848480213111 0.076456392055557085 -0.089533687948989457 0.27120441652225818 -0.16062357448336906 -0.15276240410577813 0.56146090073011912 -0.12359442251634647 -0.13699874762125883 0.044653912651137453 -0.16709432862154844 0.15086896498345578 -0.18593778536577144 -0.1479436664221577
leaf_weight=1550.3619122132659 4224.167449971661 3263.8443334251642 9880.745805926621 27.715552434325218 1269.7835862487555 1091.3223330471665 923.20786828920245 7511.1866060122848 89.761537067592144 126.30423614196479 15.843820393085478 33.282220132648945 2014.9487064629793 1975.7452080585063 14771.652385434136 207.23980773985386 241.44482322782278 1565.6382063291967 360.79206224158406 789.52618244476616 1095.4163013100624 21501.197793409228 458.89605807512999 88.966635845601559 2640.5761085376143 92.636730374768376 1548.6959956847131 7.838252678513526 462.51880752295256 5930.8043337389827 325.80709405988455 395.68133291602135 10.425050243735315 72.956549014896154 803.24041557684541 531.47315878979862 575.95932959020138 29.726164013147354 61.549988983199 362.99711245298386 418.71496665850282 49.747380558401346 4217.0545287691057 368.55852677300572 2636.2135743424296 99.9587047919631 80.19234075397253 145.03127337992191 1106.0564575493336 925.81994720548391 113.01652738451958 45.60268534719944 63.548666968941689 15.526497490704058 40.290146071463823 433.15589953958988 66.62118973582983 37.992299295961857 187.09056103229523 9.7687722630798799 15.550775110721586 73.675326980650425
leaf_count=4762 23214 16176 33828 120 2412 7057 4628 13349 196 443 23 189 1682 3482 40800 368 719 5285 788 10369 4883 34635 1969 452 3124 115 3781 11 258 6567 681 3280 11 628 6333 3735 763 27 116 1090 436 240 3553 3710 3556 87 267 82 5807 2449 420 27 305 80 18 3507 391 86 808 49 64 353
internal_value=0 0.0850743 0.0562746 0.0804382 0.10959 0.0732093 0.091895 0.100072 -0.0108772 0.131086 0.123746 0.107636 0.0970672 0.0889542 0.0717277 -0.0339083 -0.0259987 -0.0392342 0.0126852 0.0456526 0.12713 0.119155 0.126557 0.173576 0.182168 -0.0557643 0.0795411 0.14742 0.224776 0.133277 0.00478044 0.0942773 0.138406 0.134568 -0.0418643 0.0224009 0.248166 -0.0288233 -0.0905693 0.165393 0.0997679 0.138216 0.139124 0.018029 0.151919 0.360094 0.189878 0.0771957 -0.105896 0.0618396 -0.10938 0.153515 -0.0916022 0.0796648 0.467449 -0.0882422 -0.101447 0.150417 -0.137886 0.279879 -0.147876 -0.142865
internal_weight=0 61180.4 26874.8 19763.3 38900.6 10896.7 18522.4 17391.9 7111.51 684.583 28004 34305.6 27105.1 24228.3 18035.5 1130.45 6426.93 5789.81 5650.84 3522.18 27396.2 23381.3 21960.1 4014.88 3910.36 882.163 2640.02 7200.45 1112.94 6087.51 1421.22 637.126 5245.84 5185.35 2128.66 892.265 1038.48 607.776 1240.92 2876.85 781.712 5980.55 6192.8 458.32 4186.58 226.263 2095.14 262.416 1167.61 998.776 345.36 73.3182 79.3925 45.2527 60.484 1236.4 74.4594 183.024 300.107 20.1938 104.517 106.958
internal_count=268644 171435 95177 58243 97209 47158 52173 47177 36934 4436 50051 76258 67486 64011 56976 4996 32498 28499 35685 21322 48220 42168 36604 6052 5536 10484 10838 8772 1423 7349 5564 3999 11473 11395 14363 4523 1021 1831 6070 3475 1526 6807 7035 3906 8318 530 1949 496 5923 3077 1335 147 328 107 78 9840 402 168 1228 60 516 542
is_linear=0
shrinkage=0.1


Tree=8
num_leaves=60
num_cat=0
split_feature=86 105 30 103 68 5 104 33 0 74 114 86 30 127 107 72 134 106 20 114 40 125 102 113 32 35 112 78 5 102 126 81 109 118 30 54 108 59 103 108 32 77 111 108 68 82 116 82 105 10 88 111 86 110 90 102 111 72 72
split_gain=1364.8 1402.81 2880.02 3602.24 2771.9 1654.61 1565.07 1364.36 1347.4 1309.76 1699.56 2284.98 1683.85 1271.31 1251.29 1131.65 1024.63 1052.4 1440.27 953.417 1516.02 1097.13 948.095 895.852 893.295 611.619 589.049 873.882 680.91 532.172 475.687 462.75 776.295 422.747 318.412 298.448 276.689 271.235 259.91 251.273 173.443 203.607 191.568 172.869 206.066 169.315 154.741 130.316 127.127 92.7736 74.0298 50.309 119.822 44.1265 44.4415 2.60004 0.202856 0.123696 0.0726105
threshold=-1.3359895348548887 -0.83134642243385304 1.0648598670959475 -0.82657894492149342 0.033769082278013236 0.61011454463005077 -0.82136085629463185 0.94888994097709667 0.60573139786720287 -0.98848688602447499 -1.0010902881622312 -0.95636120438575734 1.078192472457886 -1.9781332612037656 -0.87128794193267811 -0.73067557811737049 1.0000000180025095e-35 -0.8597770333290099 1.2432337403297427 -1.3797678947448728 1.0488774180412295 -1.6374785304069517 -0.84646704792976368 -0.92824557423591603 0.96214324235916149 0.9584161937236787 -0.88146880269050587 -1.3455967307090757 0.56538623571395885 -0.75832584500312794 -2.0185856819152828 -1.4042869210243223 -0.83994263410568226 -0.99540355801582325 1.0285213589668276 1.0955303311347964 -0.84505438804626454 0.8865584433078767 -0.7774633765220641 -0.80465036630630482 0.9617852270603181 -1.2933641076087949 -0.8783992826938628 -0.83303514122962941 -0.082078609615564332 -1.3721989393234251 -0.85533714294433583 -1.4448739290237425 -0.74464228749275196 0.72603076696395885 -1.2763826251029966 -0.87144356966018666 -1.3465866446495054 -0.83502978086471547 -1.1732215285301206 -0.77340540289878834 -0.86552026867866505 -0.64286333322525013 -0.61352202296257008
decision_type=2 2 2 2 2 2 2 2 2 2 2 2 2 2 2 2 2 2 2 2 2 2 2 2 2 2 2 2 2 2 2 2 2 2 2 2 2 2 2 2 2 2 2 2 2 2 2 2 2 2 2 2 2 2 2 2 2 2 2
left_child=26 2 3 8 5 -5 -6 16 22 12 11 -11 14 25 -4 -10 19 35 -19 20 -3 -21 -2 -14 -12 29 39 28 34 -9 -27 46 -33 37 48 -18 49 -15 -36 40 41 45 -43 44 -38 -1 -30 56 -28 -29 -45 55 -53 54 -49 -42 58 -51 -41
right_child=1 7 9 4 6 -7 -8 13 15 10 24 -13 23 33 -16 -17 17 18 -20 21 -22 -23 -24 -25 -26 30 27 36 31 -31 -32 32 -34 -35 38 -37 43 -39 -40 47 51 42 -44 50 -46 -47 -48 53 -50 57 -52 52 -54 -55 -56 -57 -58 -59 -60
leaf_value=-0.10893467335122774 -0.039660534889573024 0.12437234355620626 -0.062357432998568718 0.11777396983628495 -0.049165736168018802 -0.056284397815171409 0.059730166724675939 0.0014609957336722988 0.031521932703785768 0.036385443263809762 0.13656304712716269 0.13736559981068983 0.059944946010453387 -0.12061296886251222 0.06441538504244379 0.29606741535488496 0.16714443697916831 -0.11776970271880671 0.10724561727591747 0.13838904943102601 -0.10191371275189282 0.097631400668758417 0.022967638505796632 0.11886781071687805 -0.05596348096221835 0.082994823700921649 -0.093697596968892252 0.32047057231929088 -0.092275264768824861 0.12331536823751468 -0.1120530673750289 -0.033015010189588467 0.22403774839183721 0.19075103656077227 -0.12112651551062972 -0.13249565446797537 0.98984260410157665 0.25989396248483326 0.16743579139095854 -0.11258506442652523 -0.13156056591419008 -0.072137330617457598 0.11718488344076164 -0.12997630663814236 0.33449791853466521 0.53237057870977722 0.0078244096430099188 0.013671399199018797 0.12828627962559633 -0.11719750612465563 0.20185088541216589 -0.14282072998432602 0.11392735653632896 0.33646976574668852 0.23829485716678789 -0.15099231838295052 -0.14615355308267294 -0.14210375148920421 -0.13405493029675297
leaf_weight=208.12418111041188 3717.6894330307841 689.17426416277885 1416.8842501193285 11517.213784616441 1857.6909038797021 573.33003967627883 4558.2640944197774 460.40022394061089 364.69369186460972 5487.3557853847742 13400.766441345215 3787.5245500858873 4918.1455894820392 575.91351426020265 1728.2871660590172 290.50698009878397 516.53480665385723 654.22927019000053 503.28835955634713 13203.307494029403 519.04528678022325 13214.757881687954 6910.0128498785198 5428.1568323075771 245.41172794252634 223.4519392773509 90.122381709516048 6.0445704981684711 562.99193223565817 1617.7529113143682 283.89737934619188 333.84762613475323 181.27925941348076 51.371929138898849 33.488963734358549 35.52690289914608 5.0023633055388919 19.363416627049446 459.39120448380709 11.598902178928252 161.24226813390851 89.656269831582904 132.33497185632586 9.802541412413122 117.48831777647138 4.1999440193176261 212.80686449632049 15.41890446282923 36.145657606422901 20.898476626724012 21.403193019330502 49.916093070060015 28.586857538670301 17.268465727567673 20.543438628315926 120.18131794780493 2.5728474222123614 2.2044056430458978 1.822763234376908
leaf_count=1559 24281 1085 7543 23138 9271 2650 16642 1309 1911 19012 17580 6843 11797 2566 6080 608 254 3003 1026 14455 6390 27223 28228 10185 893 348 445 6 6952 1610 1128 2212 534 32 313 209 9 4 766 149 1153 606 318 75 155 1 4770 70 50 201 11 309 43 10 9 570 20 13 11
internal_value=0 0.0855943 0.0772354 0.0541755 0.0813276 0.10952 0.0282002 0.102586 0.00963995 0.0961009 0.110652 0.0776221 0.0713803 0.040923 0.00730485 0.148818 0.109379 0.0342516 -0.0199331 0.114029 0.0271609 0.118001 0.0010596 0.0908587 0.133101 0.0722878 0.0166405 0.0453114 0.025319 0.0963194 -0.0261481 -0.0160301 0.0574449 -0.0844832 0.111532 0.147862 0.254162 -0.108236 0.147829 -0.0528537 -0.0687797 -0.0262388 0.0407228 0.307732 0.361261 -0.0962491 -0.0648172 0.12987 -0.0301522 -0.028318 0.0976152 -0.120113 -0.0493259 0.205079 0.141987 -0.139859 -0.120432 -0.119574 -0.115501
internal_weight=0 98769.9 66201.9 29789.4 18506.5 12090.5 6415.95 32568 11282.9 36412.5 22921.1 9274.88 13491.5 3232.15 3145.17 655.201 29335.9 1709.58 1157.52 27626.3 1208.22 26418.1 10627.7 10346.3 13646.2 2585.5 2956.38 2092.92 1910.07 2078.15 507.349 1290.93 515.127 646.649 619.148 552.062 182.844 595.277 492.88 863.467 794.242 434.315 221.991 153.696 122.491 212.324 775.799 69.2253 126.268 29.1475 31.2057 359.927 78.503 53.2308 35.9623 281.424 15.9945 23.1029 13.4217
internal_count=268644 247304 186662 106729 51701 25788 25913 60642 55028 79933 44328 25855 35605 6997 13623 2519 53645 4492 4029 49153 7475 41678 52509 21982 18473 4395 21340 16512 16042 2919 1476 14468 2746 2602 1574 463 470 2570 1079 4828 4559 2484 924 250 164 1560 11722 269 495 220 86 2075 352 89 79 1723 180 214 160
is_linear=0
shrinkage=0.1


Tree=9
num_leaves=50
num_cat=0
split_feature=29 126 106 34 125 115 77 31 102 29 104 40 136 34 118 36 129 1 127 104 43 30 1 88 74 86 87 107 74 26 81 94 51 107 30 52 13 115 125 29 108 114 97 119 2 53 9 111 116
split_gain=1237.43 1622.84 1290.98 2999.09 1926.61 3254.4 4075.15 2488.45 1412.15 1161.66 1049.63 1325.37 932.893 1792.63 859.651 631.617 459.124 339.143 314.374 283.116 265.698 127.942 115.512 99.3163 95.9101 89.048 98.6328 66.0572 62.3097 148.388 165.017 52.2354 46.8971 46.073 43.8817 35.4457 41.3074 23.3126 21.4479 13.0517 1.53612 1.49878 0.606818 0.317378 0.0852976 0.0470024 0.0382913 0.0364842 0.029623
threshold=1.2352868914604189 -1.1832735538482664 -0.90924230217933644 0.85022038221359264 -1.6814215183258054 -1.009238004684448 -1.1894613504409788 0.99021896719932567 -0.90248510241508473 1.2119062542915346 -0.88087511062622059 0.98585745692253124 1.0000000180025095e-35 0.92685878276824962 -1.1093758940696714 0.82831230759620678 1.0000000180025095e-35 0.59974759817123424 -1.2985162734985349 -0.92611640691757191 0.94946536421775829 1.0967885255813601 0.54138857126235973 -1.1349267959594724 -1.0373816490173338 -1.1515139341354368 -1.1450949907302854 -0.83813276886939991 -1.0207040309906004 1.5359054207801821 -1.2117888927459715 -1.0484105944633482 1.0635315179824831 -0.99483960866928089 1.0993842482566836 0.82846248149871837 1.2114245891571047 -1.0141708254814146 -1.1264001131057737 1.2197031378746035 -0.98440119624137867 -0.93663451075553883 -0.96099737286567677 -0.96343815326690663 0.53522354364395153 1.0772284269332888 0.6524983048439027 -0.89386722445487965 -0.9515605866909026
decision_type=2 2 2 2 2 2 2 2 2 2 2 2 2 2 2 2 2 2 2 2 2 2 2 2 2 2 2 2 2 2 2 2 2 2 2 2 2 2 2 2 2 2 2 2 2 2 2 2 2
left_child=1 2 3 8 12 6 -6 -7 9 -1 16 -12 14 -14 -4 -10 -5 33 31 21 28 24 46 -23 -20 26 -21 45 29 38 -31 -19 -29 -2 -27 37 -37 -33 -3 42 -35 -41 -30 44 -42 -24 -22 -48 -45
right_child=17 20 4 10 5 7 -8 -9 15 -11 11 -13 13 -15 -16 -17 -18 18 19 25 22 23 27 -25 -26 34 -28 32 39 30 -32 35 -34 40 -36 36 -38 -39 -40 41 43 -43 -44 48 -46 -47 47 -49 -50
leaf_value=-0.037660846756914307 0.11000431544512626 0.0018194969772764643 0.084216841192173902 -0.094740729722324682 -0.10593660549483193 0.02486521381290329 0.049974319247296069 0.088387217001395985 0.13230144537275876 0.091454848761770874 0.098862280342449427 -0.021571412871764478 0.18847405638452142 -0.048671647855013489 0.13248444901604914 0.069544521957827593 0.097771619319081807 -0.2284434498603751 0.26141618352996115 0.092074113082287967 -0.12509927858476333 -0.15778030494881043 -0.11261170025132272 0.08130269270763496 -0.1410717701349978 0.12283380934614184 -0.11299042931112423 0.35897135795444446 -0.12712192891278029 0.19809567878504097 -0.12983629564025936 0.16684381837716736 0.13372252585507824 -0.18932191805357521 0.16381339845146245 0.15299879625017948 0.03715947314104897 0.19770315623696433 -0.11149804703875797 -0.14161819272705087 -0.13666343229047659 -0.16855842775768848 -0.11414741735178568 -0.12914009629360812 -0.14662433660231233 -0.13035043998405973 -0.10985777553034184 -0.1255074404551603 -0.11732690068903132
leaf_weight=1509.1168993096799 8.3243147134780866 18.078236930072308 16494.244564665481 1471.559224050492 2143.0567524619401 7232.5267404951155 7699.6638732999563 41864.707804977894 3917.1960860975087 1294.5800365395844 1334.5000999420881 2898.4333530701697 2389.545068949461 367.82357303053141 4753.1835481971502 2715.4516816921532 135.27117867581546 3.3569550812244406 6.502758026123046 367.52750472724438 2.0942345522344139 19.652661353349686 7.2005180418491346 149.91431970149279 66.121412239968777 1075.022476695478 25.05417987704277 11.083001688122748 44.227818006649613 38.819705598056316 25.375109188258648 750.13174252957106 55.679974300786853 6.4880115240812293 345.21755911409855 558.07493089139462 32.580504924058914 363.3960242420435 219.54880337417126 30.006296239793301 16.999722182750702 66.233028665184975 194.89872106350958 3.1512213945388794 17.392143294215202 1.8847188875079153 21.038829529657967 1.6032032743096305 6.5038721635937673
leaf_count=8250 8 102 33159 12701 9955 28485 23128 90927 6102 2552 3502 20930 1409 1366 5312 8738 425 14 1 420 14 104 92 269 410 764 77 4 328 74 189 203 97 27 112 369 58 102 4982 170 89 282 1870 19 87 17 279 17 53
internal_value=0 0.0722051 0.0733149 0.0466005 0.078235 0.0685087 0.0160278 0.0790298 0.081457 0.0219571 -0.00972342 0.0163972 0.102116 0.15684 0.0950146 0.106608 -0.0785341 0.130198 0.133924 0.107575 -0.075553 0.00602704 0.0754901 0.0535932 -0.105033 0.121142 0.0789871 0.136689 -0.0993962 -0.0664331 0.0684698 0.165635 0.171115 -0.107986 0.132795 0.166411 0.146609 0.176915 -0.102877 -0.129062 -0.143894 -0.160159 -0.116547 -0.137203 -0.141701 -0.116292 -0.112162 -0.110966 -0.121182
internal_weight=0 98958.6 98220.9 15276.1 82944.8 58940 9842.72 49097.2 9436.34 2803.7 5839.76 4232.93 24004.8 2757.37 21247.4 6632.65 1606.83 3821.41 3762.55 2055.01 737.772 242.191 100.584 169.567 72.6242 1812.82 392.582 75.8482 637.188 301.822 64.1948 1707.54 66.763 58.8593 1420.24 1704.18 590.655 1113.53 237.627 335.366 50.535 96.2393 239.127 44.047 34.3919 9.08524 24.7363 22.642 9.65509
internal_count=268644 265458 256941 63200 193741 152495 33083 119412 25642 10802 37558 24432 41246 2775 38471 14840 13126 3186 2903 2157 8517 784 520 373 411 1373 497 210 7997 5347 263 746 101 283 876 732 427 305 5084 2650 275 452 2198 248 176 109 310 296 72
is_linear=0
shrinkage=0.1


Tree=10
num_leaves=58
num_cat=0
split_feature=30 135 45 104 28 104 4 36 33 103 74 31 100 105 73 0 32 15 130 30 102 79 105 29 104 50 116 74 123 90 74 30 128 67 103 29 82 123 112 69 18 95 93 30 11 32 30 107 90 70 112 109 30 114 75 76 112
split_gain=1236.39 2471.02 1983.39 1415.16 1917.54 2488.54 1799.18 1729.61 1208.25 879.788 811.484 1038.05 725.658 681.208 602.648 620.991 532.025 464.647 420.759 390.162 360.356 322.531 469.653 871.781 483.505 328.816 308.958 299.388 251.434 229.734 194.255 176.156 152.162 140.446 109.968 105.381 103.661 119.242 85.5616 79.3792 76.7211 80.732 189.678 58.2397 49.7781 48.9419 37.3026 26.4049 72.131 105.047 9.44787 16.13 7.76404 6.93016 1.12847 0.457427 0.213315
threshold=1.088148891925812 1.0000000180025095e-35 0.79786801338195812 -0.89155805110931385 1.204697370529175 -0.8388746678829192 0.6149757206439973 0.9031757414340974 0.86252647638320934 -0.8700219690799712 -0.98670995235443104 0.99746713042259227 -0.96541261672973622 -0.85458058118820179 -0.85640564560890187 0.68340349197387706 0.93266782164573681 1.1050137877464297 1.0000000180025095e-35 1.0848523974418642 -0.93628320097923268 -0.96998670697212208 -0.90060019493103016 1.2119062542915346 -0.9110455811023711 1.0743919014930727 -0.9447742998600005 -1.0301512479782102 -1.1179558634757993 -1.154572010040283 -1.0031903386116026 1.1032389402389529 1.0000000180025095e-35 -0.24650528281927106 -0.96901783347129811 1.2197031378746035 -1.0677644610404966 -1.0964360833168028 -0.91064834594726551 -0.23510704189538953 1.670117259025574 -1.1089082956314085 -1.152307331562042 1.0864423513412478 1.0519213676452639 0.93102124333381664 1.0993842482566836 -1.0031586289405821 -0.85154348611831654 -0.53386235237121571 -1.1199795007705686 -1.0571804642677305 1.0957564711570742 -1.1841960549354551 -1.1145666241645811 -1.0314393043518064 -0.91781511902809132
decision_type=2 2 2 2 2 2 2 2 2 2 2 2 2 2 2 2 2 2 2 2 2 2 2 2 2 2 2 2 2 2 2 2 2 2 2 2 2 2 2 2 2 2 2 2 2 2 2 2 2 2 2 2 2 2 2 2 2
left_child=1 3 20 8 5 7 -7 -5 14 19 11 -6 31 16 17 -16 -11 -1 -12 35 38 22 23 24 -14 32 39 -25 -28 -21 33 40 -24 -22 55 -4 37 -36 43 -10 41 42 -2 -3 -32 -15 -43 48 49 -23 51 -49 -52 -50 -27 56 -33
right_child=12 2 9 4 10 6 -8 -9 26 13 18 -13 21 45 15 -17 -18 -19 -20 29 30 47 25 27 -26 54 28 -29 -30 -31 44 34 -34 -35 36 -37 -38 -39 -40 -41 -42 46 -44 -45 -46 -47 -48 50 53 -51 52 -53 -54 -55 -56 -57 -58
leaf_value=0.17028832768303287 -0.11160934772158337 -0.14553223101071175 -0.10224746993987249 0.04419880847270747 -0.042995761895731177 0.074400629649849753 -0.065084165095408611 -0.042005795691397008 -0.05909874726609439 0.073816732019812994 0.1287693759627874 0.09255786831943344 -0.030462530873032551 -0.15401717178203531 0.06433650583900076 0.29267819148541868 -0.048020694210976565 -0.043024693353959781 0.063338369527836808 -0.14545719452656827 -0.017850697206656781 0.15457400021959017 0.1268650272169102 -0.10714915627753883 0.068491013109528487 -0.1232382042622934 0.14073749178135986 0.11023556313428562 -0.097131925297631677 0.016202406943603326 0.17680473376380146 -0.12870912496383904 -0.1678458757412277 0.18439938024868013 -0.14417407108543639 -0.014299182908000052 0.17452668257950668 0.061710392571067946 0.10258257496668366 -0.11136424009908499 0.1336791497622081 -0.13149226882431753 0.89705000035818283 0.043547379945442999 0.1252325630589721 -0.036657432498669949 -0.043781368894720896 0.16367410576848207 0.13234374619176661 -0.052892213287565853 0.16925280194467215 0.06369681036254829 0.15116204815685105 0.18216500297256805 -0.15441892863574611 -0.16850996657647754 -0.15104467357158197
leaf_weight=116.07891202718019 5.8886633329093456 74.404431696981192 1686.8995934575796 9314.7664404958487 719.60444646701217 55739.655690712854 940.34481892921031 3102.7859345152974 551.36364829353988 1273.3080880790949 8140.8374698199332 2628.3126200810075 886.39562162384391 214.7363077737391 1789.406658494845 127.59338970668614 498.8013875503093 848.84527382068336 1117.7427100390196 103.01401118934155 150.52549374103546 49.816894143819809 3965.0563811063766 64.468735583126545 1114.8194358162582 20.929968185722828 117.93657313287258 3664.9076271802187 71.303583793342113 599.41629224643111 240.77247558534145 22.243691314011819 17.596895031630993 44.480396792292595 34.607494719326496 148.21161637455225 59.91915200650692 150.31640431657434 25.351420167833567 614.3927830606699 15.993676006793974 155.49085652828217 2.7280613556504232 20.85676097124815 840.48630916327238 42.579825975000858 70.459558080881834 35.605428382754326 40.561589010059834 47.845123268663883 369.40094044804573 29.513716205954552 663.04811285436153 89.582527548074722 26.057394079864025 4.1787378042936316 5.2934692166745654
leaf_count=476 73 452 10855 31622 4153 124753 7776 15929 3971 3629 9846 5037 3739 994 6044 260 2270 6950 2036 715 410 22 4510 336 2825 179 224 4076 622 2194 104 147 89 22 188 502 31 480 29 6994 16 1134 2 35 625 142 339 12 42 184 125 42 184 21 121 18 38
internal_value=0 0.0625058 0.000260539 0.0668253 0.0697474 0.0632038 0.0720865 0.0226588 0.0104745 -0.0316332 0.105614 0.0634218 0.0971355 0.0174457 0.0470913 0.0795347 0.0395228 -0.0173635 0.12087 -0.0708846 0.104534 0.102586 0.0963009 0.0779062 0.0246616 0.12246 -0.0674054 0.106478 0.0511109 -0.00750557 0.120148 -0.0175013 0.125563 0.0282821 0.0375233 -0.0951444 0.0602185 0.0231802 -0.060685 -0.0866444 -0.0782351 -0.0926843 0.207733 -0.104135 0.136717 -0.134597 -0.104141 0.148874 0.117893 0.0529352 0.155305 0.118362 0.157635 0.166637 -0.14053 -0.137681 -0.133003
internal_weight=0 91904.8 5963.84 85941 81704.1 69097.6 56680 12417.6 4236.92 4566.97 12606.5 3347.92 11612.7 2029.43 2881.92 1917 1772.11 964.924 9258.58 2537.54 1396.88 11085.6 9760.23 5730.59 2001.22 4029.64 1355 3729.38 189.24 702.43 1276.26 527.12 3982.65 195.006 276.559 1835.11 244.843 184.924 120.613 1165.76 250.561 234.567 8.61672 95.2612 1081.26 257.316 225.95 1325.37 227.806 97.662 1097.57 65.1191 1032.45 130.144 46.9874 31.7159 27.5372
internal_count=268644 249671 22978 226693 201152 180080 132529 47551 25541 21301 21072 9190 18973 7035 13730 6304 5899 7426 11882 14266 1677 16507 15875 10976 6564 4899 11811 4412 846 2909 1161 2466 4599 432 902 11357 699 668 516 10965 1564 1548 75 487 729 1136 1473 632 269 206 363 54 309 63 300 203 185
is_linear=0
shrinkage=0.1


Tree=11
num_leaves=57
num_cat=0
split_feature=124 52 75 114 114 77 111 112 79 111 123 108 74 31 77 131 13 106 72 33 32 47 112 45 45 124 89 1 88 52 117 51 57 38 114 40 113 120 58 53 108 113 46 108 122 113 60 114 114 114 39 114 39 113 112 108
split_gain=1118.93 1477.46 1184.7 2882.58 1814.62 5207.74 1830.11 1639.82 1330.39 2625.38 1556.46 1094.8 1544.9 1010.61 1093.06 813.757 693.483 689.699 546.92 670.31 492.676 476.67 433.257 1093.86 397.982 282.118 274.087 266.236 221.75 124.921 116.567 51.2184 109.746 59.5537 43.8403 40.7854 124.269 28.7977 23.2371 22.4397 36.8859 19.1934 7.61739 4.7828 2.54295 1.24436 0.377559 0.250542 0.221166 0.191309 0.078725 0.0398718 0.00495312 0.000625115 0.000190985 0.000125554
threshold=-2.4753770828247066 1.1392614245414736 -1.0998676419258115 -0.93663451075553883 -0.97038111090660084 -1.2128899097442625 -0.92731830477714527 -0.95564526319503773 -1.3257653117179868 -0.9015921652317046 -1.2884213328361509 -1.0287385582923887 -0.79470199346542347 0.99628755450248729 -1.2768570780754087 1.0000000180025095e-35 0.77397358417510997 -0.82000914216041554 -0.48725898563861841 0.93686160445213329 0.95531782507896434 1.2403023838996889 -1.2803693413734434 1.1984179615974428 1.2032070755958559 -1.8238830566406248 -1.1918978095054624 0.39267817139625555 -0.22835054248571393 1.1567848920822146 -1.5430975556373594 1.1635676622390749 0.95856773853302013 0.98009970784187328 -1.3754599690437315 1.0609362721443178 -1.3202517628669737 -1.7581802606582639 0.90050712227821361 1.1285132169723513 -1.0457671284675596 -1.3202517628669737 1.2111608982086184 -1.0457671284675596 -2.0661145448684688 -1.3328776955604551 0.8045366406440736 -1.383667469024658 -1.3909839391708372 -1.3797678947448728 1.0020267367362978 -1.3909839391708372 1.0204147100448611 -1.324844181537628 -1.286915063858032 -1.0257566571235655
decision_type=2 2 2 2 2 2 2 2 2 2 2 2 2 2 2 2 2 2 2 2 2 2 2 2 2 2 2 2 2 2 2 2 2 2 2 2 2 2 2 2 2 2 2 2 2 2 2 2 2 2 2 2 2 2 2 2
left_child=21 2 3 15 5 6 -4 -7 9 -6 -10 31 17 16 -15 26 -5 25 19 -14 -17 22 23 30 -20 -13 -2 -19 29 -24 46 32 43 -34 37 41 -37 -25 -32 40 -33 -30 -41 -3 45 48 -1 51 54 -47 -51 55 -49 -54 -23 -46
right_child=1 11 4 13 8 7 -8 -9 10 -11 -12 12 18 14 -16 20 -18 27 24 -21 -22 44 28 34 -26 -27 -28 -29 35 -31 38 39 33 -35 -36 36 -38 -39 -40 42 -42 -43 -44 -45 47 49 -48 52 -50 50 -52 -53 53 -55 -56 -57
leaf_value=-0.14242805218744467 -0.154978945642927 -0.10692286548349637 -0.10778537969642217 0.13032959323864707 -0.090836383913110927 0.057488200846350805 0.039479308725147086 0.12467784732374905 0.14530899464002414 0.077946665471413962 0.082173631630825694 0.029609687596517983 0.094110157155083765 0.030858908573182305 0.099719459357022783 0.047091253771964686 -0.019839051603723675 0.0087748110682098462 0.086826659359234212 0.29290347097939923 -0.14076507513573916 -0.10633649274156996 0.17326411353720914 -0.061386748859085342 -0.055723238727075936 -0.11431136928295216 -0.071005105283494838 0.18630233935056492 0.120515686232777 0.33019560838866935 0.20531687203367285 -0.10541482189179474 0.14087259590451037 -0.15458328160342383 0.10619535913776759 -0.16461929303526321 0.13496329994819264 -0.18211378487121541 0.13070378062615026 -0.074068281069530104 -0.17774804321335971 0.13901325668383827 -0.1149438171464497 -0.18009090837000397 -0.10487199996583532 -0.16255870068095407 -0.11110440256759933 -0.13365625556424343 -0.14707818548528179 -0.19528764322506684 -0.18111563842719366 -0.12179310398220078 -0.13660164449913434 -0.13797660860387637 -0.10807858616039377 -0.10623490654448042
leaf_weight=5.559555388987067 685.43960740044713 13.170770244672893 2531.637990154326 354.2971743568778 1174.1883230879903 46496.924882290885 1265.8192773424089 3940.1820870563388 5083.284966006875 4283.8171940483153 16842.09162723273 159.65214375406504 743.6075501292944 4098.3440277781337 5268.4822021722794 735.10332085192204 2329.358444172889 633.65760310739279 473.60019545257092 219.74142627418041 172.33736584708095 1.3926984779536726 124.73454481363297 22.609953057020903 333.95724438503385 927.27302241884172 897.79424409009516 97.470636285841465 878.2094119489193 85.488543331623077 46.455451440066099 124.36352683231235 31.251808625645936 8.7273386539891344 6.0780792832374564 18.84909351170063 52.167689859867096 156.65652142465115 411.20275634154677 55.373441956937313 162.77076544240117 1552.7666071951389 258.06805082131177 27.771651584655046 1.7673112973570826 5.0687380880117443 12.499695792794226 3.7030335664749172 3.0468510687351218 4.8589311242103603 20.277132421731949 3.0757326185703304 4.2954583764076295 14.362756133079523 1.148046553134918 1.0945440381765363
leaf_count=44 3901 248 11580 415 4383 124516 3223 5457 4974 7024 27363 444 1412 18283 8280 2472 17947 1672 859 159 888 25 28 257 1624 4734 4235 337 333 32 35 2971 53 102 5 94 21 1259 243 592 916 328 4214 135 40 22 177 20 14 20 82 21 22 72 17 20
internal_value=0 0.0575884 0.0601444 0.0338477 0.0648295 0.0542344 -0.0586971 0.0627371 0.0858138 0.0416361 0.0968112 3.31781e-05 0.0220968 0.0540894 0.0695903 -0.0640866 -1.37334e-05 -0.0426563 0.0885738 0.139455 0.0114144 0.115611 0.120744 0.048152 0.0278766 -0.0931716 -0.10736 0.032442 0.138437 0.237081 0.128444 -0.11616 -0.0414754 0.0763754 -0.157932 0.130149 0.0554489 -0.166887 0.138278 -0.126223 -0.146419 0.132331 -0.107723 -0.156553 -0.15455 -0.172262 -0.120747 -0.132148 -0.12891 -0.180281 -0.183855 -0.113889 -0.136997 -0.13766 -0.107124 -0.105393
internal_weight=0 100430 96159.1 14541.2 81617.9 54234.6 3797.46 50437.1 27383.4 5458.01 21925.4 4270.46 3588.96 12050.5 9366.83 2490.67 2683.66 1818.05 1770.91 963.349 907.441 3437.37 3373.28 661.062 807.557 1086.93 1583.23 731.128 2712.22 210.223 475.717 681.497 80.9216 39.9791 185.345 2501.99 71.0168 179.266 457.658 600.576 287.134 2430.98 313.441 40.9424 64.0912 35.7924 18.0593 28.2988 5.5876 30.2048 25.1361 5.93759 22.3612 18.6582 2.54075 2.86186
internal_count=268644 265413 244941 56421 188520 144776 14803 129973 43744 11407 32337 20472 11241 44925 26563 11496 18362 7187 4054 1571 3360 3231 2856 2020 2483 5178 8136 2009 836 60 499 9231 538 155 1521 776 115 1516 278 8693 3887 661 4806 383 375 180 221 195 56 124 102 81 114 94 42 60
is_linear=0
shrinkage=0.1


Tree=12
num_leaves=57
num_cat=0
split_feature=124 52 127 0 134 49 114 72 102 102 49 80 108 14 123 130 71 60 115 47 81 113 47 101 31 9 129 88 117 122 47 106 52 51 107 52 114 120 43 122 52 108 58 51 122 114 60 114 114 114 43 114 40 113 112 108
split_gain=1074.09 1181.71 1124.44 2675.19 1743.54 3284.78 1534.98 1187.75 1941.38 1544.74 1621.25 1173.89 942.129 1305.57 903.127 843.689 704.267 549.517 526.178 408.79 392.056 380.333 817.928 360.061 293.945 176.889 158.35 140.914 97.9445 87.7475 216.242 80.492 59.6848 47.8178 94.3294 58.8348 24.4508 23.2492 27.2782 18.7357 17.2136 23.3225 14.4527 10.5026 1.60965 0.776371 0.290503 0.170645 0.149476 0.108422 0.0608299 0.0283161 0.00325579 0.000434414 0.000138775 9.15079e-05
threshold=-2.4753770828247066 1.1392614245414736 -1.9334334731101988 0.35056358575820928 1.0000000180025095e-35 1.0870500802993777 -0.93911314010620106 -0.53386095166206349 -0.73979356884956349 -0.78479149937629689 1.1484677195549013 -1.399096608161926 -1.0287385582923887 0.75558021664619457 -1.3199018836021421 1.0000000180025095e-35 -0.34165264666080469 0.85414332151412975 -1.4312604069709776 1.2403023838996889 -1.3985601663589475 -1.3328776955604551 1.2100810408592226 -0.72654345631599415 0.99401620030403148 0.67676466703414928 1.0000000180025095e-35 -0.22835054248571393 -1.5430975556373594 -2.0661145448684688 1.2176240682601931 -0.94588959217071522 1.1567848920822146 1.1635676622390749 -0.96687212586402882 1.1489801406860354 -1.3754599690437315 -1.7581802606582639 1.1582388281822207 -2.0661145448684688 1.1567848920822146 -1.0457671284675596 0.90050712227821361 1.1814466714859011 -2.0661145448684688 -1.387301445007324 0.8045366406440736 -1.383667469024658 -1.3909839391708372 -1.3797678947448728 1.1703510880470278 -1.3909839391708372 1.0628889799118044 -1.324844181537628 -1.286915063858032 -1.0257566571235655
decision_type=2 2 2 2 2 2 2 2 2 2 2 2 2 2 2 2 2 2 2 2 2 2 2 2 2 2 2 2 2 2 2 2 2 2 2 2 2 2 2 2 2 2 2 2 2 2 2 2 2 2 2 2 2 2 2 2
left_child=19 2 7 6 11 -6 26 9 16 10 -2 -5 33 17 -8 -11 -9 24 -10 21 25 22 28 -22 -14 -15 -4 32 46 36 -31 -19 -23 34 35 -3 -29 38 -24 -39 41 -35 -30 -42 45 48 -1 51 54 -47 -51 55 -49 -54 -21 -46
right_child=1 12 3 4 5 -7 14 8 18 15 -12 -13 13 20 -16 -17 -18 31 -20 44 23 27 37 -25 -26 -27 -28 29 42 30 -32 -33 -34 40 -36 -37 -38 39 -40 -41 43 -43 -44 -45 47 49 -48 52 -50 50 -52 -53 53 -55 -56 -57
leaf_value=-0.13866763097326737 0.066888914920911022 -0.14887040060911433 -0.13798603307077256 -0.031386765242031954 0.04852451696379171 -0.11821950205657031 0.14179928626783325 -0.012783863797936633 -0.08068479000901313 0.11294814967762488 -0.042238214234819105 0.05810219990378318 0.084590366129747907 0.15806292501847302 -0.048924001038013351 0.029013937283431847 -0.14440586249791867 0.15589566295538532 0.081815559435725271 -0.10569762970213176 -0.084390532955545383 0.16182930639292389 0.084221745440068316 0.04783135758708585 0.24017913322213597 -0.052196737041889374 -0.071301949318451338 0.10436404098747476 0.18275129523255706 0.23648419246611732 -0.13529783230333955 -0.075238344574530491 0.26527528622349483 -0.10493683818408495 0.13293914586630681 0.15899004134421962 0.13067115860107412 -0.20033042984843324 -0.14351468120238001 -0.12306596825018593 -0.061921818114279374 -0.16382614155604458 0.12295464005686324 -0.1136859372102917 -0.10438702734068309 -0.15361427973099562 -0.1100041082492943 -0.1294628245649915 -0.14055045557972698 -0.18012451839534238 -0.16753888701153602 -0.1192964105072887 -0.13188272485928806 -0.13308805779243435 -0.10725365531800793 -0.10560706974395857
leaf_weight=5.1598799955099848 14325.221351926215 48.252353887073696 1040.1730990540236 1507.9552161749452 3788.7310329116881 1716.752540986985 481.31321902573109 1942.4917622767389 210.58749201893806 10948.253014665097 1504.3666136628017 52498.650414858013 1530.80356349051 127.20045101828873 512.80347799975425 1344.666215762496 514.11024113185704 16.080227959901094 3705.0093375146389 1.267393369227648 1231.4278657697141 134.65137724578381 8.1984891183674353 247.31651746854186 131.88673145323992 58.373680865392089 541.475730586797 430.79965817928314 46.939439445734024 25.563222587108612 40.320343390107155 239.10020130127668 95.213428288698196 112.77527656406164 22.659896329045296 7.1241653710603705 1963.9530345201492 82.702836576849222 14.672215681523083 50.577053314074874 47.145731705240905 166.60167098045349 291.01046459376812 232.44233129546046 1.6061796844005587 4.8432741612195995 11.233920523896812 3.4518698155880001 2.873775601387023 4.7684569656848934 19.730251252651215 2.8382713869214085 3.8298948407173219 13.636902287602419 1.0463766381144521 0.99597151204943646
leaf_count=44 38756 504 5141 14698 10595 8448 300 7754 3397 10690 6263 122490 2964 289 2398 2698 2444 27 6811 25 5543 29 30 463 99 593 2058 211 35 7 217 1263 31 2952 29 5 460 669 230 532 609 989 185 4143 40 22 176 20 14 20 82 21 21 73 17 20
internal_value=0 0.0515996 0.0538626 0.0458201 0.0501386 -0.00347059 -0.0539553 0.0683386 0.0293561 0.0771715 0.056518 0.0556035 -0.000203511 0.0197232 0.0434169 0.103767 -0.0403293 0.0759619 0.073076 0.109904 -0.0450831 0.114786 0.035653 -0.0622767 0.0969319 0.0919242 -0.115157 0.129801 0.119681 0.122806 0.00895584 -0.0606734 0.204678 -0.112262 -0.0389342 -0.109264 0.125939 -0.155026 -0.0618777 -0.17101 -0.122499 -0.140054 0.13126 -0.104957 -0.146775 -0.160981 -0.119026 -0.128166 -0.125319 -0.167286 -0.169989 -0.112389 -0.132269 -0.132824 -0.106401 -0.104854
internal_weight=0 100802 96582.6 62087.9 59512.1 5505.48 2575.77 34494.7 6372.2 28122.5 15829.6 54006.6 4219.19 3582.19 994.117 12292.9 2456.6 1917.87 3915.6 3261.88 1664.32 3201 510.494 1478.74 1662.69 185.574 1581.65 2690.5 354.344 2460.64 65.8836 255.18 229.865 637.001 78.0364 55.3765 2394.75 156.151 22.8707 133.28 558.965 279.377 337.95 279.588 60.8886 34.5295 16.3938 26.3591 5.18755 29.342 24.4987 5.44042 20.9187 17.4668 2.31377 2.60215
internal_count=268644 265413 244941 166128 156231 19043 9897 78813 20406 58407 45019 137188 20472 11241 2698 13388 10198 4353 10208 3231 6888 2856 1901 6006 3063 882 7199 955 440 895 224 1290 60 9231 538 509 671 1461 260 1201 8693 3941 220 4752 375 180 220 195 56 124 102 81 114 94 42 60
is_linear=0
shrinkage=0.1


Tree=13
num_leaves=58
num_cat=0
split_feature=30 135 29 103 70 102 30 115 114 39 81 104 30 57 71 130 33 100 104 131 98 30 58 65 105 105 23 21 93 1 63 54 82 73 73 126 102 77 38 112 76 104 4 29 32 37 86 53 31 0 102 99 103 57 4 126 43
split_gain=1032.42 1636.94 1447.93 1107.85 3181.93 1209.46 2356.8 1224.11 1140.07 1056.54 822.253 924.947 863.569 697.657 803.938 661.369 645.695 447.576 325.758 295.781 274.864 213.09 208.299 199.091 192.401 173.96 371.775 151.286 148.882 126.442 122.836 117.206 108.589 102.082 92.09 79.7386 76.3906 100.816 74.7047 67.27 185.4 61.5571 61.3254 48.841 45.393 40.7609 34.4251 44.8212 11.1309 6.18748 2.17904 1.61066 0.255689 0.422889 0.233326 0.118132 0.115916
threshold=1.0938259959220888 1.0000000180025095e-35 1.2301249504089358 -0.74842834472656239 -0.19616647064685819 -0.78479149937629689 1.0506383776664736 -1.2991763949394224 -1.3797678947448728 1.0073702931404116 -1.2655252218246458 -0.90217456221580494 1.0818835496902468 0.9446639120578767 -0.33795166015624994 1.0000000180025095e-35 0.75884991884231578 -0.96541261672973622 -0.92291519045829762 1.0000000180025095e-35 -0.98490360379219044 1.0894061326980593 0.85597890615463268 0.18012604862451556 -0.82480749487876881 -0.89859494566917408 1.5619505047798159 1.4136129021644595 -1.0512742996215818 0.51260319352149974 0.099333986639976515 1.0626575946807864 -1.0677644610404966 -0.93989467620849598 -0.95354530215263356 -1.2763022780418394 -0.94614490866661061 -1.1504999399185178 0.74056074023246776 -0.92124792933464039 -1.1752882599830625 -0.86614984273910511 0.69862517714500438 1.2352868914604189 0.82960063219070446 0.99983137845993053 -1.0347081422805784 0.7342127561569215 0.99021896719932567 0.50749883055686962 -0.94614490866661061 -0.98019945621490467 -0.89320233464241017 0.83639809489250194 0.65573623776435863 -1.289189279079437 0.98806738853454601
decision_type=2 2 2 2 2 2 2 2 2 2 2 2 2 2 2 2 2 2 2 2 2 2 2 2 2 2 2 2 2 2 2 2 2 2 2 2 2 2 2 2 2 2 2 2 2 2 2 2 2 2 2 2 2 2 2 2 2
left_child=1 3 10 4 5 6 -1 -7 9 24 39 21 -13 22 -15 16 -10 32 44 23 27 -12 -6 25 -5 26 -19 54 30 -27 -20 -11 33 34 35 -2 51 -38 -36 48 -41 49 -29 -30 50 -17 -34 -48 -3 -22 -4 -35 56 -54 -21 -49 -25
right_child=17 2 18 8 13 7 -8 -9 15 31 11 12 -14 14 -16 45 -18 19 28 20 41 -23 -24 52 -26 29 -28 42 43 -31 -32 -33 46 36 38 -37 37 -39 -40 40 -42 -43 -44 -45 -46 -47 47 55 -50 -51 -52 -53 53 -55 -56 -57 -58
leaf_value=0.0070986567831116997 0.1561823353810583 -0.14259018791766384 -0.13253088591275991 -0.083051492258498241 0.052793019156852188 -0.03658356568725829 0.054079467904054837 0.083552600786809025 -0.11570953709787607 0.0060859076022013658 -0.10559719077700594 -0.020521078658434541 0.069064396284289134 0.0074494838773693549 -0.14399499218938869 -0.16144770656174862 0.097936620013522116 0.05178528051984891 -0.0056535770091000991 -0.1198572218733117 -0.13979325638001558 -0.021969344948297075 -0.12916884311222154 -0.14355339840911829 0.10261647055767641 -0.083308814865992162 0.10648540402429148 0.29267242813158723 0.029612692753870531 0.13074258072720266 0.11534987159007055 -0.11457282150930317 0.14361044993299521 -0.13145598794753771 0.14713456674912681 -0.12506144199856575 -0.078508935540236982 0.12086773335878379 -0.038609744086098755 -0.14101487941130272 0.028747272590622097 0.14742970244702633 0.042527589445070305 0.12345617890182776 0.083778574794301341 0.040370567803444529 0.16353061421833415 -0.1713533959144721 -0.1804413897521755 -0.19102905425818442 -0.1703551437869594 -0.15758186103277738 -0.18292206832713168 -0.1443107775619285 -0.14330765687667579 -0.14912179217576144 -0.12753879310580024
leaf_weight=13857.860298480839 12.681815147399901 178.83190732076764 30.20610827207565 61.955296689644456 67.273072468116879 906.43408315442502 46531.114021901973 13191.302725018933 143.69404719490558 93.909197000786662 930.23782898485661 2688.4382502604276 1794.0948573499918 1984.7882869616151 425.7031556982547 107.88449819199741 9103.8969857320189 1949.9392909705639 207.05986624956131 7.8123759627342251 47.050189424306154 453.10290624573827 970.24689630046487 8.8312180638313311 562.93854523450136 28.169639907777309 3424.8945030644536 31.873835191130638 58.591022752225399 1356.6280016005039 141.03691078722477 564.08706370554864 52.427971974015236 58.748895447701216 67.94838148355484 49.155352756381035 94.316853825002909 34.690144717693329 31.780276395380497 232.68090836890042 88.915699001401663 6.7370293438434592 14.152312785387037 1037.6526926159859 9.4659092202782613 11.030653074383734 7.541470184922221 5.4146551638841638 137.36848721653223 47.231770761311054 30.721707016229633 39.438322573900223 3.5893966108560589 13.525058612227438 9.2862443774938566 4.2789782732725117 9.2577345520257932
leaf_count=58266 2 1022 194 793 259 4716 111008 19258 1587 1129 5728 10971 4017 4431 2480 636 10276 4032 397 61 274 1735 4798 45 669 110 2785 30 111 886 123 10056 32 388 115 428 446 18 220 1869 231 3 42 526 15 23 4 24 620 206 141 186 15 71 50 22 64
internal_value=0 0.0453254 0.00205843 0.0492418 0.0451079 0.0494552 0.0432985 0.0758283 0.0794946 -0.00891443 -0.0184493 -0.00672474 0.0153347 -0.0488071 -0.0192963 0.0916036 0.0946169 0.0840392 0.0901107 0.0903439 -0.0423008 -0.0782055 -0.11737 0.0935482 0.0842084 0.0947835 0.0866407 0.121399 0.100349 0.126388 0.0433729 -0.0973524 -0.0116686 -0.032271 0.0284947 -0.0673828 -0.0754837 -0.0248963 0.0879439 -0.126282 -0.0940787 -0.144594 0.215757 0.118441 -0.119951 -0.142727 0.103305 -0.0193006 -0.159034 -0.16546 -0.151603 -0.14195 -0.143647 -0.152409 -0.132593 -0.16154 -0.135357
internal_weight=0 96602.5 8018.41 88584.1 77934.7 74486.7 60389 14097.7 10649.4 1282.89 6503.67 5865.87 4482.53 3448.01 2410.49 9366.51 9247.59 7417.4 1514.73 6958.98 164.144 1383.34 1037.52 6794.83 624.894 6759.63 5374.83 63.1248 1444.34 1384.8 348.097 657.996 458.423 388.76 161.566 61.8372 227.194 129.007 99.7287 637.797 321.597 101.019 46.0261 1096.24 70.3937 118.915 69.6631 17.2351 316.2 94.282 60.9278 98.1872 35.2034 17.1145 17.0986 9.69363 18.089
internal_count=268644 258085 27700 230385 205216 193248 169274 23974 25169 12647 26193 22451 14988 11968 6911 12522 11863 10559 1507 8674 666 7463 5057 8008 1462 7813 6817 183 1157 996 520 11185 1885 1803 765 430 1038 464 335 3742 2100 483 72 637 350 659 82 50 1642 480 335 574 195 86 111 46 109
is_linear=0
shrinkage=0.1


Tree=14
num_leaves=52
num_cat=0
split_feature=124 30 104 68 30 126 0 114 74 104 58 100 33 56 20 108 73 79 105 30 48 53 113 47 31 30 103 82 18 95 50 114 75 107 90 45 120 43 113 43 9 114 114 42 45 114 122 76 114 118 112
split_gain=1021.89 996.354 1810.67 1280.45 1217.09 1770.51 1949.96 1775.78 985.472 912.103 585.54 510.018 456.196 467.044 427.735 425.727 385.666 355.036 391.518 767.87 274.13 234.534 204.016 576.378 137.695 130.696 78.5375 71.7306 52.9734 55.5455 47.979 565.355 38.7047 30.9048 65.4387 27.8928 22.9114 21.9597 11.0828 10.8259 9.5865 11.6413 9.21548 3.64437 1.02224 0.521015 0.42389 0.275403 0.0881871 0.0758609 6.88281e-05
threshold=-2.5063022375106807 1.088148891925812 -0.87861457467079151 -0.087135236710309968 1.0717732906341555 -1.5908432602882383 0.43169257044792181 -0.97038111090660084 -1.0031903386116026 -0.91671404242515553 0.73023140430450451 -0.96541261672973622 0.91599920392036449 0.92930686473846447 1.2067235708236697 -0.8646765649318694 -0.84319564700126637 -0.96998670697212208 -0.90060019493103016 1.0979754924774172 1.2391579747200014 1.0264040231704714 -1.3328776955604551 1.2100810408592226 0.96169084310531627 1.1032389402389529 -0.96901783347129811 -1.0677644610404966 1.670117259025574 -1.1089082956314085 1.2067013382911684 -1.3654979467391966 -0.4492268562316894 -1.0031586289405821 -0.85154348611831654 1.2173660397529604 -1.7581802606582639 1.1582388281822207 -1.1400420665740965 1.1681533455848696 0.11334698647260667 -1.3909839391708372 -1.3909839391708372 1.134288012981415 1.2203381657600405 -1.383667469024658 -2.0661145448684688 -1.0314393043518064 -1.3909839391708372 -1.5790975093841551 -1.286915063858032
decision_type=2 2 2 2 2 2 2 2 2 2 2 2 2 2 2 2 2 2 2 2 2 2 2 2 2 2 2 2 2 2 2 2 2 2 2 2 2 2 2 2 2 2 2 2 2 2 2 2 2 2 2
left_child=20 2 3 8 5 7 -7 -4 15 -10 24 25 16 -14 -12 -2 -6 18 19 -13 22 -20 23 40 -5 28 47 -28 29 -3 32 35 -24 34 -19 -32 37 -25 -35 -33 41 -1 -38 -34 -22 48 49 -27 50 -47 -46
right_child=1 11 4 10 12 6 -8 -9 9 -11 14 17 13 -15 -16 -17 -18 33 21 -21 44 -23 30 36 -26 26 27 -29 -30 -31 31 39 43 38 -36 -37 42 -39 -40 -41 -42 -43 -44 -45 45 46 -48 -49 -50 -51 -52
leaf_value=0.055196163422154547 -0.060098613833442775 0.12599897938332807 0.037555807829046196 0.23976492568202237 0.059583563610277293 -0.077697182290174749 0.024006367116069807 0.080622303541952198 -0.042375421222745263 0.046970640144220054 0.15631404406295063 0.0089943369965912057 -0.11477505148923098 0.07116139745107028 -0.10608639813059872 0.067575233318973929 0.10288667825167526 0.028861300777500782 0.095057504214754285 0.083136540763162015 -0.20135781937184341 -0.1045580997826322 0.18398674147060345 0.071651310672746785 -0.12032900121556134 -0.12955705944770288 0.0085528185626325415 0.13578646756366949 0.099686415213795898 -0.10331866630809572 -0.36200178162651081 0.11985300513000699 0.12379029190996255 0.089055884415482317 0.13894804232112185 -0.18774630128848077 -0.10416682657676749 -0.14289865521594414 0.13511188054051754 0.1630151357805211 0.17635479504935722 0.12512407729059191 -0.19178251158616244 0.10432269063475151 -0.10453290783061922 -0.14939591824478377 -0.13063073016942997 -0.15788721388696045 -0.13048044654958871 -0.16299692072531191 -0.10570596488825555
leaf_weight=27.320469319820404 1972.8222759254277 11.098198015242813 43996.584909012541 67.217185068875551 3604.9118846021593 2300.5431240834296 10441.384889600798 12237.432204965502 1382.8257414307445 6577.1285946294665 64.877594139426947 2461.469587109983 239.17263916879892 310.43344997242093 1462.640136949718 301.02325389534235 4788.9563595801592 95.42351146042347 3892.6933111511171 3229.7222869992256 4.0822898000478736 59.763313313946128 109.22752952575684 7.860412139445546 12.611495584249495 25.648772630840543 184.12438230961561 58.352557793259621 15.337845027446745 218.90086463093758 20.043018147349358 138.44813856482506 1722.7615851610899 55.30556882917881 124.37561239302158 16.957647502422333 14.386151492595671 12.136115003377197 945.33402599394321 100.14470988512039 30.187230601906776 185.10350592434406 72.522464476525784 101.84543219208717 1.2233582697808745 5.2611678987741497 6.1907861977815655 3.9613616466522208 3.9637345522642127 18.594748288393021 0.84613001346588124
leaf_count=120 10926 75 113601 85 6950 13974 35343 18508 8434 18148 603 6867 957 634 11660 2736 4847 206 4553 4109 20 346 20 28 130 185 668 31 16 1473 110 40 419 51 63 73 415 207 312 21 18 46 344 46 30 24 35 18 23 79 17
internal_value=0 0.0417993 0.038265 0.00183139 0.0438017 0.0393014 0.00564389 0.0469278 0.0148637 0.0314492 -0.0811438 0.0696723 0.0785101 -0.00975276 -0.0949416 -0.0431965 0.0842893 0.074292 0.0678611 0.0510697 0.105303 0.0920392 0.109372 0.03838 0.182877 -0.0273265 0.0203973 0.0391718 -0.0802538 -0.0922533 0.120602 0.0815665 0.126165 0.125108 0.091155 -0.282139 -0.155073 -0.0585615 0.132566 0.137969 0.123624 0.11613 -0.177279 0.122704 -0.153928 -0.148562 -0.153947 -0.133347 -0.121745 -0.159997 -0.105013
internal_weight=0 101142 89760.6 11841.1 77919.4 68975.9 12741.9 56234 10233.8 7959.95 1607.35 11381.5 8943.47 549.606 1527.52 2273.85 8393.87 10864.1 9643.65 5691.19 2599.11 3952.46 2558.94 349.516 79.8287 517.424 272.087 242.477 245.337 229.999 2209.43 275.594 1933.83 1220.44 219.799 37.0007 106.905 19.9965 1000.64 238.593 242.611 212.424 86.9086 1824.61 40.1622 36.0799 30.0467 29.6101 6.03322 23.8559 2.06949
internal_count=268644 266509 247536 52722 194814 181426 49317 132109 40244 26582 12478 18973 13388 1591 12263 13662 11797 16507 15875 10976 2135 4899 1907 1178 215 2466 902 699 1564 1548 729 244 485 632 269 183 994 235 363 61 184 166 759 465 228 208 138 203 70 103 47
is_linear=0
shrinkage=0.1


Tree=15
num_leaves=50
num_cat=0
split_feature=124 29 31 130 127 114 134 22 122 74 106 81 28 30 106 119 48 1 101 3 113 47 30 73 74 14 125 50 114 37 122 53 59 45 71 39 4 43 114 103 114 107 45 73 114 122 114 118 112
split_gain=974.959 973.179 1124.23 2970.4 1616.96 1598.65 1056.45 1945.5 2237.66 1744.51 1256.99 1281.38 1243.67 830.811 456.339 275.402 238.534 230.175 255.122 281.405 183.696 494.261 169.942 69.7862 63.9375 51.5547 51.1122 46.952 463.085 40.479 37.7939 19.3857 30.411 13.7496 9.05806 31.6322 7.75926 7.58274 6.00889 4.60254 3.03506 1.85521 0.741342 0.59923 0.340301 0.271504 0.0618787 0.0471474 5.02721e-05
threshold=-2.5063022375106807 1.2301249504089358 0.99330979585647594 1.0000000180025095e-35 -2.1059830188751216 -1.253767132759094 1.0000000180025095e-35 1.3111243247985842 -1.4007806181907652 -0.93622201681137074 -0.91085568070411671 -1.3511271476745603 1.2623494863510134 1.0859063863754275 -0.86052685976028431 -0.88910388946533192 1.2391579747200014 0.56401988863945018 -0.94225880503654469 0.69663172960281383 -1.3328776955604551 1.2100810408592226 1.0993842482566836 -0.91379866003990162 -0.78129497170448292 1.296267628669739 -1.6160885095596311 1.2067013382911684 -1.3654979467391966 0.68342736363410961 -2.0661145448684688 1.1231171488761904 0.90056225657463085 1.2173660397529604 -0.19116628915071485 0.99848183989524852 1.0000000180025095e-35 1.1681533455848696 -1.3909839391708372 -0.93219098448753346 -1.3754599690437315 -0.9612554907798766 1.2203381657600405 -0.91379866003990162 -1.383667469024658 -2.0661145448684688 -1.3909839391708372 -1.5790975093841551 -1.286915063858032
decision_type=2 2 2 2 2 2 2 2 2 2 2 2 2 2 2 2 2 2 2 2 2 2 2 2 2 2 2 2 2 2 2 2 2 2 2 2 2 2 2 2 2 2 2 2 2 2 2 2 2
left_child=16 2 3 4 5 -2 10 8 -8 -9 12 -12 -4 -6 15 -5 20 26 19 39 21 34 -21 25 -16 -20 -3 30 33 -25 40 32 -23 -29 36 -36 -1 -30 -33 -19 -22 -28 -18 -43 46 47 48 -46 -44
right_child=1 17 6 14 13 -7 7 9 -10 -11 11 -13 -14 -15 24 -17 42 18 23 22 27 31 -24 29 -26 -27 41 28 37 -31 -32 38 -34 -35 35 -37 -38 -39 -40 -41 -42 43 44 -45 45 -47 -48 -49 -50
leaf_value=0.11560649852383501 0.0021590539311674129 0.15444420414732593 -0.051324120859632318 -0.061057034270515877 -0.0087067050170511352 0.06815177826599135 0.10718214488413758 0.0077608233933158521 -0.091620710875963338 0.12339328268969459 0.018284457038278752 0.061164491480174013 0.058757277212697349 0.045299677761574016 -0.15010069846974922 0.17940106182333349 -0.18765756144688042 -0.15898333036795431 0.12162272137768144 0.025434698678729745 0.11121375005250896 -0.13636691037770929 0.092388916625580075 0.12442663011103197 0.017056907911304205 0.060898895264743874 -0.20756944048289272 -0.2943693039401149 0.11652051718988032 0.079202318681898254 0.1928683045866442 -0.10432140013671834 0.13603965628493206 -0.17370898492912146 0.12357538380148998 -0.12960733415137707 0.16369977802189969 0.15367683650987954 -0.17870522787093096 -0.22782675102369121 0.12171833206390781 -0.12926939068586987 -0.10408359207642806 -0.15224386566713619 -0.14260127836159761 -0.12690135576229214 -0.12680451666853301 -0.15361271401697521 -0.10513504907555971
leaf_weight=158.4894812181592 5193.8609443195164 6.2838220596313468 2359.9600016847253 749.09097928740084 11642.876112629659 12518.038637645543 722.93525147438049 3808.7015880122781 2610.9824374206364 1984.5351174324751 8432.7605901919305 40147.293512847275 1816.0856337808073 3771.0836683399975 1012.1729170866311 50.865019727498293 3.9489960670471183 36.226172782480717 205.53277565538883 645.58120840787888 343.46467114984989 14.087787656113507 918.36559361964464 1567.535383567214 23.411777466535568 437.26065662503242 4.7336747944355002 22.054605066776276 128.670962870121 226.51898086071014 73.453687518835068 12.860931038856505 5.7795177213847628 16.516848683357239 21.242776870727543 6.4279027711600056 42.554101169109344 95.828881129622459 69.810083668678999 13.267970144748686 1380.804842621088 20.79814118519425 1.1114751212298868 24.998175114393238 4.9753539115190533 5.7577092200517681 3.6850976496934882 17.798241958022118 0.76955535262823094
leaf_count=80 28931 1 12772 3293 50664 23343 1061 11168 11285 2530 28508 69396 3656 8760 6596 249 20 204 106 1280 123 276 944 647 71 487 20 110 40 224 18 373 4 73 5 88 11 21 341 61 344 134 30 118 24 35 23 79 17
internal_value=0 0.0376844 0.0356625 0.021328 0.0281894 0.0488 0.0437609 0.0123481 -0.0485118 0.047372 0.0491955 0.0537212 -0.00345174 0.00450616 -0.102499 -0.0457676 0.101783 0.0853615 0.0881653 0.0573215 0.105734 0.0366141 0.0647509 0.108587 -0.146322 0.0803153 -0.114522 0.116844 0.0773865 0.118717 0.122619 -0.145818 -0.0571222 -0.242701 0.118403 0.064761 0.125786 0.132381 -0.167134 -0.177438 0.119626 -0.147971 -0.14664 -0.14181 -0.14189 -0.146302 -0.119272 -0.151207 -0.104514
internal_weight=0 100952 96844.7 34961.4 33125.9 17711.9 61883.3 9127.15 3333.92 5793.24 52756.1 48580.1 4176.05 15414 1835.54 799.956 2430.09 4107.1 4050.29 1613.44 2392.05 331.253 1563.95 2436.85 1035.58 642.793 56.8138 2060.79 263.071 1794.05 1797.72 102.538 19.8673 38.5715 228.714 27.6707 201.044 224.5 82.671 49.4941 1724.27 50.53 38.0464 45.7963 34.0974 28.5313 5.56613 22.7736 1.88103
internal_count=268644 266509 262283 121907 111698 52274 140376 26044 12346 13698 114332 97904 16428 59424 10209 3542 2135 4226 3953 2489 1907 1178 2224 1464 6667 593 273 729 244 871 485 994 280 183 184 93 91 61 714 265 467 272 228 252 208 138 70 103 47
is_linear=0
shrinkage=0.1


Tree=16
num_leaves=51
num_cat=0
split_feature=124 29 104 52 125 116 116 27 99 108 101 82 30 101 46 114 2 113 47 49 30 101 111 1 73 86 129 83 30 71 117 115 87 126 51 79 52 45 50 59 120 43 45 122 41 115 114 114 60 71
split_gain=933.509 868.621 1200.35 899.01 1165.19 2872.2 1118.41 701.274 837.379 684.767 1088.74 416.626 374.459 306.192 303.281 538.831 273.663 227.205 433.232 221.691 198.486 227.01 189.854 130.863 128.599 124.75 114.753 85.342 192.001 83.8 76.9993 60.4974 57.7996 44.7433 37.8579 19.4991 19.2995 18.655 17.0555 29.167 14.2281 15.8046 9.77258 12.9619 7.3526 4.77785 4.21373 1.44649 0.295602 0.130677
threshold=-2.4753770828247066 1.2228446006774905 -0.91018617153167714 1.1392614245414736 -1.6190898418426511 -1.0170196890830991 -1.0398095250129697 1.3437945842742922 -0.90178909897804249 -1.0287385582923887 -0.72165951132774342 -1.3762190937995908 1.1010996699333193 -0.94078725576400746 1.2253726124763491 -1.3591496944427488 0.66972556710243236 -1.3328776955604551 1.2100810408592226 0.91033360362052929 1.0979754924774172 -0.94944331049919117 -0.92783188819885243 0.50460141897201549 -0.95354530215263356 -1.2104678153991697 1.0000000180025095e-35 -1.1470985412597654 1.078192472457886 -0.66462931036949147 -1.5430975556373594 -1.1576912403106687 -0.22877353429794309 -1.7795152664184568 1.1635676622390749 -0.36701142787933344 1.1567848920822146 1.21228563785553 1.2067013382911684 0.9172937572002412 -1.7581802606582639 1.1582388281822207 1.2173660397529604 -2.0661145448684688 1.0952681899070742 -1.3979737162590025 -1.3909839391708372 -1.3797678947448728 0.8045366406440736 -0.65194842219352711
decision_type=2 2 2 2 2 2 2 2 2 2 2 2 2 2 2 2 2 2 2 2 2 2 2 2 2 2 2 2 2 2 2 2 2 2 2 2 2 2 2 2 2 2 2 2 2 2 2 2 2 2
left_child=14 2 7 4 6 -6 -4 11 12 34 -11 22 -9 16 17 37 25 18 30 -10 21 -18 -2 33 -22 -3 -13 28 -25 -27 48 -29 36 -15 -5 -32 -19 -16 44 -40 41 -20 43 -39 -34 -17 -42 -44 -1 -35
right_child=1 13 3 9 5 -7 -8 8 19 10 -12 26 -14 23 15 45 20 32 40 -21 24 -23 -24 27 -26 29 -28 31 -30 -31 35 -33 38 49 -36 -37 -38 42 39 -41 46 -43 47 -45 -46 -47 -48 -49 -50 -51
leaf_value=-0.13901489686423923 -0.073644767154411581 0.18151025062727938 0.042387496668456294 -0.044591526938102088 -0.030691671764012558 0.036480726328348305 0.090105518729826362 -0.056601666296346859 0.22350109872657276 -0.05242549940012961 0.060198996732852186 -0.098746589404893281 0.038299810689994968 0.15425888699968282 0.043076931058646045 0.098563964920824754 -0.065809575476683133 0.14234039293071346 0.060863278020546842 0.072000637369321205 -0.13152000551369625 0.049133974210684418 0.13930175678993245 -0.080571400521222872 0.086737940108825864 -0.16676395704264646 0.015806261955656743 -0.21319478272485282 0.087115071510059691 0.022321684172835934 0.029981472271768825 0.11329316682995461 0.11908629989471238 -0.13374400714806708 -0.121674684056246 0.12104451524485907 0.20147603380835621 -0.24118119323580653 -0.017193784030965466 0.11156258702318256 -0.10376781151545043 -0.13811865045276722 -0.1180260657866023 -0.12706144586361309 0.095577151709700894 0.13527756615724418 -0.1590207518794321 -0.1458117615908856 -0.10935706047704918 -0.14783107052461517
leaf_weight=5.0562950521707526 63.107162883505225 15.277779489755629 29003.630420122296 72.774511754512787 7434.0931022465229 44284.57473107893 5913.1163694933057 1310.6800284869969 110.15804199129343 1683.3055700417608 1751.4091235511005 1307.9713902538642 608.94408671557903 6.2774887084960929 4.8769442588090888 53.196552619338036 233.12015394121408 123.06950555741787 7.3802959993481663 784.04538414627314 27.647095512598753 653.42688721418381 124.39726824872196 72.169964604079723 1146.1821173429489 96.578271068632603 93.714236928150058 5.6953855752944937 1267.5603375583887 30.949388146400452 25.899403102695942 1623.7228439301252 1462.6659723669291 22.516769081354141 511.77690987382084 255.32509613782167 100.0570732653141 25.168120702728629 26.072805732488632 54.098744601011276 16.943242156878114 8.6937668416649085 27.13249321654439 16.463277690112591 146.34613955765963 106.23649986088276 74.457685925066471 60.542083889245987 10.021564418449996 9.3067917451262492
leaf_count=44 695 19 71553 512 25297 113728 6893 7441 87 6524 3608 10360 1363 1 6 37 1009 29 30 1357 199 915 666 218 1110 541 481 24 1113 58 69 930 413 128 8538 151 22 129 58 20 544 171 357 132 89 39 413 302 176 45
internal_value=0 0.0339119 0.0317328 0.0342093 0.0363542 0.0268253 0.0504685 -0.0192566 0.0107355 -0.0120247 0.00500331 -0.0723609 -0.026497 0.0736668 0.0944938 -0.00125079 0.0453451 0.106632 0.03847 0.0906642 0.0546236 0.0189092 0.0676317 0.0944159 0.0815973 -0.088525 -0.0910878 0.096779 0.078082 -0.120875 0.100854 0.112152 0.121024 -0.0897339 -0.112078 0.112658 0.168859 -0.148916 0.114705 0.0696894 -0.13352 -0.0467575 -0.156157 -0.196052 0.116948 0.123028 -0.148778 -0.137213 -0.119303 -0.137864
internal_weight=0 100268 95057.7 90654.7 86635.4 51718.7 34916.7 4403.02 2813.83 4019.27 3434.71 1589.19 1919.62 5210.43 2609.7 293.616 2203.18 2316.09 403.777 894.203 2060.38 886.547 187.504 3007.25 1173.83 142.805 1401.69 2969.15 1339.73 127.528 296.302 1629.42 1912.31 38.101 584.551 281.224 223.127 134.183 1689.18 80.1716 107.475 16.0741 129.306 41.6314 1609.01 159.433 91.4009 87.6746 15.0779 31.8236
internal_count=268644 265413 259103 236653 217471 139025 78446 22450 10248 19182 10132 12202 8804 6310 3231 1002 3851 2229 1598 1444 3233 1924 1361 2459 1309 618 10841 2285 1331 599 440 954 631 174 9050 220 51 926 580 78 1158 201 920 261 502 76 957 659 220 173
is_linear=0
shrinkage=0.1


Tree=17
num_leaves=53
num_cat=0
split_feature=126 70 32 75 114 113 77 79 124 88 46 114 113 45 127 74 130 26 117 69 118 12 29 115 122 45 2 45 47 115 63 53 126 60 67 108 33 46 39 113 118 50 56 120 122 45 45 34 49 103 113 115
split_gain=881.126 1117.24 850.155 729.832 2180.72 1411.81 4680.63 1136.43 909.085 543.495 511.277 656.711 336.004 434.619 297.984 216.069 244.747 174.435 121.45 111.325 88.7697 79.6028 60.3916 137.19 67.4695 57.2591 54.2124 53.4455 56.464 45.944 41.8969 50.4022 37.786 30.5979 38.2936 29.3398 28.6792 25.2014 19.9955 76.0016 18.2077 16.0993 19.6354 12.1313 11.9704 10.9537 9.80507 4.58974 2.69618 1.8651 1.49401 0.0702805
threshold=-2.9559141397476192 -0.12397249788045882 0.9709795117378236 -1.1006135940551756 -0.93663451075553883 -0.9559439718723296 -1.2171815037727354 -1.3257653117179868 -1.2918942570686338 -1.217079162597656 1.2228167057037356 -1.3591496944427488 -1.3328776955604551 1.1935995221138003 -2.154344797134399 -0.99436849355697621 1.0000000180025095e-35 1.2080665826797488 -1.5376120209693906 -0.012708427384495733 -1.5367833375930784 1.0000000180025095e-35 0.92924582958221447 -1.3979737162590025 -1.9857421517372129 1.21228563785553 0.075037684291601195 1.2203381657600405 1.2403023838996889 -1.4179588556289671 0.65830352902412426 1.1266556382179262 -3.0826245546340938 0.84091544151306163 0.32572449743747717 -1.0457671284675596 0.95031952857971203 1.1761086583137514 1.0191309452056887 -1.3202517628669737 -1.5523940324783323 1.1800923347473147 1.0074266195297243 -1.7581802606582639 -2.0661145448684688 1.2173660397529604 1.2173660397529604 0.81860625743865978 1.2238343358039858 -0.79057621955871571 -1.3328776955604551 -1.3785875439643858
decision_type=2 2 2 2 2 2 2 2 2 2 2 2 2 2 2 2 2 2 2 2 2 2 2 2 2 2 2 2 2 2 2 2 2 2 2 2 2 2 2 2 2 2 2 2 2 2 2 2 2 2 2 2
left_child=10 2 3 4 9 6 -5 -7 -6 -2 12 25 13 18 17 36 -17 19 32 -4 38 -3 23 26 -25 29 -23 46 -29 47 35 -32 -1 -22 -35 -24 -16 -20 40 -40 -14 42 -15 -43 45 -27 48 -12 -13 -19 -46 -30
right_child=1 21 14 5 8 7 -8 -9 -10 -11 11 27 20 41 15 16 -18 49 37 -21 33 22 30 24 -26 44 -28 28 51 -31 31 -33 -34 34 -36 -37 -38 -39 39 -41 -42 43 -44 -45 50 -47 -48 -49 -50 -51 -52 -53
leaf_value=0.082232304916033366 -0.13674035880647969 0.21729573684843034 0.10191429866612592 -0.10505617948857332 0.070967567640520091 0.015159485107729079 0.033248038812299686 0.066306970687112388 0.010407540386841959 -0.037707720564439814 -0.27753044353358514 0.12346993435774689 0.11295478795140386 -0.13004755982748947 -0.0044133798505580002 -0.11951846960320606 0.012839912539176813 -0.14297715790940979 0.20653808079877131 -0.16466785985079943 0.12942890168546747 -0.12695113486593693 -0.10765511679999813 0.14961937959150903 -0.13830124930448234 -0.21864571330466551 0.16092004745020277 0.13872448049311359 -0.14131016959045026 0.066747470470261958 0.03957346437182601 -0.13613979291479422 -0.12832420245910611 0.26994373613173983 0.16228428342104964 -0.20977781954865626 0.15873571123964691 0.10398949079840965 -0.11165421650201973 0.1288252834242056 0.13832603588809969 -0.044124320960223187 0.13241057742924658 -0.13625029226871532 -0.10944657070966274 -0.14166401597391226 0.16221837720161628 -0.13405660598730665 0.095478664442307834 -0.19070286269380085 -0.13237318994688982 -0.12522251884114252
leaf_weight=11.895331744104622 933.27751024626195 7.1324440427124491 189.22133941017091 2560.0682238601148 3538.0988063551486 5536.0363052152097 55402.026415601373 20175.025468051434 8278.7125274697319 1364.2094502206892 2.9150896724313489 101.56646060943604 1334.7646595835686 5.8030700795352441 14.869847347959874 682.87353622727096 175.63899490982294 22.633884965442121 26.173662468791008 17.078911863267422 61.833767533302307 200.66442720592022 36.852863813750446 32.630953475832939 10.843402536585925 32.737092822790146 6.7623284608125678 13.21870940923691 13.256044477224352 25.594391882419586 19.701994840055704 95.2265370124951 30.063780503347516 64.323453173041344 67.929308764636517 118.89465870708227 39.121496677398682 283.90808461420238 18.196888841688633 47.311325967311859 358.92144833505154 16.294769937172532 5.6024129260331392 116.39085114747286 41.306891700252891 42.452695520594716 58.085926473140717 9.4829957075417024 52.044557005167007 12.829939022660254 91.128876209259033 3.4150753766298285
leaf_count=29 5156 4 169 11807 7665 11833 143610 29745 36810 5769 19 28 480 116 64 3232 421 132 5 77 30 4107 994 9 92 178 2 5 65 27 69 892 378 16 25 575 8 300 79 18 101 253 4 1393 824 299 19 82 32 53 522 22
internal_value=0 0.0304608 0.0312355 0.0322426 0.011208 0.0357908 0.0271394 0.055294 0.02854 -0.0779364 0.0860401 -0.00751764 0.104649 0.0311599 -0.0540839 -0.0802369 -0.0924399 0.0446269 0.0910394 0.0798448 0.123316 -0.114519 -0.119056 -0.0837135 0.077806 -0.122661 -0.117566 0.109547 -0.0156274 -0.0097894 -0.151817 -0.106018 -0.0686318 0.187497 0.214646 -0.185614 0.113803 0.112646 0.116235 0.0620248 0.118331 -0.115136 -0.00112721 -0.124937 -0.143315 -0.175181 0.12722 -0.167791 0.113986 -0.160243 -0.125222 -0.138015
internal_weight=0 99470.4 98941.7 97787.5 14114.3 83673.2 57962.1 25711.1 11816.8 2297.49 2936.62 487.205 2449.41 496.132 1154.27 912.504 858.513 241.764 352.041 206.3 1953.28 528.71 521.577 250.901 43.4744 245.618 207.427 241.587 29.8898 37.9925 270.676 114.929 41.9591 194.087 132.253 155.748 53.9913 310.082 1759.19 65.5082 1693.69 144.091 11.4055 132.686 207.626 75.1898 211.697 12.3981 153.611 35.4638 132.436 16.6711
internal_count=268644 263295 256551 252395 55400 196995 155417 41578 44475 10925 5349 2122 3227 2478 4156 3725 3653 431 712 246 749 6744 6740 4210 101 1951 4109 171 92 128 2530 961 407 71 41 1569 72 305 678 97 581 1766 120 1646 1823 477 79 101 60 185 1346 87
is_linear=0
shrinkage=0.1


Tree=18
num_leaves=63
num_cat=0
split_feature=103 70 102 70 49 57 54 18 19 73 114 31 21 39 135 35 18 70 59 72 130 103 23 103 70 49 31 100 126 26 107 124 127 70 103 49 36 115 49 54 54 101 33 37 70 29 40 122 53 102 102 113 112 44 118 107 112 7 110 71 108 60
split_gain=866.166 2487.84 940.645 2009.82 1378.45 1684.59 1079.4 1172.8 809.967 748.268 682.525 643.469 636.073 626.899 564.105 554.21 538.636 677.453 631.909 494.076 489.645 441.926 406.044 372.797 353.716 321.615 296.795 286.75 213.744 177.206 166.133 156.825 156.484 147.017 177.82 143.11 100.484 97.214 87.3992 84.1858 78.891 78.9919 78.5262 74.206 71.4818 57.1294 19.0266 43.186 13.9337 12.8438 12.1131 8.92842 7.00022 1.96129 1.83838 1.14143 0.318648 0.251873 0.132643 0.09052 0.0251857 0.0110747
threshold=-0.74842834472656239 -0.19616647064685819 -0.78285440802574147 -0.23570674657821652 1.1464065909385683 0.92303937673568737 1.0770301818847658 1.0684030652046206 1.1422248482704165 -0.65299260616302479 -1.3797678947448728 1.0011031031608584 1.2117578387260439 1.0073702931404116 1.0000000180025095e-35 0.9584161937236787 1.0704025030136111 -0.17464730888605115 0.88334631919860851 -0.62538903951644886 1.0000000180025095e-35 -0.77412527799606312 1.263633728027344 -0.75933864712715138 -0.21126854419708249 1.1813777685165407 0.99669519066810619 -0.77033260464668263 -2.0185856819152828 1.170105040073395 -0.85350158810615528 -1.8238830566406248 -3.1404639482498165 -0.18982529640197751 -0.76090523600578297 1.206344783306122 0.95642074942588817 -1.4480147361755369 1.1270914077758791 1.0233755111694338 1.0626575946807864 -0.55255675315856922 0.95031952857971203 0.96125912666320812 -0.091166898608207689 1.1120408773422243 1.0527052283287051 -2.0661145448684688 1.1285132169723513 -0.77340540289878834 -0.75314372777938832 -1.3396142721176145 -1.2803693413734434 1.1024318337440493 -1.5265740156173704 -0.96555799245834339 -1.2898950576782224 0.31018754839897161 -1.0828607678413389 -0.34165264666080469 -1.0242586135864256 0.85414332151412975
decision_type=2 2 2 2 2 2 2 2 2 2 2 2 2 2 2 2 2 2 2 2 2 2 2 2 2 2 2 2 2 2 2 2 2 2 2 2 2 2 2 2 2 2 2 2 2 2 2 2 2 2 2 2 2 2 2 2 2 2 2 2 2 2
left_child=1 2 3 4 5 -1 9 27 -6 11 13 -4 24 32 15 19 17 23 39 45 -21 -11 -14 26 -5 -20 -3 -8 30 -25 -17 -9 35 34 38 37 -36 -2 -18 -19 41 43 -30 -15 -43 -12 47 -42 55 53 -51 -48 -37 -35 56 57 -34 -16 -57 61 -61 -50
