tree
version=v4
num_class=1
num_tree_per_iteration=1
label_index=0
max_feature_idx=136
objective=binary sigmoid:1
feature_names=Column_0 Column_1 Column_2 Column_3 Column_4 Column_5 Column_6 Column_7 Column_8 Column_9 Column_10 Column_11 Column_12 Column_13 Column_14 Column_15 Column_16 Column_17 Column_18 Column_19 Column_20 Column_21 Column_22 Column_23 Column_24 Column_25 Column_26 Column_27 Column_28 Column_29 Column_30 Column_31 Column_32 Column_33 Column_34 Column_35 Column_36 Column_37 Column_38 Column_39 Column_40 Column_41 Column_42 Column_43 Column_44 Column_45 Column_46 Column_47 Column_48 Column_49 Column_50 Column_51 Column_52 Column_53 Column_54 Column_55 Column_56 Column_57 Column_58 Column_59 Column_60 Column_61 Column_62 Column_63 Column_64 Column_65 Column_66 Column_67 Column_68 Column_69 Column_70 Column_71 Column_72 Column_73 Column_74 Column_75 Column_76 Column_77 Column_78 Column_79 Column_80 Column_81 Column_82 Column_83 Column_84 Column_85 Column_86 Column_87 Column_88 Column_89 Column_90 Column_91 Column_92 Column_93 Column_94 Column_95 Column_96 Column_97 Column_98 Column_99 Column_100 Column_101 Column_102 Column_103 Column_104 Column_105 Column_106 Column_107 Column_108 Column_109 Column_110 Column_111 Column_112 Column_113 Column_114 Column_115 Column_116 Column_117 Column_118 Column_119 Column_120 Column_121 Column_122 Column_123 Column_124 Column_125 Column_126 Column_127 Column_128 Column_129 Column_130 Column_131 Column_132 Column_133 Column_134 Column_135 Column_136
feature_infos=[-1.8014661073684692:2.1475074291229248] [-1.7160434722900391:2.0597634315490723] [-1.6382262706756592:1.9801409244537354] [-1.5680137872695923:1.9086390733718872] [-1.5054070949554443:1.8452587127685547] [-1.4504051208496094:1.7899996042251587] [-1.4123568534851074:1.7536556720733643] [-1.3844102621078491:1.7939627170562744] [-1.3517893552780151:1.9694005250930786] [-1.3099035024642944:2.0549979209899902] [-1.2559221982955933:2.0165181159973145] [-1.1870334148406982:2.064321756362915] [-1.1039742231369019:2.1106562614440918] [-1.0067610740661621:2.1771299839019775] [-0.90047705173492432:2.2825961112976074] [-0.78966546058654785:2.4052433967590332] [-0.67814630270004272:2.5269482135772705] [-0.65620064735412598:2.5277442932128906] [-0.66012513637542725:2.5653238296508789] [-0.66667592525482178:2.5221147537231445] [-0.66607785224914551:2.4413206577301025] [-0.67377018928527832:2.3840618133544922] [-0.6766434907913208:2.2409591674804688] [-0.7797551155090332:2.1787192821502686] [-1.0841877460479736:2.1696581840515137] [-1.4308524131774902:2.0883691310882568] [-1.6366665363311768:1.9448176622390747] [-1.8254417181015015:1.7314887046813965] [-1.9202775955200195:1.5598906278610229] [-2.2033448219299316:1.3473584651947021] [-2.6534385681152344:1.1459542512893677] [-2.9375624656677246:1.0691677331924438] [-2.8964071273803711:1.0182701349258423] [-2.6209216117858887:1.0153312683105469] [-1.9672813415527344:1.0222163200378418] [-1.2877312898635864:1.096311092376709] [-0.66342759132385254:1.2162210941314697] [-0.67050886154174805:1.4357191324234009] [-0.67336314916610718:1.5244829654693604] [-0.67729061841964722:1.427788257598877] [-0.67391806840896606:1.3506048917770386] [-0.67713803052902222:1.3033223152160645] [-0.67526406049728394:1.4334096908569336] [-0.67822211980819702:1.6771683692932129] [-0.67542338371276855:1.8418123722076416] [-0.67939788103103638:1.9795904159545898] [-0.67687302827835083:1.8671952486038208] [-0.68056988716125488:1.7601110935211182] [-0.67851173877716064:1.8138210773468018] [-0.68057990074157715:2.0951991081237793] [-0.67868822813034058:2.3221406936645508] [-0.68411111831665039:2.3866791725158691] [-0.6882440447807312:2.2922041416168213] [-0.69760811328887939:2.0923285484313965] [-0.68820065259933472:1.9014968872070312] [-0.66498374938964844:1.7058380842208862] [-0.63047897815704346:1.5109990835189819] [-0.79989981651306152:1.3322867155075073] [-0.9627259373664856:1.3174220323562622] [-0.83332031965255737:1.3004671335220337] [-0.62303602695465088:1.2808957099914551] [-0.62908732891082764:1.5017008781433105] [-0.65896600484848022:1.6292674541473389] [-0.67422842979431152:1.4128085374832153] [-0.93073725700378418:1.1429597139358521] [-1.1305865049362183:1.0751444101333618] [-1.2290370464324951:0.99085426330566406] [-1.6538451910018921:0.88485002517700195] [-1.8910553455352783:0.75389385223388672] [-2.0949718952178955:0.60495084524154663] [-1.9126988649368286:0.45876148343086243] [-1.7446892261505127:0.33052113652229309] [-1.674402117729187:0.23037496209144592] [-1.5101885795593262:0.15855956077575684] [-1.3156384229660034:0.2961885929107666] [-1.5363247394561768:0.9557119607925415] [-1.7158633470535278:1.4404212236404419] [-1.902489185333252:1.2026444673538208] [-2.0318953990936279:1.1271375417709351] [-2.1140036582946777:0.52897804975509644] [-2.1613881587982178:0.2406151294708252] [-2.187326192855835:0.28676301240921021] [-2.2015368938446045:0.33890664577484131] [-2.2012209892272949:0.39074629545211792] [-2.1849808692932129:0.43792322278022766] [-2.1524448394775391:0.47703936696052551] [-2.1025960445404053:0.50853937864303589] [-2.0367574691772461:0.53271615505218506] [-1.9560787677764893:0.59374678134918213] [-1.8642418384552002:0.56802195310592651] [-1.767259955406189:0.65018975734710693] [-1.8478662967681885:1.0688302516937256] [-1.648851752281189:1.4172115325927734] [-1.5846540927886963:1.6290324926376343] [-1.5245249271392822:1.6649528741836548] [-1.4861346483230591:1.6171708106994629] [-1.4547033309936523:1.5605852603912354] [-1.4384253025054932:1.5595740079879761] [-1.4264529943466187:1.5636097192764282] [-1.5819015502929688:1.563044548034668] [-2.0638625621795654:1.5685317516326904] [-2.4396805763244629:1.5680602788925171] [-2.4470291137695312:1.5700795650482178] [-2.3072562217712402:1.5650482177734375] [-1.9470208883285522:1.5674868822097778] [-1.4475361108779907:1.5623446702957153] [-1.1201972961425781:1.563502311706543] [-1.1215335130691528:1.5613243579864502] [-1.168958306312561:1.5694600343704224] [-1.225764274597168:1.5736351013183594] [-1.369315505027771:1.5835809707641602] [-1.6010570526123047:1.5861003398895264] [-2.1418814659118652:1.5901247262954712] [-2.465855598449707:1.5896482467651367] [-2.5047738552093506:1.5896980762481689] [-2.0072333812713623:1.5865405797958374] [-1.577265739440918:1.5868538618087769] [-1.6321159601211548:1.611059308052063] [-1.6862318515777588:2.0474352836608887] [-1.7458088397979736:2.1939568519592285] [-1.820858359336853:2.1617026329040527] [-1.9280952215194702:1.6493175029754639] [-2.15055251121521:1.6308574676513672] [-2.3786196708679199:1.6220458745956421] [-2.643824577331543:1.6080794334411621] [-2.951240062713623:1.7680370807647705] [-3.3342947959899902:2.4378566741943359] [-3.8531808853149414:3.3610599040985107] [0:1] [0:1] [0:1] [0:1] [0:1] [0:1] [0:1] [0:1] [0:1]
tree_sizes=2275 6528 6609 6531 6480 6486 6121 5358 5881 5850 6114 5968 6775 5488 5775 5833 6746 5774 5648 5685 6451 6739 5864 6798 5783 6644 6777 6482 6429 6805 6683 6653 6339 6807 6306 6244 6660 6502 6783 6117 5600 6259 6809 6963 6707 6259 5673 5367 6751 6758 6366 6311 6378 6150 7035 5165 5684 6466 6835 5696 6481 5364 6524 6948 6083 6586 6483 6837 6265 5787 6814 6225 5788 6932 6718 6905 6949 6831 5076 6809 6706 5306 6286 6157 5724 6896 6000 6232 6709 6913 6581 5086 6693 6944 6052 6905 5921 5517 6779 5630 5188 6016 5834 6919 6913 6513 6605 6073 6933 6686 6932 6295 6218 5666 6128 5404 6678 6479 6610 5745 6282 6313 6748 5567 6958 5798 6349 6169 6455 6841 6027 6710 6507 6701 6698 6963 5083 6934 6500 6541 6432 6237 6186 6579 6691 6144 6693 5725 6931 6723 6716 6507 6599 6728 6062 6587 6148 5744 6614 6313 6960 6164 6832 6929 5470 6537 6488 6797 6162 6472 6065 6377 6680 6929 6476 6313 6058 5804 6800 6407 6471 5808 6402 5912 6501 6950 6357 6239 6395 6424 6581 5597 6883 5864 6164 6838 6882 6055 6880 6381

Tree=0
num_leaves=20
num_cat=0
split_feature=133 136 108 91 103 113 114 122 131 39 32 111 123 108 106 72 115 5 0
split_gain=344239 376961 129790 136652 83576.1 104326 57065.1 35491.2 24912.5 18354.4 14943.9 7988.75 3810.71 3191.12 2563.34 1909.72 791.445 2.27374e-13 1.13687e-13
threshold=1.0000000180025095e-35 1.0000000180025095e-35 -1.0473600029945371 -1.147830009460449 -0.77757808566093434 -0.95239385962486256 -1.3909263610839842 -1.0234400033950803 1.0000000180025095e-35 0.99829509854316723 0.8830326795578004 -1.2452293634414671 -2.2679247856140132 -1.0550181269645689 -0.93425485491752613 -0.55208569765090931 -1.4437382221221922 0.58043280243873607 0.67036351561546337
decision_type=2 2 2 2 2 2 2 2 2 2 2 2 2 2 2 2 2 2 2
left_child=1 2 9 7 5 -5 -6 8 -4 10 11 -1 16 -12 -9 -14 -11 -3 -2
right_child=18 17 3 4 6 -7 -8 14 -10 12 13 -13 15 -15 -16 -17 -18 -19 -20
leaf_value=-3.735222919769472 -3.735222919769472 -3.735222919769472 -2.4077292596841176 -1.7412983064978473 -3.3693536809050264 -0.94079269830097356 -0.6999692738872012 -0.95330213670175468 -1.4702602634232198 -2.2410984819125037 -3.735222919769472 -0.68785297998057704 -1.0119816559213977 -2.2950671289720521 -3.483237010959614 -3.6466038476959928 0.17941635458129035 -3.735222919769472 -3.735222919769472
leaf_weight=10.091217678040264 805.33941678330302 277.58379374071956 823.14061199128628 4387.9660876821727 82.674719924107194 2588.3937516696751 2556.1775086093694 4.0774170812219372 432.36184395290911 2.5305904988199472 44.10514791123569 58.315139781683683 2.7768506277352563 23.628800561651587 225.07312756218016 298.66166645847261 2.8975980989634982 505.38926744274795 8.5850657857954484
leaf_count=402 32082 11058 22153 89623 2999 32695 26295 52 7690 64 1757 593 37 610 8414 11640 5 20133 342
internal_value=-3.63258 -1.61186 -1.46783 -1.40084 -1.26297 -1.44429 -0.783601 -2.29377 -2.08489 -3.14632 -2.17994 -1.1374 -3.57505 -3.23283 -3.43822 -3.62233 -0.949014 -3.73522 -3.73522
internal_weight=0 12325.8 11542.9 11099.9 9615.21 6976.36 2638.85 1484.65 1255.5 443.007 136.14 68.4064 306.867 67.7339 229.151 301.439 5.42819 782.973 813.924
internal_count=268644 236220 205029 189921 151612 122318 29294 38309 29843 15108 3362 995 11746 2367 8466 11677 69 31191 32424
is_linear=0
shrinkage=1


Tree=1
num_leaves=60
num_cat=0
split_feature=31 90 115 90 126 29 31 133 40 107 113 112 116 36 90 114 30 114 76 76 30 59 124 112 105 113 61 90 102 79 101 129 76 76 73 92 135 113 117 91 108 130 76 124 46 90 29 30 79 74 51 122 37 113 100 75 0 1 17
split_gain=18984.3 7662.78 6947.78 6998.8 6380.72 9254.48 6721.38 5738 6850.25 5458.22 5093.24 4404.77 4007.66 3583.37 3533.56 4944.01 3092.58 2895.83 3474.57 3017.59 2748.18 3383.5 2676.44 2649.84 2289.21 2086.1 2055.72 2032.32 2017 1921.02 1683.37 1597.01 1478.81 792.098 765.446 761.601 733.074 716.899 554.45 506.849 455.418 421.072 554.506 309.417 293.605 279.203 262.037 215.759 207.047 153.123 98.3795 31.5323 256.804 1.24406 0.256092 0.00103771 1.13687e-13 1.13687e-13 1.77636e-15
threshold=1.0010114312171938 -1.128163695335388 -1.0093187093734739 -1.0936596989631651 -1.7793298959732053 1.2228067517280581 0.98841631412506115 1.0000000180025095e-35 1.051985025405884 -0.76875877380371083 -1.3248280286788938 -1.0341035127639768 -0.99394178390502919 0.95636725425720226 -1.1065617203712461 -0.98582172393798817 1.0938609242439272 -0.92869898676872242 -1.2023767828941343 -1.2183519601821897 1.0523557066917422 0.74419796466827404 -1.4929659962654112 -0.89014950394630421 -0.78710687160491932 -0.90786489844322193 0.79821002483367931 -1.1398777365684507 -0.80008861422538746 -1.2811006903648374 -0.95502501726150502 1.0000000180025095e-35 -1.1406103968620298 -1.1533448696136472 -0.92491421103477467 -1.0629363059997556 1.0000000180025095e-35 -0.95239385962486256 -1.0189468860626218 -1.1038998365402219 -0.88373082876205433 1.0000000180025095e-35 -1.1240822672843931 -1.3958316445350645 1.2087627053260805 -1.0992597341537473 1.235559403896332 1.0499287247657778 -1.1754645705223081 -1.037635803222656 1.1349235177040102 -1.2383260726928709 0.93565851449966442 -0.95239385962486256 -0.79547718167304982 -1.0655924677848814 0.56720900535583507 0.51960101723670971 1.3952665925025942
decision_type=2 2 2 2 2 2 2 2 2 2 2 2 2 2 2 2 2 2 2 2 2 2 2 2 2 2 2 2 2 2 2 2 2 2 2 2 2 2 2 2 2 2 2 2 2 2 2 2 2 2 2 2 2 2 2 2 2 2 2
left_child=4 12 3 41 7 6 16 8 20 13 44 31 33 -8 15 32 26 18 43 23 28 -22 -13 -19 -12 -21 -6 -20 -1 -17 40 -5 -4 51 -18 55 47 -38 54 -40 46 48 -43 -14 -10 -37 -7 -32 -3 -42 -11 52 -2 -53 -35 -16 57 -9 -59
right_child=1 2 14 11 5 30 9 56 10 50 24 22 17 -15 35 29 34 19 27 25 21 -23 -24 -25 -26 -27 -28 -29 -30 -31 36 -33 -34 38 -36 45 37 -39 39 -41 49 42 -44 -45 -46 -47 -48 -49 -50 -51 -52 53 -54 -55 -56 -57 -58 58 -60
leaf_value=0.14235923824441518 0.6501704697983004 -0.10050720900967858 -0.10017448661764083 -0.00030329721118846343 0.011203814269648437 -0.13179610996528116 0.17225922929969195 -0.10238678073552457 0.016248874606543045 0.91125880719439045 0.12667728069767492 0.42348141398743516 0.32843349385879234 -0.063595908279451871 -0.11750268979434256 0.21669186179272032 -0.082712537736473024 -0.024227042190250431 0.21507151642928474 0.35255258313973314 0.12063204075925903 0.46556284747736787 0.24523932819925168 0.2966415145744758 0.22932932520334776 0.57801671113073172 0.6660966994038735 0.33359290167130229 0.26573628054212606 0.48085277588977021 0.6012961936433564 0.43238863125347615 0.26256652601459168 -0.11498155318656805 0.26450920676662543 0.5213989523118151 0.46761537768172073 0.28941518743338807 -0.026013200713593143 0.39553244844326668 0.65776936096428773 -0.11770594810915591 0.39490215180250843 -0.12092136952383162 -0.13456530296848446 0.60742673244632794 0.077774971331644377 -0.063324076632694681 0.47008500659170666 0.18063847712841113 1.2099874875468244 -0.11696331591439738 -0.13146831621707619 -0.13990882054788709 -0.14966004892918924 -0.11542411746736868 -0.10238678073552457 -0.10238678073552457 -0.10238678073552421
leaf_weight=1465.8620549291372 4.9251250028610221 448.2426592297852 220.61427703127265 494.18235735967755 5926.9769558086991 89.390582589432597 12030.638531936333 519.13389320299029 170.33271850273013 14.825240807607768 4055.3199179619551 2620.9615296944976 16.156510174274445 680.61400000751019 12.966867696493862 317.23880926892161 70.037562277168036 313.02134920470417 6525.9208139423281 1370.9070095662028 364.76939665526152 1290.4259050004184 1241.4735788777471 1447.7715170457959 4679.0529675260186 585.70308904722333 48.322576858103275 1858.8758296072483 13795.136280674487 2082.0567502118647 5.2539530992507926 103.09518156945705 229.09633370488882 53.858413733541965 679.05804131738842 574.05390851572156 239.08214128017426 4050.6499259807169 42.096541870385408 88.456463694572449 14.625496702268721 40.323043540120125 44.271490812301636 297.29255510866642 533.07219149172306 1100.4891773797572 179.40014144964516 69.466935589909554 6.4509504586458197 12.453208567574618 42.999152617529035 286.718620210886 28.679630741477013 25.751332193613052 2.2171516716480246 2.9478833302855483 0.54643276333808799 12.613489620387551 0.52366473153233606
leaf_count=8875 2 4447 1880 6587 40225 606 51896 22801 2756 54 10256 7776 6 2737 103 1040 396 2415 15662 4020 2167 2911 6434 7972 3843 2200 159 2152 26448 3901 4 258 1330 751 1128 1083 522 3166 530 422 5 317 128 1944 7888 965 774 951 37 55 16 2678 186 130 10 38 24 554 23
internal_value=0 0.299278 0.367292 0.285963 0.188998 0.151694 0.121428 0.22251 0.229078 0.16404 0.160821 0.327109 0.249176 0.159631 0.456854 0.388893 0.0405117 0.260699 0.229127 0.334575 0.26716 0.389548 0.36619 0.2396 0.181669 0.420044 0.0165 0.241347 0.253886 0.445925 0.27829 0.074383 0.0846169 -0.0194084 0.232045 0.571392 0.293938 0.299347 0.146643 0.259606 0.0474576 -0.0542984 0.150561 -0.0977597 -0.098045 0.577935 0.00807881 -0.0165917 -0.092412 0.438342 1.1334 -0.108955 -0.0169111 -0.118854 -0.116353 -0.117118 -0.102387 -0.102387 -0.102387
internal_weight=0 22486.8 9538.46 4999 51040.6 24153.8 19493.5 26886.8 26354 12769.1 9437.78 4459.71 12948.4 12711.3 4539.46 2849.01 6724.4 12415.6 8698.25 3717.4 16916.2 1655.2 3862.44 1760.79 8734.37 1956.61 5975.3 8384.8 15261 2399.3 4660.32 597.278 449.711 532.703 749.096 1690.46 4364.45 4289.73 186.629 130.553 295.869 539.288 84.5945 313.449 703.405 1674.54 268.791 74.7209 454.694 27.0787 57.8244 346.075 33.6048 312.47 56.0756 15.9148 532.817 532.271 13.1372
internal_count=268644 77404 36324 25984 191240 102694 96611 88546 65144 54703 24743 21055 41080 54633 10340 8151 41908 36371 19764 16607 40401 5078 14210 10387 14099 6220 40384 17814 35323 4941 6083 6845 3210 4709 1524 2189 4643 3688 1713 952 1440 4929 445 1950 10644 2048 1380 955 4484 60 70 2996 188 2808 761 141 23402 23378 577
is_linear=0
shrinkage=0.1


Tree=2
num_leaves=60
num_cat=0
split_feature=31 126 30 136 133 40 29 125 117 130 32 113 75 91 107 77 31 129 51 48 112 57 127 104 28 49 91 74 30 51 104 106 29 32 116 123 74 115 113 122 113 76 124 115 89 90 112 112 90 31 112 9 0 0 71 0 2 0 0
split_gain=8490.66 4356.84 6490.94 4098.03 4027.42 4063.14 3316.99 6164.27 7530.83 3250.32 3454.2 3193.17 2175.29 2023.36 1987.17 1853.18 1827.31 1864.83 1816.17 1807.94 1557.94 1461.42 1447.44 1347.74 1202.08 1159.13 1098.76 1561.04 1155.76 943.778 755.203 694.966 627.469 513.224 363.208 263.781 178.099 169.665 1.53916 0.0465048 0.0024639 0.00130682 0.00117186 0.00075697 0.000912812 0.000627744 0.00046719 0.000168912 0.000162662 6.80074e-05 8.07467e-05 1.13687e-13 7.10543e-15 3.55271e-15 1.77636e-15 8.88178e-16 8.88178e-16 4.44089e-16 4.44089e-16
threshold=1.0015382170677187 -1.7793298959732053 1.0894148945808413 1.0000000180025095e-35 1.0000000180025095e-35 1.0558739304542544 1.235559403896332 -1.3905259370803831 -0.94308537244796742 1.0000000180025095e-35 0.9667472541332246 -1.3201867938041685 -1.1351738572120664 -1.147830009460449 -0.97334736585617054 -1.218943655490875 1.0116586089134219 1.0000000180025095e-35 1.1391975879669192 1.1176003217697146 -1.0620293617248533 0.93573415279388439 -2.0533276796340938 -0.92635533213615406 1.1583877801895144 1.1389095187187197 -1.147830009460449 -1.0221202373504636 1.0947851538658144 0.98286548256874096 -0.92313084006309498 -0.8483731448650359 1.2302647233009341 0.97284734249115001 -0.92648956179618824 -2.3035728931426998 -1.037635803222656 -0.95864465832710255 -0.95239385962486256 -1.0234400033950803 -0.90786489844322193 -1.2183519601821897 -1.4929659962654112 -1.0093187093734739 -1.1601628661155698 -1.0936596989631651 -1.0341035127639768 -0.89014950394630421 -1.0936596989631651 1.0010114312171938 -1.0341035127639768 0.68687042593956005 0.43576969206333166 0.48337213695049291 -0.43979331851005549 0.55810958147048961 0.35976395010948187 0.44433662295341497 0.50944799184799205
decision_type=2 2 2 2 2 2 2 2 2 2 2 2 2 2 2 2 2 2 2 2 2 2 2 2 2 2 2 2 2 2 2 2 2 2 2 2 2 2 2 2 2 2 2 2 2 2 2 2 2 2 2 2 2 2 2 2 2 2 2
left_child=1 4 6 9 5 14 7 8 -3 10 16 35 29 24 18 -15 20 -18 -1 -16 -2 31 -13 32 -14 -9 28 -28 -25 -11 36 -12 38 -23 -34 -7 -8 -32 -4 -31 42 47 46 45 -45 -44 57 58 -48 51 56 -6 -53 54 -43 -49 -51 -5 -42
right_child=3 2 23 40 49 11 30 25 -10 12 21 22 13 15 19 -17 17 -19 -20 -21 -22 33 -24 26 -26 -27 27 -29 -30 39 37 -33 34 -35 -36 -37 -38 -39 -40 -41 41 53 43 44 -46 -47 48 55 -50 50 -52 52 -54 -55 -56 -57 -58 -59 -60
leaf_value=0.16138147663368835 -0.070394700957661288 0.10775161165220662 -0.1158857308775039 -0.10238606345683619 -0.10215450125463016 0.10602054722605439 0.39550894777747203 0.00067937842465446807 0.40553705275029056 2.4016899649916703 -0.10571831395088867 0.16358185356182756 0.050096251570027506 0.21891347974672706 0.30471096883546722 0.32540627606850525 0.013482653885551907 0.28799225374577153 -0.078582719637903586 0.2093195539629556 0.23377793020422635 0.26466442737395818 0.041267757823492429 0.15340369106950902 0.59551065135319237 0.27010208823586612 0.0836067513241633 0.24231731482636856 0.83604858528794335 -0.11212555031338677 0.41750413167750611 0.061012700899470779 0.18326122451925586 -0.13807249737814484 -0.14199880523813921 -0.11798034332219334 -0.13241085041198797 0.25694858333816856 -0.13770401085237538 -0.10415238130611848 -0.10232965030254329 -0.10425444762179491 -0.10217064412905619 -0.1029703336142674 -0.10348166267593369 -0.10304802269917451 -0.10289147843932728 -0.10321101699764434 -0.10364997337119163 -0.10238606345683604 -0.10370272015806084 -0.10215450125463016 -0.10215450125463016 -0.10425444762179491 -0.10425444762179469 -0.10321101699764422 -0.10238606345683617 -0.10238606345683601 -0.10232965030254315
leaf_weight=2031.1106076985598 170.3273820579052 12271.51592743583 100.50789008662105 2.9134654998779292 428.04989371262491 58.223718792200089 7.1427698135375968 6081.3494018353522 912.39274066500366 1.5089023392647494 382.38128614425659 6030.7848970144987 46.362786337733269 2735.519972063601 2252.9882507938892 4058.4627738371491 789.68850253149867 360.41703078150749 373.38185563124716 16819.547698846087 14783.953347045928 354.20871874317527 1152.3633028995246 42.308570930734277 314.67372749373317 163.99058417975903 706.31531043350697 5055.3970299307257 59.936622714623809 143.31567148864269 69.425310656428337 722.07539540529251 225.84675224125385 34.745923925191164 40.486024979501963 541.46862855739892 60.664789175614715 1266.5133572164923 47.66682112775743 7.7088581956922999 2.625249702483416 8.1025917045772058 18.939756100997329 207.79181583225727 41.962943585589528 14.320605611428617 3.0212546046823254 6.5712414458394033 44.055844329297543 0.56903623044490803 0.51528371125459571 20.088387912139297 35.015319526195526 19.414905726909637 1.6048611588776136 0.75358273461461056 4.2791524529457092 0.47799043357372273 0.46720545552670945
leaf_count=8907 2916 47247 1587 128 20733 218 1 42943 3343 3 2644 8636 391 2888 5013 5391 4565 677 4805 26596 33638 530 2838 495 896 982 1714 5759 264 1511 49 2546 984 275 197 9050 397 585 339 203 118 207 913 7550 1337 499 120 218 1297 25 15 973 1696 496 41 25 188 21 21
internal_value=0 0.156175 0.127179 0.225832 0.182601 0.187355 0.100318 0.0895923 0.12836 0.23076 0.20748 0.125452 0.286821 0.294787 0.209788 0.282528 0.220972 0.0995077 0.124119 0.220588 0.230313 0.0619923 0.143959 0.21631 0.525471 0.0077539 0.228628 0.222861 0.553573 -0.0868552 0.248768 0.00328765 0.0420466 0.228687 0.133817 -0.0962323 -0.0768004 0.265292 -0.122905 -0.111719 -0.103164 -0.103911 -0.103076 -0.102997 -0.103056 -0.102548 -0.10352 -0.102949 -0.103601 -0.102158 -0.102513 -0.102155 -0.102155 -0.104254 -0.104254 -0.103211 -0.102386 -0.102386 -0.10233
internal_weight=0 56859.8 27111.5 25278.4 29748.4 29259.9 20833 19429.2 13183.9 24905.4 17597.8 7782.84 7307.55 7155.02 21477 6793.98 16104.4 1150.11 2404.49 19072.5 14954.3 1493.41 7183.15 6278.47 361.037 6245.34 5863.96 5761.71 102.245 152.533 1403.75 1104.46 414.507 388.955 266.333 599.692 67.8076 1335.94 148.175 151.025 373.023 39.5396 333.484 283.015 249.755 33.2604 50.4686 10.4173 47.0771 488.517 5.36347 483.154 55.1037 29.1224 9.70745 7.32482 4.84819 3.39146 3.09246
internal_count=268644 196579 106886 72065 89693 66063 95547 94515 50590 59074 47791 20742 11283 9566 45321 8279 41796 5242 13712 31609 36554 5995 11474 11339 1287 43925 8232 7473 759 1717 1032 5190 3107 805 1181 9268 398 634 1926 1714 12991 1126 11865 10299 8887 1412 1566 382 1417 23630 228 23402 2669 744 248 243 213 149 139
is_linear=0
shrinkage=0.1


Tree=3
num_leaves=59
num_cat=0
split_feature=136 31 130 123 51 133 32 77 111 114 77 79 90 77 54 113 99 106 82 77 26 45 29 104 31 114 1 116 32 57 91 103 126 31 32 113 76 31 31 13 62 112 31 31 90 102 30 125 102 40 90 115 111 25 66 40 113 1
split_gain=5419.94 5351.55 7556.66 3318.7 4213.01 2696.09 2203.94 2267.38 4674.18 2427.31 4486.79 1922.62 1638.15 1387.3 1036.41 972.491 863.526 586.309 680.033 500.513 388.279 384.625 365.218 445.504 214.047 211.203 209.767 179.921 27.975 59.8708 1.77661 0.413755 0.00539591 0.00206986 0.00127726 0.000693712 0.00123448 0.00100043 0.000554819 0.000575778 0.000494023 0.000331828 0.000282305 0.000231521 0.000185442 0.000172791 0.000130332 0.000140579 9.26437e-05 6.3682e-05 6.23782e-05 9.25619e-05 4.97733e-05 2.74154e-05 1.24199e-05 1.03797e-05 2.63271e-06 4.44089e-16
threshold=1.0000000180025095e-35 0.99794092774391185 1.0000000180025095e-35 -2.2679247856140132 1.1713032722473147 1.0000000180025095e-35 0.97031798958778392 -1.2171390056610105 -0.93028435111045826 -1.0012657046318052 -1.1847888827323911 -1.3916395902633665 -1.0992597341537473 -1.1745812892913816 1.0792338848114016 -1.3151752352714536 -0.79166185855865467 -0.85337531566619862 -1.3492376208305357 -1.218943655490875 1.1914807558059695 1.2205402255058291 1.1287829279899599 -0.9389500319957732 0.99781790375709545 -1.3909263610839842 0.68920603394508373 -1.4418673515319822 0.97094327211380016 0.92901271581649791 -1.147830009460449 -0.77757808566093434 -1.7725837826728819 0.98841631412506115 0.9619593918323518 -0.90786489844322193 -1.2183519601821897 1.0015382170677187 1.0015382170677187 0.73172655701637279 0.75047355890274059 -1.0341035127639768 1.0015382170677187 1.0010114312171938 -1.0936596989631651 -0.80008861422538746 1.0907025337219241 -1.3905259370803831 -0.827287197113037 1.051985025405884 -1.0936596989631651 -1.0093187093734739 -1.010337173938751 1.5250849127769472 0.27217215299606329 1.0558739304542544 -0.98472177982330311 0.27936378121376043
decision_type=2 2 2 2 2 2 2 2 2 2 2 2 2 2 2 2 2 2 2 2 2 2 2 2 2 2 2 2 2 2 2 2 2 2 2 2 2 2 2 2 2 2 2 2 2 2 2 2 2 2 2 2 2 2 2 2 2 2
left_child=1 2 3 21 5 -5 7 8 19 10 -9 -10 -11 22 16 -6 -15 28 30 -3 -20 25 24 -24 -4 -1 -16 -23 29 -8 -19 -30 38 40 35 37 -37 -35 39 48 46 57 54 45 -44 -41 47 -34 55 -50 51 -43 -45 -48 -36 -2 -52 -40
right_child=32 6 13 4 15 -7 17 9 11 12 -12 -13 -14 14 26 -17 -18 18 20 -21 -22 27 23 -25 -26 -27 -28 -29 31 -31 -32 -33 33 34 42 36 -38 -39 41 43 -42 50 44 52 -46 -47 53 -49 49 -51 56 -53 -54 -55 -56 -57 -58 -59
leaf_value=0.39138038233271644 -0.10260353883594804 -0.10954759578616638 -0.12204497255289529 0.13926176443832186 -0.12698028647742388 -0.10208877552061275 -0.12446016433309037 -0.10649838419160285 -0.026713890937771545 0.21237076270085123 0.18627418805305496 0.17442879721119334 0.29743067361923031 0.010067608986164531 -0.094990374154357321 0.030023012457634574 0.19393888632379344 -0.11949262206864104 0.032262864416280818 0.07827254850862278 0.17025128429067246 -0.15810478740831002 0.68386950715059014 -0.013504095770889913 0.10825974148840033 0.21647362782750018 0.25790753000008437 0.21227143487262407 -0.12441586584892531 0.13309951783165 -0.15302918804009014 -0.15373256157349657 -0.10269148461455167 -0.10310694988266984 -0.102663533847868 -0.102797277905974 -0.10365377838434509 -0.10279244324950594 -0.10215385331792062 -0.10349117207721155 -0.1057939736591349 -0.10194750819389226 -0.10247305346086014 -0.10346804691578425 -0.10293871666150595 -0.10378348206132566 -0.10358652028147752 -0.10242422546741375 -0.10371736379560657 -0.10319951371371237 -0.10328635772484257 -0.10360084226735777 -0.10440959052033108 -0.10289271187457016 -0.10314526258924966 -0.10307485220367385 -0.10349015443051046 -0.10215385331792062
leaf_weight=70.039646092802286 2.6330600809305937 678.13544952683151 1209.1175901927054 38568.315411912277 556.06174936704338 468.46914269588888 25.042914018034935 562.04285960830748 488.79431153088808 7325.3802356943488 7623.1660438850522 17097.24871910736 3277.0182248875499 518.41981538385153 433.82756157964468 1358.0124388299882 503.46253217570484 18.764265645295382 369.83694912865758 179.42329130321741 454.54577830806375 40.026533748954535 9.4585874155163747 290.70235183462501 41.748907908797264 4826.5217222031206 17.524113655090332 19.508304268121719 167.77054258994758 14.110587559640406 99.866640567779541 4.9562944173812857 24.492169585078955 220.52807875908911 0.57019937969744106 28.432903423905373 41.229131804779172 186.82320786267519 0.82559369504451696 30.548194205388427 0.4542914442718019 0.8432137593626976 67.378517098724842 0.62401313148438919 9.7951625864952785 59.826961198821664 1.1402348522096866 100.20054392330348 2.7044903412461307 19.473878668621182 34.163312142714858 0.56585562229156383 5.6006014868617049 1.1378811746835706 8.7182687111198884 0.56807961873710144 0.64586497470736404 2.0846240799874067
leaf_count=839 107 4253 8083 95412 7482 23864 179 3463 4239 13023 25086 31208 2560 2552 1894 4770 783 160 1156 662 785 239 25 1730 102 1085 2 6 1283 47 450 31 960 7606 23 1086 1238 7218 40 950 9 45 2975 20 356 1708 35 4340 79 649 1109 17 140 42 298 20 20 101
internal_value=0 0.150457 0.12853 0.138617 0.129263 0.136365 0.178408 0.182628 0.157721 0.207079 0.166171 0.168838 0.238661 -0.0245792 0.044915 -0.0155883 0.100658 0.0423591 0.0761328 -0.0702508 0.108347 0.215904 -0.0905878 0.00847135 -0.114358 0.218975 -0.0812888 -0.0367404 -0.107957 -0.0316379 -0.147725 -0.125257 -0.102988 -0.102866 -0.102948 -0.103013 -0.103304 -0.102963 -0.103509 -0.103614 -0.102502 -0.103181 -0.102595 -0.103725 -0.102532 -0.103685 -0.10249 -0.102477 -0.10319 -0.103263 -0.103264 -0.102611 -0.104315 -0.10324 -0.103116 -0.102687 -0.10329 -0.102154
internal_weight=0 87317.3 48931.2 45907 40950.9 39036.8 38386.1 37231.2 18443.6 18787.6 8185.21 17586 10602.4 3024.26 1473.23 1914.07 1021.88 1154.89 943.014 857.559 824.383 4956.1 1551.03 300.161 1250.87 4896.56 451.352 59.5348 211.88 39.1535 118.631 172.727 852.008 690.901 563.475 477.013 69.662 407.351 161.108 121.979 127.425 39.1285 86.4621 96.5998 77.1737 90.3752 126.971 124.693 25.3795 22.1784 36.2182 1.40907 6.22461 2.27812 9.28847 3.20114 34.8092 2.91022
internal_count=268644 237453 148868 133697 131528 119276 88585 84494 40362 44132 28549 35447 15583 15171 5231 12252 3335 4091 2551 4915 1941 2169 9940 1755 8185 1924 1896 245 1540 226 610 1314 31191 26186 20800 17148 2324 14824 5005 3673 5386 1332 3652 2818 3331 2658 5377 5300 855 728 1191 62 160 77 321 127 1129 141
is_linear=0
shrinkage=0.1


Tree=4
num_leaves=58
num_cat=0
split_feature=136 133 31 126 29 31 53 107 130 32 103 127 75 124 102 91 104 31 112 126 126 112 31 31 31 32 40 113 31 13 126 62 104 87 112 31 31 31 90 102 112 36 30 125 51 30 102 40 90 115 111 25 66 40 112 115 0
split_gain=4098.84 3589.75 3245.1 3408.9 4050.55 4176.32 2504.91 1783.68 1495.43 1962.25 2405.06 1519.17 1334.03 1176.91 834.084 773.717 311.38 0.0337344 0.0123193 0.00395731 0.00364498 0.00160192 0.00152209 0.00125657 0.00161324 0.000937225 0.000510464 0.000523691 0.000406994 0.000422152 0.000406792 0.000362138 0.000301138 0.000293541 0.000243663 0.000207185 0.000203249 0.000169523 0.000136051 0.000126272 0.000119082 0.000111608 9.58218e-05 0.00010332 9.24395e-05 8.55391e-05 6.79751e-05 4.67127e-05 4.57755e-05 6.80085e-05 3.63575e-05 2.01341e-05 9.11293e-06 7.62828e-06 2.00293e-06 1.93805e-06 5.68434e-14
threshold=1.0000000180025095e-35 1.0000000180025095e-35 1.0016512274742129 -1.8013225197792051 1.2228067517280581 0.98841631412506115 1.14905720949173 -0.96572804450988758 1.0000000180025095e-35 0.95588946342468273 -0.85746818780899037 -1.6661682724952696 -1.1190676689147947 -2.5488942861557002 -0.94696637988090504 -1.147830009460449 -0.87250846624374379 0.99794092774391185 -1.0341035127639768 -1.7725837826728819 -1.7793298959732053 -1.0620293617248533 0.98841631412506115 1.0116586089134219 1.0010114312171938 0.9619593918323518 0.8305758833885194 -0.90786489844322193 1.0015382170677187 0.73172655701637279 -1.7793298959732053 0.75047355890274059 -0.92635533213615406 -1.2217323184013364 -1.0341035127639768 1.0015382170677187 1.0116586089134219 1.0010114312171938 -1.0936596989631651 -0.80008861422538746 -0.90333494544029225 0.79924386739730846 1.0907025337219241 -1.3905259370803831 1.1713032722473147 1.0894148945808413 -0.827287197113037 1.051985025405884 -1.0936596989631651 -1.0093187093734739 -1.010337173938751 1.5250849127769472 0.27217215299606329 1.0558739304542544 -1.2731032371520994 -1.0161963701248167 0.53315466642379772
decision_type=2 2 2 2 2 2 2 2 2 2 2 2 2 2 2 2 2 2 2 2 2 2 2 2 2 2 2 2 2 2 2 2 2 2 2 2 2 2 2 2 2 2 2 2 2 2 2 2 2 2 2 2 2 2 2 2 2
left_child=1 2 3 6 5 -5 7 -1 9 11 -11 -4 16 -8 -6 -14 -10 20 21 28 44 30 31 24 -20 26 33 -28 29 46 -19 42 41 -24 -30 52 -23 39 -37 -31 -25 -22 43 -21 56 -34 53 -48 49 -36 -39 -44 -27 -2 -46 -50 -3
right_child=19 17 8 4 14 -7 13 -9 12 10 -12 -13 15 -15 -16 -17 -18 18 23 22 32 36 25 40 -26 35 27 -29 34 37 -32 -33 45 -35 48 38 -38 50 -40 -41 -42 -43 51 -45 54 -47 47 -49 55 -51 -52 -53 -54 -55 -56 -57 -58
leaf_value=0.084055007573363955 -0.10234972761303865 -0.10175648568027545 0.20000142586585443 0.015512312233085884 -0.0048449254917309909 0.10348319112122953 0.15694395378331175 0.15623603148796789 0.1938237925608684 -0.11096265202365835 0.12028960624306172 0.12438874109146213 0.33617888549764252 -0.095669623190909089 0.17936034651508326 0.19357202545451219 -0.042441583803082314 -0.10256722821911723 -0.10341873959160948 -0.10242881382859632 -0.10235062941402964 -0.10349122108636173 -0.10516869159218085 -0.10355564004400281 -0.10483409071882506 -0.1024039184462554 -0.10266448310837675 -0.10297645445428023 -0.10194469122677613 -0.10314829907640172 -0.10305150558623294 -0.10521353842657517 -0.10274978817119161 -0.10280990513067485 -0.10175875142620126 -0.10223262196294657 -0.10282127428610771 -0.10312803642260629 -0.10265138563754062 -0.103410568964032 -0.10489055464786723 -0.10274261053870631 -0.10323415454349759 -0.10218823252564241 -0.10178157620032796 -0.10320154030617351 -0.10335131088848858 -0.10288581932151018 -0.10296384990429562 -0.10324662223078539 -0.10397264754806101 -0.10261000451813709 -0.10283718936546936 -0.10277391625987096 -0.10200516202661732 -0.10314737611362426 -0.10175648568027545
leaf_weight=3959.2359232697636 2.3880985565483601 353.94821883179247 6878.6960214227438 7613.5774960014969 257.47875429876149 18532.43180921115 258.99110681936145 25301.010820170864 69.138518989086151 474.81029664538801 8514.5882703829557 4329.6472107991576 399.37779974937439 640.6128938626498 5425.6070885956287 8028.913458019495 288.73886496014893 87.88546964712441 9.5168784614652377 22.215367276221514 39.747911026701331 34.600176071748137 1.3330546375364067 15.014497520402072 52.362866662442684 0.51717911101877501 367.55234833061695 63.035968346521258 2.6384015846997491 27.728347890079021 21.610526211559772 0.41321182064711948 14.641061933711173 0.87315327487885852 0.76431456953287125 61.102682869881392 5.210364691913127 0.56639711745083321 8.8865738026797754 54.318933840841055 0.69938045553862949 8.8881099037826043 1.0350692141801112 90.863922910764813 0.41098189540207641 5.8726882599294177 2.455349555239084 17.671681707724929 31.004098821431398 0.51367438212036975 5.087843930348753 1.0322896428406236 7.9110436961054802 0.51544814929366101 15.955650003626941 0.58627896383404987 1.7811916116625059
leaf_count=22254 107 20865 8587 36241 1117 51302 173 33255 224 2660 20377 10349 596 3384 4193 8059 2258 3632 312 960 1794 1085 31 468 1221 23 14765 2318 141 950 769 9 565 34 45 2975 198 20 356 1708 16 345 35 4340 24 197 79 649 1109 17 140 42 298 20 828 20 105
internal_value=0 0.128544 0.13024 0.117325 0.0944982 0.0778665 0.141416 0.146469 0.157861 0.142879 0.108075 0.170793 0.1923 -0.0229435 0.171015 0.20033 0.00320265 -0.102401 -0.103392 -0.102695 -0.101891 -0.10286 -0.102586 -0.104414 -0.104616 -0.10266 -0.102718 -0.10271 -0.103164 -0.103258 -0.102663 -0.102258 -0.102558 -0.104235 -0.102869 -0.102342 -0.103404 -0.103358 -0.102286 -0.103322 -0.103615 -0.102422 -0.102248 -0.102235 -0.101767 -0.102879 -0.102877 -0.102943 -0.102944 -0.102357 -0.103888 -0.102922 -0.102811 -0.102425 -0.102 -0.102967 -0.101756
internal_weight=0 91641 90972.9 61988.9 31829.1 26146 30159.9 29260.2 28983.9 20197.7 8989.4 11208.3 8786.17 899.604 5683.09 8428.29 357.877 668.146 226.9 773.011 441.246 149.307 626.772 77.5936 61.8797 511.212 432.795 430.588 146.239 110.732 109.496 115.56 69.1498 2.20621 35.5068 78.4175 39.8105 87.7015 69.9893 82.0473 15.7139 48.636 115.147 113.079 372.096 20.5138 23.0306 20.127 32.8684 1.27799 5.65424 2.06736 8.42822 2.90355 16.3666 31.5904 355.729
internal_count=268644 237453 205029 151919 92853 87543 59066 55509 53110 41973 23037 18936 11137 3557 5310 8655 2482 32424 7701 31191 24723 5684 26186 2017 1533 20800 17148 17083 5005 3673 4401 5386 2901 65 1332 3652 1283 2818 3331 2658 484 2139 5377 5300 21822 762 855 728 1191 62 160 77 321 127 852 1129 20970
is_linear=0
shrinkage=0.1


Tree=5
num_leaves=58
num_cat=0
split_feature=136 133 117 31 123 53 5 37 2 45 91 101 106 122 112 31 112 126 126 112 31 31 31 32 40 113 126 31 13 62 104 87 112 31 31 31 90 102 112 36 30 125 51 30 102 40 90 115 111 77 25 66 40 114 115 0 0
split_gain=3196.82 2793.92 2628.38 2029.5 2690.2 3838.42 1117.36 2270.59 1368.83 278.569 21.0279 0.643935 0.125406 0.100926 0.0619425 0.0248059 0.00903468 0.00290483 0.00268364 0.00117639 0.00112032 0.000919435 0.00117967 0.000688494 0.000375149 0.0003855 0.000299228 0.000298822 0.000309846 0.000265741 0.00022124 0.000215197 0.000179083 0.00015219 0.000149184 0.000124276 9.99094e-05 9.24039e-05 8.70956e-05 8.20523e-05 7.05037e-05 7.60011e-05 6.80865e-05 6.28167e-05 4.99202e-05 3.42993e-05 3.36247e-05 5.00099e-05 2.65945e-05 1.789e-05 1.47994e-05 6.69262e-06 5.6105e-06 1.47611e-06 1.42516e-06 5.68434e-14 4.44089e-16
threshold=1.0000000180025095e-35 1.0000000180025095e-35 -0.64082452654838551 1.0027450919151308 -2.2679247856140132 1.1232656836509707 0.57467493414878856 0.93174943327903759 0.38576476275920873 1.2205402255058291 -1.1467371582984922 -0.92285552620887745 -0.92585161328315724 -1.0234400033950803 -0.85737031698226918 0.99794092774391185 -1.0341035127639768 -1.7725837826728819 -1.7793298959732053 -1.0620293617248533 0.98841631412506115 1.0116586089134219 1.0010114312171938 0.9619593918323518 0.8305758833885194 -0.90786489844322193 -1.7793298959732053 1.0015382170677187 0.73172655701637279 0.75047355890274059 -0.92635533213615406 -1.2217323184013364 -1.0341035127639768 1.0015382170677187 1.0116586089134219 1.0010114312171938 -1.0936596989631651 -0.80008861422538746 -0.90333494544029225 0.79924386739730846 1.0907025337219241 -1.3905259370803831 1.1713032722473147 1.0894148945808413 -0.827287197113037 1.051985025405884 -1.0936596989631651 -1.0093187093734739 -1.010337173938751 -0.68316805362701405 1.5250849127769472 0.27217215299606329 1.0558739304542544 -1.3523594141006468 -1.0161963701248167 0.52835074067115795 0.29251401126384741
decision_type=2 2 2 2 2 2 2 2 2 2 2 2 2 2 2 2 2 2 2 2 2 2 2 2 2 2 2 2 2 2 2 2 2 2 2 2 2 2 2 2 2 2 2 2 2 2 2 2 2 2 2 2 2 2 2 2 2
left_child=1 2 3 4 9 -6 8 -8 -5 -1 12 14 -4 -14 -12 18 19 27 42 26 29 22 -18 24 31 -26 -17 28 44 40 39 -22 56 51 -21 37 -35 -30 -23 -20 41 -19 55 -32 52 -46 47 -34 -37 -13 -42 -25 -2 -44 -48 -3 -29
right_child=17 15 10 6 5 -7 7 -9 -10 -11 11 49 13 -15 -16 16 21 20 30 34 23 38 -24 33 25 -27 -28 32 35 -31 43 -33 46 36 -36 48 -38 -39 -40 -41 50 -43 53 -45 45 -47 54 -49 -50 -51 -52 -53 -54 -55 -56 -57 -58
leaf_value=0.17799842861304135 -0.10212118752156195 -0.10158654762405257 -0.14155862669041369 -0.12162504036156177 0.10465434187389114 -0.019491863342754795 0.13834995343300827 0.035223377842484659 0.17604643840805162 -0.042084490706621944 -0.13023543729541684 -0.15876709416219639 -0.12343553378990005 -0.10349440864817823 -0.14356599692783972 -0.10231706677057327 -0.10308367909558609 -0.10219235615353633 -0.1021220580412688 -0.10314833726481219 -0.10465540189984671 -0.10320651545210631 -0.10435395832332645 -0.10217015010722025 -0.10240468401450616 -0.10268569940622296 -0.10275312542050735 -0.10175620432585522 -0.10284003529447068 -0.10469387331306333 -0.10248133821629238 -0.10253579290201975 -0.10158857830591082 -0.1020160142319327 -0.10254573470329303 -0.10282224826038713 -0.10239282828568824 -0.10307555109760352 -0.10440407199030205 -0.10247495965633024 -0.10291739104459163 -0.10197567226264158 -0.10160908407058129 -0.1028877515262682 -0.1030223842214618 -0.10260368124504407 -0.1026738680070502 -0.10292827603730821 -0.10358054916426851 -0.15866195904260733 -0.10235558426219092 -0.10256006277164026 -0.10250316016403144 -0.10181070982320453 -0.10283908167043319 -0.10158654762405257 -0.10175620432585518
leaf_weight=4978.3930942863226 2.1654303651303084 320.34359787218273 0.89833225309848685 157.7094697970897 59683.742615915835 2598.9404198210686 16056.308013336733 2462.4226711057127 7547.1955971457064 58.184434548020363 7.2262813225388527 17.240105733275414 2.6074364036321631 95.407837845385075 6.7339354008436185 79.706585914827883 8.6377909071743471 20.145438799634576 36.041796154342592 31.406301912851632 1.2118116971105339 13.629293982870875 47.586754339747131 0.46897920407354732 333.37587779108435 57.190575955435634 19.607901487499475 1.3738526869565242 25.161020742729306 0.37565066665410896 13.280715025961401 0.79206628445535798 0.69267989136278629 55.399407883174717 4.7265553474426261 0.51394379511475552 8.0601746588945371 49.301409550011158 0.63562386482953925 8.062229856848715 0.93930506706237682 82.379725729115307 0.37245174497365852 5.3292086236178866 2.2284239251166609 16.03172704577446 28.128863891586665 0.46615609526634461 4.6202099304646245 264.48791189491749 0.93625777028501034 7.1765649393200874 0.4675659742206334 14.463457917794583 0.53199643455445667 2.0447136592119923 1.017668657004833
leaf_count=1924 107 20837 7 818 140122 13312 27724 7649 8925 245 43 74 19 3000 32 3632 312 960 1794 1085 31 468 1221 23 14765 2318 769 81 950 9 565 34 45 2975 198 20 356 1708 16 345 35 4340 24 197 79 649 1109 17 140 1135 42 298 20 828 20 133 60
internal_value=0 0.111885 0.113265 0.114352 0.105159 0.099474 0.137952 0.124637 0.169953 0.175456 -0.144278 -0.15763 -0.104366 -0.104025 -0.136666 -0.102167 -0.103059 -0.102433 -0.101708 -0.102581 -0.102334 -0.103977 -0.104159 -0.102401 -0.102453 -0.102446 -0.102403 -0.102854 -0.102939 -0.102039 -0.102309 -0.103818 -0.102589 -0.102115 -0.10307 -0.103029 -0.102064 -0.102996 -0.10326 -0.102187 -0.102029 -0.102018 -0.101596 -0.102598 -0.102596 -0.102655 -0.102656 -0.102127 -0.103505 -0.158668 -0.102637 -0.102536 -0.102189 -0.101806 -0.102677 -0.101587 -0.101756
internal_weight=0 94543.4 93937.5 93542.9 67319.3 62282.7 26223.6 18518.7 7704.91 5036.58 394.602 295.688 98.9136 98.0153 13.9602 605.875 205.937 701.153 399.938 135.447 568.452 70.4895 56.2245 463.675 392.57 390.566 99.3145 132.701 100.49 104.776 62.7139 2.00388 32.2112 71.1051 36.1329 79.5966 63.4596 74.4624 14.2649 44.104 104.401 102.525 337.224 18.6099 20.8931 18.2602 29.8197 1.15884 5.13415 281.728 1.87556 7.64554 2.633 14.8359 28.6609 322.388 2.39152
internal_count=268644 237453 205029 200719 155603 153434 45116 35373 9743 2169 4310 1284 3026 3019 75 32424 7701 31191 24723 5684 26186 2017 1533 20800 17148 17083 4401 5005 3673 5386 2901 65 1332 3652 1283 2818 3331 2658 484 2139 5377 5300 21822 762 855 728 1191 62 160 1209 77 321 127 852 1129 20970 141
is_linear=0
shrinkage=0.1


Tree=6
num_leaves=55
num_cat=0
split_feature=136 106 124 97 39 134 78 113 14 30 126 116 124 2 46 105 129 34 3 52 46 82 135 33 44 55 57 52 108 126 31 32 113 76 31 31 13 62 112 31 31 90 102 30 125 102 40 90 115 111 25 66 40 113
split_gain=2537.25 2596.16 2271.39 3773.53 2860.65 2292.75 4657.09 2154.98 2122.13 2037.45 2764.97 1909.24 1993.63 1324.2 1011.43 1303.73 1117.92 1348.72 1005.45 908.627 707.318 497.869 485.33 294.891 240.128 136.819 35.2851 86.8066 17.6314 0.00213418 0.000825081 0.000506175 0.000276176 0.000494607 0.000399675 0.000219598 0.000227613 0.000195186 0.000131716 0.000111886 9.12009e-05 7.34322e-05 6.76943e-05 5.19083e-05 5.59393e-05 3.66934e-05 2.52057e-05 2.47187e-05 3.68001e-05 1.94775e-05 1.08863e-05 4.9194e-06 4.12903e-06 1.05009e-06
threshold=1.0000000180025095e-35 -0.91999077796936024 -1.3680857419967649 -0.93120440840721119 1.0136523842811587 1.0000000180025095e-35 -1.143138527870178 -1.3248280286788938 0.84853366017341625 1.0947851538658144 -1.4870252609252927 -0.94463565945625294 -1.3185340166091917 0.65453553199768078 1.1719542145729067 -0.88896813988685597 1.0000000180025095e-35 0.84153825044631969 0.59081009030342113 0.93729689717292797 1.1361652016639712 -1.0414960384368894 1.0000000180025095e-35 0.89173850417137157 1.0794855952262881 1.0132032036781313 0.97611948847770702 1.1550755500793459 -1.0473600029945371 -1.7725837826728819 0.98841631412506115 0.9619593918323518 -0.90786489844322193 -1.2183519601821897 1.0015382170677187 1.0015382170677187 0.73172655701637279 0.75047355890274059 -1.0341035127639768 1.0015382170677187 1.0010114312171938 -1.0936596989631651 -0.80008861422538746 1.0907025337219241 -1.3905259370803831 -0.827287197113037 1.051985025405884 -1.0936596989631651 -1.0093187093734739 -1.010337173938751 1.5250849127769472 0.27217215299606329 1.0558739304542544 -0.98472177982330311
decision_type=2 2 2 2 2 2 2 2 2 2 2 2 2 2 2 2 2 2 2 2 2 2 2 2 2 2 2 2 2 2 2 2 2 2 2 2 2 2 2 2 2 2 2 2 2 2 2 2 2 2 2 2 2 2
left_child=1 14 4 9 5 13 -7 25 -9 10 -4 19 -13 -3 15 16 17 -1 -11 -5 23 -18 -22 -17 -16 -6 28 -28 -26 35 37 32 34 -34 -32 36 45 43 -37 51 42 -41 -38 44 -31 52 -47 48 -40 -42 -45 -33 -2 -49
right_child=29 2 3 11 7 6 -8 8 -10 18 -12 12 -14 -15 24 20 21 -19 -20 -21 22 -23 -24 -25 26 -27 27 -29 -30 30 31 39 33 -35 -36 38 40 -39 47 41 49 -43 -44 50 -46 46 -48 53 -50 -51 -52 -53 -54 -55
leaf_value=0.055893243407924065 -0.10191531433863815 0.14073100739187572 0.1268340974307989 0.15143715582335615 0.27082706756309072 0.042510629183398325 0.18554155397344629 0.093013979702210869 -0.11075965963091827 -0.16037311551555083 0.054089321242212565 0.16810080857807708 -0.048164266208287204 0.41775862300936017 0.52439185430260105 0.24505396773805371 0.011207430999329653 -0.060156307187199998 0.15707661279683949 -0.088558320982769417 0.00064285723737362763 0.23855365329543343 0.19879245751796112 -0.041242535994167037 -0.11228509033183232 -0.12087642837409761 0.22976472442204413 -0.12003142088061441 -0.15548934330117145 -0.10197938636314779 -0.10228319991296386 -0.10195955513273627 -0.10205513142370411 -0.10268267181249424 -0.10205306608620074 -0.1015862990026208 -0.10256272595441057 -0.10422810978439404 -0.10143513089374732 -0.101820787480129 -0.10254706888522372 -0.10216003933237983 -0.1027743638285613 -0.10263244253037736 -0.10178414657716398 -0.10272663052084155 -0.10234980081982636 -0.10241295272585833 -0.1026419710960336 -0.10322840328439115 -0.10212649673931516 -0.10231063838039811 -0.10225942096833562 -0.10256184725504391
leaf_weight=2323.2477538380772 1.9631189573556214 30566.046911505982 8281.9115007128567 170.60325223580003 9.0670535042881948 7137.0900342091918 3342.5690798982978 16844.123049029149 527.05551963299513 101.79086062684655 14155.897556137294 933.168860912323 784.69628425501287 173.52601931989193 5.835308074951171 506.14045315422118 137.51695402339101 1760.2319033890963 5030.7029238101095 2094.4951692298055 380.93388357572258 321.57610413990915 182.98615112155676 38.730405563488603 226.36431987117976 539.88670389354229 9.650025404058395 26.79010649677366 162.09583441540599 18.264475304633379 164.65750714950264 0.42518177814781566 21.191128600388765 30.835082941688597 139.31578691117465 2.1673731682822135 22.825053792446852 0.34134420938789745 0.62766260001808405 50.218676483258605 0.46621990390121926 7.3089201916009179 44.733829110860825 0.85215785074978956 74.673381363041699 2.0218707527965334 14.540256812237201 25.513570535928018 0.42291207425296551 4.1940732095390549 0.84896461013704538 6.5086490120738745 0.42402821406722058 0.48262464627623103
leaf_count=16308 107 44717 13813 470 108 20641 3791 23912 2435 530 46896 2287 4487 130 1 1378 458 23060 4474 9270 2354 300 204 265 6068 7471 24 574 1027 960 7606 23 1086 1238 7218 141 950 9 45 2975 20 356 1708 35 4340 79 649 1109 17 140 42 298 20 20
internal_value=0 0.0982215 0.102463 0.0807972 0.114023 0.128524 0.0881315 0.0806667 0.0868313 0.0939414 0.0809398 -0.0101877 0.069314 0.142295 0.0349739 0.0462322 0.0225025 0.00586872 0.150781 -0.0704823 0.14345 0.170454 0.0649403 0.224703 -0.112737 -0.114407 -0.121487 -0.0273989 -0.130313 -0.102196 -0.102107 -0.102167 -0.102214 -0.102427 -0.102178 -0.102575 -0.102651 -0.101841 -0.102336 -0.10191 -0.102732 -0.101864 -0.102703 -0.101833 -0.101823 -0.102343 -0.102396 -0.102396 -0.101921 -0.10316 -0.10238 -0.102289 -0.101976 -0.102416
internal_weight=0 96774.7 90692.6 31553.3 59139.4 41219.2 10479.7 17920.1 17371.2 27570.3 22437.8 3982.96 1717.87 30739.6 6082.1 5651.36 4542.57 4083.48 5132.49 2265.1 1108.79 459.093 563.92 544.871 430.736 548.954 424.9 36.4401 388.46 635.824 515.441 420.461 356 52.0262 303.973 120.383 91.1685 94.9803 29.2141 64.4614 72.2192 57.5276 67.5589 94.639 92.9379 18.9493 16.5621 27.0468 1.05057 4.66029 1.70112 6.93383 2.38715 25.9962
internal_count=268644 237453 185432 82227 103205 69279 24432 33926 26347 65713 60709 16514 6774 44847 52021 44327 40126 39368 5004 9740 4201 758 2558 1643 7694 7579 7693 598 7095 31191 26186 20800 17148 2324 14824 5005 3673 5386 1332 3652 2818 3331 2658 5377 5300 855 728 1191 62 160 77 321 127 1129
is_linear=0
shrinkage=0.1


Tree=7
num_leaves=49
num_cat=0
split_feature=123 53 136 106 125 97 96 1 12 129 31 29 113 46 104 50 106 45 49 114 48 114 36 113 69 116 49 114 20 106 49 50 117 114 114 107 116 39 36 131 114 126 31 32 31 112 40 30
split_gain=2166.08 3267.17 2007.52 2030.16 2005.67 3767.7 1944.39 1546.61 845.702 828.834 786.405 721.139 986.569 573.947 508.919 489.086 233.354 229.417 136.159 371.619 672.953 275.228 553.269 156.375 137.311 133.074 126.477 123.269 158.95 96.1757 63.5049 56.7335 525.813 16.9651 5.90692 0.9442 0.317238 0.151939 0.13709 0.135932 0.0866545 0.00163557 0.000648175 0.000372036 0.000203776 9.69218e-05 8.8655e-05 3.88813e-05
threshold=-2.2679247856140132 1.1232656836509707 1.0000000180025095e-35 -0.93524938821792591 -1.4706953167915342 -0.9294643998146056 -0.94030508399009693 0.41324582695961004 0.77856022119522106 1.0000000180025095e-35 0.96959561109542858 1.0502124428749087 -1.3151752352714536 1.2256379127502444 -0.91120919585227955 1.1399309039115908 -0.79254913330078114 1.2205402255058291 1.1847908496856692 -1.3835228085517881 1.2133223414421084 -1.3909263610839842 0.88563671708107006 -1.3463916182518003 0.044575374573469169 -1.4418673515319822 0.948692947626114 -0.97761812806129444 1.1387591361999514 -0.89232626557350148 1.1970789432525637 1.2070026993751528 -1.5082311034202573 -1.3909263610839842 -1.3796767592430113 -0.90305110812187184 -1.4815858602523801 1.0130372047424319 0.88180425763130199 1.0000000180025095e-35 -1.3909263610839842 -1.7725837826728819 0.98841631412506115 0.9619593918323518 1.0015382170677187 -1.0341035127639768 1.051985025405884 1.0907025337219241
decision_type=2 2 2 2 2 2 2 2 2 2 2 2 2 2 2 2 2 2 2 2 2 2 2 2 2 2 2 2 2 2 2 2 2 2 2 2 2 2 2 2 2 2 2 2 2 2 2 2
left_child=17 2 3 9 6 -6 -5 11 15 10 -2 12 30 -14 -11 -9 -17 18 21 20 23 22 -1 -20 -24 35 -10 29 -29 -13 -3 34 -33 -22 -21 36 40 -37 -38 -28 -19 44 47 -44 46 -46 -4 -43
right_child=1 7 41 4 5 -7 -8 8 26 14 -12 27 13 -15 -16 16 -18 25 19 31 33 -23 24 -25 -26 -27 39 28 -30 -31 -32 32 -34 -35 -36 37 38 -39 -40 -41 -42 42 43 -45 45 -47 -48 -49
leaf_value=0.85118619067115908 0.039523816653928172 0.064988756867277772 -0.10247601914763796 0.14647545265268375 0.080735580679516195 -0.03781757038425989 0.093491749115365189 0.94684465206124779 0.29806819824509057 -0.14157613759256174 -0.068635543893773618 -0.0496358890387643 0.067298824777477437 -0.10541157910111357 0.21538129636371553 0.20080546308438968 0.4897045944210045 -0.10359926571049204 -0.1120900035258869 0.15003507107483749 -0.10930222699198705 0.16185683154825273 0.31125241552737931 0.16129290387207504 -0.12971162360745728 0.16365711963538498 -0.11335720595280602 0.1426291039362802 -0.1514326444471765 -0.16004106996066653 -0.13954372018506231 -0.20936096034456192 0.16032323908937426 -0.20188859537905279 0.16345367845762293 -0.18276769461534664 -0.16383110149280897 -0.1639501684514143 -0.14316395433190934 -0.123698375236305 -0.13074498089828906 -0.10164182780176093 -0.10199915703838927 -0.10172490370849836 -0.10143306402494762 -0.10216322009724642 -0.10215504622219185 -0.10214852604454126
leaf_weight=19.604383513331413 1421.6362421773374 15.682797463610767 63.693589413538575 8107.5191932888702 29005.853935909458 2953.6951394062489 47538.492319682613 14.260931789875029 8.5133956493809801 47.103912182152271 1275.2324151098728 91.661023433320224 1012.4936791555956 237.55868106894195 262.64448756724596 64.698771048337221 49.235953604802489 1.9631286989897496 23.020053081214428 362.63432857394218 27.941887993365526 142.62343311309814 25.195222988724709 229.68095231056213 9.8113955594599229 19.734412848949432 29.565922589041293 35.838651537895203 37.736804060637951 566.81799828633666 473.84645194839686 42.661770015954971 391.96173173747957 67.841864332556725 3440.285432651639 8.9963016286492365 4.4655601680278769 8.2036539576947671 11.410990834236143 22.29711726307869 2.9326681196689623 83.002940769307315 322.76609878242016 58.415063353255391 1.9639321574941302 24.46337051037699 9.9495375677943212 1.5425488054752339
leaf_count=7 12240 75 2729 8941 69166 13276 93385 16 7 254 22927 932 2415 1043 278 194 44 71 282 93 410 16 7 102 82 6 379 40 206 3037 6747 177 62 282 405 38 19 37 57 221 17 5233 17148 3651 141 1188 484 77
internal_value=0 0.0826117 0.0857989 0.0869715 0.0897444 0.0697789 0.101211 -0.0266287 0.249421 0.00617376 -0.0116201 -0.0476897 -0.0126495 0.0344771 0.161098 0.394755 0.325651 0.151207 0.153598 0.150099 0.0508343 0.234954 0.425856 0.136389 0.187662 -0.0469893 -0.0591631 -0.130956 -0.00819498 -0.144673 -0.132991 0.158262 0.124036 -0.174879 0.162174 -0.156463 -0.142114 -0.173793 -0.148977 -0.117803 -0.11986 -0.10198 -0.101902 -0.101957 -0.102347 -0.102109 -0.102433 -0.101651
internal_weight=0 93838.2 91178 90612.2 87605.6 31959.5 55646 2660.21 188.572 3006.62 2696.87 2471.64 1739.58 1250.05 309.748 128.196 113.935 4840.97 4783.26 4586.03 348.485 197.234 54.611 252.701 35.0066 57.7067 60.3764 732.054 73.5755 658.479 489.529 4237.54 434.624 95.7838 3802.92 37.9723 20.7723 17.2 15.8766 51.863 4.8958 565.797 465.727 381.181 100.07 26.4273 73.6431 84.5455
internal_count=268644 266474 251118 220467 184768 82442 102326 15356 861 35699 35167 14495 10280 3458 532 254 238 2170 1925 1813 1076 112 96 384 89 245 607 4215 246 3969 6822 737 239 692 498 239 164 75 76 600 88 30651 26109 20799 4542 1329 3213 5310
is_linear=0
shrinkage=0.1


Tree=8
num_leaves=54
num_cat=0
split_feature=123 54 133 113 136 31 1 29 114 46 16 45 116 113 47 60 50 1 51 102 47 50 117 106 40 120 117 91 114 133 115 50 38 39 114 113 124 37 110 122 10 113 78 103 115 40 31 118 106 126 31 31 31
split_gain=2053.83 2630.8 1739.21 1698.59 1618.08 1427.64 774.367 508.496 670.108 425.28 336.445 193.431 112.539 106.058 1018.72 99.2916 98.5641 93.0353 66.663 54.5965 126.252 43.7117 411.575 43.1067 35.3098 33.9731 31.224 14.4246 13.2881 2.77224 2.26467 11.5837 1.93112 1.45406 1.12286 0.60152 0.286909 0.185503 0.0683416 0.0594138 0.0580448 0.0378443 0.0333192 0.0239947 0.0182459 0.015565 0.0040336 0.00366584 0.00259953 0.00112167 0.000973243 0.000917959 0.000536353
threshold=-2.2679247856140132 1.0977041721343996 1.0000000180025095e-35 -0.81478065252304066 1.0000000180025095e-35 0.99720710515975963 0.41324582695961004 1.0472072362899782 -1.3523594141006468 1.235542953014374 1.09138560295105 1.2205402255058291 -1.4418673515319822 -1.3326844573020933 1.2102423906326296 0.72249314188957225 1.043811082839966 -0.12857659906148908 1.1840280294418337 -0.76170399785041798 1.2296965122222903 1.2070026993751528 -1.5082311034202573 -0.79036459326744068 1.0411763191223147 -1.7586037516593931 -1.5327794551849363 -1.1467371582984922 -1.3909263610839842 1.0000000180025095e-35 -1.4225195050239561 1.1909052729606631 0.96614617109298717 1.0136523842811587 -1.3523594141006468 -1.3248280286788938 -2.5488942861557002 0.92358687520027172 -1.1596340537071226 -1.0234400033950803 0.63743510842323314 -1.3201867938041685 -1.1018807291984556 -0.73155471682548512 -1.4394558072090147 1.0558739304542544 1.0010114312171938 -1.1869086027145384 -0.91999077796936024 -1.7725837826728819 0.99794092774391185 0.99794092774391185 0.99794092774391185
decision_type=2 2 2 2 2 2 2 2 2 2 2 2 2 2 2 2 2 2 2 2 2 2 2 2 2 2 2 2 2 2 2 2 2 2 2 2 2 2 2 2 2 2 2 2 2 2 2 2 2 2 2 2 2
left_child=11 2 3 4 5 -2 7 8 18 -10 15 13 35 14 17 -8 -12 24 -3 20 -9 30 32 -17 -1 26 -16 39 -27 -21 31 -15 -23 -32 -24 37 45 38 -13 -5 -18 -38 46 -29 -39 -37 52 50 -48 -6 -44 -49 -4
right_child=1 6 42 27 49 -7 10 19 9 -11 16 12 -14 21 25 23 40 -19 -20 29 -22 22 34 -25 -26 28 -28 43 -30 -31 33 -33 -34 -35 -36 36 41 44 -40 -41 -42 -43 47 -45 -46 -47 48 51 -50 -51 -52 -53 -54
leaf_value=0.17657547053467337 0.065755562913102542 -0.047793725734654749 -0.10219193475715967 -0.12420886945655213 -0.10211374611724761 0.090759998498603472 0.50649547665126593 -0.12136248899859398 0.059542500772067845 -0.15991206814268075 0.25221805650140061 -0.13218414766427511 0.15057742112403288 0.15360959754985146 -0.1282084979809591 0.15973493957755885 -0.12913545158801196 0.32201465292311882 -0.14149368191852624 -0.17099335245905012 0.22870189267081931 -0.21615420954511388 0.14338752350781189 0.31287865782841345 0.10983340775489757 -0.10888398465555867 0.093079505319406536 -0.1399502176524495 -0.19117540015229739 -0.10161834031085307 0.15346203799156841 0.12004322365016634 -0.17127178812848373 0.15995981176609386 0.15481840299286018 -0.17281408064839338 -0.13982495859156838 -0.11391084326878949 -0.15425304127692985 -0.1034055087160124 -0.11582646306810562 -0.15199784688078125 -0.10150661791655174 -0.14595389642107706 -0.12501520290031662 -0.16555727647815022 -0.10347196557300707 -0.10196476787473122 -0.10470756972514034 -0.10172802886879805 -0.10196530612543098 -0.10253977005720061 -0.10317628473014831
leaf_weight=319.34207294881344 43835.699518157169 96.423006229102612 11.850040921941401 1.3893911093473423 92.56749024335295 47660.749868917279 17.967105627059937 229.63486137520522 682.23759176954627 101.43413607403636 9.1101475022733194 2.2985182981938124 19.323820322751999 644.77543391287327 16.746726118028164 33.184442937374115 3.6619659047573796 38.674842238426208 357.23518815264106 293.76299945451319 10.786459259688852 17.293515607714653 132.81877061724663 41.199292659759521 105.44021844863892 26.441960845142603 10.296949088573458 6.831701584160327 76.084485396742821 5.8752184500917783 2430.4664667546749 122.31392964720726 21.51055046916008 401.24839715659618 243.44516769051552 6.0948411971330643 4.6778049618005753 1.9505036510527105 3.6024790778756133 115.26012448593974 31.169915915466845 5.6251156479120255 287.06300543621182 260.385836167261 6.1305110156536111 5.7386530488729477 29.012280256487429 57.711216165684164 41.216272623278201 406.34179343655705 55.143952407874167 53.504520933143795 10.387841494753955
leaf_count=63 102929 733 590 10 4645 85592 12 1591 1865 551 4 32 6 76 208 54 30 37 4438 1310 63 70 30 11 181 414 8 41 322 379 285 58 92 50 31 25 23 54 17 4126 410 25 20117 1208 39 24 940 3156 1018 24986 2976 2324 365
internal_value=0 0.0734834 0.0758735 0.0769252 0.0778011 0.0787804 -0.0425766 -0.0601917 -0.0248546 0.0311375 0.18714 0.141467 -0.0442047 0.143701 0.104227 0.295518 -0.0406319 0.173528 -0.121578 -0.141152 -0.105657 0.149533 0.118805 0.244557 0.160009 -0.143654 -0.0439525 -0.132993 -0.169952 -0.169633 0.153077 0.148257 -0.191274 0.154383 0.150783 -0.148416 -0.158672 -0.132178 -0.145657 -0.103653 -0.117226 -0.146471 -0.102095 -0.1458 -0.122335 -0.169295 -0.103825 -0.101743 -0.104197 -0.1018 -0.101581 -0.102241 -0.102652
internal_weight=0 94838.8 92925.1 92379.2 91995.4 91496.4 1913.68 1777.39 1237.33 783.672 136.293 4662.34 55.4422 4606.9 593.027 92.3508 43.942 463.457 453.658 540.06 240.421 4013.87 415.068 74.3837 424.782 129.57 27.0437 383.867 102.526 299.638 3598.8 767.089 38.8041 2831.71 376.264 36.1184 22.1364 13.982 5.901 116.65 34.8319 10.3029 545.889 267.218 8.08101 11.8335 92.4664 453.423 70.2286 498.909 342.207 111.216 22.2379
internal_count=268644 266474 255023 223537 218152 188521 11451 10930 7587 2416 521 2170 245 1925 1233 77 444 281 5171 3343 1654 692 223 65 244 952 216 5385 736 1689 469 134 162 335 61 239 97 142 49 4136 440 48 31486 1249 93 49 2913 28573 1958 29631 23093 5480 955
is_linear=0
shrinkage=0.1


Tree=9
num_leaves=54
num_cat=0
split_feature=123 53 106 123 74 134 1 135 48 48 104 39 19 113 31 122 12 35 56 70 98 18 45 35 113 47 116 46 75 38 75 70 114 115 50 117 120 43 107 114 115 50 39 114 39 113 124 37 131 43 113 115 40
split_gain=1981.55 2141.93 1575.25 2332.73 2653.32 2571.33 909.533 891.418 1134.11 842.568 1244.02 856.091 588.796 744.069 587.269 529.963 390.475 378.411 297.521 277.952 269.754 197.005 165.25 129.831 101.206 852.469 96.0343 91.5047 86.1842 70.3854 67.2525 52.383 115.448 62.8534 38.727 349.012 27.8098 28.1544 23.9113 8.5735 2.08782 11.149 1.06573 1.03414 0.834053 0.378331 0.176925 0.126955 0.0964502 0.0440129 0.02423 0.0120832 0.00925117
threshold=-2.2679247856140132 1.1232656836509707 -0.91999077796936024 -1.5335251092910764 -0.85014936327934254 1.0000000180025095e-35 0.41324582695961004 1.0000000180025095e-35 1.1547165513038637 1.1662262082099917 -0.84486964344978321 0.95254513621330272 1.1034947633743288 -1.3151752352714536 0.97662088274955761 -1.9847310185432432 0.77856022119522106 0.89896303415298473 1.0074570178985598 -0.2815964519977569 -1.0818546414375303 1.1105375885963442 1.2205402255058291 0.95570489764213573 -1.3326844573020933 1.2102423906326296 -1.4418673515319822 1.1860678791999819 -1.1370676159858701 0.95661389827728283 -0.89353871345520008 -0.070145308971405015 -1.3909263610839842 -1.4394558072090147 1.2070026993751528 -1.5082311034202573 -1.7586037516593931 1.1583883166313174 -0.98937079310417164 -1.3909263610839842 -1.4225195050239561 1.1909052729606631 1.0130372047424319 -1.3523594141006468 1.0136523842811587 -1.3248280286788938 -2.5488942861557002 0.92358687520027172 1.0000000180025095e-35 1.1729356646537783 -1.3201867938041685 -1.4394558072090147 1.0558739304542544
decision_type=2 2 2 2 2 2 2 2 2 2 2 2 2 2 2 2 2 2 2 2 2 2 2 2 2 2 2 2 2 2 2 2 2 2 2 2 2 2 2 2 2 2 2 2 2 2 2 2 2 2 2 2 2
left_child=22 2 9 7 5 -5 12 8 -4 10 11 -2 13 29 -9 -15 20 -12 -6 21 -8 -11 24 30 25 31 45 -22 -18 -3 -14 32 -1 -33 40 42 37 -27 -21 -38 41 -26 -36 -37 -42 47 52 49 -30 -24 -48 -49 -47
right_child=1 6 3 4 18 -7 16 14 -10 19 17 -13 23 15 -16 -17 28 -19 -20 38 27 -23 26 -25 34 36 -28 -29 48 -31 -32 33 -34 -35 35 43 39 -39 -40 -41 44 -43 -44 -45 -46 46 50 51 -50 -51 -52 -53 -54
leaf_value=0.27993989474553554 0.029079490139146725 0.1059931706396305 0.18059779391690373 0.075197978664386933 -0.16062550231987766 0.023146507382903525 1.200749258369173 -0.16330382338965976 0.10210852753961713 0.24939395042702273 0.14278610442868267 -0.080473360311610023 -0.14690765492372065 0.1449014543865717 0.080167496664790783 -0.0085626476736864986 0.21178359870316441 -0.14598889931350198 -0.0014191700703139105 -0.11237292813619677 0.15938606435975289 -0.13260257056329394 -0.14839716875108958 0.2377270369797686 0.14594973263285491 0.076566885557797393 0.13998273750453044 0.30774210270652896 -0.11211731168826962 -0.13324281911949637 -0.0664809008009246 -0.11932982684419105 0.14533431318601953 0.14596865183323146 -0.1879559634266274 0.13556088992227844 -0.10799178889518013 -0.13557200937074357 -0.16019939628233315 -0.17662746287719966 0.14584066322534614 0.11236180471065077 -0.15280055132293943 0.14679590662507519 0.15087528498268446 -0.16125925440117267 -0.13463498569818064 -0.11266631482421548 -0.12124284451762896 -0.13057476520423345 -0.14466758063088514 -0.12210322800520793 -0.1555579948661403
leaf_weight=78.750504855066538 3748.4996134378016 12.67149323876947 2678.7035144791007 66078.201936403289 556.93666577804834 11082.237381562591 2.8866384029388419 174.99647571891546 5886.1515340609476 35.54673570021987 987.25246023852378 880.93354845046997 497.14707229938358 289.41731942258775 228.33755896985531 1011.4095917521045 9.6602393109351379 47.564113819971681 148.72650398220867 295.27588984649628 92.878139596432447 21.768571680411696 2.8795672859996539 9.745404056273399 612.41354174911976 11.153864998370411 18.737564474344254 75.266754008829594 26.703758247196674 417.07506575528532 131.46309449989349 14.066463500261305 333.79413911700249 24.456499099731445 24.828232705593109 126.75129145383835 24.113235402852297 14.247375622391699 161.82798815332353 74.207508489489555 2308.0117548406124 117.84172420203686 13.211636602878569 231.67788758128881 383.76071161031723 5.8887427151203156 4.3872606754302979 1.7833901895210127 20.453103266656399 2.6708051348105073 5.334063708782196 5.672552242875101 5.5084718763828278
leaf_count=90 29188 41 3795 153454 2880 28877 1 676 9843 33 3004 10634 2911 190 425 3472 8 428 339 6097 191 248 15 20 76 31 6 62 379 6673 1188 142 46 3 101 30 414 185 1197 322 285 58 61 31 50 25 23 54 220 34 25 39 24
internal_value=0 0.0655468 0.0680477 0.0715192 0.0659567 0.067722 -0.024032 0.119815 0.126656 0.0192611 0.0303897 0.00823271 -0.0423864 -0.0121073 -0.0254686 0.0255811 0.166797 0.129513 -0.127071 -0.103276 0.24225 0.10431 0.133841 -0.124473 0.135955 0.0968352 -0.0419113 0.225795 -0.0603316 -0.126189 -0.130088 0.160616 0.171029 0.0490963 0.141844 0.112257 -0.135697 -0.0424203 -0.129305 -0.159795 0.145272 0.14053 -0.175746 0.142823 0.146558 -0.141787 -0.15005 -0.12837 -0.116075 -0.139821 -0.14014 -0.119846 -0.158504
internal_weight=0 95609.7 93013 86834.3 77866.1 77160.4 2596.78 8968.19 8564.86 6178.67 5664.25 4629.43 2368.93 1730.57 403.334 1300.83 227.849 1034.82 705.663 514.419 171.032 57.3153 4446.15 638.356 4393.29 574.79 52.8624 168.145 56.8171 429.747 628.61 451.068 412.545 38.523 3818.5 396.469 123.722 25.4012 457.104 98.3207 3422.03 730.255 38.0399 358.429 2691.77 34.1249 21.1185 13.0063 47.1569 5.55037 9.72132 7.45594 11.3972
internal_count=268644 266474 251118 200289 185550 182331 15356 14739 13638 50829 43254 39822 14495 10376 1101 3662 861 3432 3219 7575 254 281 2170 4119 1925 1233 245 253 607 6714 4099 281 136 145 692 223 952 216 7294 736 469 134 162 61 335 239 97 142 599 49 48 93 49
is_linear=0
shrinkage=0.1


Tree=10
num_leaves=56
num_cat=0
split_feature=123 52 126 96 29 31 127 118 105 33 5 0 114 108 38 30 45 129 101 102 129 37 135 115 124 45 113 47 116 70 114 115 53 56 50 117 108 120 117 62 108 114 114 42 114 39 36 115 113 124 37 43 113 112 40
split_gain=1909.42 1806.22 1788.64 3129.84 1723.78 3887.35 1485.65 1661.46 1453.25 1335.27 1477.12 1334.02 1188.96 928.833 823.45 814.303 833.881 736.217 623.921 614.62 475.225 433.102 386.421 340.877 336.024 142.233 97.6752 717.833 82.5585 40.9005 57.514 54.8018 36.9517 112.482 34.4824 298.782 23.9699 23.7706 25.3282 15.6313 8.89386 5.66202 2.194 4.89161 0.991948 0.987908 0.659476 0.498232 0.243106 0.112144 0.0877267 0.0280696 0.0158276 0.00831357 0.00569393
threshold=-2.2679247856140132 1.1391969919204714 -1.7294260859489439 -0.92171549797058094 1.2302647233009341 0.99599808454513561 -1.8360833525657652 -1.0096514225006101 -0.89876097440719593 0.94878551363945018 0.51119410991668712 0.61521458625793468 -1.0070616602897642 -1.0316789150238035 0.90302023291587841 1.0096333622932436 1.2057487964630129 1.0000000180025095e-35 -0.8480587601661681 -0.94696637988090504 1.0000000180025095e-35 0.99985942244529735 1.0000000180025095e-35 -1.0620895028114317 -1.847084045410156 1.2205402255058291 -1.3326844573020933 1.2102423906326296 -1.4418673515319822 -0.070145308971405015 -1.3909263610839842 -1.4394558072090147 1.1137545108795168 1.0047365427017214 1.2070026993751528 -1.5082311034202573 -1.0473600029945371 -1.7586037516593931 -1.5327794551849363 0.72329136729240429 -1.0473600029945371 -1.3909263610839842 -1.3796767592430113 1.1218358874320986 -1.3523594141006468 0.99717378616333019 0.88040730357170116 -1.4225195050239561 -1.3248280286788938 -2.5488942861557002 0.92358687520027172 1.1729356646537783 -1.3201867938041685 -1.2803804278373716 1.0558739304542544
decision_type=2 2 2 2 2 2 2 2 2 2 2 2 2 2 2 2 2 2 2 2 2 2 2 2 2 2 2 2 2 2 2 2 2 2 2 2 2 2 2 2 2 2 2 2 2 2 2 2 2 2 2 2 2 2 2
left_child=25 2 8 4 5 -4 7 -5 14 12 -11 -8 -10 32 18 16 22 -16 -2 -6 24 -22 -15 -18 -17 26 27 29 48 30 -1 -31 33 40 42 46 45 38 -29 -38 -3 -39 43 -28 -37 -34 -36 -44 50 54 51 -27 -51 -52 -50
right_child=1 13 3 6 19 -7 11 -9 9 10 -12 -13 -14 15 17 20 23 -19 -20 -21 21 -23 -24 -25 -26 28 34 37 -30 31 -32 -33 36 -35 35 44 39 41 -40 -41 -42 -43 47 -45 -46 -47 -48 -49 49 52 53 -53 -54 -55 -56
leaf_value=0.23159202155220068 -0.0069202751785251947 -0.10773131748264762 0.0049131505566853209 -0.027484678937237619 -0.040038539406935095 0.070968553891108385 -0.10924893623056522 0.10809710092992471 0.07683217524857297 0.058524106935245762 -0.10273836062738606 0.1479265284957175 0.11875109323284826 0.093666337750940118 -0.096870910719068656 0.046095508100526185 -0.071833825770406409 0.11874515918468742 0.14831494591944136 0.12678662668953372 0.055541925598323362 -0.21999356758385621 -0.18651346014747444 0.19374351726023709 -0.12230648413927586 -0.14191171157917173 0.140413385907075 -0.12479756027788519 0.13115356531598213 -0.11763094206603067 0.13901396192293042 0.13972879179134332 -0.14213050913050376 0.12782885261720786 -0.17663478971165519 0.12893091758882877 -0.17873515705406795 -0.10719370825151316 0.083631969761009062 -0.13377128410632982 -0.19836830020070093 -0.16523180153980088 0.13650287411648007 0.1116279652250583 0.1402350129034412 -0.10291919967621588 -0.14983441907168168 0.14016366776947295 -0.15213691158777734 -0.13027760866801347 -0.11221058509520783 -0.12719582364629434 -0.13865283229079342 -0.11988934022481235 -0.14755674168360441
leaf_weight=85.268141776323318 572.45230768155307 20.61398533731699 12271.977559276856 2601.4331494653597 233.02148425765336 32512.317173027433 1966.8374551059678 1385.0492709130049 20703.841517931782 2713.3474578680471 718.387207348831 224.74731113761663 10050.965467759408 1629.3669291697443 929.15164347365499 141.90654367674142 578.15981340315193 190.89423863962293 472.70762767270207 4225.627983042039 495.82873584702611 64.464155569672585 50.758668020367622 52.738374503329396 718.00088393501937 2.7183431629091483 162.70916748046875 14.395978022366762 18.035304486751556 12.902253024280069 315.03849440813065 23.065314769744873 6.8468103464692822 20.725570337846875 19.173680305480957 120.27716091275215 179.15875621512532 21.97270018607378 9.7985421419143677 136.01078058127314 22.801329852081835 71.528523340821266 435.49710772931576 92.650156736373901 218.92123072594404 104.37020314577967 17.61838698387146 2540.8774670064449 5.6308169662952423 4.0956001281738281 1.9825103618204574 2.4775224812328815 5.024812787771225 4.8820873517543095 5.2401980310678482
leaf_count=90 6856 573 50443 9236 1050 75928 9774 1185 50811 3765 2437 740 10448 3322 15356 667 2726 289 4023 2792 927 265 219 71 3963 15 21 208 6 142 46 3 140 35 79 30 1094 414 8 1696 126 322 72 41 31 5517 83 335 25 23 56 34 25 37 24
internal_value=0 0.0587183 0.0616604 0.0503538 0.0587713 0.0528678 -0.016738 0.0196214 0.0788981 0.0839299 0.024766 -0.0828756 0.0905317 -0.00523646 -0.000550488 0.0117706 0.0483924 -0.0601225 0.0632899 0.118068 -0.0478224 0.0238404 0.0852018 -0.0496335 -0.0945159 0.127511 0.129527 0.0904311 -0.0399987 0.149556 0.158734 0.0474089 -0.134601 -0.0638361 0.13553 0.106868 -0.145246 -0.128732 -0.0403857 -0.159331 -0.155333 -0.151593 0.138865 0.129969 0.136227 -0.105333 -0.163801 0.139628 -0.136304 -0.143069 -0.125092 -0.134895 -0.134892 -0.117672 -0.149929
internal_weight=0 95994.5 91772.8 55421 49242.9 44784.3 6178.07 3986.48 36351.7 34186.5 3431.73 2191.58 30754.8 4221.75 2165.21 3731.22 2311.02 1120.05 1045.16 4458.65 1420.2 560.293 1680.13 630.898 859.907 4211.78 4161.69 553.97 50.0872 436.274 400.307 35.9676 490.527 64.1409 3607.72 375.99 426.387 117.696 24.1945 315.17 43.4153 93.5012 3231.73 255.359 339.198 111.217 36.7921 2976.37 32.0519 19.9914 12.0605 5.19587 9.12041 6.8646 10.871
internal_count=268644 266474 245133 151148 130213 126371 20935 10421 93985 67461 6202 10514 61259 21341 26524 12160 6338 15645 10879 3842 5822 1192 3541 2797 4630 2170 1925 1233 245 281 136 145 9181 734 692 223 8447 952 216 2790 699 736 469 62 61 5657 162 407 239 97 142 49 48 93 49
is_linear=0
shrinkage=0.1


Tree=11
num_leaves=55
num_cat=0
split_feature=123 52 74 131 30 30 103 48 124 107 36 104 81 53 131 95 106 19 71 38 47 14 0 37 45 89 113 47 116 50 56 43 70 115 50 117 114 120 43 114 114 57 114 101 115 39 113 124 106 37 43 113 114 40
split_gain=1832.84 1478.48 1442.2 2346.39 2265.7 1811.59 3192.02 2897.56 1800.83 1051.94 801.598 772.061 724.69 687.75 563.786 552.119 431.663 322.941 516.289 506.172 275.508 162.395 147.641 124.123 123.264 105.949 93.2446 609.763 71.3954 67.2409 53.5569 48.7276 32.3987 48.0235 30.8414 257.677 28.0262 20.267 23.184 3.8076 2.23736 4.96336 0.981395 0.700624 0.48132 0.410063 0.159054 0.0726717 0.0696535 0.0610855 0.0182306 0.0105117 0.00576279 0.00360246
threshold=-2.2679247856140132 1.15317839384079 -1.020884573459625 1.0000000180025095e-35 1.0938609242439272 1.0881414413452151 -0.86775001883506764 0.83515322208404552 -1.2647185325622556 -0.84627720713615406 0.85682749748229992 -0.93050906062126149 -1.3961519002914426 1.0241456031799319 1.0000000180025095e-35 -0.994219809770584 -0.89836177229881276 1.094418525695801 -0.34136624634265894 0.98000514507293712 1.2405658960342409 1.005895256996155 0.30701857805252081 0.73141536116600048 1.2205402255058291 -1.2302052974700926 -1.3326844573020933 1.2102423906326296 -1.4418673515319822 1.0305581092834475 0.91081452369689953 1.1622787117958071 -0.070145308971405015 -1.4394558072090147 1.2070026993751528 -1.5082311034202573 -1.3909263610839842 -1.7586037516593931 1.1583883166313174 -1.3909263610839842 -1.3796767592430113 0.9784190058708192 -1.3523594141006468 -0.79861658811569203 -1.4225195050239561 1.0088938474655154 -1.3248280286788938 -2.5488942861557002 -0.96978679299354542 0.92358687520027172 1.1729356646537783 -1.3201867938041685 -1.3870921730995176 1.0558739304542544
decision_type=2 2 2 2 2 2 2 2 2 2 2 2 2 2 2 2 2 2 2 2 2 2 2 2 2 2 2 2 2 2 2 2 2 2 2 2 2 2 2 2 2 2 2 2 2 2 2 2 2 2 2 2 2 2
left_child=24 2 3 4 15 6 7 -4 -8 10 -5 23 21 -11 -13 -2 -6 18 20 -20 -14 22 43 -7 26 -19 27 32 46 -23 -24 -27 36 -34 40 45 -1 38 -29 -39 41 -28 -37 -3 -42 -36 49 53 -31 50 -26 -49 -51 -48
right_child=1 12 5 9 16 11 8 -9 -10 13 -12 14 17 -15 -16 -17 -18 25 19 -21 -22 29 30 -25 28 31 34 37 -30 48 -32 -33 33 -35 35 42 -38 39 -40 -41 44 -43 -44 -45 -46 -47 47 51 -50 52 -52 -53 -54 -55
leaf_value=0.19754256287596814 -0.13042270832906699 -0.12286425720196532 0.1064152892480978 0.075458313193528859 0.016847437808721093 0.0041550576852412528 0.063164616072815746 -0.028603250102589635 -0.041939817102314869 -0.064639470135223739 -0.060051105214029565 0.11076947926684533 0.11993839804816196 0.16138297711486149 -0.037909449014875585 0.18840205288090039 0.15254196322454794 0.16790908175064725 0.022614996421833223 -0.12705832654187751 -0.14699370288617716 0.18696078420067486 0.29798955085386036 -0.12989995511421723 -0.13650959189691966 -0.14011627907289723 0.13508395676412441 0.069460694246189322 0.12361512421333175 -0.1492970804354887 0.16776800086194227 -0.0069869220341125986 -0.11611374975389016 0.13455057156880712 -0.16871320083984565 0.12320560415613967 0.13372891552088526 -0.10647892171495461 -0.13302504907106838 -0.15608099385172505 0.13115086129724091 0.10522625167523572 0.13478520296960325 -0.16884374021881488 0.13486275355765445 -0.14624851447165027 -0.14477956063007683 -0.12658360946163116 -0.11576864429719376 -0.11140138488479433 -0.124223091187133 -0.1336496560857153 -0.11785820120252517 -0.14103459178495317
leaf_weight=89.698371939361095 1854.066996040754 6.3330516014248133 2004.2819202495739 1033.3881039507687 732.03430256526917 136.57665912806988 67682.03729700204 7679.3584812646732 1670.3899722900242 151.96484769135714 755.80974364280701 8290.7671476732939 272.19082256965339 1179.8884736858308 263.13909269869328 55.955300176516175 344.88197975605726 12.092814097180961 383.20317789167166 550.59675483219326 45.06848821323365 9.523890554904936 41.541181791573763 139.73804294411093 2.5518922032788414 442.89235421642661 153.84542252123356 10.559720177203419 17.261784225702286 0.63236486911773582 131.74551283381879 29.312957073561847 11.819168526679276 21.631451606750488 12.719861254096029 113.62435083091259 295.73418727517128 20.008369125425816 12.173002609983085 68.314556509256363 409.29278936982155 87.250578865408897 205.67731111496687 6.9519138559699041 2384.7090334445238 22.496123567223549 5.3401820659637451 3.8083693236112595 30.71140015497804 2.0456044059246796 2.2926315078511834 4.7079257667064667 4.2627730816602689 4.9492331445217133
leaf_count=90 14373 51 2238 2601 1671 940 158407 43370 9786 1769 2699 10283 490 1508 705 147 391 47 1695 6712 242 3 21 2255 15 3223 22 31 6 3 212 155 142 3 53 30 46 414 185 322 72 40 31 30 335 109 25 23 447 59 34 25 34 24
internal_value=0 0.0528628 0.0546569 0.00767078 -0.0556853 0.0579231 0.0531237 -0.000657642 0.0606331 0.0683044 0.0182152 0.100881 -0.0330349 0.135594 0.106196 -0.121083 0.0603036 -0.0550326 -0.0281924 -0.0656369 0.0820192 0.134807 0.174355 -0.0636393 0.122228 -0.124367 0.124163 0.0851546 -0.0383749 -0.0457387 0.198985 -0.131852 0.140387 0.0459829 0.130261 0.102351 0.14858 -0.123172 -0.0389671 -0.144844 0.133521 0.124279 0.130665 -0.146925 0.134319 -0.154363 -0.131711 -0.137323 -0.116445 -0.12225 -0.130695 -0.13049 -0.115764 -0.142978
internal_weight=0 95937.1 93974.3 6107.99 2986.94 87866.3 79036.1 9683.64 69352.4 3121.05 1789.2 8830.22 1962.8 1331.85 8553.91 1910.02 1076.92 1735.36 1251.06 933.8 317.259 227.439 186.572 276.315 3966.77 484.298 3919.55 529.939 47.2204 40.8677 173.287 472.205 418.883 33.4506 3389.62 354.518 385.433 111.056 22.7327 88.3229 3035.1 241.096 319.302 13.285 2794 35.216 29.9586 18.8057 31.3438 11.1529 4.84452 8.5163 6.30838 10.2894
internal_count=268644 266474 253143 25159 16582 227984 213801 45608 168193 8577 5300 14183 13331 3277 10988 14520 2062 12564 9139 8407 732 767 314 3195 2170 3425 1925 1233 245 453 233 3378 281 145 692 223 136 952 216 736 469 62 61 81 407 162 239 97 450 142 49 48 93 49
is_linear=0
shrinkage=0.1


Tree=12
num_leaves=62
num_cat=0
split_feature=104 69 78 71 114 76 74 104 131 114 79 57 49 40 113 125 111 102 69 45 77 131 115 129 35 0 53 111 64 76 130 20 121 31 50 112 122 58 50 72 73 103 120 131 109 52 90 103 76 89 75 33 0 37 54 106 75 32 92 11 130
split_gain=1769.27 3278.11 1681.3 1630.23 1590.21 4708.43 1748.98 1555.46 1527.55 1510.36 928.018 828.632 1136.39 797.688 1348.14 1180.72 610.22 587.67 782.848 539.111 502.118 463.379 394.642 376.328 301.242 353.136 288.445 291.207 248.392 226.069 190.151 156.904 128.59 113.075 107.487 106.501 116.437 54.5536 95.1674 34.2177 68.1019 22.9383 15.8664 15.2111 14.2809 10.6946 9.10174 3.07503 1.92904 1.51778 0.705624 0.559251 0.37566 0.258438 0.132683 0.0268164 0.0235174 0.0175806 0.0170274 0.00365803 0.000357375
threshold=-0.75715839862823475 -0.018113673664629456 -1.3639017939567564 -0.40208873152732844 -0.93392947316169728 -1.1889699101448057 -1.020884573459625 -0.89317786693572987 1.0000000180025095e-35 -0.94391816854476918 -1.3684610128402708 0.9653272032737733 1.1813319921493532 1.0496371388435366 -1.3248280286788938 -1.6344401240348814 -0.84874385595321644 -0.7494453191757201 -0.0066460862290114156 1.2205402255058291 -1.3335884809494016 1.0000000180025095e-35 -0.95339304208755482 1.0000000180025095e-35 0.89936178922653209 -0.10419522970914839 1.0721475481987002 -0.84494164586067189 0.51919701695442211 -1.2278076410293577 1.0000000180025095e-35 1.0553773641586306 -1.0791414380073545 0.98895865678787243 1.1909052729606631 -0.85737031698226918 -1.0797868371009824 0.93059396743774425 1.1745881438255312 -0.54697382450103749 -0.73652246594429005 -0.77757808566093434 -1.0250704288482664 1.0000000180025095e-35 -1.1059876680374143 1.1455295085906985 -1.1975345015525816 -0.77757808566093434 -0.49203158915042872 -1.3324252963066099 -1.1016800403594968 0.82769939303398143 0.70726120471954357 0.93477126955986034 1.1158175468444826 -0.76085492968559254 -0.9065587818622588 0.9168250858783723 -1.11708128452301 0.86739262938499462 1.0000000180025095e-35
decision_type=2 2 2 2 2 2 2 2 2 2 2 2 2 2 2 2 2 2 2 2 2 2 2 2 2 2 2 2 2 2 2 2 2 2 2 2 2 2 2 2 2 2 2 2 2 2 2 2 2 2 2 2 2 2 2 2 2 2 2 2 2
left_child=1 2 16 42 5 9 8 -7 -6 -4 -8 17 23 26 24 19 35 39 28 -16 21 -18 -17 47 34 -26 46 29 -19 -28 -22 -20 -29 -25 -15 43 -37 44 -39 40 -3 -41 45 -1 -14 50 52 -13 -48 59 -2 -52 -5 54 -47 58 -57 -55 -51 -44 -61
right_child=3 11 4 13 6 7 10 -9 -10 -11 -12 12 37 14 15 22 20 18 31 -21 30 -23 -24 33 25 -27 27 32 -30 -31 -32 -33 -34 -35 -36 36 -38 38 -40 41 -42 -43 49 -45 -46 53 48 -49 -50 55 51 -53 -54 57 -56 56 -58 -59 -60 60 -62
leaf_value=-0.12751096702087694 -0.19943483462046413 -0.19687759276170233 -0.18616884464830188 -0.12949277454392855 -0.039953618341616537 0.010715569400189235 0.02429158098098327 0.055159428225673934 0.07816507298364414 -0.028764978235497507 0.10970118572999749 -0.13878003961163526 -0.11710632404780615 -0.034836954057989422 0.10588052908266242 -0.21536121454816778 -0.107278985746391 -0.23077677863951784 -0.10180806985111629 -0.10801692974636018 0.17096965179869719 0.06241641803954609 -0.00045277130234811771 -0.046928966569342589 -0.1155967016344053 1.6614258766339522 -0.1716574176293979 0.36127077906236854 0.046843400387236403 0.12427964051575112 -0.12016331754789321 -0.24027285381933405 0.19311890718309821 0.13997183737442956 -0.12849322042656161 0.21017555318874651 -0.12827675078572787 0.084944171760633236 -0.13914345782993143 -0.14517933794676802 0.069632830422501374 -0.23077827261719153 -0.11148126893779174 -0.16653170196235303 -0.2132574403386156 -0.17276507117037893 -0.23739119363837188 -0.22999530758376721 -0.1422921126145294 -0.1197089313928669 -0.2119089070112764 -0.26134923716890662 -0.10311977830876438 -0.14668918684350241 -0.15546945350853156 -0.13594411944473486 -0.12904148050846484 -0.13917308736692396 -0.1275869451519929 -0.10326068748939632 -0.10247167668516322
leaf_weight=517.1244172975421 2.8721717447042492 48.150165550410748 980.01392941176891 10.794231794774534 1981.9383098343387 9120.4450348769315 1452.6228270996362 57653.909170692787 2446.173664174974 1612.8791723446921 10240.407561605796 4.2108520856127134 18.100417076144367 204.06590139307082 4356.4175456762314 146.85423710942268 413.32795820385218 35.414500677958131 136.09757606778294 121.1086783837527 184.90367319528013 263.49911641329527 204.34477175027132 35.248971775174141 2.3437534435652196 2.1387896537780753 25.965011671185493 60.364875316619873 358.19194147177041 4416.4186514737085 25.532339680939913 205.27092093229294 184.41412704437971 396.3331197053194 306.73782375594601 19.266280204057693 21.516764709725976 21.396405993029475 165.88267926359549 33.90564618492499 11.972034513950346 408.25650073308498 0.51595457270741718 123.82140755653381 105.37871009157971 5.8571327039971974 11.442193981260059 30.218534363433719 2.6217150241136542 4.8341227248311043 2.7436585482209948 13.774437330663202 10.809887623414395 5.1752058714628202 18.27433932852 5.0544188525527707 210.34787464421242 7.8062893152236938 6.3440612405538541 15.803896103054285 9.0153568163514137
leaf_count=3508 12 219 4616 64 8708 41173 5319 141608 5176 5115 17430 72 835 1604 2813 593 5297 207 2631 535 397 1579 404 76 107 1 129 16 1102 2521 200 976 143 161 5225 6 184 19 1726 251 13 1695 7 547 494 55 66 129 24 37 36 68 371 24 91 30 1213 39 38 526 383
internal_value=0 0.0457295 0.0486474 0.0893633 0.0505301 0.0439551 0.0788214 0.049089 0.0252974 -0.0882576 0.0990908 -0.0803989 0.000553983 0.0963015 0.0698386 0.0862461 -0.0539326 -0.131222 -0.0742485 0.100095 0.00073274 -0.041214 -0.090317 0.0993254 -0.083915 0.732288 0.126245 0.128401 0.0218647 0.12255 0.135646 -0.185069 0.234587 0.124707 -0.0910776 -0.125079 0.0316112 -0.147563 -0.113542 -0.21459 -0.143808 -0.224214 -0.137102 -0.135049 -0.199163 -0.184994 -0.157054 -0.218839 -0.219663 -0.12636 -0.245183 -0.253137 -0.116297 -0.153547 -0.159667 -0.128956 -0.129203 -0.142169 -0.12418 -0.103147 -0.102974
internal_weight=0 89071.4 87057.4 10375.3 85488.4 69367.2 16121.1 66774.4 4428.11 2592.89 11693 2014.03 776.77 10066.8 5344.01 4828.73 1568.99 1237.26 734.975 4477.53 887.263 676.827 351.199 466.011 515.286 4.48254 4722.83 4687.16 393.606 4442.38 210.436 341.368 244.779 431.582 510.804 681.729 40.783 310.758 187.279 502.284 60.1222 442.162 308.419 640.946 123.479 56.5032 35.668 34.4294 14.0639 251.916 19.3903 16.5181 21.6041 37.113 24.1315 226.58 215.402 12.9815 11.1782 25.3352 24.8193
internal_count=268644 251469 240863 17175 229145 192512 36633 182781 13884 9731 22749 10606 3512 14616 11282 4345 11718 7094 4916 3348 7473 6876 997 438 6937 108 3334 2809 1309 2650 597 3607 159 237 6829 4245 190 3074 1745 2178 232 1946 2559 4055 1329 325 525 201 90 2234 116 104 435 209 146 1318 1243 63 75 916 909
is_linear=0
shrinkage=0.1


Tree=13
num_leaves=50
num_cat=0
split_feature=123 31 130 31 29 102 70 52 130 72 105 22 78 81 124 55 103 119 76 47 75 1 102 126 110 0 56 135 41 31 105 116 45 116 44 112 50 114 46 116 116 104 115 67 67 38 113 70 41
split_gain=1708.83 1274.12 2290.78 2182.53 1456.92 2258.34 2129.16 1426.85 1125.3 1644.21 1307.38 2209.13 1051.43 1037.26 883.267 840.958 1376.58 629.734 612.108 812.517 587.625 489.177 474.27 439.323 420.039 370.163 334.359 315.783 277.792 244.572 150.683 98.6792 89.0152 64.0506 54.5265 50.3879 491.551 36.577 21.2525 137.996 18.7168 2.91852 2.21259 0.754473 0.135001 0.131828 0.0557543 0.0491977 0.0232911
threshold=-2.2679247856140132 1.0016512274742129 1.0000000180025095e-35 0.99757972359657299 1.2302647233009341 -0.79932597279548634 -0.28681401908397669 1.1391969919204714 1.0000000180025095e-35 -0.60024806857109059 -0.84231966733932484 1.3364452719688418 -1.1954805254936216 -1.4046378731727598 -1.5518090724945066 0.99890911579132091 -0.81485334038734425 -1.1575630903244016 -1.1614001393318174 1.0888706445693972 -1.1351738572120664 0.34417545795440679 -0.94696637988090504 -1.6086637973785398 -0.92538672685623158 0.70726120471954357 0.98092818260192882 1.0000000180025095e-35 0.97592675685882579 0.992528796195984 -0.84574988484382618 -1.4953348040580747 1.2205402255058291 -1.4418673515319822 1.1526204347610476 -1.2803804278373716 1.1862985491752627 -1.3753107190132139 1.2256379127502444 -1.4565844535827634 -1.4860470890998838 -0.79503023624420155 -1.4225195050239561 0.31106299161911016 0.32564188539981848 0.95763427019119274 -1.3248280286788938 -0.070145308971405015 1.0897625684738161
decision_type=2 2 2 2 2 2 2 2 2 2 2 2 2 2 2 2 2 2 2 2 2 2 2 2 2 2 2 2 2 2 2 2 2 2 2 2 2 2 2 2 2 2 2 2 2 2 2 2 2
left_child=31 2 4 12 5 6 -2 -7 9 10 11 -3 28 -12 17 16 20 -11 19 -5 -10 41 29 -23 -20 -14 -16 -24 -4 -6 -18 34 35 45 -1 36 40 -38 42 -40 -33 -17 -37 -36 47 -34 -47 -45 -46
right_child=1 8 3 18 22 7 -8 -9 15 14 13 -13 25 -15 26 21 30 -19 24 -21 -22 23 27 -25 -26 -27 -28 -29 -30 -31 -32 32 33 -35 43 38 37 -39 39 -41 -42 -43 -44 44 48 46 -48 -49 -50
leaf_value=0.16396684248143281 0.02589326303451598 -0.018783336234152768 -0.055377688940389094 0.11250771701082472 -0.091474479250961888 0.064335391891067878 -0.0603166301360928 -0.0074076329424577802 -0.10116069950450864 -0.085777558984449234 -0.13828987188490846 0.066615855740292523 -0.023658969950875214 0.089669910300865449 -0.12587685965326564 -0.16670534779280463 0.06512447614645539 0.12414126353864707 0.022411151728661777 -0.11328916369235612 0.080407335610388667 0.12992584996040005 -0.14857761015011464 -0.12228035939424464 0.11809244280919438 0.275553092927661 0.019839669002765473 0.10858711725427686 -0.1488447834185169 0.20836386575132868 -0.17598853179878968 0.17767740203544877 -0.14322176100119063 0.12251308199368741 -0.15773950990907273 0.11929092634199148 -0.12300150949978464 0.12648509058819479 -0.10230948955458599 0.1248910277709015 0.12564974999213793 -0.24997124171631491 0.1266230519566201 -0.13364514016622372 -0.11304825068785831 -0.11737323782623132 -0.1278413653472239 -0.1157001934138354 -0.10522026775299341
leaf_weight=8.9960422515869123 22005.863287881017 4873.8758140737191 407.37772392109036 244.1833007261157 183.29957195743918 24219.046908405609 3293.5653274594806 3130.4889204706997 185.04824699833989 223.3935529300943 204.36797299981117 8002.8677324308082 1418.8461942216381 8563.3240720555186 911.30732344463468 50.785962004214525 28.821124777197838 396.64541040547192 838.83251346647739 458.80611812323332 4849.3990002274513 4033.8862930834293 48.339593316428363 70.270486362278461 1012.753416031599 42.58715919777751 190.36287780664861 3909.8356215953827 1449.0437700413167 31.944972465746105 257.42319110780954 86.531941670924425 4.1979203075170544 17.122019976377487 4.3874476552009609 508.37995743192732 96.051404448226094 6.2593822479248038 31.099313054233789 190.40738049149513 344.13192007690668 4.5899196416139594 2161.2272936180234 3.249046828597784 5.7665867991745499 8.2192063182592427 13.355115413665768 2.8838175199925926 11.150646472349761
leaf_count=1 86477 16813 3015 655 959 48920 19318 16709 1500 2175 1331 17786 4460 14125 6373 230 43 582 1776 2097 5742 2144 538 316 866 29 667 2390 7212 64 1142 68 20 6 22 129 722 1 122 36 84 20 359 26 67 101 80 28 298
internal_value=0 0.0429258 0.0345671 -0.0248931 0.0407122 0.0362039 0.0146702 0.0561235 0.0588803 0.0470905 0.054572 0.0342921 -0.0783867 0.0843563 -0.0469637 0.0879389 0.061605 0.0485097 0.0445837 -0.0348586 0.0737335 0.121624 0.0975853 0.125608 0.0747455 -0.0149397 -0.100698 0.105446 -0.128334 -0.0469747 -0.151712 0.114035 0.115755 -0.0274072 -0.0496815 0.117549 0.0892953 -0.107738 0.122757 0.0929923 0.136104 -0.173607 0.125227 -0.119731 -0.112496 -0.127008 -0.123853 -0.125207 -0.107889
internal_weight=0 95541.2 62694.8 5872.43 56822.4 52649 25299.4 27349.5 32846.4 23366.1 21644.4 12876.7 3317.85 8767.69 1721.71 9480.22 5320.69 620.039 2554.58 702.989 5034.45 4159.53 4173.42 4104.16 1851.59 1461.43 1101.67 3958.18 1856.42 215.245 286.244 3503.42 3466.98 42.8943 36.4336 3424.09 532.975 102.311 2891.11 221.507 430.664 55.3759 2669.61 27.4375 23.0501 25.7722 21.5743 6.13286 16.9172
internal_count=268644 266474 195485 20110 175375 171424 105795 65629 70989 59852 50055 34599 14716 15456 9797 11137 8427 2757 5394 2752 7242 2710 3951 2460 2642 4489 7040 2928 10227 1023 1185 2170 1728 207 442 1521 875 723 646 158 152 250 488 441 419 201 181 54 365
is_linear=0
shrinkage=0.1


Tree=14
num_leaves=53
num_cat=0
split_feature=124 30 102 29 30 30 103 49 124 135 104 47 131 104 33 101 2 106 48 113 47 63 31 112 74 104 71 49 74 117 48 114 42 76 42 120 119 113 40 119 39 122 103 31 40 32 119 61 113 59 41 114
split_gain=1631.19 1190.34 2183.14 1863.84 1839.28 1786.19 1718.54 2058.73 1733.08 1630.57 1537.24 925.234 886.461 605.227 591.117 552.359 350.033 375.346 258.862 183.732 565.224 182.463 155.393 155.317 150.341 146.509 186.676 140.837 123.445 108.513 64.0567 291.821 27.6653 25.2946 21.4889 17.4162 20.9099 12.4934 5.75552 4.90137 4.64662 4.13866 3.16228 2.45014 2.33227 1.22692 0.448348 0.287687 0.197864 0.193753 0.0552618 0.0537158
threshold=-2.475271344184875 1.0947851538658144 -0.87065982818603505 1.235559403896332 1.0858843326568606 1.0676009058952334 -0.83443844318389881 1.0101261734962466 -1.2647185325622556 1.0000000180025095e-35 -0.89768981933593739 1.1176592111587527 1.0000000180025095e-35 -0.92313084006309498 0.91480368375778209 -0.95502501726150502 0.51195326447486889 -0.89714890718460072 1.2393301725387575 -1.3326844573020933 1.2102423906326296 0.13050230592489245 0.99493825435638439 -0.93120780587196339 -1.0131498575210569 -0.91032704710960377 -0.62559181451797474 1.0345152616500857 -1.037635803222656 -1.5431495308876035 1.2275347113609316 -1.3595154881477354 1.1261866092681887 -0.45633181929588312 1.1160722970962527 -1.7586037516593931 -1.6587594151496885 -0.95239385962486256 1.0450325608253481 -1.1747156381607053 1.0179000496864321 -1.0234400033950803 -0.89613050222396839 1.0010114312171938 1.051985025405884 0.8956107795238496 -1.6141857504844663 0.74717032909393322 -1.3248280286788938 0.93092247843742382 1.0941847562789919 -1.3653986454010008
decision_type=2 2 2 2 2 2 2 2 2 2 2 2 2 2 2 2 2 2 2 2 2 2 2 2 2 2 2 2 2 2 2 2 2 2 2 2 2 2 2 2 2 2 2 2 2 2 2 2 2 2 2 2
left_child=18 2 3 4 9 6 7 -4 -8 -2 -6 14 15 28 -7 21 42 -18 19 20 29 22 -3 37 -15 41 -27 -23 -5 47 33 32 -32 -21 -31 36 -22 45 -20 -13 -35 -25 -17 -39 -37 -14 48 -1 50 -33 -40 -50
right_child=1 12 5 13 10 11 8 -9 -10 -11 -12 39 23 24 -16 16 17 -19 38 30 35 27 -24 25 -26 26 -28 -29 -30 34 31 49 -34 40 -36 44 -38 43 46 -41 -42 -43 -44 -45 -46 -47 -48 -49 51 -51 -52 -53
leaf_value=-0.14872369219060536 -0.0055780521137153392 0.00033146419570895768 0.22360547354254556 0.21113393104472555 -0.022174913401274879 0.096952254076437996 0.045932303719671837 -0.018886450803630286 -0.079122394488116865 -0.093065663325847578 0.088756676741405763 -0.14312450841322294 -0.13421640590914105 -0.062731841451968362 0.023395131484596921 -0.14468589485513614 0.08579319714416761 0.15050674633707159 -0.28841773643998619 0.15597776251143874 -0.12333754070731712 -0.15865353483711964 0.32844105249487371 -0.2195795344990383 0.11742804385631939 0.1325482164381423 -0.18506839109064721 0.12600503703525331 -0.16807509975000831 0.13532960947077652 0.058011400156426085 0.12069236637347458 -0.14614607701023552 0.1221256657252851 0.072150593108298286 -0.15317705390909903 0.075501812047735636 -0.19436431725878714 -0.13650427874508461 -0.18557452355285942 0.10115708994396672 -0.15346774421539511 -0.19913727284984173 -0.24520701080006529 -0.12291512345967218 -0.16968957123518638 -0.16318881853128875 -0.11485404903735777 -0.12930353319377683 0.12622504007412969 -0.11317327393255872 -0.13892422955901704
leaf_weight=2.9793549999594715 6446.2223352659494 136.2783220782876 367.78012858424336 9.4262561798095685 2231.3031522510573 8220.3631410310045 53630.09417876834 7287.3156677423976 1131.5854919282719 3181.8448061347008 2838.1409171391279 37.33132235519588 11.877841860055922 47.635631769895554 1259.9586991006508 17.011790273711085 4263.7368743652478 1134.8255346473306 2.4916828721761695 228.15336508303881 11.817661318462342 129.3799463827163 16.144127205014229 22.894381657242775 1676.1226636711508 63.43431805446744 26.126058746129274 20.077985672280192 96.139184980653226 341.79809633642435 7.5860744565725318 148.68331991136074 53.08201352506876 2406.906789958477 63.900332283228636 37.09821930155158 9.5726912617683411 13.212686479091643 1.1513302046805574 100.21901230653748 110.5349315404892 16.147374410182238 28.590096034109592 33.536062344908714 81.232549058273435 54.434685252606869 4.0497983871027818 15.846189498901365 16.466993436217312 110.21722775883973 8.5872574630193395 8.9619677513837832
leaf_count=19 38927 464 365 1 8264 13224 127423 37025 8510 12694 4274 364 64 105 2952 143 6219 590 12 32 248 935 6 94 780 70 138 16 543 116 8 33 316 476 101 267 10 54 7 502 75 114 170 140 963 235 20 202 99 20 168 47
internal_value=0 0.0387227 0.0358052 0.00302625 -0.00882142 0.0433256 0.0371443 -0.00723621 0.0433482 -0.0344906 0.0399304 0.0834403 0.0818744 0.0982151 0.0871763 0.0897652 0.0970661 0.0993966 0.106663 0.109509 0.0570685 -0.041901 0.0350838 -0.105745 0.112449 -0.0305768 0.0398949 -0.120413 -0.134214 0.114488 0.119163 0.0767893 -0.120618 0.124095 0.125378 -0.117392 -0.0343522 -0.191246 -0.141044 -0.174054 0.121205 -0.192236 -0.178824 -0.230837 -0.132403 -0.163336 -0.131681 -0.120214 -0.128052 0.123048 -0.115932 -0.132694
internal_weight=0 94549.2 88561.5 16526.8 14697.5 72034.6 62416.8 7655.1 54761.7 9628.07 5069.44 9617.87 5987.71 1829.32 9480.32 5746.04 5444.16 5398.56 3671.12 3629.41 564.245 301.88 152.422 241.663 1723.76 128.602 89.5604 149.458 105.565 424.524 3065.16 319.569 60.6681 2745.6 405.698 139.721 21.3904 113.061 41.709 137.55 2517.44 39.0418 45.6019 46.7487 118.331 66.3125 39.2173 18.8255 35.1675 258.901 9.73859 25.429
internal_count=268644 265405 255953 65588 64159 190365 173323 37390 135933 51621 12538 17042 9452 1429 16176 8543 7122 6809 3239 2886 1926 1421 470 909 885 416 208 951 544 438 960 377 324 583 217 1488 258 493 353 866 551 208 313 194 1230 299 341 221 321 53 175 146
is_linear=0
shrinkage=0.1


Tree=15
num_leaves=53
num_cat=0
split_feature=124 136 133 52 127 31 113 108 30 44 113 47 50 114 49 53 42 114 42 110 53 116 115 47 35 114 116 38 112 77 39 37 31 102 106 126 100 31 31 52 31 30 31 114 102 40 61 74 90 53 100 98
split_gain=1546.34 1122.39 1132.23 1082.83 1404.02 2021.35 1103.97 700.984 620.594 94.0641 84.4429 378.787 32.9707 204.615 30.6127 28.0717 18.9669 51.1541 18.3111 16.5143 29.6195 9.14862 2.9248 19.3535 2.17408 1.6446 1.53893 0.616045 0.0588111 0.0585943 0.0122674 0.00806357 0.00630993 0.0077049 0.00595049 0.00346119 0.00327577 0.00231793 0.00138982 0.000824488 0.000757132 0.000699207 0.000460912 0.00042926 0.000252929 0.00022861 0.00022368 0.000192814 8.88384e-05 4.16273e-05 3.0671e-05 1.0664e-05
threshold=-2.5044819116592403 1.0000000180025095e-35 1.0000000180025095e-35 1.1391969919204714 -2.1365813016891475 0.99720710515975963 -1.1730002760887144 -1.0316789150238035 1.0096333622932436 1.2012317776679995 -1.3326844573020933 1.2102423906326296 1.2070026993751528 -1.3595154881477354 1.2279620170593264 1.1137545108795168 1.1160722970962527 -1.3909263610839842 1.1261866092681887 -1.1628472805023191 1.1232656836509707 -1.4860470890998838 -1.4225195050239561 1.215292274951935 0.86526682972908031 -1.3909263610839842 -1.4418673515319822 0.96023210883140575 -1.268659710884094 -1.0938510298728941 1.018512010574341 0.91861501336097728 1.0010114312171938 -0.86973223090171803 -0.93524938821792591 -1.7793298959732053 -0.81816357374191273 0.98841631412506115 1.0010114312171938 1.1391969919204714 0.99794092774391185 1.0894148945808413 1.0015382170677187 -0.92869898676872242 -0.79932597279548634 0.8305758833885194 0.83333891630172741 -1.020884573459625 -1.0936596989631651 1.1232656836509707 -0.73048773407936085 -0.74037873744964589
decision_type=2 2 2 2 2 2 2 2 2 2 2 2 2 2 2 2 2 2 2 2 2 2 2 2 2 2 2 2 2 2 2 2 2 2 2 2 2 2 2 2 2 2 2 2 2 2 2 2 2 2 2 2
left_child=9 2 3 4 6 -6 -2 15 -9 10 11 16 22 18 -11 -5 21 -18 -14 25 -21 -1 23 -12 -24 -13 28 -15 31 32 -30 -16 40 -34 35 -31 37 46 -36 42 -4 43 44 -39 -38 -43 47 -3 -44 51 -51 -41
right_child=1 36 29 7 5 -7 -8 8 -10 14 12 19 13 27 26 -17 17 -19 -20 20 -22 -23 24 -25 -26 -27 -28 -29 30 34 -32 -33 33 -35 38 -37 39 41 -40 49 -42 45 48 -45 -46 -47 -48 -49 -50 50 -52 -53
leaf_value=0.16437317782456007 0.030019089430816139 -0.10116298807226634 -0.10247837750330635 -0.070909365341863886 0.014227154533620431 0.047282865762488982 0.094267131029275072 0.034001249639012104 -0.05215258634169441 0.085222772205324288 0.12125295981528224 -0.10494064554730836 0.015263098885642524 0.11219304977405375 -0.12136020673063959 -0.14342395960998411 -0.098502642585494668 0.12490584973123985 -0.14826739964949801 0.12524551477967094 -0.14029645049601636 0.12062635515939982 0.12084017220743624 0.065396975028368054 0.13522926867269736 -0.13826129545140528 -0.21007878484758208 0.12298002722138546 -0.12968248867678353 -0.10149070332275523 -0.12328181611595775 -0.11350882826674312 -0.10427403828854115 -0.10640670075183614 -0.1022913524493502 -0.10224871791097144 -0.10245618561906294 -0.10201386236177019 -0.10310421061639233 -0.10192672276506937 -0.10374064079841078 -0.10392314691227751 -0.10170973388809479 -0.10225327045176479 -0.10290950256965825 -0.10268932422759897 -0.10419011488404271 -0.10156718053651398 -0.10236322480090082 -0.10147463244293514 -0.10201136082226935 -0.10234000421772588
leaf_weight=63.86665391176939 4142.9433275377378 14.470486827194689 9.3455156087875384 62.159431589767337 30438.589805545285 47161.276883222163 7545.290135383606 2158.9099037060514 1364.5701110772789 9.3167593888938445 422.87090134620667 20.09338752925396 8.5209278464317304 77.655769843608141 1.7280038828030289 378.17919063661247 13.948908444494007 38.639194190502167 34.860244706273079 7.6565743312239674 9.3062513465993089 190.06998743116856 1717.8254762589931 72.696925178170204 111.84130859375 56.363332442939281 2.2477069646120063 166.36967547237873 6.8063910976052266 238.67577414028347 5.346347875893116 5.382861421443522 40.037886117585003 29.364895682781935 155.38751887064427 80.573270259425044 15.482341049239038 294.88225448830053 24.327549513429403 3.2479425529018044 9.6677376916632038 1.8201618781313289 2.332177245058122 100.39010466635227 60.034989348612726 8.5836391467601043 0.30861698044463892 64.004397142678499 19.260054259561002 4.8287189858965576 1.3658278509974477 0.77292876318096926
leaf_count=36 14914 1279 428 720 77219 84021 7802 5553 4646 41 78 581 13 23 21 7976 118 9 198 6 79 44 322 59 17 331 10 30 40 17509 37 86 1092 557 7568 4019 681 15777 955 180 295 64 153 4849 2215 349 11 4293 879 349 77 35
internal_value=0 0.0351754 0.0360412 0.036913 0.0391834 0.0343167 0.0714941 -0.0142307 0.000635671 0.107596 0.109374 0.066583 0.115924 0.0839716 -0.0661957 -0.133188 0.120309 0.0656471 -0.116147 -0.1097 -0.0204378 0.131629 0.119874 0.113059 0.12172 -0.129504 -0.131777 0.119547 -0.12264 -0.102362 -0.126867 -0.115417 -0.104734 -0.105176 -0.101941 -0.101682 -0.10211 -0.102 -0.102401 -0.10261 -0.10312 -0.102096 -0.1027 -0.102075 -0.102817 -0.102905 -0.101503 -0.101493 -0.102293 -0.101756 -0.101593 -0.102006
internal_weight=0 94431.1 93839.3 93251.9 89288.1 77599.9 11688.2 3963.82 3523.48 3043.41 3012.59 399.944 2612.64 287.407 30.8281 440.339 306.525 52.5881 43.3812 93.4195 16.9628 253.937 2325.23 495.568 1829.67 76.4567 21.5113 244.025 19.2636 587.38 12.1527 7.11087 88.416 69.4028 498.964 319.249 591.785 484.46 179.715 107.325 19.0133 405.676 97.1096 395.272 75.5173 10.4038 78.7835 78.4749 21.5922 10.2154 6.19455 4.02087
internal_count=268644 266465 235274 202851 183956 161240 22716 18895 10199 2179 1944 1204 740 264 235 8696 207 127 211 997 85 80 476 137 339 912 194 53 184 32423 77 107 2372 1649 30051 21528 31191 26622 8523 4569 723 21039 3928 20626 2896 413 5583 5572 1032 641 426 215
is_linear=0
shrinkage=0.1


Tree=16
num_leaves=62
num_cat=0
split_feature=104 69 70 0 105 31 123 134 30 101 57 49 88 40 113 126 40 73 29 102 70 30 10 45 101 102 74 30 53 129 63 54 110 31 35 122 69 59 100 107 52 103 0 73 107 54 91 60 89 55 65 47 29 54 63 25 45 54 130 17 14
split_gain=1506.26 2688.29 1274.26 1065.62 1934.15 1249.92 2949.45 1637.81 1008.2 850.35 733.639 884.242 695.385 661.815 992.898 972.827 527.486 488.043 745.711 471.919 745.425 467.572 638.78 436.852 408.81 363.838 340.607 284.021 263.672 257.777 223.53 163.571 143.278 136.62 113.564 107.729 91.4318 241.506 82.9799 78.4354 57.9167 41.5781 35.5351 25.3638 17.1958 10.7642 7.98217 1.38058 0.797773 0.60193 0.454104 0.41995 0.286064 0.248457 0.17491 0.161724 0.143766 0.0154282 0.000210506 0.000112553 5.66248e-08
threshold=-0.75715839862823475 -0.020704226568341252 -0.23055989295244214 0.63140800595283519 -0.89943528175353993 0.99462673068046581 -1.5278530716896055 1.0000000180025095e-35 1.0980178713798525 -0.94762772321701039 0.9653272032737733 1.1813319921493532 -1.2937654852867124 1.0488591790199282 -1.3248280286788938 -1.8048428893089292 1.0566954016685488 -0.84468758106231678 1.2167404294013979 -0.7494453191757201 -0.16830816119909284 1.0994307994842532 0.87493517994880687 1.2205402255058291 -0.6382637321949004 -0.9347524344921111 -1.032056927680969 1.0664642453193667 1.0721475481987002 1.0000000180025095e-35 0.59592559933662426 1.1267092227935793 -0.82981744408607472 0.98813343048095714 0.89936178922653209 -2.0646004676818843 -0.018113673664629456 0.85710853338241588 -0.72553333640098561 -0.80613130331039418 1.1848041415214541 -0.74421170353889454 -0.10419522970914839 -0.73521751165390004 -0.79814729094505299 1.0817380547523501 -1.147830009460449 0.7535880208015443 -1.3324252963066099 1.0590533614158633 0.38885231316089636 1.1446349024772646 1.0472072362899782 1.0559027194976809 0.47679910063743597 1.2348282933235171 1.1223977208137514 1.0361032485961916 1.0000000180025095e-35 1.0429058670997622 1.1361849308013918
decision_type=2 2 2 2 2 2 2 2 2 2 2 2 2 2 2 2 2 2 2 2 2 2 2 2 2 2 2 2 2 2 2 2 2 2 2 2 2 2 2 2 2 2 2 2 2 2 2 2 2 2 2 2 2 2 2 2 2 2 2 2 2
left_child=1 3 44 4 8 6 -6 -7 12 21 19 29 -1 28 34 23 -17 18 -11 36 30 22 -5 -16 -22 -10 -23 -19 46 38 -21 32 -30 -31 35 -15 37 -3 -12 41 -33 -13 -36 -38 45 51 50 -48 58 55 -4 54 -51 -53 -2 -47 57 -50 59 -46 -60
right_child=2 10 13 9 5 7 -8 -9 25 17 11 39 -14 14 15 16 -18 27 -20 20 24 26 -24 -25 -26 -27 -28 -29 31 33 -32 40 -34 -35 42 -37 43 -39 -40 -41 -42 -43 -44 -45 48 49 47 -49 56 52 -52 53 -54 -55 -56 -57 -58 -59 60 -61 -62
leaf_value=1.8643046573293365 -0.240406545380249 -0.23740750030780242 -0.1028847919191873 0.23182086209473984 0.059953561924858061 0.051964359667738526 -0.017926251580025195 0.0082025814798591425 -0.055384424419372386 -0.071220201095789915 -0.20197261395862931 -0.17699785282248726 -0.039141899907913634 -0.02391484993795932 0.091744837775000532 0.0056270845187629138 -0.22015012020127403 0.23305604416020903 0.097906210553375783 -0.23822617827790815 -0.22177417876976807 -0.12731245997134719 -0.071915579099429847 -0.1075155577725766 -0.046641133813904029 0.070395766405422777 0.096226358805515028 -0.13246735265551099 0.11007434249191655 -0.11806068209234238 0.087511963358332084 0.079114950958299013 0.18577953890063587 0.12071760327936175 -0.11619296878807538 -0.1236237662688448 -0.1488604467830095 0.029836964915688775 0.14749704389818416 0.12524592541821897 -0.19375176350646459 -0.10351268510538421 0.35766029891195295 -0.213005797671 -0.10467223780652789 -0.2109138476782938 -0.27210150059167865 -0.19306397649959794 -0.12559524716063322 -0.15840265951321456 -0.12881797666411693 -0.26654251106906557 -0.13982484242181314 -0.24119745019709227 -0.19768022385066786 -0.17335618610293979 -0.14547216290569553 -0.12006786325151655 -0.10197813337464422 -0.10270648568940449 -0.10201790480154312
leaf_weight=1.9199419189244498 1.7302195839583903 71.712959116324782 14.793786481022837 76.500435246154666 8168.2747774855234 41295.977785446681 12016.919046632946 10785.805728632957 275.35528682172298 280.16204170323908 38.405467823147774 153.42434512404725 5788.3392149615102 168.61458304757252 3916.2775285067037 338.28268578648567 149.0819156318903 327.04398058727384 3753.7207405148074 22.914793953299522 282.63231275277212 77.125437209382653 729.56531301140785 113.20565407816321 252.23943350557238 1395.4735838165507 586.56578439008445 22.735731069929898 3456.247102605179 25.423978164792061 261.2283579763025 11.715166924521325 269.48565942049026 416.72928793728352 1.9977365829981861 303.22574736177921 71.890142917633057 63.987065550871193 8.2548379898071271 11.556348159909247 23.149215759709477 154.56212869938463 7.6157851219177228 432.46248420327902 0.29965600557625194 1.832886617630719 2.8590195104479781 9.7356275748461467 199.4262899463065 18.043055758811533 12.421665988862513 7.543874327093361 15.331142698414622 7.9373275190591812 2.1471187844872475 3.0616088518872857 3.652146002277731 5.1810121452435842 4.7172908633947364 10.41104009002447 0.38738247007131565
leaf_count=7 10 322 592 69 22221 90979 44202 24588 1208 1554 222 1264 42965 1235 2692 600 612 390 2832 95 1853 398 5005 538 3060 2642 728 219 2265 72 192 16 162 186 107 5724 294 102 1 10 125 1905 1 1884 9 10 18 61 1234 104 75 38 83 46 31 39 21 42 248 417 20
internal_value=0 0.0298857 0.0726672 0.0327331 0.0297096 0.0347142 0.0135891 0.0429016 -0.0187643 0.0739155 -0.0775859 -0.00116512 -0.0385108 0.0793701 0.0554555 0.0700068 -0.0634368 0.0959853 0.08616 -0.119925 -0.069649 0.00809069 -0.0430892 0.0861467 -0.139183 0.049667 0.0702496 0.209297 0.110823 0.0833972 0.0612427 0.113533 0.11555 0.106988 -0.0810598 -0.0879923 -0.184258 -0.111393 -0.140147 -0.130523 -0.102063 -0.14012 0.259191 -0.203863 -0.136692 -0.185411 -0.145183 -0.211006 -0.124162 -0.154671 -0.114721 -0.246177 -0.149869 -0.253548 -0.216746 -0.187421 -0.125806 -0.125455 -0.10251 -0.102761 -0.101981
internal_weight=0 87848.9 9080.41 85581.5 79728.1 72267 20185.2 52081.8 7461.09 5853.42 2267.42 808.356 5790.26 8798.71 4998.3 4516.85 487.365 4383.66 4033.88 1459.07 819.015 1469.76 806.066 4029.48 534.872 1670.83 663.691 349.78 3800.41 488.814 284.143 3760.6 3725.73 442.153 481.454 471.84 640.053 135.7 46.6603 319.543 34.8644 307.986 9.61352 504.353 281.702 57.6272 39.8101 12.5946 224.075 38.2687 27.2155 19.3585 33.3742 15.4812 3.87734 4.8945 208.259 204.607 15.8154 10.7107 5.10467
internal_count=268644 251469 17175 240007 228812 181990 66423 115567 46822 11195 11462 3660 42972 14823 11509 4442 1212 4995 4386 7802 5200 6200 5074 3230 4913 3850 1126 609 3314 481 287 2568 2427 258 7067 6959 2602 424 223 3179 141 3169 108 2178 2352 361 746 79 1991 236 667 125 187 84 41 49 1297 1276 694 426 268
is_linear=0
shrinkage=0.1


Tree=17
num_leaves=53
num_cat=0
split_feature=124 30 102 0 30 125 116 116 21 27 100 22 101 35 57 103 53 104 45 29 91 127 48 76 113 113 47 32 30 105 47 117 45 114 117 42 90 110 53 50 91 115 40 111 40 61 61 120 31 45 111 113
split_gain=1402.51 1050.28 2327.71 1760.54 1468.52 1700.02 3804.3 1694.3 1015.13 1726.18 841.695 808.661 793.915 743.454 818.269 621.799 450.607 530.744 928.793 379.972 205.482 195.39 190.074 189.952 172.055 158.188 404.415 150 117.922 107.412 101.354 88.7407 54.7495 272.265 41.6282 17.5069 14.3138 12.5531 25.0647 8.59059 5.02926 4.97731 2.5287 2.11267 1.43669 0.236495 0.210497 0.207762 0.12255 0.0746231 0.0486619 0.0433531
threshold=-2.475271344184875 1.0887748599052431 -0.87065982818603505 0.63718733191490184 1.0648538470268252 -1.5846384763717649 -1.0087895989418028 -1.0278586149215696 1.3869038820266726 1.2733932137489321 -0.96569290757179249 1.7338786721229555 -0.93263590335845936 0.88956049084663402 0.8821581006050111 -0.84034469723701466 1.0150067210197451 -0.89768981933593739 0.92435771226882946 1.2416124343872073 -1.0892143249511717 -1.7056280970573423 1.2393301725387575 -1.1451559662818906 -0.96391063928604115 -1.3326844573020933 1.2102423906326296 0.95015183091163646 1.0994307994842532 -0.90263724327087391 1.0683563351631167 -1.5431495308876035 1.2125232219696047 -1.3595154881477354 -0.94308537244796742 1.1160722970962527 -0.2497226074337959 -1.1628472805023191 1.1232656836509707 1.2070026993751528 -1.147830009460449 -0.90545234084129322 1.0450325608253481 -1.2109152674674986 1.051985025405884 0.74717032909393322 0.83333891630172741 -1.7143685221672056 1.0005882382392886 1.2205402255058291 -1.2018037438392637 -1.3248280286788938
decision_type=2 2 2 2 2 2 2 2 2 2 2 2 2 2 2 2 2 2 2 2 2 2 2 2 2 2 2 2 2 2 2 2 2 2 2 2 2 2 2 2 2 2 2 2 2 2 2 2 2 2 2 2
left_child=22 2 3 8 5 7 -7 -4 9 -2 20 -10 19 15 -15 -6 17 18 -12 -5 28 30 25 -14 48 26 31 -19 41 -30 -18 45 36 43 -26 -33 -27 44 -39 -38 -23 -3 -24 -34 -28 -1 -35 49 -22 -44 -49 -51
right_child=1 10 4 12 13 6 -8 -9 11 -11 16 -13 23 14 -16 -17 21 27 -20 -21 24 40 42 -25 34 32 37 -29 29 -31 -32 35 33 46 -36 -37 39 38 -40 -41 -42 -43 47 -45 -46 -47 -48 50 -50 51 -52 -53
leaf_value=-0.14584289401004072 -0.053990146225745619 -0.16690356343983048 0.026822798062461007 -0.030581976364714093 0.05776683166855287 -0.11158498063996312 0.018428170624178168 0.078196817130782248 -0.073744165385782073 0.066893441490470509 0.077156834337546429 0.095474398038504757 -0.14856828748575965 -0.10876331043453336 0.043850605625456 0.11095092549274053 0.13082124380769519 0.10835322796135366 -0.0096075787899164641 0.078286642947067275 -0.12377914670277522 -0.15002635189286631 -0.22846692819106013 0.12955785150276194 0.21490854913670066 0.14040275816006584 -0.14167921150082693 -0.097506309348943637 -0.064362506246103054 0.28523539349572152 -0.16784439664360701 0.1218045588227432 -0.13585799793876877 0.11373198889840178 0.065193053346946209 0.06190710599865952 0.11469756140145818 0.1145946164962509 -0.13335566180719324 0.080536968883318322 -0.19843124886355545 -0.1197631408203213 -0.13413608701079374 -0.19578279544864291 -0.11672561218437433 -0.1142396407630567 0.12013285392314599 -0.1312363311758222 -0.1378703054045976 -0.1110962938813074 -0.14668047272794565 -0.12073392337829468
leaf_weight=2.824727430939677 2657.6151133403182 145.17877169325948 28569.527136688353 867.1151114013046 7661.1892023896798 2554.1015762439929 18940.656227187254 8280.0188669115305 4919.7314184233546 2126.4611430764198 4500.7562012150884 299.60162729118019 25.123562396503985 476.06800346029922 1340.7791577433236 3082.9080631854013 41.005166767165065 2779.0578513750806 1699.7094019204378 508.64069382473826 26.238741151988506 30.851210616528988 2.5109068006277075 1087.4055444868281 38.975362815894186 217.49995946697891 35.471333729103208 35.852324919775128 230.09936367673799 9.1375448610633594 15.717843193560837 288.20074316114187 42.396963834762573 91.958901062607765 35.476360629312694 58.743047010153532 1932.787454418838 6.8802098836749819 10.006180913653223 76.530896313488483 70.54983626306057 26.483790535479784 3.166495434939864 6.8311948627233496 66.007735517807305 14.640605043619869 116.42006015777588 4.5850066742859781 8.0701690148562175 6.8120308434590724 3.6756825968623144 14.825660288333891
leaf_count=19 15056 776 90096 5221 16621 12349 54041 9187 29094 5873 5722 404 252 2022 2917 2910 50 2765 6190 465 290 197 12 1028 19 39 304 129 876 24 122 116 299 24 53 101 478 7 100 64 303 281 22 33 1077 202 23 28 72 162 19 110
internal_value=0 0.0286158 0.0249946 -0.0148086 0.0320069 0.0253294 0.00297944 0.0383664 -0.0335322 -0.000258927 0.0597719 -0.0640306 0.0604638 0.0630231 0.00386122 0.0730275 0.0667855 0.0697207 0.0533724 0.00966863 -0.0640371 -0.100564 0.098052 0.123277 0.0581875 0.100807 0.0484284 0.105731 -0.0963887 -0.0510098 0.0480615 0.100591 0.110985 0.0673395 0.143569 0.111663 0.116034 -0.112164 -0.0323305 0.113396 -0.183704 -0.159631 -0.131719 -0.144174 -0.125448 -0.119351 0.117308 -0.124373 -0.127094 -0.119798 -0.138108 -0.1177
internal_weight=0 93090.1 83396.9 12491.7 70905.2 58344.3 21494.8 36849.5 10003.4 4784.08 9693.16 5219.33 2488.28 12560.9 1816.85 10744.1 9173.5 9015.38 6200.47 1375.76 519.66 158.124 3002.78 1112.53 108.761 2967.2 482.775 2814.91 410.899 239.237 56.723 364.409 2484.43 257.607 74.4517 346.944 2226.82 118.365 16.8864 2009.32 101.401 171.663 35.5758 49.2282 101.479 17.4653 208.379 33.0649 34.3089 24.8042 8.26069 21.6377
internal_count=268644 265405 247536 57393 190143 165673 66390 99283 50427 20929 17869 29498 6966 24470 4939 19531 15478 14806 11912 5686 2391 672 3239 1280 434 2886 1926 2894 1957 900 172 438 960 379 72 217 581 1488 107 542 500 1057 353 332 1381 221 47 341 362 294 47 272
is_linear=0
shrinkage=0.1


Tree=18
num_leaves=52
num_cat=0
split_feature=124 32 52 125 115 36 28 115 76 34 109 127 128 16 108 114 77 80 31 106 48 113 47 34 28 127 127 117 45 114 103 30 3 40 104 110 55 90 50 57 40 124 112 40 31 61 61 119 113 46 41
split_gain=1310.57 992.119 965.38 1122.9 2091.18 1854.5 1424.99 1202.29 2238.5 729.311 580.169 543.276 585.656 472.756 708.179 400.571 377.756 324.19 210.252 199.641 167.406 145.118 352.223 144.381 143.293 110.853 83.5806 76.9404 48.3228 240.261 33.4864 20.7717 18.3305 17.719 12.0459 11.3232 21.968 10.1398 9.24908 1.78667 1.73744 1.73612 1.55556 1.04389 0.320079 0.216399 0.169493 0.148006 0.0635407 0.0237638 0.0182368
threshold=-2.475271344184875 0.97031798958778392 1.1391969919204714 -1.592912435531616 -1.0064323544502256 0.95636725425720226 1.1900123357772829 -1.0248212218284605 -1.1110876202583311 0.93672224879264843 -0.81641629338264454 -2.1623836755752559 1.0000000180025095e-35 0.92844724655151378 -1.0288075804710386 -1.0254531502723692 -1.1689221858978269 -1.1433202028274534 0.9169331192970277 -0.88748005032539357 1.2393301725387575 -1.3326844573020933 1.2102423906326296 0.9537598490715028 1.0087636709213259 -2.2444176673889156 -2.1365813016891475 -1.5431495308876035 1.2125232219696047 -1.3595154881477354 -0.77757808566093434 1.0350243449211123 0.4098841398954392 1.0411763191223147 -0.80004101991653431 -1.1628472805023191 1.0551874041557314 -0.2497226074337959 1.2070026993751528 0.92901271581649791 1.0450325608253481 -1.6877949833869932 -1.2640929818153379 1.051985025405884 1.0016512274742129 0.83333891630172741 0.74717032909393322 -1.6141857504844663 -1.3248280286788938 1.235542953014374 1.0941847562789919
decision_type=2 2 2 2 2 2 2 2 2 2 2 2 2 2 2 2 2 2 2 2 2 2 2 2 2 2 2 2 2 2 2 2 2 2 2 2 2 2 2 2 2 2 2 2 2 2 2 2 2 2 2
left_child=20 2 3 7 6 -6 -5 8 -2 -9 13 17 15 14 -4 31 -17 23 24 -15 21 22 27 41 -12 -25 32 46 37 42 -28 -13 -14 -29 44 43 -37 -23 -39 -36 -22 -3 -30 -24 -19 -31 -1 48 50 -50 -42
right_child=1 11 10 4 5 -7 -8 9 -10 -11 18 12 26 19 -16 16 -18 34 -20 -21 40 28 35 25 -26 -27 30 33 29 45 -32 -33 -34 -35 39 36 -38 38 -40 -41 47 -43 -44 -45 -46 -47 -48 -49 49 -51 -52
leaf_value=-0.14060132526202446 -0.075200781196537378 0.14332433953944812 -0.12706116446602242 -0.10765190900290891 0.029369715805475746 -0.17316987808075335 -0.0021406272707790016 0.088730497369487765 0.040382104373564869 0.025796087059217217 -0.12444982747858971 -0.21564426780842988 0.11321267591504741 -0.0016602605580935789 0.01308682983404663 -0.036944558371436322 0.14659146141014542 -0.15981301397412789 0.35102159213836681 -0.11999374319727581 -0.20876622766085548 0.13455471332084198 -0.13714257061635021 0.10220231410785996 0.12989021793022534 -0.24377988768685013 -0.15735049452667349 0.12076312836379839 -0.13423698293358366 0.11114780434927073 -0.22061419526987286 -0.14228465016300773 -0.069765114105103887 0.067999111962364953 -0.28201007659793492 0.10998492921094244 -0.12982467640142761 0.11254217224465767 0.076217792767508175 -0.20777230524543572 -0.12439249914307332 0.12632485076885763 -0.20045716264786684 -0.11505728235437269 -0.13797735296581898 0.11790253735890717 -0.11290602176164991 -0.14108815228304936 -0.13008587695117818 -0.12060377508510255 -0.10934272069571871
leaf_weight=2.6462417505681541 1813.1206387318671 120.6875116340816 435.86739076045342 1877.2516682045534 46948.525130555499 456.46720971539617 4023.37103820825 7417.0441128788516 22091.458802228328 2449.448672301136 26.137336038053036 51.373287245631218 8.7573538050055522 178.65597474575043 2086.628866028972 610.0705828461796 137.39844653289765 9.3134015714749676 38.026628473773599 705.88421239051968 2.4747355729341498 204.90717575140297 33.10242478735745 17.868063941597939 145.24287992715836 19.223959660623223 135.36532095633447 240.96966382116079 41.9756197668612 85.043228551745415 219.07811677455902 155.20405469555408 14.606768831610678 86.488110955804586 8.8248709291219694 6.4838212057948104 9.2977298875339311 1780.6339024603367 72.970003630965948 5.1242876709438852 0.9203009326010968 119.62447507958859 3.8748270645737639 60.547885866835713 24.04438697360456 107.23112678527832 13.395838681608437 3.4717429028823998 3.1443034857511547 16.579911053180695 6.4361011777073145
leaf_count=19 6106 17 8957 9296 122115 1813 16121 8277 72798 3415 392 217 5 1205 5438 1867 133 56 24 3764 12 39 304 10 370 85 659 83 313 24 914 981 36 134 39 7 100 478 64 32 7 39 19 1077 224 23 202 20 19 127 168
internal_value=0 0.0259669 0.0273677 0.0294703 0.0204315 0.0274194 -0.0357085 0.0437373 0.0316153 0.0731064 -0.0232581 -0.0507246 -0.0790012 -0.033188 -0.0111296 -0.0372716 -0.00320729 0.0652561 0.1383 -0.0960932 0.0956217 0.0983099 0.046578 0.106519 0.0911006 -0.0771125 -0.184377 0.0963518 0.108512 0.0658637 -0.196453 -0.160528 -0.00118127 0.106827 -0.176705 -0.109659 -0.0312993 0.113446 0.111112 -0.254738 -0.128177 0.134862 -0.139833 -0.122864 -0.144074 0.114915 -0.117475 -0.121649 -0.119157 -0.122115 -0.111225
internal_weight=0 92349.7 90693.1 87076.7 53305.6 47405 5900.62 33771.1 23904.6 9866.49 3616.44 1656.56 1331.85 3407.04 2522.5 954.046 747.469 324.711 209.407 884.54 2782.59 2749.57 452.932 277.404 171.38 37.092 377.808 343.5 2296.64 238.125 354.443 206.577 23.3641 327.458 47.3069 109.432 15.7816 2058.51 1853.6 13.9492 33.0271 240.312 45.8504 93.6503 33.3578 192.274 16.0421 30.5524 27.0806 19.7242 7.3564
