tree
version=v4
num_class=1
num_tree_per_iteration=1
label_index=0
max_feature_idx=136
objective=binary sigmoid:1
feature_names=Column_0 Column_1 Column_2 Column_3 Column_4 Column_5 Column_6 Column_7 Column_8 Column_9 Column_10 Column_11 Column_12 Column_13 Column_14 Column_15 Column_16 Column_17 Column_18 Column_19 Column_20 Column_21 Column_22 Column_23 Column_24 Column_25 Column_26 Column_27 Column_28 Column_29 Column_30 Column_31 Column_32 Column_33 Column_34 Column_35 Column_36 Column_37 Column_38 Column_39 Column_40 Column_41 Column_42 Column_43 Column_44 Column_45 Column_46 Column_47 Column_48 Column_49 Column_50 Column_51 Column_52 Column_53 Column_54 Column_55 Column_56 Column_57 Column_58 Column_59 Column_60 Column_61 Column_62 Column_63 Column_64 Column_65 Column_66 Column_67 Column_68 Column_69 Column_70 Column_71 Column_72 Column_73 Column_74 Column_75 Column_76 Column_77 Column_78 Column_79 Column_80 Column_81 Column_82 Column_83 Column_84 Column_85 Column_86 Column_87 Column_88 Column_89 Column_90 Column_91 Column_92 Column_93 Column_94 Column_95 Column_96 Column_97 Column_98 Column_99 Column_100 Column_101 Column_102 Column_103 Column_104 Column_105 Column_106 Column_107 Column_108 Column_109 Column_110 Column_111 Column_112 Column_113 Column_114 Column_115 Column_116 Column_117 Column_118 Column_119 Column_120 Column_121 Column_122 Column_123 Column_124 Column_125 Column_126 Column_127 Column_128 Column_129 Column_130 Column_131 Column_132 Column_133 Column_134 Column_135 Column_136
feature_infos=[-1.7844352722167969:2.1475074291229248] [-1.6962581872940063:2.0597634315490723] [-1.6161398887634277:1.9801409244537354] [-1.5440802574157715:1.9086390733718872] [-1.4800789356231689:1.8452587127685547] [-1.4241359233856201:1.7899996042251587] [-1.3852788209915161:1.7536556720733643] [-1.3575865030288696:1.77842116355896] [-1.3260828256607056:1.9168174266815186] [-1.2853907346725464:1.9795591831207275] [-1.2320997714996338:1.9582076072692871] [-1.1626077890396118:1.9751508235931396] [-1.0779223442077637:2.0487997531890869] [-0.97803342342376709:2.1752679347991943] [-0.86829191446304321:2.2825961112976074] [-0.75375783443450928:2.4052433967590332] [-0.63881856203079224:2.5269482135772705] [-0.65591526031494141:2.5277442932128906] [-0.65910369157791138:2.5302853584289551] [-0.66444498300552368:2.4445860385894775] [-0.8555336594581604:2.3619022369384766] [-0.86833834648132324:2.2960772514343262] [-0.86565589904785156:2.1994528770446777] [-0.7797551155090332:2.1797337532043457] [-1.0841877460479736:2.1696581840515137] [-1.4308524131774902:2.0883691310882568] [-1.6366665363311768:1.9448176622390747] [-1.8254417181015015:1.7314887046813965] [-1.9202775955200195:1.5598906278610229] [-2.2033448219299316:1.3455723524093628] [-2.6534385681152344:1.1458766460418701] [-2.9375624656677246:1.0691677331924438] [-2.8964071273803711:1.0156075954437256] [-2.6209216117858887:0.99408984184265137] [-1.9672813415527344:0.99887841939926147] [-1.2877312898635864:1.0987448692321777] [-0.66409575939178467:1.3781088590621948] [-0.67050886154174805:1.4172744750976562] [-0.67336314916610718:1.4686216115951538] [-0.67729061841964722:1.427788257598877] [-0.67391806840896606:1.3506048917770386] [-0.77278417348861694:1.3033223152160645] [-0.78214722871780396:1.4334096908569336] [-0.67822211980819702:1.6771683692932129] [-0.67593681812286377:1.8418123722076416] [-0.67998087406158447:1.9795904159545898] [-0.67735743522644043:1.8671952486038208] [-0.67972826957702637:1.7601110935211182] [-0.67687547206878662:1.7336448431015015] [-0.68022686243057251:1.7715651988983154] [-0.67672491073608398:1.8198304176330566] [-0.68208664655685425:2.1010029315948486] [-0.6882440447807312:2.3278176784515381] [-0.69760811328887939:2.41339111328125] [-0.68820065259933472:2.0181429386138916] [-0.66498374938964844:1.5468263626098633] [-0.62813276052474976:1.3939603567123413] [-0.79989981651306152:1.3603483438491821] [-0.9627259373664856:1.3460699319839478] [-0.83332031965255737:1.3262704610824585] [-0.58399802446365356:1.3006186485290527] [-0.60407185554504395:1.6912268400192261] [-0.63139909505844116:1.8743280172348022] [-0.66095739603042603:1.7138135433197021] [-0.93073725700378418:1.3433690071105957] [-1.1305865049362183:1.0613176822662354] [-1.2528316974639893:0.98026233911514282] [-1.6713657379150391:0.87500208616256714] [-1.8910553455352783:0.74292320013046265] [-2.0949718952178955:0.59156680107116699] [-1.9126988649368286:0.44254273176193237] [-1.7446892261505127:0.31167539954185486] [-1.674402117729187:0.20973041653633118] [-1.5101885795593262:0.13722024857997894] [-1.4517455101013184:0.23297213017940521] [-1.6804615259170532:0.84510332345962524] [-1.8599822521209717:1.4404212236404419] [-2.0371255874633789:1.2026444673538208] [-2.1728529930114746:1.1285310983657837] [-2.2573421001434326:0.92254304885864258] [-2.3058340549468994:0.73609095811843872] [-2.3315773010253906:0.27998179197311401] [-2.3403120040893555:0.32789856195449829] [-2.3343968391418457:0.37759476900100708] [-2.3124566078186035:0.5232703685760498] [-2.2730567455291748:0.46151745319366455] [-2.2140905857086182:0.49370381236076355] [-2.1362462043762207:0.51996833086013794] [-2.0426793098449707:0.59374678134918213] [-1.9374580383300781:0.55988889932632446] [-1.8240519762039185:0.65018975734710693] [-1.7565661668777466:1.0688302516937256] [-1.6520191431045532:1.4166257381439209] [-1.5958865880966187:1.6290324926376343] [-1.5394163131713867:1.6649528741836548] [-1.4922878742218018:1.6182941198348999] [-1.4547033309936523:1.5608183145523071] [-1.4384253025054932:1.5597559213638306] [-1.4264529943466187:1.5643377304077148] [-1.5388252735137939:1.5628886222839355] [-2.0638625621795654:1.5685317516326904] [-2.4619696140289307:1.5680602788925171] [-2.648137092590332:1.5700795650482178] [-2.5047333240509033:1.5662518739700317] [-2.1062953472137451:1.5674868822097778] [-1.4475361108779907:1.5623446702957153] [-1.2213733196258545:1.563502311706543] [-1.1215335130691528:1.561995267868042] [-1.1656886339187622:1.5723429918289185] [-1.225764274597168:1.5757462978363037] [-1.3317182064056396:1.5835809707641602] [-1.6010570526123047:1.5861003398895264] [-2.1400496959686279:1.5904537439346313] [-2.4733853340148926:1.5886306762695312] [-2.4289262294769287:1.5883719921112061] [-1.9469403028488159:1.5826603174209595] [-1.6131480932235718:1.5835590362548828] [-1.6319060325622559:1.7016431093215942] [-1.6864286661148071:2.5795986652374268] [-1.7459897994995117:2.8008601665496826] [-1.8207311630249023:2.5472877025604248] [-1.9267433881759644:1.7180403470993042] [-2.1567583084106445:1.5756756067276001] [-2.3918964862823486:1.5728672742843628] [-2.6616356372833252:1.8138364553451538] [-2.9659750461578369:2.1341862678527832] [-3.3342947959899902:2.7791450023651123] [-3.8531808853149414:3.7871904373168945] [0:1] [0:1] [0:1] [0:1] [0:1] [0:1] [0:1] [0:1] [0:1]
tree_sizes=2816 5391 5965 6669 6844 6945 6881 7005 5648 5760 5844 6323 5897 6410 6231 5977 5992 6581 6530 6116 6147 5654 6648 6911 6819 7019 6575 5371 6920 6748 5502 6366 7067 6910 6353 7048 6473 6917 6923 6945 7024 6706 5638 7091 5470 6450 6627 6925 6705 7108 6556 5461 6914 6639 6597 7032 6931 5119 5491 7101 6702 6177 7109 5984 6744 6819 5385 6578 7110 5170 6826 6935 6901 6996 6880 6608 6686 5257 6145 6817 5942 6835 6697 6902 5854 6418 6816 7052 5106 6505 6801 6332 5303 6879 5454 5896 6918 6824 6796 4999 6773 6842 6944 6931 6825 7067 5267 6676 6530 6828 6916 6829 6616 5138 5420 7093 6776 6934 5000 5829 6240 7062 6456 6457 6709 6135 6751 5125 6796 5876 5399 6742 7078 6047 6930 5839 6676 6496 6951 6904 5452 7034 6565 6406 6508 5150 6467 6839 6331 6236 6091 6814 6803 6931 6838 4751 6031 6390 6189 6944 5868 6824 6694 6704 6602 6832 6262 6724 6926 6783 6487 6918 6815 6658 6554 6363 6590 6822 6775 6908 6937 6545 6587 6768 6900 6901 6754 6802 6526 6585 4953 6584 5020 6881 6951 5522 5403 6923 6466 6718

Tree=0
num_leaves=25
num_cat=0
split_feature=133 136 109 91 103 114 125 122 131 37 32 113 52 53 107 123 32 0 0 0 65 24 24 68
split_gain=343557 376200 138906 143784 94525.1 98539.9 37094.7 33060.2 23877.9 19320.1 9950.73 12517.6 3647.21 2423.68 5227.37 2272.22 629.105 2.27374e-13 1.13687e-13 1.13687e-13 1.13687e-13 3.55271e-15 3.55271e-15 4.44089e-16
threshold=1.0000000180025095e-35 1.0000000180025095e-35 -1.1101318597793577 -1.1477068066596983 -0.77774593234062184 -0.96794819831848133 -1.5158253908157346 -1.026553153991699 1.0000000180025095e-35 0.93084004521369945 0.87509307265281688 -1.3464568257331846 1.1003616452217104 1.067402243614197 -0.99827736616134632 -2.2694470882415767 0.8856814205646516 0.68490728735923778 0.59353598952293407 0.58565643429756176 0.2754062712192536 1.2147622704505923 1.4191486239433291 -0.19404072314500806
decision_type=2 2 2 2 2 2 2 2 2 2 2 2 2 2 2 2 2 2 2 2 2 2 2 2
left_child=1 2 9 7 5 -5 -6 8 -4 10 11 -1 -9 14 -11 -15 -12 20 19 -2 -3 -19 -23 -21
right_child=18 17 3 4 6 -7 -8 12 -10 13 16 -13 -14 15 -16 -17 -18 21 -20 23 -22 22 -24 -25
leaf_value=-3.387961542486738 -3.7350750345660702 -3.7350750345660702 -2.4250084662368465 -1.7532716996311828 -0.68243785255442591 -0.99019313039077872 -3.2214668729461637 -3.498773108550485 -1.492868204784342 -3.7350750345660702 -2.8603146314783494 -0.53187856017657609 -2.1241043166010911 -2.0903791400418568 -0.59456382134712582 -3.685802544728829 -3.7350750345660702 -3.7350750345660702 -3.7350750345660702 -3.7350750345660702 -3.7350750345660702 -3.7350750345660702 -3.7350750345660702 -3.7350750345660702
leaf_weight=21.782249584794044 777.15818365104496 250.03128253854811 807.99541505053639 4227.2061736229807 2521.4294030796736 2822.0358291361481 58.884677337482572 223.97781483829021 416.45253611728549 14.285349911078812 12.965114833787082 51.929402751848102 21.120251817628741 9.1942987684160453 8.4263970796018821 306.90199515782297 22.469926485791802 7.6573492493480471 32.185972910374403 2.1842274907976393 502.04594406299293 18.45295638777316 3.6905912775546303 1.1046667769551266
leaf_count=794 30955 9959 21878 86815 25497 36992 2051 8406 7497 569 406 449 510 219 78 12077 895 305 1282 87 19997 735 147 44
internal_value=-3.63243 -1.61226 -1.46851 -1.39884 -1.25823 -1.44779 -0.74038 -2.32018 -2.10797 -3.19496 -2.03789 -1.37587 -3.38032 -3.5677 -2.5699 -3.6394 -3.41501 -3.73508 -3.73508 -3.73508 -3.73508 -3.73508 -3.73508 -3.73508
internal_weight=0 12328.9 11547.1 11099.1 9629.56 7049.24 2580.31 1469.55 1224.45 447.955 109.147 73.7117 245.098 338.808 22.7117 316.096 35.435 781.878 812.633 780.447 752.077 29.8009 22.1435 3.28889
internal_count=268644 236276 205133 189646 151355 123807 27548 38291 29375 15487 2544 1243 8916 12943 647 12296 1301 31143 32368 31086 29956 1187 882 131
is_linear=0
shrinkage=1


Tree=1
num_leaves=49
num_cat=0
split_feature=31 89 114 133 126 29 45 31 106 114 90 115 114 90 113 122 81 81 116 131 105 69 124 124 30 34 39 102 117 75 77 76 129 5 113 39 135 76 118 77 112 108 80 89 131 122 122 15
split_gain=19281.6 6656.12 5453.57 5379.07 5826.12 8531.48 8377.64 7435.15 5438.87 4494.04 4351.14 5879.97 4292.99 3849.09 3705.86 3559.6 3353.71 3125.09 2899.88 2845.63 2707.31 4294.28 2634.51 2533.54 2488.22 2477.69 2343.64 2238.78 2171.47 2133.41 1613.16 1418.1 993.301 949.048 903.524 745.152 553.857 546.769 362.867 350.405 341.186 327.792 109.076 34.6647 0.476083 0.169907 0.0242314 0.00770138
threshold=1.0015704035758974 -1.1546596288681028 -1.0018483996391294 1.0000000180025095e-35 -1.7783322334289549 1.2228152155876162 1.141058146953583 0.98997226357460033 -0.75993946194648732 -0.92886549234390248 -1.0994055867195127 -1.0024697184562681 -1.3911954164505003 -1.088016092777252 -1.0482113957405088 -2.0659804344177242 -1.4041823148727415 -1.3431211709976194 -0.99280643463134755 1.0000000180025095e-35 -0.89872679114341725 -0.12051696330308913 -1.2402495145797727 -1.335176348686218 1.0939100384712221 0.85977485775947582 0.93344035744667064 -0.94658735394477833 -0.94446974992752064 -1.0858257412910459 -1.212982654571533 -1.1321996450424192 1.0000000180025095e-35 0.5757608711719514 -0.92738127708435047 1.0030134320259096 1.0000000180025095e-35 -1.1519334912300108 -1.0692616701126096 -1.1840369701385496 -0.98180419206619252 -0.87168586254119862 -1.3375797867774961 -1.1215725541114805 1.0000000180025095e-35 -1.026553153991699 -1.026553153991699 0.95456546545028698
decision_type=2 2 2 2 2 2 2 2 2 2 2 2 2 2 2 2 2 2 2 2 2 2 2 2 2 2 2 2 2 2 2 2 2 2 2 2 2 2 2 2 2 2 2 2 2 2 2 2
left_child=3 9 13 4 6 7 20 24 -9 17 11 31 35 39 32 -14 44 33 30 -16 26 -22 28 -20 -6 -24 -1 41 -18 -13 -19 -4 -15 34 -2 -8 -29 47 -39 43 -41 -7 -35 -3 46 -46 -11 -12
right_child=1 2 10 -5 5 27 12 8 -10 16 37 29 15 14 19 -17 22 18 23 -21 21 -23 25 -25 -26 -27 -28 36 -30 -31 -32 -33 -34 42 -36 -37 -38 38 -40 40 -42 -43 -44 -45 45 -47 -48 -49
leaf_value=0.29787167600115361 -0.13778562320302368 -0.11786754416158195 -0.059590836369177294 -0.1023871396311411 0.026803554956892791 -0.047568361624275406 0.18290563397650841 0.17095080185371794 1.1931522037627356 -0.10882604618951151 -0.12366953519848722 0.18863317124206588 0.28242329394791715 0.039180383214602016 0.39773129844070082 0.17817313611763599 0.36155636810880754 -0.035349507348573055 0.29508912767075812 0.060308105277488755 0.41756497136073067 0.25048280626662478 0.47386500058044628 0.17457714337524816 0.22007710986467904 0.17203248771673951 -0.022651490739027728 -0.0016584364267086477 0.57138762983354185 0.4693640435372638 0.27205078023563323 0.2925923123494662 0.4048280643341351 -0.11959490314586002 0.27162298022574594 -0.10980613231568317 0.30060994911051631 0.11358176863975403 0.59128355386214715 -0.070375628491497158 0.19199711914118936 0.47312491152644809 0.19055374141463396 -0.0080735723605344055 -0.12247271695794504 -0.10302344439080424 -0.10331412556509477 -0.1172040548765933
leaf_weight=527.91667433455586 77.741600953042507 169.10038276389241 327.93810107186437 621.22222963161767 6296.9647106360644 223.70408103242517 103.78557540662587 12788.092027926818 52.264502236619592 91.132869003340602 2.3336062580347052 306.70231906138361 4181.8427601903677 513.76755008101463 2593.2335775401443 15108.209350913763 1252.5421592183411 571.7632385250181 5196.1076739002019 276.59441675245762 3416.5660231169313 2798.0348569042981 388.0864167008549 2626.1584652606398 744.90557346120477 908.94367947429419 401.714151378721 61.476347453892231 813.5081722214818 2306.3124378733337 243.38136458769441 175.52909871004522 86.853918060660362 331.6729772053659 175.80324977450073 536.74065139144659 4349.0463805478066 16.069377176463604 1520.5998247880489 83.254657056182623 122.47117712162435 12.780973358079789 11.740771783515809 34.648229282349348 43.148863792419434 5.0135190188884726 8.7407233063131553 8.7511992361396533
leaf_count=2209 455 1599 2715 27281 42439 1151 672 54079 38 1229 17 841 1158 6268 9131 31748 2922 4527 6533 1718 7902 9286 1644 7690 1535 5982 3573 374 2925 4468 1662 1043 247 3045 229 9628 3840 93 1797 950 810 28 77 250 288 176 300 72
internal_value=0 0.303027 0.371319 0.190117 0.193638 0.158337 0.22562 0.129825 0.175111 0.257247 0.444186 0.37612 0.192316 0.283723 0.317936 0.200773 0.353546 0.220632 0.235925 0.36521 0.31853 0.342339 0.37405 0.25463 0.0472485 0.262344 0.159366 0.280325 0.444178 0.436413 0.0564324 0.0631945 0.0920555 -0.000651003 0.146091 -0.0623775 0.296397 0.58124 0.586288 -0.00624256 0.0858182 -0.0194272 -0.108991 -0.0991967 -0.112282 -0.120448 -0.108344 -0.118565
internal_weight=0 21289.6 8544.16 52225.3 51604 24529.2 27074.8 19882.2 12840.4 12745.5 4664.24 3116.48 19930.6 3879.92 3470.45 19290.1 3511.12 9234.37 8637.41 2869.83 7144.23 6214.6 3363.08 7822.27 7041.87 1297.03 929.631 4647.01 2066.05 2613.01 815.145 503.467 600.621 596.959 253.545 640.526 4410.52 1547.75 1536.67 409.474 205.726 236.485 343.414 203.749 148.036 48.1624 99.8736 11.0848
internal_count=268644 71703 32019 196941 169660 103484 66176 98091 54117 39684 11046 9067 43206 20973 17364 32906 15466 24218 20412 10849 22970 17188 13473 14223 43974 7626 5782 5393 5847 5309 6189 3758 6515 3806 684 10300 4214 1979 1890 3609 1760 1179 3122 1849 1993 464 1529 89
is_linear=0
shrinkage=0.1


Tree=2
num_leaves=54
num_cat=0
split_feature=31 130 136 130 32 133 114 91 114 75 91 78 42 56 107 91 75 77 129 46 117 20 69 68 106 32 104 47 126 29 72 12 109 31 33 32 46 91 90 114 81 31 124 117 81 34 31 31 116 80 0 1 8
split_gain=9043.09 7611.52 5293.06 3952.43 3548.23 3525.65 3179.79 3556.6 4363.7 3103.29 3013.21 2634.23 2572.15 2325.48 1950.95 2225.7 1569.9 1543.69 968.058 963.315 824.841 710.355 782.732 645.944 602.177 590.71 568.012 531.142 879.336 378.802 546.746 298.923 260.345 177.25 130.463 196.407 39.5936 0.328015 0.020858 0.00156159 0.0016833 0.00137682 0.000829577 0.000834392 0.000817518 0.000721945 0.000536546 0.000465472 0.000159016 7.69122e-05 1.13687e-13 3.55271e-15 2.22045e-16
threshold=0.99796363711357128 1.0000000180025095e-35 1.0000000180025095e-35 1.0000000180025095e-35 0.96675786375999462 1.0000000180025095e-35 -1.3911954164505003 -1.0939273238182066 -0.93974766135215748 -1.1349307894706724 -1.1477068066596983 -1.2545962929725645 1.1358416080474856 0.97889623045921337 -0.95839375257492054 -1.095757722854614 -1.1177682280540464 -1.17367947101593 1.0000000180025095e-35 1.1843094825744631 -0.83955135941505421 1.1774213314056399 -0.1156656928360462 0.10632818564772607 -0.84893321990966786 0.9728534221649171 -0.93864032626152027 1.1980627179145815 -3.0314426422119136 1.1299102306365969 -0.68358299136161793 1.0000000180025095e-35 -0.8603416085243224 0.99772250652313244 0.94172820448875438 0.96161064505577099 1.1899035573005678 -1.1477068066596983 -1.1498875021934507 -0.92886549234390248 -1.3431211709976194 1.0015704035758974 -1.2402495145797727 -0.94446974992752064 -1.2775313258171079 0.85977485775947582 1.0015704035758974 1.0015704035758974 -0.99280643463134755 -1.3375797867774961 -0.1997939050197601 0.50778493285179149 0.082826633006334319
decision_type=2 2 2 2 2 2 2 2 2 2 2 2 2 2 2 2 2 2 2 2 2 2 2 2 2 2 2 2 2 2 2 2 2 2 2 2 2 2 2 2 2 2 2 2 2 2 2 2 2 2 2 2 2
left_child=1 5 3 4 14 6 27 8 -8 20 16 -12 -9 24 18 -16 -11 26 -2 21 37 23 -23 -19 -6 -15 32 28 -1 33 -31 -29 -3 -28 36 -36 -21 -5 -34 40 47 -41 43 -43 48 -44 -46 51 -42 -49 52 -4 -7
right_child=2 17 39 9 13 50 7 12 -10 10 11 -13 -14 25 15 -17 -18 19 -20 34 -22 22 -24 -25 -26 -27 29 31 -30 30 -32 -33 38 -35 35 -37 -38 -39 -40 41 44 42 45 -45 46 -47 -48 49 -50 -51 -52 -53 -54
leaf_value=0.38243136656656085 -0.11265132004768674 0.67328793873121484 -0.10283218305431763 -0.11074051805359504 -0.10434825709438762 -0.10215482834701871 0.047683612503646361 0.1884632612711378 0.16972664783738559 0.27429958009069905 0.20261737178795453 0.31732471984021976 0.019215681373082941 0.21911777314225753 0.18823757032212768 0.25092313839063957 0.66293311299541424 0.28917502176824106 0.34299711511726422 -0.032610921600402097 2.0816165687378287 0.1174596055268023 -0.11549498300772548 -0.15467700706232296 0.043040727307985423 -0.085863638709359077 -0.12460119522293003 0.65532236043882386 -0.072436774895343656 -0.074583587411914953 0.22754325620603044 -0.1296972065806471 -0.10955594239747524 0.058825656024485466 0.20369078759536807 -0.15666855524111029 -0.15015940135461381 -0.14766334756647359 -0.12303221463856798 -0.10283218305431766 -0.1028272980986744 -0.1034268912615116 -0.10383420072308898 -0.10422543240567153 -0.10293501183664139 -0.10282713853898789 -0.10336153711123552 -0.1021357860498404 -0.1030038816473806 -0.1028572241301019 -0.10215482834701868 -0.10283218305431747 -0.10215482834701849
leaf_weight=63.584293726831675 264.26451950706542 14.361796323210003 15.936002880334854 215.8458651509136 373.70804283767939 0.51621855236589798 4990.3732013627887 29807.031680695713 7095.1419117935002 155.94397044926882 3284.2560656443238 5127.964249253273 925.83935591205955 996.85354000888765 12771.580493306741 10177.928555380553 311.70584473013878 275.84181421250105 56.617127478122711 33.733689144253731 1.7290651481598605 556.97549227625132 194.63898506760597 37.211440037935972 1073.4128040336072 67.829131547361612 1088.0243749953806 4.9051941204816094 128.16335095278919 210.02534222975373 83.794781558215618 436.03143491595984 4.4025180861353883 55.362378116697073 31.904179295524955 28.757620915770531 190.30485166981816 2.4331640526652327 1.5538688004016856 31.068509817123413 88.597510607913136 24.507217202335596 11.273348040878775 28.075062613934278 41.414926528930664 19.314985683187842 102.4527629762888 27.869067152962092 120.16125949472189 1.5604802481830109 510.16847093217075 0.99097833037376482 0.51621855236589909
leaf_count=72 5660 23 595 2673 2661 25 23315 61244 23927 947 4518 7075 2888 1435 31084 27152 727 233 104 144 3 2313 1133 178 4032 419 7999 7 2354 1477 226 8137 66 210 47 130 990 12 11 1160 3402 765 317 722 1499 723 3359 1365 4259 58 24707 37 25
internal_value=0 0.148738 0.215734 0.220424 0.200426 0.158931 0.162003 0.165291 0.119332 0.277084 0.286276 0.272541 0.183365 0.0875104 0.212614 0.216038 0.533338 -0.0109173 -0.0322556 0.066157 -0.0939189 0.109849 0.0571334 0.236416 0.00497863 0.199688 -0.0822722 -0.0605431 0.0783993 -0.0896948 0.0115802 -0.120964 0.442762 -0.11572 -0.0972355 0.0328571 -0.13246 -0.111152 -0.113072 -0.103074 -0.102981 -0.1034 -0.103612 -0.103853 -0.103055 -0.103198 -0.103239 -0.102414 -0.102929 -0.102174 -0.102155 -0.102832 -0.102155
internal_weight=0 46769.2 35395.3 34882.1 25782.2 43962.3 43451.1 42818.4 12085.5 9099.88 8879.87 8412.22 30732.9 2511.8 23270.4 22949.5 467.65 2806.89 320.882 1349.37 220.008 1064.67 751.614 313.053 1447.12 1064.68 1457.53 632.684 191.748 1437.21 293.82 440.937 20.3182 1143.39 284.7 60.6618 224.039 218.279 5.95639 513.222 398.983 114.239 83.1706 52.5823 352.626 30.5883 143.868 46.3565 208.759 29.4295 511.201 16.927 1.03244
internal_count=268644 161881 106763 88502 72547 146701 121944 111374 47242 15955 13267 11593 64132 8547 64000 58236 1674 15180 5764 5168 2688 3857 3446 411 6693 1854 10012 10570 2426 9912 1703 8144 100 8209 1311 177 1134 2685 77 18261 14574 3687 2527 1487 12519 1040 4858 2055 7661 1423 24757 632 50
is_linear=0
shrinkage=0.1


Tree=3
num_leaves=60
num_cat=0
split_feature=136 31 130 105 31 74 30 130 54 35 31 129 75 134 106 127 109 125 97 76 0 47 88 26 33 72 55 24 96 123 90 115 31 31 31 81 124 31 117 31 31 113 114 91 32 31 101 31 31 42 91 45 114 113 117 45 127 126 0
split_gain=5304.75 5500.76 3213.51 3009.01 2831.07 2440.86 2580.03 2350.74 2118.8 2052.83 1774.59 1501.86 1413.37 1324.88 1321.06 1133.35 1202.44 1080.17 1262.95 912.122 832.681 785.202 747.516 785.889 718.697 452.26 328.412 285.567 156.426 0.0610364 0.00230351 0.00172411 0.000888015 0.000872374 0.00124821 0.000801204 0.000445056 0.000495606 0.000622445 0.000473406 0.00034302 0.000356517 0.000320501 0.000308048 0.000286396 0.000255575 0.000207627 0.000191265 0.000173551 0.000134993 0.000127041 8.68095e-05 4.31743e-05 3.7215e-05 2.26667e-05 1.62853e-05 1.1911e-05 1.56645e-08 4.44089e-16
threshold=1.0000000180025095e-35 1.0010519623756411 1.0000000180025095e-35 -0.92118570208549488 0.99784284830093395 -1.0220412611961363 1.0894103050231936 1.0000000180025095e-35 1.0207009315490725 0.92729875445365917 1.0121207833290102 1.0000000180025095e-35 -1.1349307894706724 1.0000000180025095e-35 -0.83381667733192433 -2.0091409683227535 -0.93220978975296009 -1.5816063880920408 -0.89510503411293019 -1.1593286395072935 0.28714324533939367 1.0895180106163027 -1.2933503985404966 1.4695597887039187 0.93878629803657543 -0.66011366248130787 1.0113271474838259 1.5020368695259096 -1.0838575363159177 -1.2158243656158445 -1.088016092777252 -0.93736958503723133 0.99796363711357128 0.99796363711357128 0.98997226357460033 -1.3431211709976194 -1.2402495145797727 1.0015704035758974 -0.94446974992752064 0.99796363711357128 1.0015704035758974 -1.0482113957405088 -1.0018483996391294 -1.0939273238182066 0.9418398141860963 1.0015704035758974 -0.85316869616508473 0.98997226357460033 0.99796363711357128 1.1358416080474856 -1.0939273238182066 1.141058146953583 -1.0018483996391294 -1.3678843379020689 -1.2610093355178831 1.141058146953583 -1.9386582970619199 -1.7783322334289549 0.10075601935386659
decision_type=2 2 2 2 2 2 2 2 2 2 2 2 2 2 2 2 2 2 2 2 2 2 2 2 2 2 2 2 2 2 2 2 2 2 2 2 2 2 2 2 2 2 2 2 2 2 2 2 2 2 2 2 2 2 2 2 2 2 2
left_child=1 2 3 22 14 8 -7 9 -5 10 13 -12 28 -3 24 16 -11 20 -19 21 -14 -6 -1 -24 -4 -17 -21 -16 -9 -30 31 33 46 34 50 45 37 39 -39 -33 55 -42 -37 -36 47 -35 53 -38 -46 51 -2 -48 -43 -32 -55 56 -34 -57 -51
right_child=30 7 4 5 19 6 -8 12 -10 15 11 -13 17 -15 27 25 -18 18 -20 26 -22 -23 23 -25 -26 -27 -28 -29 29 -31 32 36 40 35 43 42 44 38 -40 -41 41 52 -44 -45 48 -47 49 -49 -50 58 -52 -53 -54 54 -56 57 -58 -59 -60
leaf_value=2.0908274062826187 -0.1025952785068365 0.1980122943238406 0.0076617786993832277 0.001516799648530028 0.21943238090140987 0.14043951256382384 0.21626736401463661 0.35444003482175107 0.3042813433158475 -0.092810025416034739 -0.011428506576659829 0.21780051397168251 -0.13441155490427534 0.13425592949828721 -0.11631585025478824 0.2730273699971742 0.30625854252323514 0.21683809326685247 -0.10187774789266146 0.11271650925495545 0.29281544973322321 -0.070315692811405428 -0.049385125777068772 0.090081066037712654 0.17294094757903278 -0.057148920271215257 0.22551970247617797 0.64211173593123005 -0.1302072118793334 -0.10989023692779357 -0.10242331147673074 -0.10331461172086305 -0.1027817266559318 -0.10255541801347721 -0.10303894884619445 -0.10232973428641315 -0.10290507788379043 -0.10306441705172847 -0.1038024814003296 -0.10255540529136153 -0.10223874411936468 -0.10320421466209867 -0.10272699983562728 -0.10343864773814958 -0.10334826085973936 -0.10205202073602776 -0.10365912548978062 -0.10318680819630546 -0.10255608995344803 -0.10290805233438752 -0.10299526095234229 -0.10344548710000417 -0.10378546130744389 -0.10359498093564819 -0.1030901785995654 -0.10257367346665705 -0.10255256707948623 -0.10255520129368197 -0.10290805233438752
leaf_weight=1.7213172391057003 79.752632454037666 13746.610349187627 1528.8871905468404 1873.8237256519496 139.24386804550886 45119.171419626102 4982.6389755960554 7.6652477234601966 263.66661925427616 109.965675489977 888.2212204169482 421.42898526415229 46.394559994339943 4272.2905974462628 887.46577600948513 44.139624007046223 240.92681195959449 5636.2378675304353 127.13505573570728 358.19170852005482 2734.8486835509539 284.87027022615075 1020.1504721492529 669.00388369709253 317.77647755295038 689.93949205242097 923.55371229350567 4.992485459893941 1.4954575821757305 131.71322143264115 0.7956901378929605 17.888684213161469 13.151370493695138 15.525469316169618 61.241814788430929 22.355148551985621 52.159906029701233 20.639662394300103 25.597996501252055 15.185246841982005 4.0265293046832076 43.079431924968958 221.76483600959182 28.142836280167103 3.1651239879429367 28.78356284275651 33.261820549145341 44.789578847587109 21.909962728619576 1.2631691470742219 8.8188026715069991 44.420837488025427 1.3169885091483582 0.96188790537416835 11.819163741543887 8.3168871607631427 2.7408493850380209 0.48589266836643119 2.3066567033529282
leaf_count=10 3238 29365 7990 11093 507 118849 5049 2 823 882 4791 749 262 11540 6534 10 184 6449 711 965 2616 1741 15950 3305 505 3766 1051 11 11 1780 35 577 501 639 2144 1025 1902 717 726 625 188 1432 8749 876 101 1492 982 1517 903 46 313 1380 38 29 411 340 113 20 84
internal_value=0 0.150235 0.13253 0.139266 0.050805 0.143516 0.147981 0.185753 0.0388638 0.167214 0.174727 0.0623345 0.229327 0.182896 -0.0121755 0.0333668 0.181195 0.234507 0.209807 0.151934 0.285689 0.0248135 0.00797415 0.00585164 0.0361033 -0.0372957 0.193996 -0.112073 -0.0848407 -0.110118 -0.102916 -0.102833 -0.103247 -0.102727 -0.102901 -0.10262 -0.103077 -0.103262 -0.103473 -0.102966 -0.102985 -0.10314 -0.102691 -0.103165 -0.102957 -0.102228 -0.103449 -0.103035 -0.102656 -0.103509 -0.102635 -0.103537 -0.103221 -0.103087 -0.103128 -0.102682 -0.102742 -0.102573 -0.102908
internal_weight=0 87474.2 58375.2 53930.2 4444.98 52239.3 50101.8 29099 2137.49 20413.5 19328.6 1309.65 8685.49 18018.9 2739.12 1084.97 350.892 8544.62 5763.37 1705.86 2781.24 424.114 1690.88 1689.15 1846.66 734.079 1281.75 892.458 140.874 133.209 835.668 667.721 167.947 466.385 177.956 288.429 201.336 79.3116 46.2377 33.0739 73.1179 48.4229 244.12 89.3847 122.025 44.309 94.8292 96.9495 25.0751 81.2525 88.5714 77.6827 44.3964 13.5767 12.7811 24.695 15.8922 8.80278 3.56983
internal_count=268644 237501 174383 155079 19304 135814 123898 63118 11916 51287 46445 5540 11831 40905 15040 4842 1066 10038 7160 4264 2878 2248 19265 19255 8495 3776 2016 6545 1793 1791 31143 25544 5599 18476 6571 11905 7068 2645 1443 1202 2632 1658 9774 3020 4423 2131 2967 3419 1004 2492 3551 2362 1470 475 440 974 614 360 130
is_linear=0
shrinkage=0.1


Tree=4
num_leaves=61
num_cat=0
split_feature=136 133 31 130 123 53 134 23 126 122 33 125 5 77 67 117 104 78 31 31 31 107 105 90 115 113 31 31 31 81 31 32 31 113 124 31 117 31 31 113 114 91 32 31 101 26 31 31 113 42 91 105 45 114 113 105 117 45 127 126
split_gain=4010.24 3826.87 3618.24 4285.64 2767.31 4151.83 2170.86 4280.51 4154.91 3709.32 2337.17 2364.44 1925.42 889.434 974.063 781.443 487.025 0.0321335 0.00744469 0.00517548 0.002269 0.00196237 0.00186531 0.00168998 0.00126506 0.000994487 0.000651535 0.000639699 0.000916436 0.000589303 0.000468477 0.000432502 0.000387723 0.000377819 0.00032637 0.000363502 0.000456202 0.000347551 0.000251795 0.000261795 0.000235648 0.000225907 0.000210391 0.000187818 0.000152107 0.000145429 0.000140606 0.00012743 0.000116769 9.90068e-05 9.33286e-05 6.86793e-05 6.36767e-05 3.16755e-05 2.73286e-05 1.88083e-05 1.66209e-05 1.19699e-05 8.75288e-06 1.15052e-08
threshold=1.0000000180025095e-35 1.0000000180025095e-35 0.99527451395988475 1.0000000180025095e-35 -2.2694470882415767 1.128318786621094 1.0000000180025095e-35 1.3115119338035586 -1.7783322334289549 -1.3874886035919187 0.94806280732154857 -1.4710142612457273 0.50824373960495006 -1.1489563584327696 0.15172701328992846 -1.5329819917678831 -0.93864032626152027 -1.1064344644546507 1.0015704035758974 1.0010519623756411 1.0121207833290102 -0.95839375257492054 -0.92118570208549488 -1.088016092777252 -0.93736958503723133 -1.0482113957405088 0.99796363711357128 0.99796363711357128 0.98997226357460033 -1.3431211709976194 0.99796363711357128 0.96675786375999462 0.99796363711357128 -1.0482113957405088 -1.2402495145797727 1.0015704035758974 -0.94446974992752064 0.99796363711357128 1.0015704035758974 -1.0482113957405088 -1.0018483996391294 -1.0939273238182066 0.9418398141860963 1.0015704035758974 -0.85316869616508473 1.4695597887039187 0.98997226357460033 0.99796363711357128 -1.0482113957405088 1.1358416080474856 -1.0939273238182066 -0.92228198051452626 1.141058146953583 -1.0018483996391294 -1.3678843379020689 -0.92118570208549488 -1.2610093355178831 1.141058146953583 -1.9386582970619199 -1.7783322334289549
decision_type=2 2 2 2 2 2 2 2 2 2 2 2 2 2 2 2 2 2 2 2 2 2 2 2 2 2 2 2 2 2 2 2 2 2 2 2 2 2 2 2 2 2 2 2 2 2 2 2 2 2 2 2 2 2 2 2 2 2 2 2
left_child=1 2 3 4 15 -6 10 9 -9 -8 11 -4 -12 16 -15 -1 -5 18 30 22 25 33 45 24 27 -20 44 28 50 43 55 -23 -24 -21 35 37 -37 -26 57 -40 -31 -30 46 -29 54 -19 -36 -44 -22 52 -2 -32 -46 -41 -25 -3 -56 58 -28 -59
right_child=23 17 6 13 5 -7 7 8 -10 -11 12 -13 -14 14 -16 -17 -18 19 20 21 48 31 32 26 34 -27 38 29 41 40 51 -33 -34 -35 42 36 -38 -39 39 53 -42 -43 47 -45 49 -47 -48 -49 -50 -51 -52 -53 -54 -55 56 -57 -58 59 -60 -61
leaf_value=-0.0086500559895185958 -0.10234224014491188 -0.1019462404735979 0.18428301105624867 0.24904148346045846 0.11420901498568695 -0.040404784551561185 0.21815954638427329 0.28471719134281542 0.098905511002817081 -0.08263933863722947 0.14034676860669254 0.13251921202691333 -0.051554242548826873 0.14427712197080672 -0.063976668364532474 0.1940515672172132 -0.10509038445013541 -0.10185121729369062 -0.1037091559584211 -0.10260324372207696 -0.10277097107686353 -0.10385049855965794 -0.10223951826740441 -0.10218757298600674 -0.10298928927953147 -0.10515070651989117 -0.10251005511209138 -0.10230632967631925 -0.10274144923606406 -0.10210330944305285 -0.10259039865145246 -0.10251618015954918 -0.10272059921226007 -0.10371827208404368 -0.10262099579843892 -0.1027643430688165 -0.10342758441537132 -0.10230632637562752 -0.10202117487989877 -0.10289002217725095 -0.10246103448035092 -0.10310074604311598 -0.10301951355043722 -0.10185315155681288 -0.10329894278852354 -0.10212872505047171 -0.10287458615533723 -0.10230695826890418 -0.10372210903516083 -0.10262367322475936 -0.10270216523052896 -0.10320596696838598 -0.10310689866069787 -0.10341252194943072 -0.10324140015158151 -0.10224587158162948 -0.10278769648600772 -0.10232277143036712 -0.10230378031854018 -0.10230614806335313
leaf_weight=198.08849572390318 72.332502547651529 2.815826015546917 23223.78733635135 40.277995817363262 34050.336299162358 1830.120186753571 533.19463581591845 1610.2575429603457 4763.0679920576513 1773.7558007314801 1201.8196435850114 14231.768894629553 925.45465314760804 453.14555204287171 445.30567087233067 4768.4354842938483 1083.8643958363682 184.17267774045467 5.2806693818420163 68.462749626487494 1.4263393431901921 21.235856657847766 300.47671109065413 0.72154651954769988 16.234874838963155 51.049503855407238 11.929782694205642 14.080485753715037 55.566167278215289 20.270348558202386 2.2606977075338355 2.7430140804499379 17.741892568767071 3.1800254695117465 47.320227932184935 18.727293131873012 23.241702547296882 13.771928098052738 3.6507284939289084 39.09284844994545 201.15546207875013 25.543895900249481 2.8725960254669216 26.092707589268684 30.196130447089672 21.041767627000809 40.644019670784473 19.870771592482924 13.576991610229014 3.2386069372296324 8.0011951401829702 9.1417170390486699 40.318898908793926 1.1957388818263996 0.87318098545074363 8.1832706332206744 10.72428974881768 7.5429435912519693 2.4857470598071822 0.44066967070102592
leaf_count=852 3238 151 31970 164 84058 9609 998 1489 12838 8752 1426 36201 3564 1547 1997 1274 8394 10323 157 2787 56 600 14025 35 577 1128 501 639 2144 1025 94 119 710 93 1902 717 726 625 188 1432 8749 876 101 1492 982 1031 1517 903 409 130 313 304 1380 38 29 381 411 340 113 20
internal_value=0 0.128308 0.130113 0.108971 0.116007 0.106323 0.148892 0.103603 0.145852 -0.0131171 0.158824 0.164615 0.0568617 -0.0331176 0.0410588 0.185967 -0.0924018 -0.1025 -0.104225 -0.102238 -0.104725 -0.102915 -0.102115 -0.102631 -0.102556 -0.105016 -0.102928 -0.102461 -0.102617 -0.102364 -0.102635 -0.103698 -0.102266 -0.102653 -0.102776 -0.102942 -0.103132 -0.102676 -0.102693 -0.102832 -0.102428 -0.102855 -0.102668 -0.102012 -0.10311 -0.10188 -0.102738 -0.102397 -0.103632 -0.103164 -0.102378 -0.103084 -0.103189 -0.102906 -0.102785 -0.102169 -0.102822 -0.10242 -0.102474 -0.102322
internal_weight=0 91845.5 91132.7 42869.6 40847 35880.5 48263.1 8680.28 6373.33 2306.95 39582.8 37455.6 2127.27 2022.59 898.451 4966.52 1124.14 712.79 93.735 619.055 71.3335 95.6216 523.433 758.137 605.726 56.3302 152.411 423.043 161.444 261.599 22.4015 23.9789 318.219 71.6428 182.683 71.9758 41.969 30.0068 66.3385 43.9393 221.426 81.1101 110.708 40.1732 86.0727 205.214 87.9642 22.7434 15.0033 73.7536 80.3337 11.4024 70.515 40.2886 12.319 10.9991 11.5975 22.3991 14.4155 7.98361
internal_count=268644 237501 205133 107895 95793 93667 97238 24077 14327 9750 73161 68171 4990 12102 3544 2126 8558 32368 2680 29688 1750 3599 26089 31143 25544 1285 5599 18476 6571 11905 930 719 14735 2880 7068 2645 1443 1202 2632 1658 9774 3020 4423 2131 2967 11354 3419 1004 465 2492 3551 398 2362 1470 475 532 440 974 614 360
is_linear=0
shrinkage=0.1


Tree=5
num_leaves=62
num_cat=0
split_feature=136 133 31 126 29 31 108 48 53 102 130 32 105 127 75 54 96 78 31 31 31 107 105 90 115 113 31 31 31 81 31 32 31 113 124 31 117 31 31 113 114 91 32 31 101 26 31 31 113 42 91 105 45 114 113 105 117 45 127 126 0
split_gain=3120.67 2971.89 2622.23 3291.18 4315.93 3725.5 2955.05 2485.39 2411.8 1228.18 1184.31 1751.63 2241.79 1264.79 860.012 630.173 112.698 0.0236009 0.00545556 0.00380628 0.00165841 0.00144049 0.00137303 0.00124101 0.000929107 0.000727134 0.000478467 0.000469551 0.000673445 0.000433728 0.000344285 0.000316984 0.000285627 0.00027737 0.000239558 0.000266875 0.000334708 0.000255392 0.00018499 0.000192406 0.000173389 0.000165836 0.000154686 0.000138137 0.000111552 0.000107078 0.000103428 9.36461e-05 8.572e-05 7.26827e-05 6.86141e-05 5.03739e-05 4.67563e-05 2.32615e-05 2.00849e-05 1.38398e-05 1.22006e-05 8.80605e-06 6.43818e-06 8.46396e-09 8.88178e-16
threshold=1.0000000180025095e-35 1.0000000180025095e-35 1.0016816258430483 -1.7893366217613218 1.2228152155876162 0.98922207951545726 -1.0257197618484495 1.2029699683189394 1.1483923196792605 -0.94658735394477833 1.0000000180025095e-35 0.95569652318954479 -0.84837952256202687 -1.6489651203155515 -1.1349307894706724 1.034045457839966 -1.0838575363159177 -1.1064344644546507 1.0015704035758974 1.0010519623756411 1.0121207833290102 -0.95839375257492054 -0.92118570208549488 -1.088016092777252 -0.93736958503723133 -1.0482113957405088 0.99796363711357128 0.99796363711357128 0.98997226357460033 -1.3431211709976194 0.99796363711357128 0.96675786375999462 0.99796363711357128 -1.0482113957405088 -1.2402495145797727 1.0015704035758974 -0.94446974992752064 0.99796363711357128 1.0015704035758974 -1.0482113957405088 -1.0018483996391294 -1.0939273238182066 0.9418398141860963 1.0015704035758974 -0.85316869616508473 1.4695597887039187 0.98997226357460033 0.99796363711357128 -1.0482113957405088 1.1358416080474856 -1.0939273238182066 -0.92228198051452626 1.141058146953583 -1.0018483996391294 -1.3678843379020689 -0.92118570208549488 -1.2610093355178831 1.141058146953583 -1.9386582970619199 -1.7783322334289549 0.44320720434188848
decision_type=2 2 2 2 2 2 2 2 2 2 2 2 2 2 2 2 2 2 2 2 2 2 2 2 2 2 2 2 2 2 2 2 2 2 2 2 2 2 2 2 2 2 2 2 2 2 2 2 2 2 2 2 2 2 2 2 2 2 2 2 2
left_child=1 2 3 6 5 -5 7 -1 -8 -6 11 13 -13 -4 16 -16 -12 18 30 22 25 33 45 24 27 -20 44 28 50 43 55 -23 -24 -21 35 37 -37 -26 57 60 -31 -30 46 -29 54 -19 -36 -44 -22 52 -2 -32 -46 -41 -25 -3 -56 58 -28 -59 -40
right_child=23 17 10 4 9 -7 8 -9 -10 -11 14 12 -14 -15 15 -17 -18 19 20 21 48 31 32 26 34 -27 38 29 41 40 51 -33 -34 -35 42 36 -38 -39 39 53 -42 -43 47 -45 49 -47 -48 -49 -50 -51 -52 -53 -54 -55 56 -57 -58 59 -60 -61 -62
leaf_value=0.083959831142143226 -0.10211440447665471 -0.10175763134671488 0.17411334651885635 0.0046005770920725334 -0.04849633255852831 0.086543035176716229 0.14136344422372835 -0.10796082532003499 -0.026892601629451115 0.16664549553664931 0.25533603890479267 -0.00074906900384303938 0.11758895423549146 0.10387178246482914 0.14636977692709205 0.19892171892352553 -0.11043295444539536 -0.10167195699150032 -0.10334415117426687 -0.10234945538358625 -0.10250070802509076 -0.10347094868157672 -0.10202185794559522 -0.10197522548236669 -0.10269677189170812 -0.10463774894418398 -0.10226553692243748 -0.10208204953035419 -0.1024738050661658 -0.10189930011835875 -0.10233807231735258 -0.10227151529660893 -0.10245541314197898 -0.10335215131226011 -0.10236537637696062 -0.10249439672818572 -0.10309080068680032 -0.10208203002291734 -0.10182514094752415 -0.10260745300029046 -0.10222157328500864 -0.10279699461371124 -0.10272393687037798 -0.10167387318592856 -0.10297526807059182 -0.10192205077995115 -0.1025937383213632 -0.10208262730709922 -0.10335631854867455 -0.10236777718607232 -0.10243844794635447 -0.10289161246440584 -0.10280251927740239 -0.10307744657079783 -0.10292361763923966 -0.10202758879723513 -0.10251555928393702 -0.10209685245832321 -0.10207975302811508 -0.10208187900783856 -0.10182514094752398
leaf_weight=3668.3876993246377 65.587748326361179 2.5523467920720577 7563.8230394124985 8055.8906102683395 278.69062243402004 17825.372789315879 26937.770773902535 826.85540513880551 879.74285036325455 5541.3295516557992 9.0374068990349752 2037.530601112172 7469.0811219960451 3877.6829147078097 4980.804803237319 4210.9699673131108 124.04856622032821 166.92519883625209 4.7941629234701386 62.093440539203584 1.2938348129391659 19.28188870660961 272.43307513929904 0.65417258534580369 14.729632543399932 46.406386252492666 10.819009000435472 12.767116662114857 50.402976181358099 18.376220648176968 2.0503505412489167 2.4876170624047509 16.092962983995676 2.8870794586837283 42.918587697669864 16.987511929124594 21.095161027275026 12.48734084703028 2.8692781720310445 35.465119943022728 182.41764747630805 23.177889194339514 2.6063303183764246 23.649170164018869 27.404092015698552 19.07602090574801 36.871775003150105 18.017316808924079 12.32623181119561 2.9373649507760993 7.2574691083282223 8.2957520242780429 36.584559498354793 1.0852871164679516 0.79240196570753951 7.4195642154663819 9.7281855978071672 6.8394711147993803 2.2538816258311281 0.39956579357385535 0.44007333926856507
leaf_count=13925 3238 151 9021 37267 1157 48602 35096 9497 2502 4183 2 7838 15551 9490 6769 2600 1633 10323 157 2787 56 600 14025 35 577 1128 501 639 2144 1025 94 119 710 93 1902 717 726 625 163 1432 8749 876 101 1492 982 1031 1517 903 409 130 313 304 1380 38 29 381 411 340 113 20 25
internal_value=0 0.11143 0.112895 0.101427 0.0785345 0.0610373 0.123886 0.0486579 0.136042 0.156343 0.137145 0.123949 0.0922258 0.150308 0.166791 0.170445 -0.0855949 -0.102256 -0.103808 -0.102021 -0.104256 -0.10263 -0.101909 -0.102374 -0.102307 -0.104517 -0.102642 -0.102221 -0.102362 -0.102134 -0.102378 -0.103334 -0.102046 -0.102394 -0.102505 -0.102654 -0.102825 -0.102415 -0.10243 -0.102555 -0.102192 -0.102576 -0.102408 -0.101817 -0.102805 -0.101698 -0.102471 -0.102164 -0.103275 -0.102854 -0.102147 -0.102782 -0.102877 -0.102621 -0.102513 -0.101958 -0.102546 -0.102185 -0.102234 -0.102096 -0.101825
internal_weight=0 94933.4 94287 64014 31701.3 25881.3 32312.8 4495.24 27817.5 5820.02 30273 20948.1 9506.61 11441.5 9324.86 9191.77 133.086 646.416 85.1386 561.277 64.8206 86.75 474.527 687.622 549.35 51.2005 138.272 383.636 146.426 237.21 20.318 21.7695 288.526 64.9805 165.714 65.2996 38.0827 27.217 60.1717 39.8598 200.794 73.5809 100.414 36.4163 78.1008 186.001 79.7904 20.6236 13.6201 66.926 72.8452 10.3461 63.9887 36.5504 11.1748 9.97191 10.5206 20.3119 13.0729 7.23904 3.30935
internal_count=268644 237501 205133 152229 91209 85869 61020 23422 37598 5340 52904 41900 23389 18511 11004 9369 1635 32368 2680 29688 1750 3599 26089 31143 25544 1285 5599 18476 6571 11905 930 719 14735 2880 7068 2645 1443 1202 2632 1658 9774 3020 4423 2131 2967 11354 3419 1004 465 2492 3551 398 2362 1470 475 532 440 974 614 360 188
is_linear=0
shrinkage=0.1


Tree=6
num_leaves=62
num_cat=0
split_feature=136 106 125 30 116 111 39 30 27 113 134 46 105 129 30 68 1 105 42 131 16 93 18 112 133 104 53 73 105 33 106 90 115 31 31 31 81 124 31 117 31 31 113 114 91 32 31 101 31 31 42 91 45 114 113 117 45 127 126 0 0
split_gain=2484.45 2513.59 1879.83 3665.66 3220.37 2986.13 2663.2 2580.3 2347.79 2314.9 1427.33 1325.65 1419.49 1073.53 1385.54 977.865 809.927 792.083 625.057 585.866 503.953 418.471 371.912 371.892 265.166 242.586 258.877 220.878 203.831 20.3894 53.5161 0.000912111 0.000682967 0.000351688 0.000344945 0.000495293 0.000319447 0.000176004 0.000196102 0.000245815 0.000187802 0.000136026 0.000141522 0.000127664 0.00012184 0.000113815 0.000101665 8.18916e-05 7.61342e-05 6.88721e-05 5.34059e-05 5.04896e-05 3.43595e-05 1.70978e-05 1.47731e-05 8.96367e-06 6.48166e-06 4.73818e-06 6.22777e-09 4.44089e-16 4.44089e-16
threshold=1.0000000180025095e-35 -0.917853683233261 -1.4710142612457273 1.088156580924988 -0.92970398068428028 -0.91137424111366261 1.021490812301636 1.067942798137665 1.1815882325172427 -1.3023511767387388 1.0000000180025095e-35 1.1632577180862429 -0.88889941573142994 1.0000000180025095e-35 1.1010857820510866 0.090473648160696044 0.50778493285179149 -0.89679348468780506 1.0535448193550112 1.0000000180025095e-35 1.2121168375015261 -1.0613515973091123 1.114461421966553 -0.86455696821212757 1.0000000180025095e-35 -0.86318624019622792 1.067402243614197 -0.83117362856864918 -0.909909427165985 0.90223979949951183 -0.91879692673683155 -1.088016092777252 -0.93736958503723133 0.99796363711357128 0.99796363711357128 0.98997226357460033 -1.3431211709976194 -1.2402495145797727 1.0015704035758974 -0.94446974992752064 0.99796363711357128 1.0015704035758974 -1.0482113957405088 -1.0018483996391294 -1.0939273238182066 0.9418398141860963 1.0015704035758974 -0.85316869616508473 0.98997226357460033 0.99796363711357128 1.1358416080474856 -1.0939273238182066 1.141058146953583 -1.0018483996391294 -1.3678843379020689 -1.2610093355178831 1.141058146953583 -1.9386582970619199 -1.7783322334289549 0.45626364648342138 0.16013317555189135
decision_type=2 2 2 2 2 2 2 2 2 2 2 2 2 2 2 2 2 2 2 2 2 2 2 2 2 2 2 2 2 2 2 2 2 2 2 2 2 2 2 2 2 2 2 2 2 2 2 2 2 2 2 2 2 2 2 2 2 2 2 2 2
left_child=1 11 4 5 6 7 10 -4 -7 -8 -3 12 13 14 -1 21 27 -18 24 25 -15 -6 -20 -17 -14 28 -27 -5 -13 -21 -31 32 34 47 35 51 46 38 40 -40 -34 56 59 -38 -37 48 -36 54 -39 -47 52 -2 -49 -44 -33 -56 57 -35 -58 -43 -52
right_child=31 2 3 16 15 8 9 -9 -10 -11 -12 19 18 20 -16 23 17 -19 22 29 -22 -23 -24 -25 -26 26 -28 -29 -30 30 -32 33 37 41 36 44 43 45 39 -41 -42 42 53 -45 -46 49 -48 50 -50 -51 60 -53 -54 -55 55 -57 58 -59 -60 -61 -62
leaf_value=-0.0061851561434385126 -0.1019091529732304 0.13215105339838651 -0.056815201711594203 -0.15458552104339357 0.60856033611295313 -0.028239169032882955 -0.12462291120786465 0.053559500214004754 0.11193180569884911 0.079754570908635983 0.091113062982472404 -0.12265168795300341 0.25197296657848917 0.21788239777084512 0.13727943702510206 -0.11838472711725134 0.1209883354012688 0.18697032207766337 0.12053552620921755 0.21105038929769671 -0.081530462401690984 1.0571569840013237 -0.098279913100287594 0.38812994888613583 -0.10183277630237331 0.087834647268677263 -0.14028179586343403 0.21065290695716443 0.20228410972839553 -0.12897763229179607 0.19229220167496153 -0.10178385329318938 -0.10243358359161595 -0.10204532117958559 -0.10187999024690529 -0.10223288678521913 -0.10171541732952374 -0.10213523160823833 -0.1022514137304566 -0.10278805657379203 -0.10187999112134581 -0.10164843472079187 -0.10235317783887439 -0.10200587641868086 -0.10252375667018582 -0.10245801605464938 -0.10151218811183027 -0.10268421375274062 -0.10234097325326766 -0.10188053074568913 -0.10213738956249369 -0.10220105730114859 -0.102528737580407 -0.10277619395922476 -0.10263781170591202 -0.10227059543607807 -0.10189333424333569 -0.10187792987171254 -0.10187984437605824 -0.1016484347207916 -0.10213738956249352
leaf_weight=3804.8051392780617 59.459685672074556 35953.881529010832 2983.7886249572039 117.59177047200501 72.774129658937454 1352.8871776033193 582.07717166282237 7299.6231437399983 10234.678721323609 11571.394038487226 11089.29461845383 33.823835431598127 501.61562613397837 410.87305718287826 817.88585876952857 18.608659297227859 5688.8947426956147 2674.7876832969487 571.43261943385005 56.345146978273988 65.124741982668638 29.113840896636248 89.895119933411479 65.580023843795061 22.116986798122525 53.977063832804561 635.03852151613683 19.271218050271273 44.975179174914956 7.1491405218839672 18.871912002563477 0.59297611564397712 13.360422238707544 9.8094939179718494 11.573909645900128 45.708500707522035 16.656021187081933 38.917395638301969 15.405601751990615 19.141046520322561 11.320280248299239 2.6802840381860729 32.16582839936018 165.38956580217928 21.025266923010349 2.3641141019761589 21.431001978926361 24.862950533628464 33.44116542302072 16.333435265347362 2.151310751214623 6.5813063941895953 33.18697190657258 0.98474013619124789 0.71888978220522304 8.8224366465583426 6.2003406789153814 2.0432308055460462 0.36222252249717612 0.31908143311738957 0.51221684552729119
leaf_count=37526 3238 53800 13115 638 38 11439 5437 16790 28082 17848 25458 495 348 489 2378 162 7527 2706 1301 26 321 26 733 111 1253 206 9017 11 145 73 2 35 577 501 639 2144 1025 1902 717 726 625 168 1432 8749 876 101 1492 982 1517 903 105 313 1380 38 29 411 340 113 20 20 25
internal_value=0 0.0981112 0.102652 0.082416 0.113002 0.0607573 0.111696 0.0215337 0.0955664 0.0699661 0.122477 0.0409798 0.0568359 0.033922 0.0191978 0.528363 0.138141 0.14209 0.155422 -0.0762139 0.176918 0.736744 0.0907917 0.276172 0.237032 -0.103403 -0.122411 -0.103158 0.0628081 0.177239 0.104025 -0.102143 -0.102083 -0.102384 -0.102006 -0.102132 -0.101927 -0.102261 -0.102395 -0.102549 -0.10218 -0.102194 -0.102306 -0.101979 -0.102325 -0.102173 -0.101641 -0.102531 -0.10223 -0.101954 -0.102575 -0.101938 -0.102595 -0.102366 -0.102268 -0.102298 -0.101972 -0.102016 -0.101893 -0.101648 -0.102137
internal_weight=0 96888.2 89754.2 30371.5 59382.7 21871 59196.6 10283.4 11587.6 12153.5 47043.2 7133.93 6283.75 5098.69 4622.69 186.077 8500.55 8363.68 1185.06 850.181 475.998 101.888 661.328 84.1887 523.733 767.815 689.016 136.863 78.799 82.3662 26.0211 623.522 498.109 125.413 347.825 132.775 215.05 150.283 59.2274 34.5466 24.6807 54.5652 36.1499 182.046 66.7338 91.0561 33.0049 70.8478 72.3586 18.6975 60.7135 66.041 58.0499 33.1506 10.1343 9.54133 18.4153 11.8527 6.56256 2.99937 2.66353
internal_count=268644 237501 183188 80308 102880 69426 102543 29905 39521 23285 79258 54313 44349 40714 39904 337 10882 10233 3635 9964 810 64 2034 273 1601 9863 9223 649 640 101 75 31143 25544 5599 18476 6571 11905 7068 2645 1443 1202 2632 1658 9774 3020 4423 2131 2967 3419 1004 2492 3551 2362 1470 475 440 974 614 360 188 130
is_linear=0
shrinkage=0.1


Tree=7
num_leaves=63
num_cat=0
split_feature=133 136 123 53 101 30 81 124 10 55 114 42 45 85 114 109 78 31 31 31 107 105 113 97 90 115 106 113 31 31 31 31 81 32 26 31 115 124 31 31 31 113 31 113 32 105 127 48 42 19 30 106 32 19 30 31 106 45 28 45 31 125
split_gain=2122.09 2028.06 1831.51 3327 2057.36 1813.47 1385.6 878.965 800.707 519.001 371.707 188.028 84.5671 334.001 46.4486 1.26219 0.0248087 0.00485447 0.00304867 0.00174708 0.00138658 0.0012285 0.000718371 0.000839495 0.000670889 0.000502401 0.00047417 0.000369089 0.000338723 0.000258691 0.000253613 0.000364509 0.000235393 0.000228372 0.000222175 0.000198578 0.000134609 0.000129417 0.000144217 0.000123699 0.000100086 0.000104162 9.30466e-05 9.06909e-05 8.37905e-05 7.92118e-05 6.02404e-05 5.91112e-05 3.85379e-05 3.79075e-05 3.23925e-05 2.6893e-05 1.86945e-05 1.71659e-05 1.67305e-05 1.22677e-05 1.17583e-05 8.59506e-06 5.43153e-06 4.77497e-06 3.91417e-06 2.48292e-07
threshold=1.0000000180025095e-35 1.0000000180025095e-35 -2.3050886392593379 1.128318786621094 -0.95485955476760853 1.0948470234870913 -1.3986164331436155 -2.5060957670211788 0.60848915576934826 1.0024245977401736 -1.3911954164505003 1.1143931746482851 1.2170970439910891 -0.12431614100933074 -1.3835983872413633 -1.1101318597793577 -1.1064344644546507 1.0015704035758974 1.0010519623756411 1.0121207833290102 -0.95839375257492054 -0.92118570208549488 -1.0482113957405088 -0.92706775665283192 -1.088016092777252 -0.93736958503723133 -0.917853683233261 -1.0482113957405088 0.99796363711357128 0.99796363711357128 0.99796363711357128 0.98997226357460033 -1.3431211709976194 0.96675786375999462 1.4695597887039187 0.99796363711357128 -1.0719875693321226 -1.2402495145797727 1.0015704035758974 0.99796363711357128 1.0015704035758974 -1.0482113957405088 1.0121207833290102 -1.0482113957405088 0.9418398141860963 -0.92228198051452626 -1.8857820034027097 0.97975638508796703 1.1358416080474856 1.1806742548942568 1.1010857820510866 -0.917853683233261 0.9728534221649171 1.409370005130768 1.1010857820510866 0.98997226357460033 -0.917853683233261 0.9181450903415681 1.3241270780563357 1.141058146953583 1.0170600414276125 -1.4895405173301695
decision_type=2 2 2 2 2 2 2 2 2 2 2 2 2 2 2 2 2 2 2 2 2 2 2 2 2 2 2 2 2 2 2 2 2 2 2 2 2 2 2 2 2 2 2 2 2 2 2 2 2 2 2 2 2 2 2 2 2 2 2 2 2 2
left_child=1 2 10 4 9 -6 8 -8 -5 -4 11 -1 14 -14 -12 -13 17 28 21 22 27 34 49 -24 25 30 39 42 51 46 31 -3 -32 36 54 -28 -22 38 -27 -23 59 -42 -20 60 -39 57 48 -45 -26 -19 -36 58 -35 -29 -18 -48 -47 -30 -2 -31 -21 -53
right_child=16 24 3 6 5 -7 7 -9 -10 -11 12 15 13 -15 -16 -17 18 19 20 43 33 26 23 -25 29 37 35 53 45 40 32 -33 -34 52 50 -37 -38 44 -40 -41 41 -43 -44 47 -46 56 55 -49 -50 -51 -52 61 -54 -55 -56 -57 -58 -59 -60 -61 -62 -63
leaf_value=0.16574950900209762 -0.10166144708708197 -0.10175040732561443 -0.06216018494272707 0.6181643580777294 0.086265160989693709 0.14363080678776663 0.075379148811340502 -0.074686100031764249 0.11246415315641703 0.45651166820602945 0.12178856932206489 -0.10928951451986657 0.18344399842569045 -0.21183520131489844 0.16573822003935396 -0.15949337642972711 -0.10150001952228294 -0.10236861772319693 -0.10217680480747249 -0.1024308367149144 -0.10320567663778052 -0.1017859228776207 -0.10416784208889938 -0.1050365948844969 -0.10233354012466003 -0.1019679508327523 -0.10207231398476391 -0.10299226767731987 -0.10255397844620262 -0.10182092645003567 -0.10148263233004061 -0.1020984475894734 -0.10178754172253091 -0.10244992698234918 -0.10172496256845583 -0.10293220094616823 -0.10465467067265757 -0.10201362903469076 -0.10230033844458204 -0.10211778391572864 -0.10148911380007333 -0.10213555492329417 -0.10179657651752037 -0.10395421842102692 -0.10176420677542507 -0.10262029061679322 -0.1019192538210137 -0.10313926949218272 -0.10192643903409325 -0.10333381850371773 -0.10199102881221961 -0.10208100506850895 -0.10188204472509466 -0.10349604676058788 -0.1017391480042491 -0.10226645250461974 -0.10295657170121052 -0.10206949972235274 -0.10195029673067046 -0.10170924946776538 -0.10205605206555508 -0.10199792007256024
leaf_weight=26.91907787322998 2.6757595557719474 59.861057738773525 1008.6219335030764 46.171068914234638 84364.834357587621 5895.8036859333515 488.23461826331913 1946.0517186000943 97.278472933918238 19.668443005532026 258.67397718131542 5.5439669732004395 75.709857776761055 29.78699991106987 3417.0802363306284 51.783694431185722 147.67042724322528 0.450644850730895 48.949741011485457 0.75133424997329601 17.422477586194876 179.57502621598542 25.532036308199164 19.709670485928658 55.559973087161779 22.376028817147017 71.188776256516576 1.117904677987098 0.49303152691572805 10.744336785748603 29.908358078449965 60.510107528418303 165.01618223730475 1.4694924224168056 8.2847317159175891 2.7909302581101647 0.66561513766646641 65.60472215525806 31.331137632019818 11.98126259818673 2.7179817371070376 30.060035265050828 7.410239463672041 0.96988534368574519 16.948117784224451 1.218233361840247 4.9869358437135807 10.811227105557917 2.4268988445401183 4.1919752396643162 10.220997223630546 5.9506113510578871 0.9573533497750758 1.7124905940145252 2.9849505666643372 1.2785935960710046 7.0980637818574897 1.4232859164476392 0.86030340008437622 5.9482120480388394 0.44294255971908569 0.38282096199691462
leaf_count=3 168 3551 6319 105 180165 5759 638 10382 667 39 150 94 11 120 458 223 10145 21 2358 33 584 10445 688 440 2505 1202 3580 40 21 614 2131 3020 9774 66 497 101 16 3419 1443 609 188 1470 429 27 1004 49 272 382 131 136 534 298 53 53 178 59 255 73 46 360 23 20
internal_value=0 0.0869319 0.0880243 0.0852463 0.0884099 0.0900123 -0.0267904 -0.0445881 0.27523 -0.0522394 0.155483 -0.0522659 0.160112 0.0718371 0.162645 -0.154638 -0.102119 -0.103723 -0.10186 -0.104156 -0.102428 -0.101756 -0.104425 -0.104546 -0.101935 -0.101881 -0.10189 -0.102183 -0.102371 -0.102152 -0.101811 -0.101925 -0.101741 -0.103137 -0.101545 -0.102105 -0.103259 -0.102041 -0.102162 -0.101807 -0.10198 -0.102082 -0.102127 -0.103122 -0.101962 -0.102774 -0.102285 -0.103206 -0.102317 -0.10324 -0.101872 -0.101953 -0.102226 -0.103297 -0.101505 -0.10199 -0.102907 -0.102194 -0.101732 -0.101781 -0.102292 -0.102076
internal_weight=0 98297.4 97732.2 93866.7 91288.9 90260.6 2577.74 2434.29 143.45 1028.29 3865.5 84.2467 3781.25 105.497 3675.75 57.3277 597.364 82.9618 514.402 62.8597 79.7053 434.697 49.8843 45.2417 565.279 451.556 265.536 59.1904 20.1021 113.723 315.296 120.371 194.925 20.5149 169.161 73.9797 18.0881 136.26 53.7072 191.556 49.4706 32.778 56.36 12.9754 82.5528 10.2326 64.2524 11.7811 57.9869 4.64262 18.5057 9.8695 2.42685 2.8304 150.655 6.26553 8.3163 1.91632 3.53606 16.6925 1.19428 6.33343
internal_count=268644 236276 205133 204074 192282 185924 11792 11020 772 6358 1059 320 739 131 608 317 32368 2680 29688 1750 3599 26089 1285 1128 31143 25544 14735 2880 930 5599 18476 6571 11905 719 11354 3681 600 7068 2645 11054 2632 1658 2787 465 4423 398 2967 409 2636 157 1031 532 119 93 10323 331 304 94 214 974 56 318
is_linear=0
shrinkage=0.1


Tree=8
num_leaves=52
num_cat=0
split_feature=123 53 106 125 30 29 116 82 87 116 32 74 129 32 47 53 29 71 61 104 114 96 42 30 5 45 85 29 114 47 48 114 123 109 47 113 42 39 31 109 39 113 32 42 39 108 51 45 37 33 7
split_gain=1844.92 2610.74 1920.77 1979.18 4380.68 3191.6 3069.98 2188.57 1105.01 1097.59 1622.59 1021.82 808.657 1052.38 580.27 501.746 483.864 912.599 396.384 388.421 311.886 234.434 160.496 129.978 100.202 75.3935 274.495 75.3875 42.6961 334.101 105.461 27.1874 20.0643 5.51708 4.85399 30.0527 2.97357 2.57565 1.42502 0.82635 0.693385 0.577343 0.316107 0.147146 0.081558 0.0563209 0.0419216 0.00676857 0.00563766 2.40416e-05 4.94206e-06
threshold=-2.3050886392593379 1.128318786621094 -0.94141730666160572 -1.3626635670661924 1.0858545899391177 1.2355037927627566 -0.94467622041702259 -1.3489243388175962 -1.3066890239715574 -1.4628861546516416 0.85542055964469921 -1.0220412611961363 1.0000000180025095e-35 0.89257586002349865 1.2267475724220278 1.0326847434043886 1.0475456714630129 -0.34170004725456232 0.78808164596557628 -0.91682007908821095 -1.3911954164505003 -0.99145370721817005 1.1143931746482851 1.0363777875900271 0.53890568017959606 1.2170970439910891 -0.12431614100933074 1.0629809498786928 -1.3835983872413633 1.2097887992858889 1.2128077745437624 -1.3911954164505003 -2.2694470882415767 -1.1101318597793577 1.2267475724220278 -1.3094125986099241 1.1358416080474856 1.021490812301636 1.0016816258430483 -1.1101318597793577 1.021490812301636 -1.3464568257331846 0.80622667074203502 1.1358416080474856 1.0036026835441592 -1.0257197618484495 1.1980128288269045 1.2199671864509585 0.93084004521369945 0.81342673301696788 -0.047250412404537194
decision_type=2 2 2 2 2 2 2 2 2 2 2 2 2 2 2 2 2 2 2 2 2 2 2 2 2 2 2 2 2 2 2 2 2 2 2 2 2 2 2 2 2 2 2 2 2 2 2 2 2 2 2
left_child=20 2 12 6 5 -5 7 -4 -8 31 14 -6 13 15 18 -2 17 -12 -11 38 22 -16 -1 -15 -18 28 -27 -21 29 -22 -31 33 36 41 42 -36 -33 -34 -14 48 -35 -3 -30 47 -41 -46 -45 -28 50 -50 -24
right_child=1 9 3 4 11 -7 8 -9 -10 10 16 -13 19 23 21 -17 24 -19 -20 27 25 -23 39 -25 -26 26 43 -29 34 30 -32 32 37 40 35 -37 -38 -39 -40 44 -42 -43 -44 46 45 -47 -48 -49 49 -51 -52
leaf_value=0.15580833073145978 0.10277194793260108 -0.10227079921318104 0.021639417259212423 -0.021085838795901982 0.027981294645554645 0.15126173088293746 0.10513690646150081 0.086410329462337704 0.2076227723209613 0.013521437276439905 0.11528459385660134 0.11312786119756642 -0.12785274498244747 -0.050433556381253776 0.63899538974913128 -0.12892983491219753 -0.14821042238285717 -0.1309933655573314 0.18588824663691689 -0.11995927326035419 0.16127765044393991 -0.054127666028308818 -0.10278541430656059 -0.11481609877419735 0.11279342302333535 0.16879501703111505 -0.20315426986733598 0.22998327193915122 0.15633776873490426 0.12860032157097748 -0.25476453706043167 -0.24174048767992043 -0.177838183751444 -0.1513959556152632 0.095032088530000253 0.16087929479965474 -0.2030180216813868 -0.15597694714235302 -0.1736260338948058 -0.16330988122737045 -0.13614140219195539 -0.13785998367515293 0.16069796605803832 -0.19286781648253584 -0.13930308493172519 -0.15071089814690394 -0.18272120209410025 -0.197945261624066 -0.11016936142458807 -0.11068254144102158 -0.10316735329252354
leaf_weight=25.828407287597656 568.17641308624297 49.925119697116315 5693.5315564069897 8179.6777267763391 1720.1911380635574 1236.965306667611 1738.6477543339133 62296.792243331671 2664.1197575889528 175.24648701865226 291.28522514924407 7801.457975320518 26.866918439045548 525.95099008921534 4.9903826713562003 111.85972357541323 543.26418375223875 311.22578939143568 558.94372922088951 6.3659276552498332 213.90392355620861 220.16051273234189 0.81731230951845624 776.5329265454784 15.118317298591135 74.127478510141373 4.9869702160358447 186.77365335077047 2742.8181543201208 9.557325601577757 28.796856582164764 43.96207121014595 97.431692201644182 60.014607142657042 92.363757207989693 277.72035466134548 36.129368916153908 120.60573782585561 9.1067230850458127 4.7077468335628501 59.180005509406328 5.0162422200664869 177.00301837921143 5.729473993182185 4.8549888432025901 39.853512078523636 14.074496343731878 4.9911017417907715 1.9268167316913607 1.7348583638668058 0.57862712815403849
leaf_count=3 3718 2884 13788 46408 5285 777 6931 138470 3453 1197 590 9099 178 5892 1 2040 3335 1849 230 88 25 832 31 18051 64 11 20 156 335 4 121 183 508 273 67 36 149 696 38 20 309 113 20 23 24 179 57 20 23 20 20
internal_value=0 0.0737241 0.0764676 0.0786974 0.0499161 0.00155365 0.0862267 0.0809864 0.167151 -0.0252647 0.00544408 0.0977452 -0.0156168 -0.0361729 0.101677 0.0646591 -0.0740809 -0.0119298 0.144745 0.162256 0.145438 -0.0387649 -0.0495031 -0.088818 -0.141144 0.149732 0.0657738 0.218449 0.152194 0.112546 -0.159235 -0.163132 -0.181469 -0.131738 0.155235 0.144445 -0.224273 -0.165746 -0.13944 -0.14685 -0.143822 -0.10552 0.156602 -0.190646 -0.15079 -0.149472 -0.185657 -0.200549 -0.108351 -0.110413 -0.102944
internal_weight=0 96135.5 93543 91331.4 18938.3 9416.64 72393.1 67990.3 4402.77 2592.5 2120.23 9521.65 2211.63 1982.52 959.341 680.036 1160.89 602.511 734.19 229.113 3726.38 225.151 80.3023 1302.48 558.383 3646.07 103.91 193.14 3542.16 252.258 38.3542 472.265 298.129 174.136 3289.91 370.084 80.0914 218.037 35.9736 54.4739 119.195 54.9414 2919.82 29.782 49.4162 44.7085 19.804 9.97807 5.05761 3.66168 1.39594
internal_count=268644 267585 254372 224211 61569 47185 162642 152258 10384 13213 8098 14384 30161 29701 2260 5758 5838 2439 1427 460 1059 833 320 23943 3399 739 131 244 608 150 125 5115 1536 3579 458 103 332 1204 216 317 582 2997 355 120 223 203 80 40 94 43 51
is_linear=0
shrinkage=0.1


Tree=9
num_leaves=53
num_cat=0
split_feature=105 54 31 127 29 31 107 35 40 52 45 130 32 105 103 79 114 56 54 104 112 36 127 49 20 117 125 123 46 107 50 30 35 85 48 1 23 125 114 60 123 116 61 49 114 39 118 21 21 112 122 0
split_gain=1796.11 2532.63 1986.84 2824.14 3630.87 2025.42 1757.88 1723.38 1245.43 1194.7 1133.64 1093.48 1454.62 1086.49 823.735 750.892 695.41 647.813 638.48 1294.06 619.634 748.25 1141.98 610.421 431.898 805.524 407.575 392.533 365.276 326.895 252.447 230.465 161.968 157.647 78.8214 22.9114 54.6809 14.213 11.2347 7.75229 5.74038 4.60747 1.33264 1.1132 1.07149 0.700135 0.207425 0.18481 0.174832 0.0830828 0.0788157 0.0303055
threshold=-0.77565056085586537 1.090173125267029 1.0025530457496645 -1.9424601197242735 1.2228152155876162 0.99465158581733715 -0.97332516312599171 0.94872924685478222 1.0164299011230471 1.1205118298530581 1.2145840525627138 1.0000000180025095e-35 0.96759039163589489 -0.84262657165527333 -0.93772414326667775 -1.3814923167228697 -1.3593962192535398 0.97953906655311596 1.0345420241355898 -0.82465445995330799 -1.2868432402610777 0.95512968301773082 -1.9592514038085935 1.1883100271224978 1.1594434976577761 -1.4772230982780454 -1.4895405173301695 -2.1501749753952022 1.235032379627228 -0.78344216942787159 1.1441497802734377 1.0185022354125979 0.95545992255210888 -1.3631756901741026 1.2029699683189394 0.68935829401016246 1.1382381319999697 -1.5630436539649961 -1.3911954164505003 0.88073018193244945 -2.2694470882415767 -1.4861550927162168 0.71514204144477855 0.79037752747535717 -1.3911954164505003 1.021490812301636 -1.1703977584838865 1.5804887413978579 1.7101479768753054 -1.1612079739570615 -1.1682226657867429 -0.084642034024000154
decision_type=2 2 2 2 2 2 2 2 2 2 2 2 2 2 2 2 2 2 2 2 2 2 2 2 2 2 2 2 2 2 2 2 2 2 2 2 2 2 2 2 2 2 2 2 2 2 2 2 2 2 2 2
left_child=1 2 3 6 5 -5 9 -8 37 -1 20 12 13 -4 -6 33 40 -14 19 -13 23 29 -23 -10 25 34 -20 -27 39 -22 31 -26 -32 35 -17 36 -3 42 -25 -18 41 -12 -2 48 -42 -30 49 50 51 -44 -45 -39
right_child=8 15 11 4 14 -7 7 -9 10 -11 16 18 17 -15 -16 24 28 -19 26 -21 21 22 -24 38 30 27 -28 -29 45 -31 32 -33 -34 -35 -36 -37 -38 43 -40 -41 44 -43 46 47 -46 -47 -48 -49 -50 -51 -52 -53
leaf_value=0.040562210786957972 -0.24375094376497894 0.26482416666630887 0.061865906947778528 -0.010620896741291143 -0.055052594469114403 0.044437623548260877 0.10045522537565564 0.0031544579043222745 0.145289859528072 -0.1195805651866375 -0.14571258981073176 0.10961546772449904 -0.076487546522596428 0.11053057227302657 0.117160544045764 0.1284405780181973 0.12090584639789762 0.097257367768585845 0.15165121371496385 -0.065463906414242767 0.14055040628150048 0.11869173011335331 -0.029918130697462561 -0.1458382734517199 -0.11800575624629689 0.17841203176619227 -0.12826137201994489 0.0016405299711889868 -0.18037150730320906 0.24547448188288234 -0.12981951094784963 0.52996894869030242 0.31632686066295634 0.54672896264485626 -0.14960912106429522 0.31147878535797774 -0.11913464144988764 -0.10668341453453574 -0.20413439623808119 0.16490863613895107 -0.13059753026013882 -0.19564835462322075 -0.16497971469538933 -0.1367733520191888 -0.15523227557776784 -0.15560585527907184 -0.21091625290678273 -0.14306038223065928 -0.13866646348094744 -0.18420829081360737 -0.11891611734382307 -0.10377299042475636
leaf_weight=2845.0339890373871 5.3009052760899094 8.8848457336425763 11291.13469579909 11336.864497568458 292.36082947067916 16270.169231290929 19971.517325923778 2002.8778694048524 110.83072129264474 557.06415391154587 24.576000489294529 4753.9307644292712 873.48666536435485 7727.4993429118767 5557.9265220658854 10.475184077396987 61.48895700275898 284.49176668096334 3784.7415379881859 463.31269264221191 5805.711665827781 2234.3016965538263 672.79287558794022 94.90569219738245 10.528726547956468 144.07084722723812 52.744016282260418 980.76103666517884 22.435448378324509 312.93804216012359 671.42132477648556 11.467104434967039 8.2370282448828203 22.682693560607731 381.54510112665594 8.2405099868774414 6.3671021014451989 70.705915963277221 50.729061417281628 114.76636337302625 21.237739790230989 74.458388596773148 3.136662021279335 2.5659393072128287 104.69219087809324 23.239385176450014 2.449494302272794 3.5187637954950324 1.5792283006012429 7.9230829328298569 67.250693556852639 72.42446266207844
leaf_count=24782 24 1 31909 51550 1667 49403 36986 3778 22 7662 125 6049 4720 14670 4470 14 40 770 1859 1712 2820 1467 1708 644 102 61 216 3637 92 319 4323 2 12 23 5380 1 56 1208 242 16 234 304 44 14 477 113 10 26 15 32 603 2230
internal_value=0 0.0639758 0.066661 0.0560736 0.0369926 0.0218278 0.0812306 0.0915867 0.108709 0.0143402 0.114225 0.0879703 0.0750135 0.0816389 0.108554 -0.0404406 -0.0413441 -0.033802 0.116842 0.0940677 0.121715 0.12607 0.0842987 -0.0315592 -0.0487479 -0.018739 0.147804 0.0242818 0.0842492 0.145917 -0.113622 0.219803 -0.124412 0.358687 -0.142179 0.177126 0.104536 -0.117857 -0.166145 0.149558 -0.165244 -0.183256 -0.20126 -0.110662 -0.151078 -0.167771 -0.184586 -0.120699 -0.105576 -0.178755 -0.119572 -0.105211
internal_weight=0 90329.8 88065.2 58833.8 33457.3 27607 25376.5 21974.4 9965.96 3402.1 9729.1 29231.3 20176.6 19018.6 5850.29 2264.68 446.894 1157.98 9054.73 5217.24 9282.21 9025.74 2907.09 256.465 2218.51 1516.85 3837.49 1124.83 221.93 6118.65 701.654 21.9958 679.658 46.1752 392.02 23.4925 15.2519 236.855 145.635 176.255 224.964 99.0344 18.8101 218.045 125.93 45.6748 13.5092 73.3354 144.71 11.0597 69.8166 143.13
internal_count=268644 255815 242203 180298 107090 100953 73208 40764 12829 32444 8623 61905 52069 46579 6137 13612 1401 5490 9836 7761 7222 6314 3175 908 13531 9092 2075 3698 261 3139 4439 104 4335 81 5394 58 57 4206 886 56 1140 429 110 4096 711 205 86 643 3453 76 617 3438
is_linear=0
shrinkage=0.1


Tree=10
num_leaves=54
num_cat=0
split_feature=124 53 106 126 134 22 31 47 104 109 116 135 39 42 29 112 28 116 41 131 46 70 45 114 12 106 12 4 127 74 31 52 112 33 113 49 71 49 112 35 56 114 112 120 112 45 44 110 119 110 125 88 39
split_gain=1694.79 2166.87 1534.03 2117.15 2289.23 5702.11 2398.99 971.566 1151.87 879.307 864.788 824.152 796.373 541.475 532.165 984.18 525.232 476.534 659.75 463.753 433.029 231.995 215.109 483.266 209.822 184.878 163.506 146.462 181.168 97.1778 96.9655 59.9325 105.867 59.8944 40.873 438.413 33.5395 15.278 54.2782 9.70278 9.22394 8.9756 5.11556 3.81726 3.25055 1.83294 1.56631 1.52821 1.16744 0.558879 0.441709 0.346276 0.089175
threshold=-2.5060957670211788 1.1228979229927065 -0.917853683233261 -1.9443479180335996 1.0000000180025095e-35 1.306807339191437 0.99465158581733715 1.1666113734245303 -0.84899950027465809 -0.80992829799652089 -1.4861550927162168 1.0000000180025095e-35 0.95786756277084362 1.0542213320732119 1.0505908727645876 -1.264257490634918 1.0085607171058657 -1.481559097766876 1.0831242799758913 1.0000000180025095e-35 1.235032379627228 -0.28680798411369318 1.2145840525627138 -1.3593962192535398 0.77860948443412792 -0.92370769381523121 1.0000000180025095e-35 0.5092349946498872 -1.7446822524070738 -0.81506574153900135 0.85878881812095653 1.1507830619812014 -1.2868432402610777 0.82411658763885509 -1.3328083753585813 1.1989248991012575 -0.20817942917346952 1.2204630970954897 -1.2587623000144956 0.86402812600135814 1.0512974262237551 -1.3911954164505003 -1.2868432402610777 -1.7261049151420591 -1.2868432402610777 1.2145840525627138 1.1979280710220339 -1.1802769303321836 -0.98087790608406056 -1.1827590465545652 -2.8304424285888667 -1.2854828238487241 1.021490812301636
decision_type=2 2 2 2 2 2 2 2 2 2 2 2 2 2 2 2 2 2 2 2 2 2 2 2 2 2 2 2 2 2 2 2 2 2 2 2 2 2 2 2 2 2 2 2 2 2 2 2 2 2 2 2 2
left_child=17 2 7 10 6 -6 -5 8 12 14 33 -12 -2 -10 15 26 48 18 36 21 -17 -9 34 46 30 -26 -3 29 -29 -16 -18 32 47 -4 35 -19 -1 39 -39 -36 -25 49 -38 -42 -37 -43 50 -20 -11 -33 -24 -50 -48
right_child=1 9 3 4 5 -7 -8 19 13 16 11 -13 -14 -15 27 20 24 22 31 -21 -22 -23 23 40 25 -27 -28 28 -30 -31 -32 41 -34 -35 37 44 42 38 -40 -41 43 45 -44 -45 -46 -47 52 -49 51 -51 -52 -53 -54
leaf_value=0.2188575294324363 0.025015307711096342 0.32337845779576063 0.090378890508981416 0.039150435180577654 -0.10389162856940304 0.06019624848663338 0.080151499561827544 0.094177737639108208 0.18259661471364771 -0.19657162644640344 0.11629223474292655 -0.030811928791200996 -0.082752129440572697 0.054146331630529468 -0.14787548884088944 0.052704759735517165 0.28698335826143218 0.14958805516748294 -0.11754163393521873 0.1578173461291289 -0.15438761715733307 -0.13762806833655433 -0.21033147167876245 0.15350761504394012 0.53250462034425916 -0.11440172061751037 -0.12768384106047978 0.33676789528292361 -0.11599260947270368 -0.060876003885165356 0.49187728531208708 -0.11217224362140632 0.1133437862832208 -0.15380897595812229 0.14188788832639793 -0.18968804760047697 0.099682827892700526 0.0068877094626349257 0.14461107520259908 0.1662570771066896 0.13209301227024217 -0.2079922039806188 0.14565075963154381 0.080963746597618 -0.2492969465973256 -0.16523725574041381 -0.16871462895322678 -0.15784556383821491 -0.1601298942764614 -0.14183257058892265 -0.18558850090866902 -0.11531491904794154 -0.15792334195275992
leaf_weight=60.229098420590162 4479.5008901013061 8.1490099318325502 10.859648585319517 21356.313604922034 2873.5177236255258 8052.5011503435671 43010.388298643753 46.592475295066833 604.5165620110929 1.9646674543619145 9966.8861090866849 395.98446518182755 809.6511908294633 717.91647296678275 513.35701874736696 1165.6377929495648 62.178306421265006 251.54324050247669 14.561751848086713 66.034382492303848 110.54476976301521 588.59811539296061 12.68566106259823 101.42421245574951 5.7674590786919024 18.877818879671395 581.47876525763422 15.640407433733342 20.319584270007908 171.21056359168142 36.7477922514081 7.075373829342424 26.283989578485489 133.85503836162388 3109.039239153266 17.622721776366234 46.010237161070108 37.827507480978966 117.51405357383192 172.44819974899292 26.389191552996635 33.405090108513832 51.093269467353821 32.6910350471735 19.023510709404945 14.327849015593527 31.091245830059052 26.580368645489216 1.8119712760671962 62.206949509680271 16.730188678950071 35.576079440303147 10.160052448511122
leaf_count=21 31474 4 35 61349 11693 16534 92079 200 1649 8 13574 1041 9029 2489 2875 2750 88 38 198 34 589 8037 52 12 2 193 6910 5 195 1451 30 128 13 1793 437 81 34 59 21 20 9 138 9 32 80 61 130 123 14 315 69 396 44
internal_value=0 0.0589012 0.0614847 0.0652319 0.0593637 0.0170415 0.0665477 0.0175189 0.0293895 -0.0285951 0.107281 0.110671 0.00851852 0.112864 -0.0427893 -0.0146008 0.196731 0.123089 0.00980061 -0.0944038 0.0347661 -0.120625 0.132876 0.0392731 0.298055 0.0369865 -0.12145 -0.115784 0.0809306 -0.126117 0.363095 -0.118521 -0.0434265 -0.135485 0.138685 0.102511 0.160232 0.141718 0.111074 0.143169 0.135211 -0.161792 0.12387 0.103802 -0.220632 -0.195159 -0.178629 -0.14358 -0.121435 -0.138804 -0.196259 -0.117487 -0.166057
internal_weight=0 95862.4 93113.1 85800.3 75292.7 10926 64366.7 7312.81 6611.59 2749.26 10507.6 10362.9 5289.15 1322.43 2586.34 1865.81 162.924 4297.96 341.774 701.225 1276.18 635.191 3956.19 231.172 123.571 24.6453 589.628 720.528 35.96 684.568 98.9261 184.441 67.4261 144.715 3725.02 288.189 157.333 3436.83 155.342 3281.49 160.504 117.015 97.1035 59.0802 36.6462 47.7329 70.6671 41.1421 39.3527 69.2823 29.4158 37.3881 41.2513
internal_count=268644 266520 251010 198098 181655 28227 153428 52912 44641 15510 16443 14615 40503 4138 14779 10253 731 2124 1040 8271 3339 8237 1084 348 313 195 6914 4526 200 4326 118 976 334 1828 736 199 64 537 80 457 53 642 43 41 161 199 295 321 418 443 121 410 174
is_linear=0
shrinkage=0.1


Tree=11
num_leaves=58
num_cat=0
split_feature=105 31 30 125 29 53 110 35 40 32 5 38 56 103 45 87 46 32 104 135 99 36 123 114 47 114 71 68 74 118 115 46 3 96 105 31 69 6 22 2 93 32 126 60 39 114 121 124 61 114 91 21 115 92 130 124 89
split_gain=1658.29 1747.91 2006.6 2986.61 2494.95 2360.87 2087.25 1326.75 1027.26 949.883 995.038 2386.37 1797.09 1156.77 816.139 801.942 769.808 748.234 706.231 582.651 527.94 514.091 985.342 571.093 734.518 505.856 487.807 370.937 368.618 361.301 291.29 273.989 269.973 215.74 209.81 198.916 194.017 201.426 182.325 120.063 83.8724 14.7958 8.60352 8.4046 2.33635 1.39894 0.8603 0.664083 0.635786 0.371597 0.151049 0.11632 0.0877169 0.0742404 0.0635314 0.0340299 0.0290873
threshold=-0.77565056085586537 1.0025530457496645 1.0939100384712221 -1.5870939493179319 1.2355037927627566 1.1211532950401308 -0.89165979623794545 0.95545992255210888 1.0164299011230471 0.97032684087753307 0.57481849193573009 0.95029625296592724 0.94795748591423046 -0.82250270247459401 1.2145840525627138 -1.2251982688903806 1.1157256960868838 0.95414629578590404 -0.92302355170249928 1.0000000180025095e-35 -0.98055353760719288 0.95512968301773082 -1.3374041914939878 -1.3835983872413633 1.2097887992858889 -1.3593962192535398 -0.42820684611797327 0.17781259119510653 -0.81506574153900135 -0.98333111405372609 -0.95772540569305409 1.235032379627228 0.50916829705238353 -1.0279087424278257 -0.83400633931159962 0.99066632986068737 -0.083960361778736101 0.54868373274803173 1.2585844397544863 0.56680047512054454 -1.075384199619293 0.97094327211380016 -1.692852199077606 0.88073018193244945 1.021490812301636 -1.3911954164505003 -0.38994750380516047 -2.5060957670211788 0.71514204144477855 -1.3911954164505003 -1.126750588417053 1.5804887413978579 -1.2601042985916135 -0.26983283460140223 1.0000000180025095e-35 -2.1399782896041866 -0.96391686797142018
decision_type=2 2 2 2 2 2 2 2 2 2 2 2 2 2 2 2 2 2 2 2 2 2 2 2 2 2 2 2 2 2 2 2 2 2 2 2 2 2 2 2 2 2 2 2 2 2 2 2 2 2 2 2 2 2 2 2 2
left_child=1 2 3 5 6 7 -5 -1 42 10 13 17 -13 16 21 33 -3 -12 -6 30 -21 23 27 24 -10 44 -15 -23 -7 -24 -17 43 -25 35 39 -4 38 -38 -36 41 -35 -11 48 -27 45 -16 50 -33 -2 -46 54 56 53 -50 -44 -54 -48
right_child=8 9 15 4 18 28 -8 -9 14 34 11 12 -14 26 25 19 -18 -19 -20 20 -22 22 29 32 -26 31 -28 -29 -30 -31 -32 47 -34 40 36 -37 37 -39 -40 -41 -42 -43 46 -45 49 -47 51 -49 52 -51 -52 -53 55 -55 -56 -57 -58
leaf_value=0.066867965012177608 -0.20621316152530589 0.086210508473362368 0.92263907222352559 -0.020420420031603888 -0.12897287673624266 -0.11870311356821731 0.045042120757559138 -0.071944783923594796 0.12579146188699811 -0.077703583186338507 0.091670912010917746 -0.11883633496899555 0.040476800012181978 0.14069005777022645 -0.13189527437957257 -0.14243891395666597 -0.051128687935538444 0.048294520903167049 0.13311694886148145 -0.06015267574692245 0.11026518161230102 0.09815083024257315 -0.18561410857188329 0.13493469096589816 -0.14686875624535237 0.10202227478259636 0.075231070695447322 -0.1649164502321406 -0.022505813567547318 0.038696813227258549 0.054587198904548932 -0.1813236725593789 -0.042586786557201717 -0.18073279026886099 0.10131148432519135 0.38092274169304408 0.021071431516116873 -0.1495098244771893 -0.18231986803592745 0.22498370034703841 0.25537825741219766 -0.14111471688412147 -0.11903446391785773 0.14949832392646706 -0.12434336168277504 -0.16291943416061494 -0.10353237652033431 -0.14776412697705801 -0.13735980050307819 -0.13977989718240688 -0.14031094754698392 -0.13420092668582403 -0.17812134940038818 -0.16614999602724334 -0.10816321279441631 -0.16622441061282034 -0.10645194827526372
leaf_weight=28933.721173890866 6.10069037601352 1028.5291530191898 7.3369691744446746 15237.838365761563 108.8976779486984 558.28107140213251 7158.978153613396 705.32758260797709 230.51004381850362 45.441622656770051 11684.832266550511 1132.6406938582659 1888.827170856297 4675.2105693602934 17.265900185331702 144.18923525605351 676.60532119963318 6028.4815021418035 1839.9211191888899 189.20599057897925 4633.791023209691 2471.711327418685 185.03868201375008 5464.3182620499283 172.91458328720182 57.713332548737526 1504.8868138194084 54.788327932357788 1390.3861996354535 117.34464829415083 156.46198361832649 7.0900564342737189 87.032337009906769 8.6403260212391615 193.27061859332025 89.033720748499036 149.79265030007809 128.69811865221709 25.674837137572467 9.9791224449872953 9.0067195892333984 193.41777428705245 58.083491486497223 105.35919329896569 19.567763802595437 91.874929754063487 68.045947316102684 35.025037848390639 1.5411504209041598 76.801579361781478 3.1939990064129224 1.377588964998721 4.8685628771781921 2.1385395675897607 5.9238818660378447 4.7501252889633143 68.452738797292113
leaf_count=83185 27 2789 42 58735 545 2914 28282 1789 90 218 20863 5782 4275 3225 122 2175 3194 15195 851 694 3938 1923 741 2473 1001 40 3568 190 9975 321 321 29 483 62 280 145 421 698 170 9 1 1474 488 16 223 403 2230 176 38 392 24 13 20 9 93 20 1244
internal_value=0 0.0514377 0.0418106 0.0362683 0.00994726 0.0565547 0.000504201 0.0635646 0.0955259 0.0714914 0.0743956 0.0628971 -0.019244 0.104632 0.100686 0.100997 0.0317137 0.0769084 0.118472 0.0951602 0.10358 0.107129 0.0720285 0.123803 0.0089247 -0.0370976 0.12475 0.0924461 -0.0500657 -0.0985667 -0.0399045 0.0739715 0.132152 0.363302 -0.0398857 0.422165 -0.0023838 -0.0577588 0.0680512 -0.114853 0.0418501 -0.129051 -0.115831 0.132696 -0.147992 -0.158011 -0.10981 -0.153414 -0.179485 -0.136646 -0.119087 -0.105288 -0.167223 -0.154092 -0.118028 -0.172246 -0.104997
internal_weight=0 90537.3 61171 55933.4 24345.6 31587.7 22396.8 29639 9418.83 29366.3 28620 20734.8 3021.47 7885.23 9194.36 5237.67 1705.13 17713.3 1948.82 5123.65 4823 8783.66 2828.88 5954.78 403.425 410.698 6180.1 2526.5 1948.67 302.383 300.651 205.188 5551.35 114.018 746.275 96.3707 497.436 278.491 218.945 248.839 17.647 238.859 224.477 163.073 205.51 109.141 205.078 42.1151 19.3991 96.3693 67.2014 137.876 13.2984 3.67969 64.0074 9.61869 136.499
internal_count=268644 255815 193654 186276 88413 97863 87017 84974 12829 62161 58891 46115 10057 12776 8623 7378 5983 36058 1396 7128 4632 7222 3175 4047 1091 1401 6793 2113 12889 1062 2496 261 2956 250 3270 187 1569 1119 450 1701 63 1692 4206 56 1140 525 4092 205 114 615 605 3487 87 47 581 40 3474
is_linear=0
shrinkage=0.1


Tree=12
num_leaves=54
num_cat=0
split_feature=124 51 136 133 125 0 116 109 30 47 116 41 20 115 45 114 75 114 6 110 123 38 52 113 113 49 71 123 49 112 56 96 115 114 120 53 112 45 110 45 123 110 44 78 106 31 126 31 114 31 106 31 114
split_gain=1564.35 1470.93 1420.1 1399.25 1274.46 2664.1 1588.95 671.876 870.122 443.66 362.119 499.176 326.534 253.09 168.518 352.999 144.07 210.6 114.53 72.9889 187.95 57.7957 44.2499 88.6882 34.6189 345.753 29.5725 19.0534 17.2818 52.0299 8.29616 6.81024 5.40229 4.04435 3.27054 2.80764 2.24631 0.836377 0.828231 0.67961 0.477165 0.248437 0.0629549 0.0477926 0.00971136 0.00789222 0.00292304 0.00136446 0.00104542 0.00083651 0.000357203 0.000111653 6.67883e-05
threshold=-2.5060957670211788 1.166870713233948 1.0000000180025095e-35 1.0000000180025095e-35 -1.4710142612457273 0.4307826459407807 -1.0148106217384336 -1.0927191376686094 1.007451117038727 1.2267475724220278 -1.481559097766876 1.0831242799758913 1.1325465440750124 -1.0617066025733946 1.2145840525627138 -1.3593962192535398 -0.90683311223983754 -1.1489650607109068 0.55748665332794201 -1.1562947034835813 -2.1501749753952022 0.95704850554466259 1.1507830619812014 -1.339563727378845 -1.3328083753585813 1.1989248991012575 -0.20817942917346952 -2.2459787130355831 1.2204630970954897 -1.2587623000144956 1.0512974262237551 -0.32408586144447321 -1.4395397305488584 -1.3911954164505003 -1.7261049151420591 1.128318786621094 -1.2868432402610777 1.2145840525627138 -1.1802769303321836 1.2170970439910891 -2.3050886392593379 -1.1827590465545652 1.1979280710220339 -1.1064344644546507 -0.94141730666160572 1.0015704035758974 -1.7290664315223692 0.98997226357460033 -0.92886549234390248 0.99796363711357128 -0.93610888719558705 1.0015704035758974 -0.93974766135215748
decision_type=2 2 2 2 2 2 2 2 2 2 2 2 2 2 2 2 2 2 2 2 2 2 2 2 2 2 2 2 2 2 2 2 2 2 2 2 2 2 2 2 2 2 2 2 2 2 2 2 2 2 2 2 2
left_child=10 2 3 4 6 -6 -2 19 9 12 11 26 -9 -11 24 39 18 -18 -10 21 -21 -3 23 38 25 -12 -1 -23 31 -30 -17 -26 -28 41 -32 -22 -27 -35 -13 40 -16 -24 -41 45 -45 -5 49 52 -49 50 -4 -51 -48
right_child=1 7 46 43 5 -7 -8 8 16 13 14 22 -14 -15 15 30 17 -19 -20 20 35 27 33 -25 28 36 32 -29 29 -31 34 -33 -34 37 -36 -37 -38 -39 -40 42 -42 -43 -44 44 -46 -47 47 48 -50 51 -52 -53 -54
leaf_value=0.20369076142135106 0.048315263030291253 0.080419317129860432 -0.10195271120036964 -0.10277020972404115 -0.054842310510348637 0.045049298333869704 0.082545330508889792 0.10357588114198274 -0.14844475233685092 -0.074117488866305273 0.13882661710294833 -0.11549778675150402 -0.01980931934554343 0.23069552280626426 -0.19176847934423849 0.14082967238998553 -0.14450621944742392 0.077770105756495414 0.19508834338418077 0.17377485259268696 -0.19817814748805618 -0.095878250871901008 -0.1099367911951257 0.10845690432426808 0.152975008203311 -0.16689858247999242 0.085423903734406753 -0.1437110033254145 -0.0071072122011755466 0.13207373093569691 0.11935001089636238 0.13120103718470671 0.13491494857892941 -0.17758315637239672 0.069830117237177497 -0.14233563766902596 -0.21680587995334452 -0.14763132444623231 -0.14674601939744933 -0.1580477302919398 -0.16073488544304698 -0.1316657959073167 -0.14742985566075714 -0.10159176565624498 -0.10248465968942384 -0.10494238065152223 -0.101644971543496 -0.10203331304099406 -0.10240327132383097 -0.10219127124473902 -0.1028827730605727 -0.10243528799301119 -0.10181811018881069
leaf_weight=55.531498659402132 37317.423604821786 12.824031827040015 4.4149523377418509 21.818219353444874 2929.0931429574266 30169.704742433503 21302.280839242041 850.32102716248482 372.9952627629973 360.87332178652287 225.91225157678127 12.8375530783087 286.84168031159788 29.464139919728041 7.1779771447181711 91.447628498077393 82.068331107497215 88.691363747231662 9.9639196991920453 28.723113223910332 17.257058802060783 103.35866293031722 5.8247024370357385 24.371188104152679 151.55848217010498 16.768870079889894 43.456464489921927 428.60401374474168 36.077044412493706 105.12272913753986 23.679900988936424 2750.6638439148664 44.787195309996605 32.610085241496563 30.535138696432114 18.825074041262269 19.513318672776222 13.055445179343222 25.000211484730244 6.6073511242866507 15.994983790442348 54.450431674718857 36.058268621563911 286.34781306888908 211.98545651696622 71.678013287484646 56.011679864488542 258.38055993802845 108.43665798287839 29.08824197947979 63.853977615945041 52.765964518301189 36.995649294927716
leaf_count=21 77609 58 246 911 13481 70432 26855 1024 2331 1609 38 198 1592 53 29 12 775 332 7 8 89 597 128 11 19 81 36 7639 59 21 9 438 7 138 32 166 80 61 125 29 70 315 167 19175 9413 1743 3546 13660 4918 1396 2367 2366 2122
internal_value=0 0.0477921 0.0499028 0.0509077 0.0518967 0.0362093 0.0607544 -0.0250958 0.00194772 0.0408778 0.112977 0.00971313 0.0724528 -0.0511091 0.122135 0.0355989 -0.105446 -0.0290575 -0.139507 -0.117426 -0.0170989 -0.12936 -0.107263 -0.0403184 0.127672 0.0928064 0.14652 -0.134417 0.130676 0.0965125 0.122454 0.132338 0.110543 -0.146573 0.0914593 -0.169044 -0.19374 -0.16902 -0.136144 -0.156562 -0.170348 -0.129566 -0.149074 -0.102361 -0.101972 -0.104435 -0.102181 -0.102056 -0.102143 -0.102564 -0.102823 -0.102349 -0.101714
internal_weight=0 95611.1 92920.3 92310.3 91718.5 33098.8 58619.7 2690.81 2081.22 1527.5 3829.04 311.925 1137.16 390.337 3517.12 211.501 553.719 170.76 382.959 609.592 64.8052 544.787 168.15 62.209 3305.62 262.194 143.775 531.963 3043.42 141.2 145.663 2902.22 88.2437 105.941 54.215 36.0821 36.2822 45.6655 37.8378 65.8386 23.173 60.2751 42.6656 591.83 498.333 93.4962 609.948 459.825 366.817 150.123 68.2689 81.8542 93.0073
internal_count=268644 266520 250240 219619 188377 83913 104464 16280 7723 4278 2124 1040 2616 1662 1084 348 3445 1107 2338 8557 263 8294 976 334 736 199 64 8236 537 80 53 457 43 642 41 255 161 199 323 295 99 443 196 31242 28588 2654 30621 24246 18578 6375 2613 3762 5668
is_linear=0
shrinkage=0.1


Tree=13
num_leaves=59
num_cat=0
split_feature=104 70 78 110 79 74 14 44 114 40 110 104 50 67 5 60 96 124 58 88 40 127 69 124 69 44 104 68 104 26 52 127 49 62 51 101 117 95 10 124 31 105 114 107 103 66 120 41 55 113 107 113 52 45 34 122 109 23
split_gain=1513.36 2775.47 1270.04 1857.93 2143.51 1698.77 1242.32 1385.96 1107.51 1040.01 979.566 916.345 760.805 662.608 596.565 532.588 524.214 600.241 454.877 448.557 434.788 677.011 420.131 319.008 308.817 301.812 210.806 269.198 203.911 200.759 195.397 179.379 190.549 277.083 141.819 314.878 130.437 126.062 113.697 94.4016 83.6414 82.1334 42.7346 32.2229 27.9265 25.657 13.4269 40.6564 7.54844 6.57211 5.19079 3.68164 3.64496 3.58766 3.37081 1.01718 0.853836 0.604419
threshold=-0.75294300913810719 -0.18010699748992917 -1.363371670246124 -0.86075767874717701 -1.3567128181457517 -1.0208318829536436 0.80035102367401134 1.1553496122360232 -1.3835983872413633 1.0440972447395327 -0.86857926845550526 -0.76107859611511219 1.2129071950912478 0.19436144828796389 0.67097711563110363 0.78422492742538463 -1.0260415673255918 -1.1544577479362486 0.93291315436363231 -1.2854828238487241 1.0541165471076968 -1.9716565608978269 0.013799722772091629 -2.5506621599197383 0.0066267321817576894 1.1138104796409609 -0.76272320747375477 0.12823069840669635 -0.77196320891380299 1.346109211444855 1.223896384239197 -3.2629464864730831 1.1738584637641909 0.6981317698955537 1.1492919921875002 -0.52735733985900868 -1.5083644986152647 -0.9688742160797118 0.54095795750617992 -1.3327985405921934 1.0052536725997927 -0.81154379248619068 -1.3950771689414976 -0.81010171771049488 -0.77774593234062184 0.47322325408458715 -1.7495298385620115 1.089539170265198 1.0460911393165591 -1.339563727378845 -0.98372864723205555 -1.3464568257331846 1.1453323364257815 1.2170970439910891 0.81129387021064769 -2.0123591423034664 -1.1101318597793577 1.2451137304306032
decision_type=2 2 2 2 2 2 2 2 2 2 2 2 2 2 2 2 2 2 2 2 2 2 2 2 2 2 2 2 2 2 2 2 2 2 2 2 2 2 2 2 2 2 2 2 2 2 2 2 2 2 2 2 2 2 2 2 2 2
left_child=1 2 15 4 10 -6 7 24 9 31 -4 30 13 43 19 16 17 -1 26 -5 37 -22 -13 36 28 39 44 -28 -3 -16 -9 32 33 -2 35 49 53 -15 -27 -17 -18 -25 -34 52 -8 -43 47 -36 -48 -11 -26 56 -10 -14 -38 -53 -33 -45
right_child=8 6 3 14 5 -7 18 11 12 34 -12 22 23 20 29 25 40 -19 -20 -21 21 -23 -24 41 50 38 27 -29 -30 -31 -32 51 42 -35 46 -37 54 -39 -40 -41 -42 45 -44 57 -46 -47 48 -49 -50 -51 -52 55 -54 -55 -56 -57 -58 -59
leaf_value=0.15743248435700252 0.061475705372358337 0.020690273182729743 -0.15568960045892929 0.091272547076941671 -0.015344727022847072 0.049792285860234958 -0.15544361741859825 -0.14934513786901024 -0.26201324108998553 -0.16685536475689314 -0.0011594168827877237 0.075129026312854966 -0.24545957555265027 0.20341472833499755 -0.12488929689304691 0.37516470446994871 -0.10490307853050287 -0.10627882532216833 0.17127257038128221 0.17990279452183799 0.088975065805620215 -0.11490686083214713 -0.14228614654664523 0.11256561148969971 -0.11683879270287348 0.262863489853643 -0.009491078570013552 -0.20791901985447903 0.11041906108923823 0.14243029736006615 0.13222841065173402 -0.11690106359075336 -0.013405684575533783 0.54777257939299884 0.0072688627956622402 0.23648735803939314 0.10343055283920893 0.12270047019691704 -0.12743476128497377 0.16632673178011886 0.019238151368344909 -0.15107599030810609 0.115435001789437 -0.10477816457279752 -0.24263855093789402 -0.06214367023468681 -0.17187429127940854 -0.13306191903039355 -0.13253336155463133 -0.28604632307518679 -0.24882367381813159 -0.26668133757626916 -0.17283145263611494 -0.14006814069396803 0.13850756740430623 -0.19973153798011323 -0.18313179112964106 -0.15801048128066381
leaf_weight=198.21218078397214 22.059594228863716 407.91993031557649 723.00756848696619 965.30495101027191 4223.8401043694466 76878.611850114074 41.064573086798191 891.74133721645921 16.799639353528622 30.594578664749861 948.17232897412032 392.6199231017381 4.1267574578523663 202.48051355779171 115.87419195566326 29.828546643257141 1011.3238180493936 152.88534037210047 37.653304577805102 1398.0167749393731 2767.3086626119912 173.05403023213148 114.88817100599408 14.409917643293737 3.3157996116206041 8.9106101989746076 123.60226511210203 153.0035680308938 668.02052493114024 37.085348033346236 25.345736479386687 4.3574308920651683 28.895507508888841 24.98990137130022 27.114770420826972 34.912300447002053 54.97898181900382 4363.6879655569792 45.964227944612503 78.896719269454479 57.351472854614258 170.91175299696624 236.02788239717484 92.808800687082112 348.06759422644973 40.040354031138122 58.679428102448583 86.529648379422724 288.8550345832482 5.4502545148134223 29.404929231852293 5.5328769199550152 6.3020886499434701 14.863811582326887 54.606799602508545 3.8473171312361938 3.5180460363626498 2.1831564307212821
leaf_count=390 43 1402 4242 2798 14845 198094 244 8538 121 262 3294 685 18 168 1203 25 7099 3974 9 1769 2436 537 1054 40 97 1 241 622 432 146 88 87 96 18 130 19 31 1729 378 111 191 882 87 2367 1488 165 657 1210 3705 24 135 28 50 74 9 27 16 13
internal_value=0 0.0416283 0.0450158 0.0466633 0.0440899 0.0463999 -0.0492954 -0.0166495 0.0849862 -0.0227394 -0.0680143 -0.0819009 0.0966162 0.103269 0.131314 -0.043725 -0.0634123 0.0425995 -0.166869 0.143702 0.106967 0.0769757 0.0259112 -0.0467081 0.0671965 0.127128 -0.185994 -0.119251 0.0764003 -0.0600771 -0.141563 0.116958 0.134318 0.319768 -0.109169 0.022442 0.0789808 0.12628 -0.0640579 0.223621 -0.0982409 -0.118418 0.101382 -0.131762 -0.233437 -0.134196 -0.129419 -0.09958 -0.139176 -0.184878 -0.235449 -0.196898 -0.237685 -0.16297 0.120909 -0.239222 -0.146487 -0.106002
internal_weight=0 90109.9 86873.3 85289.9 82773.6 81102.5 3236.65 2533.26 8839.93 861.365 1671.18 1424.6 7978.56 7624.62 2516.28 1583.37 1419.77 351.098 703.391 2363.32 7506.53 2940.36 507.508 353.938 1108.66 163.6 665.738 276.606 1075.94 152.96 917.087 329.229 311.973 47.0495 532.136 70.9571 128.576 4566.17 54.8748 108.725 1068.68 225.362 264.923 118.094 389.132 210.952 461.179 113.644 347.534 36.0448 32.7207 17.2557 23.1017 18.9906 109.586 9.38019 7.87548 94.992
internal_count=268644 253595 238560 226391 220475 212939 15035 12431 15049 6409 7536 10365 8640 7421 5916 12169 11654 4364 2604 4567 4870 2973 1739 1219 2066 515 2595 863 1834 1349 8626 402 244 61 6007 305 132 1897 379 136 7290 1087 183 2551 1732 1047 5702 1340 4362 286 232 158 171 92 40 55 103 2380
is_linear=0
shrinkage=0.1


Tree=14
num_leaves=57
num_cat=0
split_feature=105 70 6 30 103 29 30 126 30 52 131 43 104 106 39 117 125 117 104 40 58 130 106 104 49 130 4 53 70 105 71 112 12 123 71 29 58 125 127 75 114 126 114 45 121 0 33 48 45 43 6 114 104 87 91 19
split_gain=1442.67 1641.87 1612.94 1219.89 2546.37 2091.44 1875.65 1852.14 1520.11 1001.31 877.119 866.627 759.743 681.418 674.701 873.999 937.937 678.373 656.675 538.441 485.51 436.879 417.354 401.935 320.822 311.432 238.66 184.392 179.662 206.763 167.37 157.715 133.337 125.239 114.28 82.5297 60.5551 49.6494 163.668 153.82 4.57953 3.12675 2.70663 2.92984 1.48467 0.899454 0.884358 0.941919 0.740376 0.4552 0.426231 0.23039 0.132004 0.0881908 0.0863613 0.0557704
threshold=-0.78437823057174672 -0.19431325793266294 0.50819903612136852 1.0948470234870913 -0.86862254142761219 1.2355037927627566 1.0718266963958742 -1.7290664315223692 1.0804851651191714 1.08593225479126 1.0000000180025095e-35 1.1561059355735781 -0.80022963881492604 -0.94037392735481251 1.0140303373336794 -1.5139410495758054 -1.5656512975692747 -0.97287264466285694 -0.92302355170249928 0.90691313147544872 0.93291315436363231 1.0000000180025095e-35 -0.89720052480697621 -0.76451516151428212 1.2332133054733279 1.0000000180025095e-35 0.54704350233078014 1.0583792328834536 -0.18995212018489835 -0.78853708505630482 -0.34508848190307612 -0.93162748217582692 1.0000000180025095e-35 -1.7520534396171568 -0.62639832496643055 1.2300984859466555 0.9114229977130891 -1.5158253908157346 -1.7411867976188657 -1.1081365942955015 -0.96712741255760182 -1.6566436290740965 -1.3911954164505003 1.2145840525627138 -0.38994750380516047 -0.23921810835599897 0.94806280732154857 1.1233442425727846 1.2170970439910891 1.1523588895797732 0.57886621356010448 -1.365537643432617 -0.75294300913810719 -1.2840769886970518 -1.1477068066596983 1.7584664821624758
decision_type=2 2 2 2 2 2 2 2 2 2 2 2 2 2 2 2 2 2 2 2 2 2 2 2 2 2 2 2 2 2 2 2 2 2 2 2 2 2 2 2 2 2 2 2 2 2 2 2 2 2 2 2 2 2 2 2
left_child=1 3 11 4 5 8 7 -6 -1 37 13 12 27 35 24 42 21 -18 -7 -8 28 -17 -15 -14 25 26 -11 -3 29 -4 33 40 -32 -13 -33 -5 -30 46 39 -39 -12 -27 45 -44 52 -16 47 -2 49 -26 -49 -50 -40 -48 -41 -46
right_child=9 2 20 10 6 18 19 -9 -10 14 31 30 23 22 15 16 17 -19 -20 -21 -22 -23 -24 -25 48 41 -28 -29 36 -31 32 34 -34 -35 -36 -37 -38 38 44 54 -42 -43 43 -45 55 -47 53 50 51 -51 -52 -53 -54 -55 -56 -57
leaf_value=-0.046323147671375589 -0.19959655230546219 0.077524025347093017 -0.16414404596478172 -0.14191530077605236 0.057972719667683706 -0.13223170957731861 0.17638082371033126 0.020733354083462635 0.019061758334156673 0.11688041621273744 -0.16947714110774154 0.14851507090930563 0.0082569248413951902 0.083460535087971743 -0.12237978414958491 0.081236543526472901 -0.20458442821758852 0.01945366833747832 0.11553586857233474 0.087088841547235632 0.16784947478478485 -0.16961437701394549 0.15134055283657996 0.079072686690785945 -0.16257882587709019 -0.17148931304928211 -0.12091852767210896 -0.14216031641983645 -0.20971755983768658 0.045504764332649973 0.2595085275193178 0.036186237613039206 -0.12756582789871537 -0.15000491139056504 -0.17980829199061055 -0.010592205840737614 -0.1000135774967804 0.34726085304924781 -0.11884008465099519 -0.13220320147465137 -0.210410742349153 -0.11347033651778154 -0.16378971538360099 -0.13449270323409096 -0.10382475602349944 -0.17509213786960912 -0.20111280504568813 -0.27844698785638472 -0.13069431068264156 -0.20466937046844397 -0.23941848073715577 -0.15010741684251047 -0.14273502238038277 -0.21785870214632538 -0.11225109011914076 -0.12585764410247779
leaf_weight=6701.9071873975918 3.8656518161296871 43.609613903798163 130.37843719217926 122.14103497751057 27880.386333811563 113.86150995641947 770.90068542584777 25636.827333413996 7574.0536779984832 4405.8929766211659 47.015100240707397 42.609685629606247 1803.7364369211718 4551.9883301230147 73.533978671301156 5749.8268801569939 196.04804427921772 435.11446522921324 1767.3156307209283 5447.0899423421361 45.490272266790271 70.2757258862257 1130.7837039455771 1442.4235966205597 10.961093255318699 11.886476293206213 42.612874247133732 308.41534088365734 490.77904446888715 73.596799299120903 9.0471535585820657 82.934650518000126 545.12495612725616 20.970281067304313 34.762780584394932 78.683429988101125 56.063800850883126 15.826158199459316 144.47904588468373 9.1572519317269307 65.281600400805473 42.500733828172088 63.880009468644857 73.306804082356393 113.77740223146975 3.3861504644155493 8.7248661667108518 5.035927194170652 8.2654035203158838 3.3561185933649531 6.2973270565271378 23.478548470884565 2.3495264593511811 4.9173722565174094 2.8429111316800109 1.1605625515803684
leaf_count=42276 19 98 551 1908 69295 579 807 73488 22738 3033 209 29 5488 5195 869 4991 870 1162 891 7817 6 314 706 2994 71 53 339 3331 2054 106 3 243 8129 136 184 696 189 27 1246 53 267 488 361 420 3553 15 35 23 52 15 26 118 14 20 31 13
internal_value=0 0.036713 -0.0188481 0.0401089 0.0366473 0.00142684 0.0461736 0.0401336 -0.0116334 0.0743524 0.0830812 0.00580583 0.0245918 0.0905701 0.0793176 0.0590542 0.0656511 -0.0501357 0.100539 0.0981592 -0.149375 0.0782076 0.0969676 0.0397237 0.109009 0.111695 0.114603 -0.114945 -0.168595 -0.0885002 -0.103616 -0.108496 -0.121247 0.0500556 -0.0276093 -0.0904626 -0.19847 -0.10051 -0.0880483 0.142529 -0.193273 -0.126151 -0.139716 -0.148135 -0.112559 -0.1247 -0.225632 -0.242222 -0.153567 -0.172445 -0.256761 -0.145053 -0.119222 -0.207149 -0.127476 -0.104047
internal_weight=0 87018.2 5012.25 82005.9 75892.3 16157.1 59735.2 53517.2 14276 11532.8 6113.59 4215.94 3598.18 5883.6 11214.3 6665.37 6451.27 631.163 1881.18 6217.99 796.308 5820.1 5682.77 3246.16 4548.95 4502.89 4448.51 352.025 750.818 203.975 617.752 229.994 554.172 63.58 117.697 200.824 546.843 318.434 289.593 27.8263 112.297 54.3872 214.107 137.187 261.767 76.9201 28.8411 15.1989 46.0612 14.3172 11.3333 31.744 146.829 13.6422 12.0002 114.938
internal_count=268644 250413 23114 227299 217891 66484 151407 142783 65014 18231 9408 20208 11911 8505 13171 9002 7337 2032 1470 8624 2906 5305 5901 8482 4169 3913 3372 3429 2900 657 8297 903 8132 165 427 2604 2243 5060 4937 111 476 541 1665 781 4826 884 123 68 256 86 49 170 1260 55 84 3566
is_linear=0
shrinkage=0.1


Tree=15
num_leaves=55
num_cat=0
split_feature=124 113 76 88 111 76 75 113 88 74 113 111 116 86 111 30 113 122 94 116 113 120 116 41 87 86 88 77 14 95 91 45 114 92 113 49 52 112 69 49 112 56 115 36 4 120 114 114 39 45 114 39 110 117
split_gain=1338.87 1176.63 4448.72 1452.81 1785.01 2518.59 1409.01 1385.68 1407.88 1316.42 1099.57 1050.58 967.455 730.941 1620.46 578.082 435.871 422.844 540.617 410.946 398.094 333.72 293.242 352.966 290.289 250.473 244.551 221.236 217.425 202.97 163.168 143.517 264.006 54.8764 34.3582 271.775 33.2725 67.0525 22.4143 20.1734 49.9979 8.59942 7.00912 4.56072 3.99536 3.25445 2.3676 2.34336 0.97304 0.74738 0.523224 0.514652 0.121625 0.0518324
threshold=-2.5060957670211788 -0.92885786294937123 -1.1879486441612241 -1.2264847755432127 -0.91369733214378346 -1.1698526144027708 -1.1201438307762144 -0.9133721888065337 -1.2765211462974546 -1.0245616436004636 -0.87866479158401478 -0.87492251396179188 -0.96487820148468006 -1.3115773200988767 -0.88288220763206471 1.0939100384712221 -0.91792950034141529 -1.2313156723976133 -0.97984963655471791 -0.9368622601032256 -0.93111661076545704 -0.90199264883995045 -1.481559097766876 1.0831242799758913 -1.2736176848411558 -1.2936988472938535 -1.2854828238487241 -1.2599803209304807 0.85852336883544933 -1.0424292087554929 -1.1488057971000669 1.2145840525627138 -1.3593962192535398 -1.1119502782821653 -1.3328083753585813 1.1989248991012575 1.1507830619812014 -1.2868432402610777 0.044350394979119308 1.2204630970954897 -1.2587623000144956 1.0512974262237551 -1.4395397305488584 0.89696630835533153 0.54801779985427868 -1.7261049151420591 -1.3911954164505003 -1.3835983872413633 1.0134454965591433 1.2170970439910891 -1.3911954164505003 1.0140303373336794 -1.1827590465545652 -1.5139410495758054
decision_type=2 2 2 2 2 2 2 2 2 2 2 2 2 2 2 2 2 2 2 2 2 2 2 2 2 2 2 2 2 2 2 2 2 2 2 2 2 2 2 2 2 2 2 2 2 2 2 2 2 2 2 2 2 2
left_child=22 2 17 12 5 -5 7 21 10 15 -9 -10 24 14 -11 30 -15 18 -2 20 -19 27 23 38 -4 -6 -14 -3 -21 -17 -8 34 49 -23 35 -24 37 50 -1 43 -41 -34 -40 -36 -20 -43 52 -37 -48 51 -25 -33 -38 -51
right_child=1 6 3 4 25 -7 9 8 11 13 -12 -13 26 16 -16 29 -18 19 44 28 -22 33 31 36 -26 -27 -28 -29 -30 -31 -32 32 41 -35 39 47 46 -39 42 40 -42 45 -44 -45 -46 -47 48 -49 -50 53 -52 -53 -54 -55
leaf_value=0.18815342704000751 0.16196027669410817 -0.16681961751088464 -0.19732106733203927 -0.050985774088277584 -0.052609898052532536 0.035808347801780348 0.23039449636556439 -0.10064504173051464 0.048817680003041562 -0.055879422155667824 0.028700739656327346 0.17888266404484246 0.30998212398346531 0.080982228336911016 0.087779793460008942 0.050470332482573835 0.12616414005649765 -0.19399025874540782 -0.23407939799102515 0.7713800108299973 -0.064043562996257963 0.23120439825077876 0.12649703410775093 -0.12704862351555002 -0.083041706181287867 0.10734561860090999 0.03166566458763715 -0.063848332811787478 0.035541897407930755 -0.22754543159018503 -0.16064541388293674 -0.17635020560792836 0.12903191430264632 0.63186242800311465 0.12082022050955828 -0.162541064728147 -0.10822732353979087 0.09626745931152407 0.065227242585700021 -0.023865747502134455 0.11984831023492926 0.10550464735650639 0.12263285938637268 0.14097928510852564 -0.17365112851892825 0.052392958144111879 -0.16816827381772192 -0.22051382131394767 -0.13686790155736275 -0.13605169711012849 -0.17656905887494789 -0.14558478809733374 -0.12553966560441104 -0.14389991925861811
leaf_weight=39.408032208681107 99.253073081374168 351.03974467236549 328.79426796361804 3529.3315730076283 100.66343260835856 63432.892959795892 11.016592713072894 963.52323910593987 2407.4167810976505 1119.9644850641489 2067.506153287366 836.91719121672213 33.911213177256286 5962.8164511248469 2626.7216021027416 351.2751297634095 3326.1883406322449 1064.0187802528962 44.981287464499474 4.2655582427978507 302.85495354700834 10.642833816818891 185.90045762062073 30.357524586841464 686.12250254489481 3559.9749053576961 457.52586295362562 514.40862946305424 68.513615810312331 28.381656318902969 339.83189177326858 11.521740883588793 76.944597244262695 5.0361480712890616 2248.9447947442532 24.907758934423327 4.4371840688399962 21.698813229799271 38.303916223347187 33.527129620313644 87.088253848254681 19.984153091907501 47.826366677880287 118.12016916275024 14.458398431539534 27.294694319367409 25.607066750526428 9.6831936091184598 16.224779617041349 25.634440347552299 2.2949218302965155 10.296502461656926 47.48709923774004 12.527557596564291
leaf_count=18 14 1912 1651 10636 233 180841 110 5915 7671 5572 13079 816 52 8534 5064 544 4489 5253 188 1 1085 70 38 311 3095 2830 2734 2087 462 117 1404 48 12 1 440 120 128 13 37 59 21 9 9 17 60 32 111 41 88 135 10 51 315 61
internal_value=0 0.0351611 0.0292215 0.0328782 0.0349509 0.0312338 0.0560909 0.020099 0.0365875 0.0748017 -0.0124165 0.0823696 -0.0642977 0.0821221 0.044837 -0.0558291 0.0971609 -0.135793 0.0191259 -0.15287 -0.165198 -0.0973317 0.10127 0.00232566 -0.120064 0.102947 0.0508707 -0.105615 0.0786691 0.029687 -0.148367 0.110631 0.0252198 0.359897 0.11644 0.0786064 -0.102236 -0.0399844 0.125685 0.119793 0.0799005 0.108408 0.0971034 0.121826 -0.219381 0.0748426 -0.138324 -0.17877 -0.156028 -0.147068 -0.130529 -0.161831 -0.12406 -0.138628
internal_weight=0 94650.2 73727.6 72129.2 70622.9 66962.2 20922.7 7156.49 6275.36 13766.2 3031.03 3244.33 1506.35 13035.7 3746.69 730.505 9289 1598.35 158.693 1439.65 1366.87 881.127 3166.02 273.646 1014.92 3660.64 491.437 865.448 72.7792 379.657 350.848 2892.38 184.204 15.679 2708.17 220.491 148.107 54.3513 125.538 2487.68 120.615 124.223 86.1303 2367.06 59.4397 47.2788 93.7561 34.591 41.8318 59.9802 32.6524 21.8182 51.9243 38.162
internal_count=268644 266520 209135 202072 194540 191477 57385 31551 27481 25834 18994 8487 7532 23659 10636 2175 13023 7063 262 6801 6338 4070 2124 1040 4746 3063 2786 3999 463 661 1514 1084 348 71 736 199 976 334 64 537 80 53 46 457 248 41 642 161 199 295 321 99 443 196
is_linear=0
shrinkage=0.1


Tree=16
num_leaves=55
num_cat=0
split_feature=124 31 29 102 70 52 31 71 130 32 106 52 103 49 69 4 108 56 38 134 30 103 0 125 116 41 135 31 47 115 91 110 30 102 54 48 52 112 45 113 49 69 113 115 104 36 115 114 115 114 39 44 114 110
split_gain=1270.18 1223.45 1470.26 2386.34 1919.6 1535.19 1168.97 1004.01 805.122 1262.96 1523.17 1177.58 990.844 823.108 798.18 730.502 666.847 623.795 1407.76 594.099 475.589 459.125 424.22 278.477 261.943 304.95 242.131 156.982 130.125 456.231 126.531 111.441 86.0471 58.0441 38.6461 73.811 29.0603 58.5675 21.9916 21.1694 189.217 18.2734 12.8214 6.99958 4.09724 3.27854 1.58579 1.58125 1.14297 0.946426 0.624537 0.479124 0.341295 0.0842632
threshold=-2.5060957670211788 1.0016816258430483 1.2300984859466555 -0.80153346061706532 -0.28938673436641688 1.1391391754150393 0.98997226357460033 -0.36857239902019495 1.0000000180025095e-35 0.95569652318954479 -0.8560919165611266 1.0521746873855593 -0.85375553369522084 1.1185297369956972 -0.24497758597135541 0.57140064239501964 -1.0329091548919676 0.95941397547721874 0.95814558863639843 1.0000000180025095e-35 1.0760499835014345 -0.93772414326667775 0.28714324533939367 -1.4817289113998411 -1.481559097766876 1.0831242799758913 1.0000000180025095e-35 1.0093948841094973 1.2267475724220278 -1.4173438549041746 -1.0948354601860044 -0.85168302059173573 1.0968583822250368 -0.94066956639289845 1.1259012818336489 1.2386121153831484 1.1507830619812014 -1.2868432402610777 1.2145840525627138 -1.3328083753585813 1.1989248991012575 0.044350394979119308 -1.3328083753585813 -1.4395397305488584 -0.79698705673217762 0.89696630835533153 -1.4054675102233884 -1.3911954164505003 -1.4225612282752989 -1.3835983872413633 1.0134454965591433 1.1979280710220339 -1.3911954164505003 -1.1827590465545652
decision_type=2 2 2 2 2 2 2 2 2 2 2 2 2 2 2 2 2 2 2 2 2 2 2 2 2 2 2 2 2 2 2 2 2 2 2 2 2 2 2 2 2 2 2 2 2 2 2 2 2 2 2 2 2 2
left_child=24 2 3 4 6 7 -2 -5 9 12 15 -12 14 -14 -3 -11 -7 18 20 -6 -10 31 44 -24 25 41 33 -20 39 38 -28 32 -4 -23 46 -36 37 52 42 40 -26 -1 -30 -43 -19 48 -31 53 -41 -42 -49 -40 -27 -38
right_child=1 8 21 5 19 16 -8 -9 17 10 11 -13 13 -15 -16 -17 -18 22 27 -21 -22 26 23 -25 28 36 30 -29 29 34 -32 -33 -34 -35 35 -37 47 -39 51 45 49 43 -44 -45 -46 -47 -48 50 -50 -51 -52 -53 -54 -55
leaf_value=0.17693556276887887 -0.014799272809295667 0.058916737942987629 -0.14031987191707382 0.059584197570323211 -0.044765685518418523 -0.14162643170771808 0.029788640732249919 0.017339293442031497 0.037441096903885134 -0.0062462048625309824 -0.14131448618440343 0.049358201814326264 0.090579001395787118 -0.19295768898931759 -0.016512915809567454 -0.098747673700579686 -0.0066049155470171263 -0.1756664592115211 -0.1849792966471657 -0.13573782257917685 0.09927395461674042 0.085165407583474059 0.11157684775995412 -0.081997647646283922 0.12315446728758435 -0.12417189813959809 0.062247171582805599 -0.035452511033501694 -0.16215166571010209 0.10825475280707671 0.10484056589428536 0.30485616382936576 -0.014683768041588286 -0.15470027686488924 0.10565842051703628 -0.16551195273486541 -0.1074981145485884 0.091170508021178834 -0.15207530053542451 0.11427332445745542 -0.15551890905545326 0.060742637060799014 -0.3220645381300537 0.11962639900931762 -0.27174771572189754 0.13641669399981424 0.12467459446933266 -0.1581426691864585 0.11999762675268558 -0.19794923286337157 -0.13232983502481649 -0.13188313374397645 -0.16494432800574571 -0.12258800849915662
leaf_weight=37.80080971121788 11091.464777394198 3598.4154358766973 94.171043062582612 18914.078572806902 2933.2517716055736 411.30931035848334 12513.785282803699 8007.7121422495693 2874.7533792629838 2381.4350728169084 340.6566706597805 6585.1364379115403 6423.9401650400832 104.04367215931416 2299.2457940885797 1330.837913970463 3304.4737182334065 45.251981392502785 252.0876385346055 950.4775001257658 2192.7253329120576 12.693933658301829 3652.0813094675541 75.861642070114613 172.53933633863926 28.072157732211057 933.93414133787155 97.316705629229546 7.9280712259933379 87.1030533015728 2754.3646774739027 8.3330373764038068 129.45043189544231 49.149627426639199 32.055102985352278 14.613983199000357 4.0407790006138375 20.674699559807777 22.197083652019501 450.75474254786968 18.330033571459357 37.084107559174299 13.639741107821463 44.3064304292202 4.9209089130163184 110.26788854598999 181.1258020401001 24.560703724622726 1542.3037309497595 7.3708825334906569 15.15796411782503 24.970815122127533 2.2150289863347998 43.949092584662139
leaf_count=18 52853 7343 595 38156 18203 8679 40249 19930 5220 9788 2051 15743 8866 525 9578 5733 9863 197 1084 3867 1966 16 2000 290 38 311 910 225 41 34 1505 1 678 384 14 68 128 13 105 112 91 37 65 9 22 17 31 111 297 31 88 140 10 315
internal_value=0 0.031743 0.0235371 0.01951 -0.00188082 0.0387025 0.00883799 0.0470187 0.0475422 0.0375671 0.0122765 0.0399796 0.0592193 0.08606 0.0295099 -0.0394077 -0.0215508 0.0725627 0.0508103 -0.0670296 0.0641965 0.0823202 0.10375 0.107638 0.0984548 0.00218315 0.090765 -0.143333 0.1077 0.0537803 0.0940553 -0.0542111 -0.0675914 -0.105466 0.10473 0.020744 -0.0986379 -0.0385819 -0.179634 0.116687 0.0854481 0.119481 -0.263282 0.0927971 -0.18509 0.119632 0.119343 -0.133533 0.118703 -0.167688 -0.148292 -0.141386 -0.127154 -0.121317
internal_weight=0 94367.4 62108.6 58126.6 27489 30637.6 23605.3 26921.8 32258.7 23063.7 10638.1 6925.79 12425.6 6527.98 5897.66 3712.27 3715.78 9195 5416.88 3883.73 5067.48 3982.1 3778.12 3727.94 2943.06 257.862 3750.14 349.404 2685.2 383.634 3688.3 231.955 223.621 61.8436 314.898 46.6691 138.67 50.9619 68.7357 2301.57 198.24 119.191 21.5678 81.3905 50.1729 2103.33 268.229 87.7085 1993.06 25.7009 39.7187 47.1679 30.2872 47.9899
internal_count=268644 266520 195889 191800 115172 76628 93102 58086 70631 59627 33315 17794 26312 9391 16921 15521 18542 11004 8495 22070 7186 4089 2509 2290 2124 1040 2815 1309 1084 498 2415 1274 1273 400 147 82 976 334 351 586 160 64 106 46 219 426 65 642 409 122 199 245 321 443
is_linear=0
shrinkage=0.1


Tree=17
num_leaves=60
num_cat=0
split_feature=104 69 6 71 133 136 79 113 115 70 61 42 55 44 39 82 39 101 60 47 22 104 70 102 106 28 34 103 126 71 51 110 53 105 108 62 48 42 52 27 109 53 110 135 113 115 29 79 78 106 37 31 126 102 107 31 31 31 31
split_gain=1251.23 2758.85 1241.62 1369.68 1070.37 1075.18 998.789 1394.8 790.656 777.867 624.312 602.752 507.684 482.511 417.152 416.819 840.44 361.332 466.034 351.287 200.948 200.737 248.107 155.758 190.243 126.152 124.465 63.4077 53.9635 85.3405 66.2422 52.5876 80.5991 72.9192 29.9666 25.9929 29.7838 15.1826 13.9362 7.83691 5.38438 4.58971 2.92889 2.63401 1.30917 0.436895 0.36168 0.139195 0.0524264 0.0131561 0.00804598 0.00746455 0.00518274 0.00501937 0.00257164 0.00236455 0.000982583 0.000888233 0.000575727
threshold=-0.76107859611511219 -0.034741481766104691 0.50598356127738964 -0.34170004725456232 1.0000000180025095e-35 1.0000000180025095e-35 -1.3908070325851438 -0.91792950034141529 -1.4353072643280027 -0.22978618741035459 0.72140479087829601 1.137688994407654 1.0517367124557497 1.1538155078887942 1.0030134320259096 -1.2915048003196714 1.046167314052582 -0.75421765446662892 0.81618237495422374 1.2267475724220278 1.1823544502258303 -0.77196320891380299 -0.18283935636281964 -0.70373752713203419 -0.83223044872283924 0.8443516492843629 0.91140601038932811 -0.77443578839302052 -3.0314426422119136 -0.24381361901760099 1.1439114212989809 -1.1827590465545652 1.095924496650696 -0.79810473322868336 -0.83154809474945057 0.72269317507743847 1.1906195282936098 1.1131154894828799 1.1453323364257815 0.99740302562713634 -1.1101318597793577 1.128318786621094 -1.1778884530067442 1.0000000180025095e-35 -1.3464568257331846 -0.55421552062034596 1.0475456714630129 -1.4030235409736631 -1.1145761013031004 -0.94141730666160572 1.0000000180025095e-35 1.0015704035758974 -1.7290664315223692 -0.85797634720802296 -0.95839375257492054 0.98997226357460033 1.0015704035758974 0.99796363711357128 0.99796363711357128
decision_type=2 2 2 2 2 2 2 2 2 2 2 2 2 2 2 2 2 2 2 2 2 2 2 2 2 2 2 2 2 2 2 2 2 2 2 2 2 2 2 2 2 2 2 2 2 2 2 2 2 2 2 2 2 2 2 2 2 2 2
left_child=1 4 3 17 5 6 10 -8 14 34 -1 15 21 20 28 16 -11 18 -3 -17 -5 27 -23 41 -25 -15 -19 -4 30 39 -2 32 33 -16 38 40 -37 -32 43 -30 -33 -13 -31 -10 -34 47 -40 -36 51 56 -47 58 57 -53 -51 -54 -50 -7 -6
right_child=8 2 12 13 48 52 7 -9 9 11 -12 23 -14 25 31 19 -18 26 -20 -21 -22 22 -24 24 -26 -27 -28 -29 29 42 37 35 44 -35 45 36 -38 -39 46 -41 -42 -43 -44 -45 -46 50 -48 -49 49 54 -52 53 55 -55 -56 -57 -58 -59 -60
leaf_value=-0.078199148464163509 0.27053389363856961 -0.097461816380662342 -0.15100890307632747 0.057964760530129167 -0.10231379360046707 -0.1029687693448695 0.028812526458835638 0.06804058470018616 -0.20043986430277316 0.064346450586720616 0.14584364007653747 -0.23470067714113318 0.13371893131025134 0.21933084175327702 -0.12465193031110816 0.10585731311814868 -0.17446681690120505 -0.16330935406096003 0.10011001489149352 0.0096574762561183625 -0.1376186743285186 -0.054012298437253706 -0.1817477841311905 -0.095514028523996486 0.055250950820745506 -0.14691338551000413 0.1090024844035543 -0.21926426654894651 0.13734076710438756 -0.13660518961539345 0.10593508507059178 -0.1152302296778133 -0.10318892852313957 0.20868977729919616 -0.11766096159493936 0.12079446781540822 -0.11711175430479299 0.014901243746496552 -0.17042861447024749 0.033317183139117544 -0.19259231165275842 -0.17412524229439599 -0.23231441091991983 -0.27448943250137231 -0.1541974982166861 -0.10517263172560279 -0.15234488462519061 -0.14100749042196059 -0.10151364935837295 -0.10229116893207922 -0.10267806301516919 -0.10458028593666374 -0.10154881240564823 -0.10640087289706052 -0.10296262646576565 -0.10213792216289695 -0.10202634426979701 -0.10248543329251406 -0.10343384491693926
leaf_weight=1166.0343056805432 23.149119213223457 267.85543988225982 211.0091906953603 216.84616137016565 8.1996507914736885 68.208818594925106 70161.535649398807 10408.595495757647 6.5175609691068557 3271.5941239446402 139.22779793664813 29.671981647610664 64.777016280218959 9.5269315633922798 9.9306831341236848 4875.3649264690466 154.31431469321251 17.197079345583916 215.39860285073519 411.63876287685707 69.325958701781929 326.96367525309324 284.26060044765472 171.75132142333314 163.25109702628106 734.10030425572768 699.98327537253499 383.40144694037735 15.725909498520195 4.5897439513355485 68.51778107881546 10.588918801397083 52.067789738532156 19.347856972366571 17.975729510188106 5.3876318931579581 226.05366839887574 25.007110947743058 22.035808062180877 13.425177361816168 59.828589022159576 21.623381093144417 10.539890289306639 18.26713952422142 5.5699071427807203 56.442749444395304 22.204173913225532 2.9766446389257899 242.25604188675061 120.19377577351406 16.771686136722565 44.282389216125011 84.097269256599247 23.013582605868578 108.55521765165031 358.91031871270388 44.20148502336815 85.909985747653991 10.422683066688476
leaf_count=9626 7 867 981 576 396 2553 140056 21949 95 4299 239 123 29 6 174 3039 518 93 274 886 403 895 1102 956 292 8051 487 1621 6 61 30 266 3815 10 162 1 1691 51 121 61 257 93 44 80 80 1207 134 26 16969 5679 719 1152 5702 439 4161 18576 2356 3758 344
internal_value=0 0.0268658 -0.0600957 -0.015147 0.0305303 0.0314994 0.0324745 0.0338803 0.0645449 0.0714604 -0.0543013 0.0753414 -0.139004 -0.099758 -0.0519747 0.0807607 0.0535895 0.057437 -0.00939903 0.0983673 0.0105842 -0.153657 -0.113418 -0.0468915 -0.0220443 -0.142221 0.102473 -0.195034 0.08341 -0.0105792 0.119081 -0.108025 -0.0394847 0.0956271 -0.144933 -0.12776 -0.111574 0.081594 -0.194984 0.089434 -0.180959 -0.209165 -0.20328 -0.255017 -0.108118 -0.108245 -0.161352 -0.120978 -0.102426 -0.102044 -0.104601 -0.104713 -0.1022 -0.105203 -0.10261 -0.102026 -0.101593 -0.102699 -0.102941
internal_weight=0 86574.3 3500.65 2230.23 83073.6 82472.5 81875.4 80570.1 9812.13 9262.4 1305.26 9099.21 1270.41 1029.8 549.73 8712.91 3425.91 1200.43 483.254 5287 286.172 1205.63 611.224 386.298 335.002 743.627 717.18 594.411 160.955 44.2807 116.674 388.775 86.9162 29.2785 163.191 301.859 231.441 93.5249 69.0247 29.1511 70.4175 51.2954 15.1296 24.7847 57.6377 94.1668 44.24 20.9524 601.125 515.207 73.2144 85.9183 597.126 67.296 228.749 443.008 286.458 154.119 18.6223
internal_count=268644 249340 15385 10757 233955 202459 171870 162005 19304 12750 9865 10206 4628 9036 6554 8742 4817 1721 1141 3925 979 4599 1997 1464 1248 8057 580 2602 260 172 88 6294 4079 184 2544 2215 1692 81 430 67 523 216 105 175 3895 2114 255 188 31496 29165 1926 2331 30589 1591 9840 24278 19325 6311 740
is_linear=0
shrinkage=0.1


Tree=18
num_leaves=60
num_cat=0
split_feature=104 70 30 102 44 0 30 131 73 46 131 114 16 106 41 125 69 104 2 73 115 45 40 113 109 109 51 112 104 105 59 29 31 32 97 2 100 37 49 112 122 103 49 36 35 123 105 35 45 45 114 45 114 113 61 46 116 45 115
split_gain=1160.19 1874.42 945.72 2027.44 2152.39 1491.18 1511.8 1142.72 927.276 778.182 705.59 587.069 551.71 546.028 540.892 532.179 463.4 651.678 410.605 305.611 259.066 246.177 243.224 454.267 215.321 205.158 156.762 130.831 111.5 89.0905 80.3084 73.2994 71.3369 125.422 61.7178 49.976 52.2657 48.3318 42.1825 36.2454 143.609 25.4491 18.462 13.9612 14.0085 13.0372 12.9148 10.6656 10.2071 6.55534 8.83684 4.10444 2.78389 1.37573 1.21331 0.990136 0.666134 0.435116 0.133287
threshold=-0.74713033437728871 -0.1618944630026817 1.0948470234870913 -0.87066432833671559 0.99514591693878185 0.63713699579238903 1.0804851651191714 1.0000000180025095e-35 -0.85016128420829762 1.2226551175117495 1.0000000180025095e-35 -1.3911954164505003 0.92044189572334301 -0.94037392735481251 1.0571558475494387 -2.8304424285888667 0.013799722772091629 -0.76272320747375477 0.5344941020011903 -0.86979815363883961 -1.4173438549041746 1.1600348353385928 1.050284266471863 -1.3248748779296873 -1.1387695074081419 -1.1119757890701292 1.1492919921875002 -0.93162748217582692 -0.91038325428962696 -0.80329933762550343 0.88634136319160473 1.2300984859466555 0.98360124230384838 0.96143341064453136 -0.88559550046920765 0.43632648885250097 -0.75665879249572743 0.92159473896026622 1.1883100271224978 -1.252368092536926 -2.0031856298446651 -0.74873676896095265 1.2130388021469118 0.87074372172355663 0.82868883013725292 -1.1541468501091001 -0.77565056085586537 0.85806110501289379 1.1888236403465273 1.2145840525627138 -1.3835983872413633 1.2145840525627138 -0.96712741255760182 -1.3464568257331846 0.69582450389862072 1.235032379627228 -1.4497556686401365 1.2170970439910891 -0.55421552062034596
decision_type=2 2 2 2 2 2 2 2 2 2 2 2 2 2 2 2 2 2 2 2 2 2 2 2 2 2 2 2 2 2 2 2 2 2 2 2 2 2 2 2 2 2 2 2 2 2 2 2 2 2 2 2 2 2 2 2 2 2 2
left_child=1 2 3 5 19 6 -1 -6 -7 11 13 25 16 31 45 20 17 21 -15 -5 49 -3 34 -24 -19 26 29 52 -29 -2 35 -4 33 -18 -16 41 -37 38 -27 42 -41 -14 47 44 -22 54 -34 -17 -39 50 -11 -44 -12 -28 -13 -42 -45 -51 -47
right_child=9 12 10 4 7 8 -8 -9 -10 15 27 14 30 18 22 39 32 24 -20 -21 43 -23 23 -25 -26 37 53 28 -30 -31 -32 -33 46 -35 -36 36 -38 48 -40 40 55 -43 51 56 -46 58 -48 -49 -50 57 -52 -53 -54 -55 -56 -57 -58 -59 -60
