tree
version=v4
num_class=1
num_tree_per_iteration=1
label_index=0
max_feature_idx=136
objective=binary sigmoid:1
feature_names=Column_0 Column_1 Column_2 Column_3 Column_4 Column_5 Column_6 Column_7 Column_8 Column_9 Column_10 Column_11 Column_12 Column_13 Column_14 Column_15 Column_16 Column_17 Column_18 Column_19 Column_20 Column_21 Column_22 Column_23 Column_24 Column_25 Column_26 Column_27 Column_28 Column_29 Column_30 Column_31 Column_32 Column_33 Column_34 Column_35 Column_36 Column_37 Column_38 Column_39 Column_40 Column_41 Column_42 Column_43 Column_44 Column_45 Column_46 Column_47 Column_48 Column_49 Column_50 Column_51 Column_52 Column_53 Column_54 Column_55 Column_56 Column_57 Column_58 Column_59 Column_60 Column_61 Column_62 Column_63 Column_64 Column_65 Column_66 Column_67 Column_68 Column_69 Column_70 Column_71 Column_72 Column_73 Column_74 Column_75 Column_76 Column_77 Column_78 Column_79 Column_80 Column_81 Column_82 Column_83 Column_84 Column_85 Column_86 Column_87 Column_88 Column_89 Column_90 Column_91 Column_92 Column_93 Column_94 Column_95 Column_96 Column_97 Column_98 Column_99 Column_100 Column_101 Column_102 Column_103 Column_104 Column_105 Column_106 Column_107 Column_108 Column_109 Column_110 Column_111 Column_112 Column_113 Column_114 Column_115 Column_116 Column_117 Column_118 Column_119 Column_120 Column_121 Column_122 Column_123 Column_124 Column_125 Column_126 Column_127 Column_128 Column_129 Column_130 Column_131 Column_132 Column_133 Column_134 Column_135 Column_136
feature_infos=[-1.7373466491699219:2.1873281002044678] [-1.6486232280731201:2.0962586402893066] [-1.5678098201751709:2.0136351585388184] [-1.4949060678482056:1.9394575357437134] [-1.4299124479293823:1.8737261295318604] [-1.3728283643722534:1.8164401054382324] [-1.333403468132019:1.7937201261520386] [-1.3043193817138672:1.9274762868881226] [-1.2702003717422485:1.9831451177597046] [-1.226288914680481:2.0064544677734375] [-1.1696058511734009:2.0165181159973145] [-1.0977727174758911:2.073509693145752] [-1.0288742780685425:2.1457490921020508] [-0.91207128763198853:2.2142360210418701] [-0.8030850887298584:2.2825961112976074] [-0.68971306085586548:2.4052433967590332] [-0.63879203796386719:2.5269482135772705] [-0.65542465448379517:2.5277442932128906] [-0.65910369157791138:2.5653238296508789] [-0.66488730907440186:2.5221147537231445] [-0.8555336594581604:2.4413206577301025] [-0.86833834648132324:2.3840618133544922] [-0.86565589904785156:2.2409591674804688] [-0.70636492967605591:2.1797337532043457] [-0.67782151699066162:2.1614029407501221] [-0.94777458906173706:2.0620582103729248] [-1.274228572845459:1.9191513061523438] [-1.700652003288269:1.7312250137329102] [-1.9454965591430664:1.5516149997711182] [-2.1668190956115723:1.3473584651947021] [-2.5042393207550049:1.1459542512893677] [-2.6881959438323975:1.0433628559112549] [-2.6073334217071533:1.0082290172576904] [-2.3245775699615479:0.99408984184265137] [-1.6179424524307251:0.99887841939926147] [-0.8696785569190979:1.0987448692321777] [-0.66409575939178467:1.3781088590621948] [-0.67050886154174805:1.4172744750976562] [-0.67336314916610718:1.4686216115951538] [-0.67729061841964722:1.427788257598877] [-0.67375040054321289:1.3506048917770386] [-0.77278417348861694:1.3033223152160645] [-0.78214722871780396:1.4334096908569336] [-0.67815649509429932:1.6771683692932129] [-0.67593681812286377:1.8418123722076416] [-0.67998087406158447:1.9795904159545898] [-0.67735743522644043:1.8671952486038208] [-0.68056988716125488:1.8940913677215576] [-0.67851173877716064:2.0411467552185059] [-0.68057990074157715:2.1347439289093018] [-0.67868822813034058:2.1180493831634521] [-0.68411111831665039:2.1010029315948486] [-0.6882440447807312:2.3278176784515381] [-0.69760811328887939:2.41339111328125] [-0.68820065259933472:2.0181429386138916] [-0.66498374938964844:1.7058380842208862] [-0.62698209285736084:1.5109990835189819] [-0.6819922924041748:1.3641012907028198] [-0.85317844152450562:1.3483799695968628] [-0.73171019554138184:1.3266682624816895] [-0.58463895320892334:1.3006186485290527] [-0.6056399941444397:1.6912268400192261] [-0.63135004043579102:1.8743280172348022] [-0.66003769636154175:1.7138135433197021] [-0.93073725700378418:1.3433690071105957] [-1.1747497320175171:1.0574370622634888] [-1.3727543354034424:0.96487057209014893] [-1.6713657379150391:0.84914982318878174] [-1.7223098278045654:0.70780473947525024] [-1.8947262763977051:0.54797446727752686] [-1.6767393350601196:0.39403310418128967] [-1.6314905881881714:0.25963243842124939] [-1.5802557468414307:0.15571498870849609] [-1.5674382448196411:0.086028806865215302] [-1.4517455101013184:0.30397361516952515] [-1.6804615259170532:0.72941029071807861] [-1.8599822521209717:1.1961984634399414] [-2.0371255874633789:0.97948074340820312] [-2.1728529930114746:1.1285310983657837] [-2.2573421001434326:0.92254304885864258] [-2.3058340549468994:0.73609095811843872] [-2.3315773010253906:0.27998179197311401] [-2.3403120040893555:0.31248012185096741] [-2.3343968391418457:0.36315670609474182] [-2.3124566078186035:0.5232703685760498] [-2.2730567455291748:0.45226269960403442] [-2.2140905857086182:0.47649812698364258] [-2.1362462043762207:0.49989777803421021] [-2.0426793098449707:0.67684948444366455] [-1.9374580383300781:0.53298360109329224] [-1.8240519762039185:0.65060514211654663] [-1.8478662967681885:1.0689502954483032] [-1.6520191431045532:1.4166257381439209] [-1.5958865880966187:1.6290324926376343] [-1.5394163131713867:1.6649528741836548] [-1.4922878742218018:1.6171708106994629] [-1.4531639814376831:1.5605852603912354] [-1.4315723180770874:1.5595740079879761] [-1.414076566696167:1.5630311965942383] [-1.5388252735137939:1.5616908073425293] [-2.0638625621795654:1.5670002698898315] [-2.4619696140289307:1.5660412311553955] [-2.648137092590332:1.5687909126281738] [-2.5047333240509033:1.5662518739700317] [-2.1062953472137451:1.5674868822097778] [-1.4165751934051514:1.5623446702957153] [-1.2213733196258545:1.563502311706543] [-1.1215335130691528:1.561995267868042] [-1.168958306312561:1.5723429918289185] [-1.225764274597168:1.5757462978363037] [-1.369315505027771:1.5827798843383789] [-1.5990560054779053:1.5861003398895264] [-2.1418814659118652:1.59019935131073] [-2.4733853340148926:1.5886306762695312] [-2.5047738552093506:1.5883719921112061] [-2.0072333812713623:1.5826603174209595] [-1.5772113800048828:1.5835590362548828] [-1.6319060325622559:1.7016431093215942] [-1.6864286661148071:2.5795986652374268] [-1.7459897994995117:2.8008601665496826] [-1.8207311630249023:2.5472877025604248] [-1.9280952215194702:1.7488086223602295] [-2.1567583084106445:1.5756756067276001] [-2.3918964862823486:1.5728672742843628] [-2.6616356372833252:1.8138364553451538] [-2.9761693477630615:2.1645474433898926] [-3.3559722900390625:3.0688047409057617] [-3.8750591278076172:4.2020993232727051] [0:1] [0:1] [0:1] [0:1] [0:1] [0:1] [0:1] [0:1] [0:1]
tree_sizes=3021 6756 6488 6972 7006 6816 6679 6707 5257 5694 5268 5065 5157 4637 5454 5532 5359 6395 6115 6337 6372 5898 6399 6671 6462 6943 6035 6951 6085 6911 6976 6896 5381 7033 7003 6809 5515 6145 7021 6493 6863 6755 5386 6166 6960 6658 6705 5298 6825 6878 6438 6714 6812 6686 7033 6698 6741 5600 6738 6785 6817 5339 6750 6128 6949 6771 6698 6185 6820 6714 4915 6936 6815 6888 6677 6712 6785 6548 6028 6942 6485 6597 6925 6835 6803 6601 6782 6462 6937 6561 6523 6413 6664 6320 6830 6257 6593 6816 5984 6888 6259 6200 6930 6773 6846 4699 6272 6287 6948 6450 6749 6454 6296 6219 6723 5368 6943 6726 6502 6405 6655 6378 5379 7057 6168 6726 6908 6270 6826 6577 4831 6556 6621 6602 6705 5101 6368 6696 6381 5302 6387 6388 6809 6667 6493 4853 6843 6949 5814 6568 4344 6786 6685 6167 6681 6911 6848 6251 6055 5940 6590 5675 6911 6309 6943 6911 6613 6592 5772 6568 6042 6789 6514 6589 5770 5617 6971 5678 5384 6232 6392 6789 4875 6922 6144 6930 6822 6275 5685 6816 6372 6121 6372 5731 6717 6107 6592 6187 6946 5703

Tree=0
num_leaves=27
num_cat=0
split_feature=133 136 108 91 103 113 114 122 131 37 32 109 52 108 53 106 125 0 0 46 0 72 75 76 83 104
split_gain=342485 373016 143426 144330 92150.4 89756.1 51472.2 34254.9 26216.8 18657.7 10996.9 5107.12 3231.69 2726 5927.86 1249.13 1094.7 2.27374e-13 1.13687e-13 1.13687e-13 3.55271e-15 8.88178e-16 8.88178e-16 8.88178e-16 4.44089e-16 2.22045e-16
threshold=1.0000000180025095e-35 1.0000000180025095e-35 -1.0459087491035459 -1.1479778885841367 -0.77744561433792103 -0.95282441377639759 -1.3907881975173948 -1.0237591862678526 1.0000000180025095e-35 0.922571361064911 0.89252433180809032 -1.1324489116668699 1.0804430246353152 -1.0534527301788328 1.0900653004646303 -0.93820935487747181 -2.7765511274337764 0.68369227647781383 0.24839981645345691 1.109058737754822 0.23333050310611728 -0.82999762892723072 -1.0421872735023496 -1.0515718460083006 -1.0775318741798399 -0.80592519044876088
decision_type=2 2 2 2 2 2 2 2 2 2 2 2 2 2 2 2 2 2 2 2 2 2 2 2 2 2
left_child=1 2 9 7 5 -5 -6 8 -4 10 11 -1 -9 16 -15 -12 -11 19 20 -2 -3 -19 -23 25 -25 -22
right_child=17 18 3 4 6 -7 -8 12 -10 13 15 -13 -14 14 -16 -17 -18 21 -20 -21 23 22 -24 24 -26 -27
leaf_value=-3.735222919769472 -3.735222919769472 -3.735222919769472 -2.4478715698737039 -1.7234306337459739 -3.2961304517233478 -0.97990412344384215 -0.68057649522878982 -3.5699915338308061 -1.4815223730586022 -0.77079794354820574 -3.735222919769472 -0.92025366073793746 -2.3607748918151419 -1.9703207021881406 -3.668863652323306 -0.29714138567255244 -3.7073158817411991 -3.735222919769472 -3.735222919769472 -3.735222919769472 -3.735222919769472 -3.735222919769472 -3.735222919769472 -3.735222919769472 -3.735222919769472 -3.735222919769472
leaf_weight=7.2546316143125287 521.37958003208041 19.605077130720023 810.6261911150068 4395.980178238824 77.498833240941167 2574.3620307184756 2580.7964560836554 205.94848711788654 429.48934838548303 1.2754639219492663 27.035426465794448 57.756842302158475 24.758414480835199 32.135070165619254 56.977981403470039 1.0997462011873711 270.97229757346213 0.67776835151016701 752.27266511321068 282.32817220129073 0.62756328843533993 0.60246075689792622 5.0456088390201321 1.9830999914556744 0.75307594612240691 0.52715316228568576
leaf_count=289 20770 781 22133 89022 2756 33498 26061 7873 7686 14 1077 718 655 728 2233 7 10721 27 29968 11247 25 24 201 79 30 21
internal_value=-3.63258 -1.61253 -1.47001 -1.39871 -1.25778 -1.44882 -0.756829 -2.32135 -2.1132 -3.21113 -1.94917 -1.23438 -3.44022 -3.53642 -3.05635 -3.60084 -3.69356 -3.73522 -3.73522 -3.73522 -3.73522 -3.73522 -3.73522 -3.73522 -3.73522 -3.73522
internal_weight=0 12329.7 11554 11099.5 9628.64 6970.34 2658.3 1470.82 1240.12 454.507 93.1466 65.0115 230.707 361.361 89.1131 28.1352 272.248 810.034 775.769 803.708 23.496 6.32584 5.64807 3.89089 2.73618 1.15472
internal_count=268644 236375 205471 189684 151337 122520 28817 38347 29819 15787 2091 1007 8528 13696 2961 1084 10735 32269 30904 32017 936 252 225 155 109 46
is_linear=0
shrinkage=1


Tree=1
num_leaves=62
num_cat=0
split_feature=31 127 29 31 89 115 106 40 133 113 125 116 117 36 45 105 114 76 80 30 90 114 58 37 90 75 80 76 124 102 74 75 36 127 75 47 77 111 135 127 112 123 48 123 115 74 108 89 124 12 130 30 91 31 83 109 74 124 113 55 71
split_gain=18875.4 7164.7 9885.04 7167.2 6155.02 6483.18 6062.35 5981.03 6894.08 4882.58 4612.69 4120.37 4028.82 3309.72 3276.38 3375.02 2991.25 3286.38 3077.32 2893.3 2824.26 5076.07 2737.8 2506.04 2477.01 2364.33 2357.6 2297.64 2154.06 1953.41 1820.83 1688.72 1635.47 1648.48 1414.09 1352.08 1305.84 980.208 722.198 682.588 588.506 458.561 801.389 433.983 636.23 433.423 377.284 357.454 317.08 279.215 245.405 225.441 193.467 159.19 138.668 130.543 122.669 92.7083 0.752059 1.13687e-13 1.77636e-15
threshold=1.0015475749969485 -1.9325801730155943 1.2226853370666506 0.99000805616378795 -1.1539427042007444 -1.013040244579315 -0.76018443703651417 1.0517972111701968 1.0000000180025095e-35 -1.3202099800109861 -1.6126893162727354 -0.99472314119338978 -1.1181649565696714 0.95627868175506603 1.1040271520614626 -0.88317406177520741 -0.92866182327270497 -1.2022760510444639 -1.3993251919746397 1.0888568758964541 -1.099449574947357 -0.98721766471862782 0.81255593895912182 0.92999058961868297 -1.1409766077995298 -1.1204006671905515 -1.2547845244407652 -1.1401057243347166 -1.2621242403984068 -0.9465770125389098 -1.0246176123619077 -1.0860320329666135 0.97587919235229503 -1.9735720753669737 -1.0457036495208738 1.1232696175575259 -1.2130955457687376 -0.93915545940399159 1.0000000180025095e-35 -2.2202129364013667 -0.94891932606697071 -2.2684013843536373 1.2181515693664553 -1.3255447745323179 -0.9874228537082671 -0.98866176605224598 -0.88369032740592945 -1.1640421748161314 -1.3958457112312315 1.0000000180025095e-35 1.0000000180025095e-35 1.0504519343376162 -1.0548279881477354 0.99258938431739818 -1.2678195834159849 -0.81665924191474903 -1.0354205965995786 -1.4848275780677793 -0.95282441377639759 1.0609563589096072 -0.3003318309783935
decision_type=2 2 2 2 2 2 2 2 2 2 2 2 2 2 2 2 2 2 2 2 2 2 2 2 2 2 2 2 2 2 2 2 2 2 2 2 2 2 2 2 2 2 2 2 2 2 2 2 2 2 2 2 2 2 2 2 2 2 2 2 2
left_child=1 7 3 19 11 10 13 8 14 41 12 36 35 -5 22 -16 17 48 55 28 21 27 -1 34 -19 -20 -14 -7 -3 46 -21 -23 33 -11 -12 -6 43 50 51 -34 -40 42 -9 44 -2 52 53 -39 -13 -43 -38 -31 -22 -4 -47 -18 -48 -25 -45 -10 -61
right_child=4 2 29 6 5 20 -8 9 59 32 23 16 26 -15 15 -17 18 24 25 30 45 31 -24 57 -26 -27 -28 -29 -30 38 -32 -33 39 -35 -36 -37 37 47 40 -41 -42 49 -44 58 -46 54 56 -49 -50 -51 -52 -53 -54 -55 -56 -57 -58 -59 -60 60 -62
leaf_value=0.26046950452841605 -0.12191576362458137 0.072412446836910671 -0.085532262746861598 0.17216945316610446 0.22691953658500863 -0.11776854766525578 1.2235043196366946 0.22806397271835013 -0.10238678073552457 0.20304845267435395 0.0037036677329761862 0.34433772700832277 0.026987997241114253 -0.078645505218597866 -0.0045708856847380356 0.2597622423538205 -0.11286295844280936 0.21858221255781318 0.3056705643598352 -0.099367743102295514 -0.1177081769839759 0.21718889898736238 0.46165550568860247 0.027156187536535994 0.34333082179102314 0.4781680998568259 0.43993442767646035 0.2873951203882546 -0.049778875662533487 0.62906307585452836 0.21983721602585168 0.50345348902390075 0.13189236467274787 -0.029053007042381448 0.27665430643753142 -0.098985068701224588 -0.1153139419734806 -0.11495108675182771 0.46738064228816045 -0.085658470881155746 0.29443260168288399 0.62127559700105039 -0.14662326917525673 -0.11707482256732347 0.2999458923199525 0.3067042671300389 0.64032011367555941 0.44049215498209621 -0.11827812606327014 -0.12066033950186761 0.29478207460896338 -0.063116248018882395 0.60316440247978709 0.1907941565282035 0.58814347108569776 0.25965041215170648 0.17274316693222835 -0.11714609203214002 -0.13786717344978514 -0.10238678073552457 -0.10238678073552457
leaf_weight=1241.2477424703538 72.046212259680033 2769.1987712346017 173.63893044367433 11719.35479048267 374.91657863929868 212.24382138624787 53.927500896155834 121.2881232406944 501.16991610825062 8396.6043791249394 249.1393566057086 15.674824073910711 147.68499478697777 550.84821102023125 499.67176571860909 14501.628255330026 143.51217883452773 5952.8751884140074 2159.6615253165364 211.37280110269785 12.835223581641914 230.49829905107617 1486.4062393084168 52.203432876616716 2172.5930468738079 1257.1041783355176 2165.3887927420437 411.00493698567152 3011.7967618741095 5.0569924861192694 1156.1608332395554 1944.6897015944123 282.35789172165096 317.57842382788658 796.99076708033681 192.7397186383605 71.605987641960382 12.732197441160677 206.74501392245293 294.80637187883258 4070.6360573619604 5.1155596375465384 107.83334376104176 346.46121650934219 70.961347617208958 17.745453301817179 9.9741216301918048 128.72343397513032 270.376359898597 599.9660304132849 18.326545089483261 67.674493387341499 5.2440584599971762 23.693089429289103 1301.4936927035451 10.067326895892618 12.825944926589726 302.56308456882834 18.315419141203165 11.839376538991926 0.50089669972658057
leaf_count=5283 628 16861 1211 52787 3390 1788 38 380 22012 11867 1725 5 1031 2308 5365 28124 1894 14705 9315 1269 104 723 3192 383 2321 4106 5945 2091 23973 2 2921 3506 650 1142 4522 2149 981 211 431 1163 3428 3 708 3353 195 64 4 418 1812 10066 69 876 4 109 1307 98 57 2931 98 520 22
internal_value=0 0.190579 0.150418 0.119354 0.30252 0.368857 0.165559 0.224617 0.258826 0.162985 0.282603 0.258626 0.354984 0.16091 0.269289 0.250958 0.272762 0.24021 0.349453 0.0396955 0.458153 0.401027 0.370104 0.133762 0.251938 0.369136 0.413569 0.149419 0.00875292 0.282772 0.170499 0.473119 0.183792 0.19459 0.21165 0.116263 0.0294887 0.226387 0.297479 0.0207708 0.302792 -0.0687643 0.0517218 -0.0602342 0.0874149 0.577693 -0.00785439 0.390498 -0.092928 -0.114388 -0.0317441 -0.0149893 0.0913874 -0.0523545 0.584358 -0.0884442 0.377289 -0.0959122 -0.118119 -0.102387 -0.102387
internal_weight=0 52410.9 24042.9 19472.7 21138.4 8417.38 12324.1 28368 18242.5 10125.6 4281.63 12721 2880.73 12270.2 17729 15001.3 11981.9 8411.52 3570.35 7148.53 4135.76 2798.44 2727.65 1400.9 8125.47 3416.77 2313.07 623.249 5781 4570.24 1367.53 2175.19 9291.35 8714.18 1046.13 567.656 739.172 231.388 4350.11 577.164 4277.38 834.203 229.121 507.784 143.008 1337.32 220.132 141.456 286.051 605.082 89.9325 72.7315 18.0793 197.332 1319.24 153.58 22.8001 354.767 364.777 513.51 12.3403
internal_count=268644 196772 106275 100157 71872 31663 55133 90497 64518 25979 22076 40209 12515 55095 41964 33489 34256 18843 15413 45024 9587 8108 8475 9561 17026 13421 6976 3879 40834 6118 4190 4229 14822 13009 6247 5539 5953 1679 4737 1813 3859 11157 1088 4274 823 1479 1381 629 1817 10069 1050 878 108 1320 1371 1992 61 3314 3451 22554 542
is_linear=0
shrinkage=0.1


Tree=2
num_leaves=59
num_cat=0
split_feature=31 126 30 133 130 40 95 74 116 136 53 32 125 75 91 107 68 129 31 127 123 127 51 0 74 76 52 104 122 105 74 93 30 0 106 95 94 114 30 119 125 97 91 80 122 124 114 80 40 115 117 75 31 127 116 111 36 82
split_gain=8406.45 4873.04 6061.72 4145.34 3951.82 3852.54 3570.66 3369.82 5052.35 3267.11 3163.91 3102.4 3036.91 2282.37 2963.67 1904.41 1831.44 1709.89 3157.33 2403.81 1655.18 1572.08 1542.25 1487.37 1467.22 1565.72 1407.66 1207.57 1185.85 1062.63 826.886 816.622 773.833 756.001 721.256 699.083 666.897 567.502 493.353 472.224 300.34 173.499 0.105 0.0293412 0.0226999 0.00410329 0.00330983 0.00128137 0.000899121 0.000642867 0.000518426 0.000498184 0.000289982 0.000247032 3.50985e-05 1.61272e-05 6.19372e-06 6.01104e-06
threshold=1.0019795298576357 -1.7823279500007627 1.0894976854324343 1.0000000180025095e-35 1.0000000180025095e-35 1.0557341575622561 -0.92074701189994801 -1.002639591693878 -0.93358144164085377 1.0000000180025095e-35 1.1287047266960146 0.96701520681381237 -1.3968451023101804 -1.1331537961959837 -1.1479778885841367 -0.973323494195938 0.022527492605149749 1.0000000180025095e-35 1.0122129917144778 -1.6005052328109739 -1.3516619205474851 -2.0647071599960323 1.1382864713668825 0.58869087696075451 -1.0233199596405027 -1.1900902986526487 1.0917583703994753 -0.82190844416618336 -2.0657114982604976 -0.9361431598663329 -0.99455663561820973 -1.1008688807487486 1.0939924716949465 0.28737381100654608 -0.85526904463767994 -0.94539123773574818 -0.95340311527252186 -1.1128025054931638 1.0969202518463137 -0.95361572504043568 -1.4919013381004331 -1.0174543857574461 -1.1479778885841367 -1.3993251919746397 -1.0237591862678526 -1.1629002094268797 -0.92866182327270497 -1.2547845244407652 1.0517972111701968 -1.013040244579315 -1.1181649565696714 -1.1204006671905515 1.0015475749969485 -1.9325801730155943 -1.1022626757621763 -1.2368494868278501 0.97587919235229503 -1.4013659358024595
decision_type=2 2 2 2 2 2 2 2 2 2 2 2 2 2 2 2 2 2 2 2 2 2 2 2 2 2 2 2 2 2 2 2 2 2 2 2 2 2 2 2 2 2 2 2 2 2 2 2 2 2 2 2 2 2 2 2 2 2
left_child=1 3 6 5 9 15 7 12 -9 11 21 17 -3 42 27 22 -17 18 -2 -19 33 -7 -1 36 25 32 30 39 -12 41 -13 -31 -4 -16 -28 -22 -8 -25 -27 -15 -29 -26 43 45 -45 -6 47 49 52 -11 -49 57 53 -5 -54 -50 -57 -48
right_child=4 2 24 48 13 10 23 8 -10 46 28 26 -14 14 20 16 -18 19 -20 -21 35 -23 -24 37 29 38 34 40 -30 31 -32 -33 -34 -35 -36 -37 -38 -39 -40 -41 -42 -43 -44 44 -46 -47 51 50 55 -51 -52 -53 54 -55 -56 56 -58 -59
leaf_value=0.15987842694354426 0.21618098702963448 0.35047856597031157 0.11443963061313103 -0.10215450125463016 -0.10783371469518876 0.18361891382842391 0.056453038021153694 0.1136405271406912 0.28706897303356971 -0.10226177426982185 0.17243172432645676 0.19124694969721207 0.0063308672840471682 0.54337739366252147 -0.1254625255702877 0.27460061794139606 0.20390378685189631 0.30992702136177114 -0.0038575198372977795 -0.063387605013680848 0.25348882190197647 0.063408788560313192 -0.069296197254219594 -0.025955332732204312 0.43922794916063251 -0.05791375220518067 -0.086284030360562217 0.79724848329999776 -0.052240254293564263 0.81777168317813642 -0.10789896325156696 0.23828030097731079 0.98008768857933404 0.3636719019451386 0.19590964006470779 -0.071552122443932401 -0.10493299010683757 0.42033162636245075 0.11583142558246624 0.79187172270734796 -0.11235692686840829 -0.082598947101785392 -0.13563146785165631 -0.11173397188278028 -0.10502152407697155 -0.1029622039962118 -0.10289718463031426 -0.10236268729039417 -0.10229773557315602 -0.10292556141461887 -0.1034848405345023 -0.10385016572980595 -0.1028514195941424 -0.10276654631707433 -0.10368155177798076 -0.1029211691509217 -0.10272328057850957 -0.10324015006035613
leaf_weight=1948.3214916717261 11378.945520954207 275.8431985527277 16.440613815560937 465.56335808709264 19.589054971933368 5412.5030563976616 328.89668352529407 14396.463717527688 1901.6695591062307 15.806316927075384 297.50423278100789 113.85541799291968 3640.517219139263 207.33859699219465 32.08863690495491 4893.9009271878749 14584.41786570847 2861.6370190009475 691.75656305253506 183.54788190126419 4411.5128118172288 1361.583120374009 345.75604043342173 41.48871973156929 6.7353519406169644 279.04438035003841 105.97979811765254 4.1498068571090689 1116.8774710390717 24.433532409369946 490.37614221870899 5140.6488781590015 27.769527189433575 2068.5945788770914 622.99190476164222 67.176253408193588 1156.0725101828575 90.964406555518508 394.45234343968332 121.16385735943913 28.979679860174656 117.9525969941169 1.723932310938834 110.41656984388828 5.2789047434926024 1.8964272588491429 0.52831176668405788 4.4490457251667967 0.45350512117147701 189.64675043895841 55.166186403483152 64.259478449821472 4.0920202359557152 6.6893114726990452 0.58173007518052955 16.016874078661207 1.7549491301178921 15.625367615371941
leaf_count=8794 29769 437 212 22550 293 9891 1042 56275 7396 735 468 219 26462 717 224 10474 21098 3964 4081 1561 4864 3053 5006 371 13 1347 911 2 7380 102 3142 6440 136 2365 1214 400 7546 216 1027 140 304 2168 9 1175 136 74 20 201 21 7061 1748 1800 154 256 17 581 68 514
internal_value=0 0.15714 0.1269 0.184783 0.22759 0.189526 0.102422 0.113862 0.133876 0.201174 0.131054 0.207566 0.0305704 0.290252 0.298284 0.211517 0.221666 0.220464 0.203571 0.287426 0.282964 0.159457 0.125338 -0.0405488 0.215854 0.0816872 0.0613329 0.577 -0.00498224 0.234058 -0.0515309 0.241022 0.658175 0.3562 0.154884 0.248614 -0.0691886 0.28054 0.043845 0.635031 0.00158045 -0.0544111 -0.111106 -0.110797 -0.111428 -0.107404 -0.103163 -0.102993 -0.102197 -0.102874 -0.103401 -0.103725 -0.102171 -0.102163 -0.102955 -0.102887 -0.102902 -0.103229
internal_weight=0 58295.4 27839.4 30456 23874.5 29960.9 21831.9 20214.5 16298.1 16794.6 8188.47 16449.1 3916.36 7079.91 6941 21772.4 19478.3 15115.9 12070.7 3045.18 6579.37 6774.09 2294.08 1617.42 6007.48 717.707 1333.2 361.632 1414.38 5289.77 604.232 5165.08 44.2101 2100.68 728.972 4478.69 1484.97 132.453 673.497 328.502 33.1295 124.688 138.905 137.181 115.695 21.4855 345.481 265.068 495.152 205.453 59.6152 80.4132 476.926 472.253 4.67375 18.2253 17.7718 16.1537
internal_count=268644 201001 111190 89811 67643 66164 99745 90570 63671 56940 20792 44861 26899 10703 9016 45372 31572 39375 33850 5525 7853 12944 13800 9175 11445 2722 5486 1163 7848 8723 3361 6542 348 2589 2125 5264 8588 587 2374 857 306 2181 1687 1678 1311 367 12079 9745 23647 7796 1949 2334 22977 22806 171 670 649 534
is_linear=0
shrinkage=0.1


Tree=3
num_leaves=63
num_cat=0
split_feature=136 31 130 123 51 127 130 32 76 54 107 134 88 129 114 91 78 56 32 100 75 103 45 29 59 40 114 33 116 58 11 91 126 114 74 31 31 30 31 61 30 31 31 117 89 114 116 31 74 30 40 31 45 80 106 53 116 53 47 40 121 0
split_gain=5496.38 5488.92 7710.93 3177.6 4037.39 2974.23 2175.72 2343.56 2178.18 1883.51 1673.4 1571.38 1546.36 1404.93 1155.5 1006.17 1582.22 917.948 746.014 721.982 698.253 619.083 428.388 410.853 484.387 384.323 309.029 203.145 186.585 48.8319 232.087 0.434721 0.00446227 0.00221549 0.00321746 0.00177737 0.00171938 0.000964921 0.000771052 0.000899164 0.000686184 0.000517616 0.000480724 0.00045091 0.000386764 0.000859546 0.000756857 0.000352518 0.000262413 0.000224143 0.000204061 0.000165074 0.000147679 0.000137221 9.15693e-05 6.40363e-05 5.60833e-05 4.72127e-05 3.74614e-05 2.16422e-05 5.88733e-08 4.44089e-16
threshold=1.0000000180025095e-35 0.9979476034641267 1.0000000180025095e-35 -2.2684013843536373 1.1670103073120119 -2.1050186157226558 1.0000000180025095e-35 0.96674764156341564 -1.2322037220001218 1.046721935272217 -0.95530474185943592 1.0000000180025095e-35 -1.1177569627761839 1.0000000180025095e-35 -1.3654413819313047 -1.1479778885841367 -1.2555902004241941 1.0133741497993471 0.9709245264530183 -0.74516287446022023 -1.1240789294242857 -0.79465806484222401 1.2203876376152041 1.128798305988312 0.77563223242759716 1.0884239077568056 -1.3907881975173948 0.94176286458969127 -1.4414005875587461 0.87318441271781932 0.73556217551231395 -1.1479778885841367 -1.7823279500007627 -0.92866182327270497 -1.0035573244094846 1.0019795298576357 0.99000805616378795 1.0894976854324343 1.0019795298576357 0.75152525305747997 1.0894976854324343 0.99000805616378795 1.002086937427521 -1.1181649565696714 -1.1539427042007444 -0.98721766471862782 -0.99472314119338978 1.0016589164733889 -1.002639591693878 1.0894976854324343 1.0517972111701968 0.99000805616378795 1.1040271520614626 -1.2547845244407652 -0.93820935487747181 1.1287047266960146 -1.0300177335739134 1.1287047266960146 1.1250873208045962 1.0517972111701968 -1.2102563977241514 0.31377018988132482
decision_type=2 2 2 2 2 2 2 2 2 2 2 2 2 2 2 2 2 2 2 2 2 2 2 2 2 2 2 2 2 2 2 2 2 2 2 2 2 2 2 2 2 2 2 2 2 2 2 2 2 2 2 2 2 2 2 2 2 2 2 2 2 2
left_child=1 2 3 22 5 -5 7 10 29 19 13 -12 23 -3 -6 20 -17 21 -11 -9 -10 -14 26 25 -25 -4 -1 -19 -24 31 -31 -8 38 35 37 36 48 41 39 50 51 -35 -42 58 46 -46 -37 -39 -34 -38 52 -36 -2 56 59 -56 -45 -52 -40 -41 -55 -60
right_child=32 6 12 4 14 -7 8 9 15 18 11 -13 17 -15 -16 16 -18 27 -20 -21 -22 -23 28 24 -26 -27 -28 -29 -30 30 -32 -33 33 34 40 44 49 47 43 54 42 -43 -44 53 45 -47 -48 -49 -50 -51 57 -53 -54 60 55 -57 -58 -59 61 -61 -62 -63
leaf_value=0.42758380894542641 -0.10423908300669152 -0.10737928621442915 -0.11819732670791608 0.17776165732370697 -0.11947109595072568 0.11828408911129276 -0.11022589854218066 -0.035298151668740688 0.12918831507118664 0.18982324541140752 0.19275423228688804 0.13605085840369605 0.001114733487611122 0.31315500294594134 0.042495229829046161 0.16285112016522107 0.24836274396819158 -0.14033783137657288 0.0048560875758239122 0.20906852323449923 0.39446137854020197 0.15817001811882547 -0.15846730943666479 -0.029240945883755823 0.39984072951955524 0.89474166117787535 0.21517766302130392 0.089700494474612855 0.21366131919105857 -0.11362176459944628 0.6531647329521939 -0.15246353891742237 -0.10230635281218022 -0.10228530468199322 -0.10295534181518365 -0.10211939704665769 -0.10316934914939724 -0.10544432238035067 -0.10270338605504299 -0.10225912351742572 -0.1060766231379407 -0.10289089582125002 -0.10347038030883343 -0.10221371433403824 -0.10266066365051847 -0.10356127914834623 -0.10267312419312989 -0.10339361982196112 -0.10275270973848441 -0.10394703337361749 -0.10350425747419439 -0.10353554284722283 -0.10379537125673946 -0.10334084212435704 -0.10355797714565391 -0.10283280696326474 -0.1034820825703936 -0.10282489276757421 -0.10195149802153709 -0.10269448614069476 -0.1033718370278234 -0.10195149802153694
leaf_weight=69.500496502965689 8.2484432701021415 360.04690499603748 1323.3002261891961 12276.267117111012 595.906682793051 26678.629634115845 191.23988860100508 1173.1181658282876 121.91870034113526 1176.5901027936488 18157.45792411454 6687.1405551955104 409.74762276746333 101.93313090503216 1688.7005415875465 3426.0848230049014 5872.9300141781569 242.76980816759169 267.65358045697212 134.79704617895186 533.10583101212978 647.74597819894552 43.728011757135391 342.11892973072827 28.501273445785046 3.7563018575310698 4739.2571509480476 45.599502548575401 19.474400371313095 19.952645350247625 4.9208249971270552 2.4682033210992804 15.480179242789744 30.580572038888931 5.1095594745129338 31.274713926017284 207.31249266117811 1.5012904033064836 0.84576962515712084 2.4511867240071297 1.7984645571559661 26.211368825286627 1.1669383496046064 1.6103398278355601 50.049876315519214 13.443637361750005 117.14052294380963 1.898032773286104 88.29880166426301 3.7735681012272826 16.280741872265938 121.70401994138956 82.772609114646912 21.991529677063234 1.7892395779490451 3.8122500441968441 0.44493338279426353 1.0915291383862484 2.6097362954169516 2.1375514604151249 0.63039344549178622 0.4506019502878188
leaf_count=803 215 6094 8738 41675 8137 75998 2461 5856 744 1645 38336 19417 1996 120 5850 4446 7222 1149 1087 35 1012 1090 252 2146 37 3 1064 100 6 203 7 11 705 1400 185 1595 6992 35 33 114 35 962 36 76 2092 405 4644 60 3410 107 499 3723 2359 703 54 143 14 41 139 84 20 24
internal_value=0 0.150401 0.128298 0.138473 0.129451 0.137028 0.178819 0.164455 0.218438 0.0768185 0.173985 0.177492 -0.0258667 -0.0145909 0.000248661 0.225295 0.216857 0.0541892 0.155544 -0.0101131 0.345087 0.0973157 0.214848 -0.0893324 0.00375611 -0.11533 0.218248 -0.103962 -0.0438043 -0.093827 0.0380749 -0.110764 -0.103077 -0.102974 -0.103267 -0.102869 -0.103019 -0.102663 -0.103579 -0.103691 -0.103547 -0.102565 -0.105051 -0.103113 -0.102645 -0.102851 -0.102556 -0.104299 -0.102686 -0.103183 -0.103776 -0.103512 -0.103836 -0.103271 -0.102793 -0.103064 -0.102488 -0.103462 -0.102114 -0.102462 -0.103342 -0.101951
internal_weight=0 87386.4 49155 46111.5 41239.5 38954.9 38231.4 28058.7 10172.6 2752.16 25306.6 24844.6 3043.54 461.98 2284.61 9954.04 9299.01 1345.86 1444.24 1307.92 655.025 1057.49 4871.96 1697.68 370.62 1327.06 4808.76 288.369 63.2024 218.582 24.8735 193.708 863.911 716.744 189.97 526.774 314.865 60.1913 147.167 118.584 129.779 56.7919 2.9654 28.5833 211.909 63.4935 148.415 3.39932 103.779 211.086 108.393 126.814 91.0211 24.6772 10.1902 5.60149 2.05527 17.3723 3.90611 4.58874 22.6219 3.06034
internal_count=268644 237740 149044 133785 131660 117673 88696 72590 16106 8623 63967 57753 15259 6214 13987 13424 11668 4335 2732 5891 1756 3086 2125 10924 2183 8741 1867 1249 258 2682 210 2472 30904 26386 6436 19950 11214 2457 4518 3509 3979 2362 71 1009 8736 2497 6239 95 4115 7099 3114 3908 2574 813 395 197 90 540 196 198 723 163
is_linear=0
shrinkage=0.1


Tree=4
num_leaves=63
num_cat=0
split_feature=136 133 31 130 127 29 42 78 110 114 77 79 88 90 56 29 86 31 107 127 126 32 114 74 31 31 105 31 47 30 40 31 61 30 31 31 31 31 29 117 89 114 116 114 31 74 30 40 107 31 45 80 106 51 53 116 53 47 31 40 121 0
split_gain=4152.68 4220.35 3202.6 6017.92 2634.41 4892.47 1982.78 1857.92 4625.83 2043.59 3619.51 1334.71 1295.86 1270.47 736.228 365.818 115.747 0.0248744 0.00693496 0.00455515 0.00327192 0.00183141 0.00162612 0.00236118 0.00130401 0.0012622 0.00110878 0.000910857 0.000731884 0.00070956 0.00069182 0.000565364 0.000659211 0.00050274 0.000425718 0.000391796 0.000380449 0.000351518 0.000340112 0.000331146 0.000284974 0.000629778 0.000555679 0.000283077 0.000258917 0.000192896 0.00016491 0.000149511 0.000125209 0.000121087 0.000108303 0.000100691 6.72591e-05 6.46803e-05 4.6968e-05 4.12242e-05 3.46238e-05 2.75574e-05 1.6945e-05 1.59084e-05 4.3234e-08 4.44089e-16
threshold=1.0000000180025095e-35 1.0000000180025095e-35 0.9979476034641267 1.0000000180025095e-35 -1.9651309847831724 1.2226853370666506 1.1359775662422182 -1.2506249547004697 -0.91965079307556141 -1.001906096935272 -1.1851016283035276 -1.3912508487701414 -1.1177569627761839 -1.1016177535057066 1.0133741497993471 1.128798305988312 -1.2219464778900144 1.0015475749969485 -0.95530474185943592 -1.9325801730155943 -1.7823279500007627 0.96701520681381237 -0.92866182327270497 -1.0035573244094846 1.0019795298576357 0.99000805616378795 -0.9361431598663329 1.0122129917144778 1.1232696175575259 1.0894976854324343 1.0517972111701968 1.0019795298576357 0.75152525305747997 1.0894976854324343 0.9979476034641267 1.0122129917144778 0.99000805616378795 1.002086937427521 1.2226853370666506 -1.1181649565696714 -1.1539427042007444 -0.98721766471862782 -0.99472314119338978 -1.0824856162071226 1.0016589164733889 -1.002639591693878 1.0894976854324343 1.0517972111701968 -0.8988930583000182 0.99000805616378795 1.1040271520614626 -1.2547845244407652 -0.93820935487747181 1.1670103073120119 1.1287047266960146 -1.0300177335739134 1.1287047266960146 1.1250873208045962 1.0122129917144778 1.0517972111701968 -1.2102563977241514 0.22762243449687961
decision_type=2 2 2 2 2 2 2 2 2 2 2 2 2 2 2 2 2 2 2 2 2 2 2 2 2 2 2 2 2 2 2 2 2 2 2 2 2 2 2 2 2 2 2 2 2 2 2 2 2 2 2 2 2 2 2 2 2 2 2 2 2 2
left_child=1 2 3 4 6 -6 -1 8 16 10 -9 -10 15 -11 -14 -5 -4 19 28 30 31 27 24 29 25 45 38 -20 35 36 34 32 47 49 -3 -19 -24 -35 -21 57 42 -42 -26 -28 -31 -22 -27 50 -23 -25 -2 55 59 -32 -54 -41 -49 -33 -30 -34 -53 -59
right_child=20 17 7 12 5 -7 -8 9 11 13 -12 -13 14 -15 -16 -17 -18 18 21 26 22 48 23 33 40 46 43 -29 58 44 53 39 52 37 -36 -37 -38 -39 -40 51 41 -43 -44 -45 -46 -47 -48 56 -50 -51 -52 60 54 -55 -56 -57 -58 61 -60 -61 -62 -63
leaf_value=0.14912038051483431 -0.1038199743099167 -0.10229528289059955 -0.1255609679665069 -0.10998398421801386 0.067843568257930698 0.17703297437671192 0.0065184461777780846 -0.096632971340970764 -0.025369409833085804 0.17602079878792301 0.15468876521632102 0.14339563173623393 0.085047679493476316 0.24658667188893785 -0.097259693964606639 0.0030243082779582093 0.00096082792012104179 -0.10335403936692977 -0.10471194804400781 -0.10291119670254917 -0.10208211938272847 -0.10223932458345282 -0.10206310261878014 -0.10266632399290208 -0.10191405645987131 -0.10285874977633991 -0.10310853925423878 -0.10378728350184074 -0.10234363931169783 -0.1049041700727833 -0.10310474489053988 -0.10243951861674372 -0.10203959588974792 -0.10546742156141203 -0.10191143554041499 -0.1027327707862597 -0.10260826565231713 -0.10312925503399716 -0.10239454944186391 -0.1019986315232317 -0.10240173426466137 -0.10321092803528296 -0.1024123414267375 -0.10372374705034443 -0.10306033518924494 -0.10248400301834396 -0.10355877079222711 -0.1031597502094217 -0.10349848027875674 -0.10318802029254957 -0.10342126705636057 -0.10301283774449177 -0.10320798930675629 -0.10272571981427994 -0.10255607493509589 -0.1031401707408871 -0.10254893023251771 -0.10176234963607059 -0.10198416377702535 -0.10243155369699482 -0.10304071805425144 -0.10176234963607073
leaf_weight=25007.341295156628 7.4920927807688704 456.91793581843376 679.88235720992088 1257.5301325879991 15817.787095727399 5541.1682962980121 1014.6048194020987 613.16719338297844 480.45319176092744 6987.9416031949222 8758.0033884979784 19027.357628364116 1086.2951893452555 4018.6042089238763 278.25718020088971 370.94243733026087 80.911944299936295 67.490562468767166 64.963235264644027 59.05865003913641 14.03624735213816 3.6234831176698208 27.727619558572769 4.6356726195663205 28.35264628380537 188.12168357893825 11.755281446501611 12.742940118536351 6.6481409613043052 1.3650613222271197 8.3442936614155787 0.76715480536222758 2.2224542051553726 1.6362377796322101 30.844270309433341 11.947809709236024 23.779025569558144 1.0592040717601774 16.247246913611889 1.4600119218230245 45.395680516958237 12.203493321314452 106.24928267486393 20.561731554567814 1.722681852057576 80.094871008768678 3.426614422351121 14.778114102780815 1.0098166782408942 110.47432178072631 75.152858607470989 19.958888687193401 1.6241811793297509 9.7784775476902706 3.4583003539592028 0.40385894663632171 0.9901788644492634 0.81688159704208407 1.6335040926933286 1.9388484451919792 0.57214309647678874 1.9571121595799921
leaf_count=42242 215 20849 4042 8741 55140 5158 6619 3419 4338 11472 19510 34671 3086 3278 1249 2183 323 2162 1553 2176 705 174 1400 185 1595 6992 413 367 300 35 287 33 114 35 1705 462 962 36 720 76 2092 405 4644 602 60 3410 107 499 33 3723 2359 703 54 380 143 14 41 48 86 84 20 115
internal_value=0 0.128371 0.13036 0.11351 0.122197 0.0961707 0.14356 0.151242 0.129805 0.172564 0.138244 0.139239 -0.02401 0.201785 0.0478719 -0.0842423 -0.112105 -0.102716 -0.103786 -0.102419 -0.102776 -0.104445 -0.102683 -0.102947 -0.102588 -0.102724 -0.10301 -0.10456 -0.103167 -0.102403 -0.102294 -0.103227 -0.103328 -0.103199 -0.102271 -0.103261 -0.102315 -0.104549 -0.1028 -0.102808 -0.102387 -0.102573 -0.102307 -0.1035 -0.103875 -0.102424 -0.102871 -0.103404 -0.102514 -0.103167 -0.103457 -0.10295 -0.10252 -0.1029 -0.102764 -0.102246 -0.103121 -0.101909 -0.102273 -0.102222 -0.103014 -0.101762
internal_weight=0 91803.8 91020.2 50373.9 47380.9 21359 26021.9 40646.3 20268.6 20377.7 9371.17 19507.8 2993.02 11006.5 1364.55 1628.47 760.794 783.567 170.059 613.508 783.873 82.3395 650.28 172.4 477.881 285.679 107.623 77.7062 87.72 54.5944 505.885 133.593 107.657 117.805 487.762 79.4384 51.5066 2.69544 75.3059 25.9361 192.201 57.5992 134.602 32.317 3.08774 94.1311 191.548 98.4132 4.6333 115.11 82.645 22.3949 9.24378 18.1228 5.08248 1.86387 15.7683 3.54115 8.28165 4.1613 20.531 2.77399
internal_count=268644 237740 205471 124418 109159 60298 48861 81053 43374 37679 22929 39009 15259 14750 4335 10924 4365 32269 5137 27132 30904 2127 26386 6436 19950 11214 3911 1920 3010 2457 23221 4518 3509 3979 22554 2624 2362 71 2896 1009 8736 2497 6239 1015 95 4115 7099 3114 207 3908 2574 813 395 667 197 90 540 196 386 198 723 163
is_linear=0
shrinkage=0.1


Tree=5
num_leaves=61
num_cat=0
split_feature=136 133 115 31 105 51 130 32 75 46 91 72 52 83 31 107 127 126 130 32 114 74 31 31 33 105 31 47 30 40 31 61 30 31 31 31 31 29 117 89 114 116 114 31 74 30 40 107 31 45 80 106 51 53 116 53 47 31 40 121
split_gain=3236.95 3282.77 2369.02 2115.62 2797.62 3316.91 1219.93 1829.55 1002.88 995.952 15.7122 0.10233 0.0421851 0.0239794 0.0182672 0.00508365 0.00334994 0.00240157 0.00213315 0.00134124 0.00119465 0.00173434 0.000957669 0.000927404 0.000823324 0.000814051 0.000666809 0.000537382 0.000522155 0.000508601 0.000414973 0.000483806 0.000368743 0.000313068 0.000287557 0.000279837 0.000257375 0.000249884 0.000243401 0.000210096 0.00046193 0.000408318 0.000207371 0.000190331 0.000141916 0.000121417 0.000109675 9.21597e-05 8.89051e-05 7.95021e-05 7.39562e-05 4.94433e-05 4.74921e-05 3.44842e-05 3.03257e-05 2.54174e-05 2.02859e-05 1.24718e-05 1.17032e-05 3.17707e-08
threshold=1.0000000180025095e-35 1.0000000180025095e-35 -0.83064466714858998 1.0023006796836855 -0.76600730419158924 1.1670103073120119 1.0000000180025095e-35 0.95589664578437816 -1.1331537961959837 1.2356483340263369 -1.1468841433525083 -0.83962547779083241 1.0804430246353152 -0.67641091346740712 1.0015475749969485 -0.95530474185943592 -1.9325801730155943 -1.7823279500007627 1.0000000180025095e-35 0.96701520681381237 -0.92866182327270497 -1.0035573244094846 1.0019795298576357 0.99000805616378795 0.92274543642997753 -0.9361431598663329 1.0122129917144778 1.1232696175575259 1.0894976854324343 1.0517972111701968 1.0019795298576357 0.75152525305747997 1.0894976854324343 0.9979476034641267 1.0122129917144778 0.99000805616378795 1.002086937427521 1.2226853370666506 -1.1181649565696714 -1.1539427042007444 -0.98721766471862782 -0.99472314119338978 -1.0824856162071226 1.0016589164733889 -1.002639591693878 1.0894976854324343 1.0517972111701968 -0.8988930583000182 0.99000805616378795 1.1040271520614626 -1.2547845244407652 -0.93820935487747181 1.1670103073120119 1.1287047266960146 -1.0300177335739134 1.1287047266960146 1.1250873208045962 1.0122129917144778 1.0517972111701968 -1.2102563977241514
decision_type=2 2 2 2 2 2 2 2 2 2 2 2 2 2 2 2 2 2 2 2 2 2 2 2 2 2 2 2 2 2 2 2 2 2 2 2 2 2 2 2 2 2 2 2 2 2 2 2 2 2 2 2 2 2 2 2 2 2 2 2
left_child=1 2 3 4 5 -1 7 -5 -8 -6 12 -12 18 -13 16 27 29 30 -4 26 22 28 23 44 -14 37 -17 34 35 33 31 46 48 -3 -16 -22 -34 -18 56 41 -41 -24 -27 -30 -19 -25 49 -21 -23 -2 54 58 -31 -53 -40 -48 -32 -29 -33 -52
right_child=17 14 10 6 9 -7 8 -9 -10 -11 11 13 24 -15 15 19 25 20 -20 47 21 32 39 45 -26 42 -28 57 43 52 38 51 36 -35 -36 -37 -38 -39 50 40 -42 -43 -44 -45 -46 -47 55 -49 -50 -51 59 53 -54 -55 -56 -57 -58 -59 -60 -61
leaf_value=0.10212243487034552 -0.1034436996291382 -0.10207210587272497 -0.10334982869285661 0.15089287491728759 0.16732060328515316 -0.018337159688741275 -0.1111276824690136 0.088543912502580716 0.17207228220470094 -0.15837068788310121 -0.13848243710453464 -0.15223760554876598 -0.11178546041322686 -0.15955567884007324 -0.10302479751321508 -0.10424444448046172 -0.10262669786309216 -0.10188009121998826 -0.10216878143814795 -0.10202200554831334 -0.10186293255040696 -0.10240625988807953 -0.10172892762614522 -0.10257938475497219 -0.11456626947854565 -0.10280448774115925 -0.10341420580285098 -0.10211572984557837 -0.10441957596797705 -0.10280063699734288 -0.10220198704460853 -0.10184178843506 -0.10492207783285019 -0.10172636347410657 -0.10246597702926448 -0.10235393517538885 -0.10282261676687639 -0.10216167350297303 -0.10180482624747507 -0.10216850376991048 -0.10289605830085398 -0.1021775534211858 -0.10335720848569029 -0.10276069838543321 -0.10224212535664289 -0.10320983267311484 -0.10285008021715761 -0.10315601384708457 -0.10287563576288113 -0.1030851934775619 -0.10271793030025145 -0.10289343575174791 -0.10245965412821051 -0.10230699246519355 -0.10283276739778072 -0.10230054116915346 -0.10159183171421214 -0.10179181926163013 -0.10219485105589093 -0.10274302124776569
leaf_weight=56141.482532797381 6.8025277759879819 414.29438686929643 63.264909666031599 10552.530545569956 7160.388591228053 2382.8886279314756 126.86232349276543 8495.1271876189858 8725.5867483690381 95.139029527083039 5.4191698208451262 268.81281310319901 2.0176772326230994 4.5534492135047904 61.253199825063348 59.031332049518824 53.579070165753365 12.724423684179781 20.167969403788447 3.2852915208786726 25.135781615972519 4.2046396601945153 25.698844657279551 170.65949705801904 2.2542356997728348 10.666474075987937 11.569765273481606 6.0282288659363976 1.2405983339995139 7.5714262090623405 0.69568150117993655 2.0146666541695599 1.487831532955169 27.95724109839648 10.837539646774529 21.566892582923174 0.96111997961997975 14.732920989394186 1.3234603106975553 41.164702887646854 11.074245320633052 96.347983231768012 18.667640049010515 1.5630605034530161 72.63555770739913 3.1104770470410577 13.409999366849657 0.91659875772893329 100.24936719145626 68.211514243856072 18.108757387846715 1.4738837406039218 8.8697380442172271 3.1364299207925797 0.36646340973675506 0.89801547676324922 2.5140116726979613 1.4807063080370424 1.758199034258723 0.51912007108330271
leaf_count=133939 215 20849 2034 16903 4621 13789 1586 21153 8645 543 28 1193 22 20 2162 1553 2176 705 973 174 1400 185 1595 6992 22 413 367 300 35 287 33 114 35 1705 462 962 36 720 76 2092 405 4644 602 60 3410 107 499 33 3723 2359 703 54 380 143 14 41 163 86 84 20
internal_value=0 0.111655 0.113273 0.114266 0.104479 0.0972178 0.137341 0.123086 0.168014 0.16305 -0.140476 -0.15209 -0.103561 -0.15236 -0.102451 -0.103413 -0.102184 -0.102505 -0.103064 -0.104005 -0.102422 -0.102659 -0.102336 -0.102458 -0.113253 -0.102716 -0.104108 -0.102857 -0.102169 -0.102071 -0.10291 -0.103001 -0.102885 -0.10205 -0.102941 -0.10209 -0.104098 -0.102526 -0.102533 -0.102155 -0.102323 -0.102083 -0.103156 -0.103495 -0.102188 -0.102591 -0.103069 -0.102269 -0.102857 -0.103118 -0.102661 -0.102275 -0.102617 -0.102494 -0.102028 -0.102816 -0.101724 -0.102052 -0.102006 -0.102719
internal_weight=0 94757.2 94046.5 93680 65779.9 58524.4 27900.1 19047.7 8852.45 7255.53 366.49 278.785 87.7048 273.366 710.742 154.403 556.339 711.058 83.4329 74.803 589.825 156.409 433.416 259.13 4.27191 97.6461 70.6011 79.5997 49.5063 458.693 121.233 97.7052 106.903 442.252 72.0907 46.7027 2.44895 68.312 23.5275 174.286 52.2389 122.047 29.3341 2.80366 85.36 173.77 89.3221 4.20189 104.454 75.014 20.3178 8.38318 16.4412 4.61031 1.68992 14.308 3.20969 7.50894 3.77287 18.6279
internal_count=268644 237740 205471 201179 152892 147728 48287 38056 10231 5164 4292 1241 3051 1213 32269 5137 27132 30904 3007 2127 26386 6436 19950 11214 44 3911 1920 3010 2457 23221 4518 3509 3979 22554 2624 2362 71 2896 1009 8736 2497 6239 1015 95 4115 7099 3114 207 3908 2574 813 395 667 197 90 540 196 386 198 723
is_linear=0
shrinkage=0.1


Tree=6
num_leaves=61
num_cat=0
split_feature=106 136 125 97 36 53 5 63 30 113 131 129 49 30 31 62 33 104 105 2 29 73 16 92 107 69 107 107 105 73 91 92 128 36 67 104 45 43 109 35 43 31 8 105 31 126 114 74 31 31 30 31 30 117 53 89 45 80 41 10
split_gain=2939.56 2623.36 2430.83 4011.7 2691.76 3843.86 3974.87 2509.51 2407.89 2687.8 931.67 901.943 843.784 835.38 1262.74 821.655 1172.23 840.022 780.43 727.09 686.378 449.018 422.458 370.455 327.475 223.38 264.669 212.591 190.825 293.572 129.667 132.895 112.811 88.1214 87.6153 70.2214 62.3312 46.7489 43.0974 28.4353 0.276376 0.230198 0.10423 0.0521096 0.0153006 0.00181828 0.000871323 0.00127676 0.000717384 0.00065959 0.000394049 0.00033493 0.000270331 0.000182253 0.000164578 0.000154059 8.8452e-05 5.43596e-05 6.83113e-06 3.79681e-06
threshold=-0.92471191287040699 1.0000000180025095e-35 -1.4704596996307371 -0.92533966898918141 0.89846360683441173 1.1268113851547243 0.59577438235282909 0.59361186623573314 1.0939924716949465 -0.92892327904701222 1.0000000180025095e-35 1.0000000180025095e-35 1.233787536621094 1.099506735801697 0.97552442550659191 0.61342349648475658 0.70934370160102855 -0.84415313601493824 -0.934527426958084 0.65450650453567516 1.1889747977256777 -0.68820759654045094 1.2119466662406924 -1.0631024241447447 -0.76991698145866383 -0.2148141339421272 -1.0059446096420286 -1.008854031562805 -0.90245643258094776 -0.71096158027648915 -0.96682563424110401 -1.0356208682060239 1.0000000180025095e-35 0.8965250849723817 -0.079296547919511781 -0.92624765634536732 0.85266301035881054 0.83476740121841442 -0.98423793911933888 0.82074645161628734 1.0681506991386416 1.0011381506919863 0.66460248827934276 -0.93143382668495167 1.0075497031211855 -1.7823279500007627 -0.92866182327270497 -1.0035573244094846 1.0019795298576357 0.99000805616378795 1.0894976854324343 1.0019795298576357 1.0894976854324343 -1.1181649565696714 1.1287047266960146 -1.1539427042007444 1.1040271520614626 -1.2547845244407652 1.0874874591827395 0.63482239842414867
decision_type=2 2 2 2 2 2 2 2 2 2 2 2 2 2 2 2 2 2 2 2 2 2 2 2 2 2 2 2 2 2 2 2 2 2 2 2 2 2 2 2 2 2 2 2 2 2 2 2 2 2 2 2 2 2 2 2 2 2 2 2
left_child=11 2 4 8 12 6 -6 20 9 -4 -10 13 19 14 15 17 -17 -1 35 -2 -5 -7 25 37 -9 30 27 -27 32 -30 31 -13 -16 -14 -25 36 -15 -20 -37 -32 -28 42 -24 -44 -43 51 48 50 49 -47 -48 54 -49 59 56 -50 -3 -55 -56 -53
right_child=1 45 3 7 5 21 -8 24 10 -11 -12 22 33 18 28 16 -18 -19 23 -21 -22 -23 41 34 -26 26 40 -29 29 -31 39 -33 -34 -35 -36 38 -38 -39 -40 -41 -42 44 43 -45 -46 46 47 52 55 -51 -52 53 -54 57 58 -57 -58 -59 -60 -61
leaf_value=0.025068614595368577 0.1486392531673649 -0.10339393248378054 0.040064869140800208 -0.097381909369573305 0.1135928332617363 -0.13966503495732277 -0.02775211975057694 -0.12580667709922114 0.15597766320771181 0.10852242453222534 -0.056853150092065818 0.20864651708057902 -0.16959622612242398 0.0046047023158559495 -0.10118293740620576 0.544937783003964 -0.11552331309897342 0.16358717888301647 0.063382984214213345 0.34117358806798997 0.13526546163574826 -0.020048116272917096 -0.14832166937217056 0.19425276447417711 0.32707672967274687 -0.10897517948669547 -0.1508705850002896 0.63619461048352044 0.093769959062407524 -0.12848272434390223 0.34460836578229731 -0.14606096542852068 0.032865126409012561 0.096087370061455887 0.29786830701335459 -0.12114186753881949 -0.13345721295338242 -0.15270841924920153 0.28595420732930732 0.25174304692789196 -0.13266978741849936 -0.15253221956349838 -0.12556676121216992 -0.13559790425475593 -0.14384892424000797 -0.10197735886291664 -0.10188695025129083 -0.10257845058356976 -0.10188104365806633 -0.10233855789341313 -0.10319373960499725 -0.10143805970959839 -0.10369382165863686 -0.10183109437191851 -0.10245974062214279 -0.10209708407434406 -0.10275590769840655 -0.10245324005719891 -0.10203864360962178 -0.10181340519995621
leaf_weight=1604.4043537266552 15604.776543342508 2.238390088081359 11206.92469258979 1919.3319871108979 41404.645185831003 441.55066601000726 2090.0122377285734 17.483199872076511 5443.5536131579429 11746.866433108225 213.7571468167007 30.092255756258965 90.755744643509388 49.935603308491409 1176.6662047579885 28.474315197207034 477.86544578056782 602.09439693391323 15.256138157099484 198.63920276239514 135.78566092811525 1084.8187951259315 2.6733560860157004 258.08462870586663 184.02434755954891 6.2353858482092646 13.351334989070891 9.9186652358621341 144.63519383873791 100.88769253622741 38.976777538657188 16.275244273245335 66.320110134780407 14.475070923566816 119.34499375335872 3.7279897872358552 94.745746406726539 29.121973292902112 8.5984792709350568 214.03876593336463 22.240655412897468 4.037812974303959 23.995497655123472 6.6038939356803921 4.0794673450291157 74.607960233464837 42.321882553398609 94.545132395811379 110.58879073243588 156.83156137913465 2.4405471850186577 2.1522631626576216 2.224101146683096 1.5319085307419325 0.43739618360996191 47.051242308691144 74.224393146112561 16.873267443850636 3.2305218819528818 0.30807409156113852
leaf_count=11342 23653 71 29966 10885 67246 2151 8040 143 5256 34688 857 19 494 449 20448 51 7880 2007 27 140 341 6712 13 314 217 143 61 17 953 1415 7 80 247 37 60 80 1271 192 1 109 146 19 155 35 22 3963 2361 3898 6236 7063 90 154 71 90 19 2481 2853 722 165 18
internal_value=0 0.100842 0.102239 0.0793765 0.113821 0.101327 0.106801 -0.0489893 0.089501 0.0750988 0.147936 0.0233762 0.14918 0.0114104 -0.0041062 0.0365032 -0.0783819 0.0628666 0.124038 0.151059 -0.0820104 -0.0546511 0.169097 0.194882 0.287784 0.204716 0.012865 0.348563 -0.0781176 0.00244421 0.237876 0.0841423 -0.0940307 -0.13305 0.227016 -0.0662859 -0.0858063 -0.0784213 0.162833 0.266049 -0.139497 -0.13307 -0.129386 -0.127732 -0.148168 -0.102261 -0.102187 -0.1024 -0.10211 -0.102222 -0.101958 -0.10265 -0.102604 -0.102293 -0.102743 -0.101946 -0.102775 -0.102401 -0.102089 -0.101485
internal_weight=0 92429 91797.4 30867.7 60929.7 45021 43494.7 2256.63 28611.1 22953.8 5657.31 5172.68 15908.6 4780.16 4201.35 2712.84 506.34 2206.5 578.816 15803.4 2055.12 1526.37 392.519 421.808 201.508 351.129 51.746 16.1541 1488.51 245.523 299.383 46.3675 1242.99 105.231 377.43 157.008 144.681 44.3781 12.3265 253.016 35.592 41.39 33.2727 30.5994 8.11728 631.607 530.611 141.532 389.08 231.44 44.7624 100.996 96.7692 20.8655 80.1307 157.64 76.4628 18.4052 3.66792 2.46034
internal_count=268644 221081 190826 82353 108473 84149 75286 11586 70767 64654 6113 47563 24324 46737 44343 21280 7931 13349 2394 23793 11226 8863 826 593 360 582 367 160 23063 2368 215 99 20695 531 374 1801 1720 219 81 116 207 244 203 190 41 30255 26163 6420 19743 11026 2451 4092 3969 984 3108 8717 2924 812 184 172
is_linear=0
shrinkage=0.1


Tree=7
num_leaves=61
num_cat=0
split_feature=106 125 30 29 31 117 36 5 53 118 74 113 135 31 27 5 128 133 116 36 1 36 105 55 76 30 76 0 47 73 104 91 30 114 88 121 125 128 14 70 101 121 129 113 104 107 31 127 31 31 47 31 127 31 29 105 30 37 105 31
split_gain=2301.58 2153.5 4121.94 2717.61 3228.95 2656.56 2405.75 3162.48 2704.78 1693.57 1350.2 1235.2 908.669 1759.38 906.423 1154.16 976.156 800.342 785.336 767.327 659.758 616.948 600.788 612.349 600.36 561.057 986.628 560.512 520.39 494.497 451.237 428.387 385.479 360.172 291.052 242.771 200.641 177.215 147.87 141.322 139.808 107.467 70.8538 1.8191 0.163115 0.00432593 0.00133871 0.000744901 0.000711632 0.000641568 0.000258593 0.000231275 0.000193452 0.000170775 0.000107545 8.0621e-05 4.96743e-05 2.13749e-05 1.44077e-05 9.06413e-06
threshold=-0.9236919879913329 -1.3880656361579893 1.0859191417694094 1.2353356480598452 1.0012386441230776 -0.94200065732002247 0.89175933599472057 0.61027783155441295 1.1287047266960146 -0.96370345354080189 -1.0208298563957212 -0.91861355304718006 1.0000000180025095e-35 0.97614055871963512 1.1813321113586428 0.56563997268676769 1.0000000180025095e-35 1.0000000180025095e-35 -0.96753901243209828 0.9173741638660432 0.54706832766532909 0.95627868175506603 -0.934527426958084 1.0808253288269045 -1.1691784858703611 1.0969202518463137 -0.98931279778480519 0.43938295543193823 1.1328437328338625 -0.92308506369590748 -0.92299360036849964 -1.1479778885841367 1.0969202518463137 -0.93387922644615162 -1.2094675898551939 -1.0678418874740598 -1.2086598873138426 1.0000000180025095e-35 0.34349200129508978 -0.31121413409709925 -0.9216865301132201 -0.98341566324233998 1.0000000180025095e-35 -0.95208320021629322 -0.83602347970008839 -0.95530474185943592 1.0019795298576357 -1.9325801730155943 1.0015475749969485 0.97552442550659191 1.1232696175575259 1.0122129917144778 -1.9325801730155943 1.0122129917144778 1.2226853370666506 -0.9361431598663329 1.0958487987518313 0.90848699212074291 -0.90245643258094776 1.0122129917144778
decision_type=2 2 2 2 2 2 2 2 2 2 2 2 2 2 2 2 2 2 2 2 2 2 2 2 2 2 2 2 2 2 2 2 2 2 2 2 2 2 2 2 2 2 2 2 2 2 2 2 2 2 2 2 2 2 2 2 2 2 2 2
left_child=17 5 3 4 21 6 12 8 -8 -6 11 32 24 -14 15 28 27 19 -9 22 34 -3 23 40 -2 26 -24 -16 -7 -13 43 -18 -4 -22 -12 -17 -27 38 -21 -39 -1 -32 -40 -5 -41 46 47 49 52 -19 53 56 58 -48 -49 -54 -50 -53 -47 -52
right_child=1 2 10 30 9 14 7 18 -10 -11 20 29 13 -15 16 35 31 45 -20 37 33 -23 25 -25 -26 36 -28 -29 -30 -31 41 -33 -34 -35 -36 -37 -38 39 42 44 -42 -43 -44 -45 -46 48 50 54 51 -51 59 57 55 -55 -56 -57 -58 -59 -60 -61
leaf_value=-0.10935043504387842 0.091476308576583995 -0.045801252338297183 -0.11962015494890313 -0.13605483456386794 -0.069971113533447579 0.48737178191527503 0.093887725318451201 -0.054291151287741361 -0.034258847378895119 0.097204308189910549 0.11826110277689242 0.026583526359068972 -0.12088468392146932 0.10698404242205894 -0.067482403400175375 0.20231645022792885 0.47607495120245569 -0.10197773822882056 0.064300804962080807 0.30975025085443963 0.11507725068049453 0.56016046514682516 -0.060076929792915547 0.41743312585276454 0.14228156376517162 0.16417745210108392 0.074190449288801572 0.24827505621168952 0.18860917272436439 0.17015881867019075 0.21680269674335795 0.15973437766216644 0.017795128817418137 0.15999904559217881 -0.12988747280098462 -0.08318372388956366 -0.16836533022932021 0.34957807372823663 -0.12719871053349602 -0.12659905184085068 -0.014406988033418978 0.15300870882825082 0.066486994513849984 -0.1774883440531351 -0.15683489736355266 -0.10167495760139048 -0.10249792484974495 -0.10221835629011305 -0.10351613089308871 -0.10167932469594619 -0.10178093854277781 -0.10289746980873492 -0.10225684298502354 -0.10202146671676782 -0.10188458756037314 -0.10287674338060367 -0.10394097193882922 -0.10214316191989399 -0.102082865110644 -0.10146947314666779
leaf_weight=318.14680466987193 2801.9721072241664 5870.7488146889955 451.92026598751545 22.681111350655556 726.8984338901937 68.0665527805686 47857.955925727263 1970.981491336599 1705.8008785918355 3642.8594575794414 71.619051579385996 420.03754123020917 410.50945026986301 1940.6951354593039 63.847199326381087 35.055370014160872 284.01389317959547 115.35168573446572 779.13697426021099 8.2658548355102521 4235.2419849634171 16.850128326565027 695.55785252898932 27.706272680312395 13689.954297131859 549.90027135051787 2567.320791057311 470.49944710731506 406.36519440636039 559.31175937503576 414.72356876730919 50.40551383048296 372.33067219890654 3084.8527012839913 139.00111757405102 198.07214280962944 18.762689365074039 15.652560934424402 379.55236586928368 7.5198342259973288 302.62574742920697 726.92005843855441 19.876296311616898 19.887293718755245 2.339257672429083 1.7916845222935083 47.628586387261748 55.075348349288106 13.16808544658125 191.90105652809143 4.5378531645983449 4.7329012993723145 2.7758119199424973 8.9337365003302676 11.70567832328379 8.5917453281581384 3.4794004932045928 0.4080605525523423 1.6758236829191435 1.1766058951616285
leaf_count=1971 4574 39099 1882 120 3155 77 95376 8651 9331 12151 93 1689 1776 4397 445 150 262 6101 2587 1 5798 67 3302 22 20196 609 9692 474 1125 966 77 22 826 2063 627 1491 89 10 5479 67 1659 379 215 83 11 111 2007 2649 406 11933 266 176 133 462 655 323 98 21 84 83
internal_value=0 0.0894549 0.0610606 0.0208287 0.00426922 0.0975656 0.0947211 0.0836858 0.0894774 0.0693951 0.110375 0.0326596 0.125358 0.0671992 0.22597 0.141944 0.294404 0.0222294 -0.0206928 0.034189 0.128988 -0.044067 0.0464779 -0.0425363 0.13365 0.0615434 0.0455683 0.210546 0.231473 0.10858 0.164263 0.428394 -0.0575469 0.134008 -0.0455073 -0.0402531 0.153205 -0.0928976 -0.108897 0.162785 -0.0630656 0.176183 -0.117561 -0.155412 -0.133773 -0.102016 -0.101929 -0.101857 -0.10306 -0.101791 -0.102358 -0.103424 -0.102526 -0.102423 -0.10216 -0.102725 -0.103605 -0.102838 -0.101872 -0.101717
internal_weight=0 93509.2 20775.9 11441.6 10257.4 72733.3 71157 52313.9 49563.8 4369.76 9334.32 1803.6 18843.1 2351.2 1576.33 707.559 868.766 5386.16 2750.12 4913.23 7530.71 5887.6 4480.02 648.479 16491.9 3831.54 3262.88 534.347 474.432 979.349 1184.21 334.419 824.251 7320.09 210.62 233.128 568.663 433.206 407.695 25.5117 620.773 1141.64 399.429 42.5684 9.85909 472.934 436.311 374.034 36.6235 307.253 62.2768 21.7884 14.8351 56.5623 66.781 11.3676 16.6475 5.14096 3.46751 5.71446
internal_count=268644 220009 69075 55131 54472 150934 146888 115945 104707 15306 13944 5363 30943 6173 4046 2843 1203 48635 11238 23127 8581 39166 17344 3652 24770 13692 12994 919 1202 2655 659 284 2708 7861 720 1641 698 5783 5695 88 3630 456 5694 203 78 25508 24156 21338 1352 18034 2818 701 651 2469 3304 456 504 197 195 349
is_linear=0
shrinkage=0.1


Tree=8
num_leaves=48
num_cat=0
split_feature=123 53 136 106 126 95 34 1 129 73 113 19 31 122 104 49 117 39 45 114 114 46 13 35 113 48 61 32 51 71 48 45 114 40 110 125 46 58 131 46 126 31 114 125 31 117 108
split_gain=2108.38 2489.24 1947.71 1957.65 1915.61 3589.4 1271.22 1012.28 944.252 880.242 1151.01 824.2 656.388 575.723 350.609 287.616 285.129 235.407 212.737 332.537 191.003 718.323 161.945 160.742 142.404 913.526 142.012 130.984 117.544 65.3723 27.4377 4.0074 2.28359 1.32322 0.634761 0.705984 0.552227 0.324004 0.11096 0.023836 0.00238764 0.00128991 0.000895814 0.000404639 0.000367358 0.000174408 9.49296e-05
threshold=-2.2684013843536373 1.1213710904121401 1.0000000180025095e-35 -0.93518108129501332 -1.7321271896362302 -0.9375854730606078 0.95045316219329845 0.41966880857944494 1.0000000180025095e-35 -0.69371584057807911 -1.3155503273010252 1.2057652473449709 0.96982324123382579 -1.9641190767288206 -0.91672056913375843 0.97177883982658397 -1.5375332832336424 0.99549272656440746 1.217386066913605 -1.3522104024887083 -1.3907881975173948 1.1965569853782656 0.82296550273895275 0.96240374445915233 -1.3325870037078855 1.2132415175437929 0.75631907582283031 0.9644438922405244 1.1732092499732973 -0.52865779399871815 1.2274466156959536 1.2203876376152041 -1.3907881975173948 1.0525886416435244 -1.2008336186408994 -2.7765511274337764 1.2356483340263369 0.91431286931037914 1.0000000180025095e-35 1.2205660939216616 -1.7823279500007627 0.99000805616378795 -0.92866182327270497 -1.3880656361579893 1.0019795298576357 -1.1181649565696714 -1.0077785849571226
decision_type=2 2 2 2 2 2 2 2 2 2 2 2 2 2 2 2 2 2 2 2 2 2 2 2 2 2 2 2 2 2 2 2 2 2 2 2 2 2 2 2 2 2 2 2 2 2 2
left_child=16 2 3 8 6 -6 -5 9 12 23 28 22 -2 -12 -10 -13 17 -1 20 31 21 -18 29 27 25 -22 -24 -3 -11 -9 -26 33 34 -20 35 -19 -33 -23 -17 -36 44 43 -43 -42 46 -46 -4
right_child=1 7 40 4 5 -7 -8 11 14 10 13 15 -14 -15 -16 38 18 32 19 -21 24 37 26 -25 30 -27 -28 -29 -30 -31 -32 36 -34 -35 39 -37 -38 -39 -40 -41 41 42 -44 -45 45 -47 -48
leaf_value=0.5655964655157536 0.024095241108695646 -0.14441013226297136 -0.10218708476283772 0.10078505748035588 0.073689203580496063 -0.052719232453853265 -0.036791289890463263 0.60907177992785078 -0.1321502812651297 0.019027404309455324 0.15391715361585034 0.37139715003321516 -0.074037433980597381 0.010936577200526303 0.20186477395525837 -0.11241145608061705 0.52785119984058593 -0.18648518577402068 -0.26705175598836506 0.15404653140842606 0.15041252543053396 -0.15737687260525868 -0.11820743457903644 0.30166511616182345 0.15530051974447195 -0.23114812739345073 0.34587987834702072 0.012141663119012845 -0.13503528903740855 0.39985492893159713 0.12318798198927471 -0.17348819999843706 -0.20880094196433749 -0.19946592481890221 -0.11470978068918843 -0.1077254244697121 -0.14689331725315533 -0.11388611680921377 -0.12073991174535843 -0.10857745089900964 -0.10213684689684516 -0.10209049277696272 -0.10242462374881467 -0.10164908057067717 -0.10153223049007143 -0.10238104585392821 -0.10276132415061777
leaf_weight=5.4394856095314017 1524.6638247026131 663.04966943152249 2.993826448917388 34722.458188279532 50644.256310948171 2350.5660839574412 684.88345764763653 31.115195475518703 35.46090828999877 54.880836267024279 382.01566308829933 14.857397751882671 1232.6789604118094 1071.5518621578813 276.1989763379097 37.702744663693011 50.132736250758171 2.6329878009855747 3.7273206263780621 74.399646773934364 450.98286131024361 1.8416377231478716 8.356170289218424 8.6580463564023358 3558.3104540407658 72.888384744524956 31.260197356343269 58.129903841763735 507.24090705253184 28.720002248883247 287.57534924149513 11.42453598231077 2.8419077247381201 13.000955659896134 45.437460064888 2.0046151131391516 24.661933340132236 24.523574162274599 27.786366630345583 7.3659813115373245 22.381508581340313 307.14273532945663 108.61326742358506 70.83464462775737 2.7902052663266685 18.278628814034164 74.946637919172645
leaf_count=6 12444 3714 153 60370 113067 8976 1672 15 234 337 258 8 22742 4270 288 461 20 15 16 18 80 13 78 21 467 302 20 183 6758 30 135 51 12 56 417 32 123 238 229 125 1098 15833 4834 4539 191 813 2882
internal_value=0 0.0733181 0.0762033 0.077389 0.0801148 0.0680824 0.0981239 -0.0174962 -0.00112694 -0.03255 0.00152141 0.212375 -0.0197753 0.0485137 0.16386 -0.0258275 0.142359 -0.0644483 0.145331 0.0178256 0.148979 0.305628 0.404817 -0.126649 0.146237 0.0973244 0.247991 -0.131791 -0.119994 0.508651 0.152899 -0.174067 -0.121299 -0.214525 -0.11697 -0.152441 -0.155313 -0.116924 -0.115945 -0.113854 -0.10219 -0.102102 -0.102178 -0.101766 -0.102639 -0.102269 -0.102739
internal_weight=0 95004.5 92079.1 91471.2 88402.2 52994.8 35407.3 2925.32 3069 2745.53 2015.69 179.798 2757.34 1453.57 311.66 80.3465 4639.19 65.7224 4573.47 127.214 4446.25 76.4979 99.4516 729.838 4369.76 523.871 39.6164 721.18 562.122 59.8352 3845.89 52.8147 60.283 16.7283 57.441 4.6376 36.0865 26.3652 65.4891 52.8034 607.981 508.972 415.756 93.2162 99.0093 21.0688 77.9405
internal_count=268644 266518 250136 219793 184085 122043 62042 16382 35708 15541 11623 841 35186 4528 522 698 2126 607 1519 264 1255 271 143 3918 984 382 98 3897 7095 45 602 246 601 72 589 47 174 251 690 542 30343 26304 20667 5637 4039 1004 3035
is_linear=0
shrinkage=0.1


Tree=9
num_leaves=52
num_cat=0
split_feature=123 31 130 29 101 32 30 134 22 121 75 52 112 125 97 33 77 46 54 102 129 67 103 26 126 106 135 73 116 30 75 35 45 31 49 114 48 116 48 108 33 40 102 49 46 46 45 36 37 40 38
split_gain=1991.49 2206.07 3410.37 2361.66 3172.33 2362.89 1735.67 1376.44 3686.03 2629.08 2453.88 3126.9 1867.75 1575.6 2661.99 2121.9 768.234 708.784 693.185 676.007 606.974 455.681 451.808 447.62 320.946 314.64 280.696 268.366 257.494 254.113 226.096 202.839 201.38 158.425 117.672 235.539 695.186 102.56 52.6256 0.895919 0.585392 0.408272 0.143725 0.133361 0.0898186 0.0114806 0.00281416 0.0026606 0.00110342 0.000606754 0.000275036
threshold=-2.2684013843536373 0.99529448151588451 1.0000000180025095e-35 1.2300296425819399 -0.79067257046699513 0.91537830233573925 1.0882077217102053 1.0000000180025095e-35 1.3067952394485476 -1.2959426045417783 -1.0523490905761717 1.0383505225181582 -1.0334814786911009 -1.4704596996307371 -0.92533966898918141 0.94807717204093944 -1.0979315638542173 1.1539247035980227 0.96497040987014782 -0.9465770125389098 1.0000000180025095e-35 0.034335033968091018 -0.9691859483718871 1.2696410417556765 -1.8497728705406187 -0.87510228157043446 1.0000000180025095e-35 -0.68519470095634449 -1.4952772855758665 1.0341769456863406 -1.0792919993400572 0.82878896594047557 1.2203876376152041 0.99258938431739818 1.1846290826797488 -1.3833884000778196 1.2132415175437929 -1.4414005875587461 1.2274466156959536 -1.0459087491035459 0.82005673646926891 1.0557341575622561 -0.57671105861663807 1.233787536621094 1.2356483340263369 1.2205660939216616 1.2203876376152041 0.89175933599472057 0.92010238766670238 1.0565488934516909 0.97911140322685253
decision_type=2 2 2 2 2 2 2 2 2 2 2 2 2 2 2 2 2 2 2 2 2 2 2 2 2 2 2 2 2 2 2 2 2 2 2 2 2 2 2 2 2 2 2 2 2 2 2 2 2 2 2
left_child=28 2 3 4 6 -6 -2 12 9 17 11 -10 20 15 -15 -14 22 -9 -12 33 31 -22 30 27 -11 -25 -21 -18 39 -24 -4 -3 34 -5 -30 36 -36 41 -37 40 -1 43 -42 -34 -43 47 49 48 -41 -47 -49
right_child=1 7 16 19 5 -7 -8 8 10 24 18 -13 13 14 -16 -17 23 -19 -20 26 21 -23 29 25 -26 -27 -28 -29 32 -31 -32 -33 37 -35 35 38 -38 -39 -40 45 42 44 -44 -45 -46 46 -48 50 -50 -51 -52
leaf_value=-0.18914177221989087 -0.0075654954913268796 0.064654450240368283 0.37026619167419128 -0.089086096336857032 0.014521596898903828 0.093616066902097311 0.072417185129987557 0.17950590231619276 0.087812468102349148 -0.037290737833514102 -0.14260254185855648 -0.10232105300969706 0.11320463780288839 0.074445258427358232 -0.11479340453125829 0.010284965850360442 -0.11015926496811773 -0.16355270916042081 0.15783325832816619 -0.13497810973867772 0.17877859263495746 -0.10704784625656004 -0.16279758902266178 -0.011594271159955363 -0.12628100957617228 0.23100592914454571 0.13471877173421798 0.038243407123421246 0.21732480277817243 -0.081848948595775045 -0.11826015272516073 -0.077049808346950799 -0.17692848271320333 0.19838408362016588 0.13837670338209562 0.14631398357846459 -0.18044938648741607 0.1395491055832225 0.10545253845779851 -0.11614126382449877 -0.10761126862688924 -0.15157253026775441 -0.14857019990426282 -0.1544038051327325 -0.13822061383173159 -0.11071070742885809 -0.10383933641703079 -0.11281775120465234 -0.11394766357592501 -0.10788561283717105 -0.11193915583276302
leaf_weight=2.6952880667522541 11315.343938554637 112.65868408512324 29.719118448905647 174.79123326018453 5117.9409386171028 14416.15236949455 3568.8990948805586 497.62294504791498 2981.9778964556754 540.09334766864777 78.812564536929131 1218.3620869219303 24620.946800887585 15383.512668840587 781.08018342033029 2180.6346057588235 235.8586218636483 68.517382234334946 3003.3378918170929 38.948054362088442 207.21126343309879 76.32124262675643 611.34054583497345 87.309600811451674 1623.5187854990363 137.89339418150485 4208.1310052871704 252.10384258627892 182.25538490712643 1060.5556090231985 13.906705163419245 977.36095455288887 4.8876892030239087 21.532302010804415 272.52064576745033 3456.3883838057518 91.302919086068869 18.560011088848114 346.81368541717529 2.8766447678208378 1.819438733160496 6.7425382826477316 1.6190755926072595 5.6867735963314772 19.932327903807163 1.7675572857260697 1.2278117444366214 9.5056644082069379 11.304319180548189 1.3339831084012983 5.6991499811410895
leaf_count=21 63592 1711 90 952 29236 21980 7659 485 5626 1642 387 4990 39644 42591 4620 4881 1082 311 3363 521 114 312 4099 364 7181 50 2423 706 37 5634 146 10094 21 32 184 505 544 6 212 25 28 40 18 27 118 21 38 95 106 20 60
internal_value=0 0.0654901 0.0480653 0.0552498 0.0463924 0.0728933 0.0116125 0.0787274 0.0452385 -0.0538657 0.0823864 0.0326618 0.0862895 0.0899591 0.0653012 0.104831 -0.066896 0.137987 0.150151 0.123859 -0.0285003 0.10184 -0.103159 0.0203336 -0.104067 0.136952 0.132246 -0.0334876 0.133963 -0.111448 0.214538 -0.062404 0.136252 -0.057557 0.138674 0.135234 0.0583661 -0.0524973 0.142588 -0.119095 -0.154249 -0.148187 -0.126897 -0.164815 -0.141596 -0.112699 -0.107891 -0.113407 -0.114393 -0.109496 -0.112488
internal_weight=0 95642.4 41290.4 38861.7 34418.3 19534.1 14884.2 54352 10012.2 2729.75 7282.49 4200.34 44339.7 42966.2 16164.6 26801.6 2428.69 566.14 3082.15 4443.4 1373.55 283.533 1715.52 713.165 2163.61 225.203 4247.08 487.962 4444.94 1671.9 43.6258 1090.02 4405.09 196.324 4349.28 4167.03 363.824 55.8093 3803.2 39.8489 6.1338 37.2493 3.43851 10.5745 26.6749 33.7151 4.32935 29.3858 14.181 3.10154 15.2048
internal_count=268644 266518 138566 126395 122467 51216 71251 127952 23985 9619 14366 10616 103967 91736 47211 44525 12171 796 3750 3928 12231 426 9969 2202 8823 414 2944 1788 2126 9733 236 11805 1694 984 1482 1445 728 212 717 432 67 206 46 48 158 365 79 286 131 41 155
is_linear=0
shrinkage=0.1


Tree=10
num_leaves=48
num_cat=0
split_feature=123 52 133 126 96 31 0 108 118 81 20 46 69 101 0 15 129 117 45 115 96 40 49 113 47 108 63 40 45 49 101 37 113 114 106 110 46 126 21 78 48 106 106 31 31 107 107
split_gain=1888.18 1887.91 1587.71 1707.58 2954.47 1679.97 1324.61 1140.84 1101.59 1457.03 899.768 801.558 737.874 721.253 689.16 326.615 235.875 205.117 169.852 535.114 159.337 138.65 86.6944 170.76 647.274 28.8824 26.4172 73.5995 8.99864 8.45327 7.58174 4.53126 2.55208 0.990791 0.557973 0.321933 0.224119 0.191085 0.109435 0.0517478 0.0158724 0.0117261 0.00858275 0.00517097 0.00102015 0.000966086 0.000504356
threshold=-2.2684013843536373 1.1391261816024782 1.0000000180025095e-35 -1.7289929986000059 -0.91897642612457264 1.0025238394737246 0.34204415977001196 -1.0315872430801389 -1.0497087836265562 -1.2923617362976072 1.1740555167198183 1.2253538370132449 -0.044989649206399911 -0.71588358283042897 0.423179641366005 1.0816407799720766 1.0000000180025095e-35 -1.5375332832336424 1.214788615703583 -1.4054706692695615 -0.99140593409538258 1.0352737307548525 1.1846290826797488 -1.3325870037078855 1.2101073861122134 -1.0459087491035459 0.65274265408515941 1.0411698222160342 1.2203876376152041 1.2206103801727297 -0.70956107974052418 0.922571361064911 -1.3325870037078855 -1.3907881975173948 -0.92678555846214283 -1.2008336186408994 1.2356483340263369 -3.0817427635192867 0.89514011144638073 -1.1060226559638975 1.2181515693664553 -0.92471191287040699 -0.9236919879913329 1.0015475749969485 1.0019795298576357 -0.95530474185943592 -0.95530474185943592
decision_type=2 2 2 2 2 2 2 2 2 2 2 2 2 2 2 2 2 2 2 2 2 2 2 2 2 2 2 2 2 2 2 2 2 2 2 2 2 2 2 2 2 2 2 2 2 2 2
left_child=17 2 3 8 5 -5 -6 25 9 -2 11 13 -10 -9 16 -16 -12 21 22 28 -13 -1 -19 24 -24 31 30 -28 32 -25 -27 34 -20 35 -3 37 -30 -23 -33 42 -37 45 46 -44 -43 -41 -4
right_child=1 7 39 4 6 -7 -8 10 12 -11 14 20 -14 -15 15 -17 -18 18 19 -21 -22 33 23 29 -26 26 27 -29 36 -31 -32 38 -34 -35 -36 40 -38 -39 -40 41 -42 44 43 -45 -46 -47 -48
leaf_value=0.33092598440194393 -0.0073652626410946123 -0.12012474008412968 -0.10206702159731824 0.042166652601979104 -0.14240034387818687 0.079311788882986858 0.00036595297296739302 -0.0095055778688453458 0.15314305248139085 0.078299810691332239 -0.14229373025147316 0.35013940710013208 0.078785171373286583 0.099182078666346915 0.31424217616597799 -0.042107496503766578 0.0098471076779386123 0.20355871487278465 -0.17731856140005245 0.14398027141698189 -0.10919411284600847 -0.16136041691196037 0.14112311240670367 0.14022800989441483 -0.15776292928725319 -0.12557208726038485 0.14838801690577072 -0.14740187796344525 -0.1531207964968383 0.11696309616277739 -0.1965341339046506 -0.1378947495164449 -0.23079393741480742 -0.17548194659966845 -0.17307837961329883 -0.11258142053037777 -0.13513761226876314 -0.11797313950857535 -0.1032117405974272 -0.10168861667758709 -0.1082115761026099 -0.10279114740831521 -0.10364023820659525 -0.1056479110959556 -0.10384064117872849 -0.10258941209164994 -0.10320419506050345
leaf_weight=7.971120059490203 2130.7915876014158 2.4210852580144993 4.7968366034328964 26577.110786183737 768.62355083134025 22469.920535745099 4206.8830727040768 975.88959495630115 3106.0505878850818 29108.421193928458 580.0374301597476 7.7145175933837882 2339.8638728745282 1630.9518394088373 59.20738990418613 45.476560341194272 123.62227889895439 175.81481391191483 13.337234679609535 172.62755790352821 358.42195859830827 2.1493323687463999 303.98843333870173 3180.2478698045015 95.131098590791225 16.837346997112036 8.7864576205611211 197.48011102620512 10.53914579562843 164.24451179802418 142.33234611619264 0.91518595162778993 26.974443510174751 2.765954226255416 11.17176025174558 33.598835252225399 20.238009333610535 1.9235177598893631 153.22980613354594 367.55707829724997 11.044380148872731 100.34441442042589 17.186065869405866 50.599912025034428 10.203833338804541 12.30450644250959 20.864479212090373
leaf_count=7 4594 85 248 85204 3562 44388 13251 3347 1817 59202 3678 1 2461 2199 114 421 549 31 64 39 1889 13 82 460 498 176 4 1785 51 67 700 10 112 12 57 351 115 34 6372 23372 190 3834 548 1067 308 547 728
internal_value=0 0.058929 0.0619839 0.063042 0.0517355 0.059184 -0.0216888 -0.00571046 0.0796919 0.0724567 0.0135986 0.0390344 0.121195 0.0584941 -0.0799509 0.159438 -0.115565 0.12726 0.129894 0.0488921 -0.0995159 -0.0571711 0.134931 0.131708 0.0698829 -0.142652 -0.158421 -0.134802 -0.182014 0.139085 -0.189028 -0.108298 -0.213101 -0.117261 -0.163647 -0.113956 -0.141296 -0.14087 -0.103418 -0.102393 -0.1115 -0.101982 -0.104549 -0.105139 -0.102888 -0.101718 -0.102992
internal_weight=0 95606 91291.5 90707.7 54022.5 49047 4975.51 4314.5 36685.1 31239.2 3781.32 2972.98 5445.91 2606.84 808.344 104.684 703.66 4222.6 4163.14 243.716 366.136 59.4531 3919.43 3743.61 399.12 533.174 365.436 206.267 71.0888 3344.49 159.17 167.738 40.3117 51.482 13.5928 48.7161 30.7772 4.07285 154.145 583.857 44.6432 490.41 93.4473 67.786 110.548 379.862 25.6613
internal_count=268644 266518 245131 214479 146405 129592 16813 21387 68074 63796 12198 7436 4278 5546 4762 535 4227 2126 1519 381 1890 607 1138 1107 580 9189 2665 1789 342 527 876 6524 176 600 142 588 166 47 6382 30652 541 28061 2591 1615 4142 23919 976
is_linear=0
shrinkage=0.1


Tree=11
num_leaves=46
num_cat=0
split_feature=123 53 136 105 29 124 1 30 29 113 45 10 135 104 1 117 49 45 115 12 39 49 113 47 102 17 101 27 49 45 130 40 114 110 46 126 131 47 126 31 114 31 30 117 113
split_gain=1809.99 1557.41 1542.35 1397.4 1495.19 2927.9 745.062 528.643 417.439 691.356 450.985 397.12 366.197 318.467 291.692 178.658 177.813 151.473 452.993 133.641 107.142 68.2023 152.929 551.956 66.9121 112.773 41.2017 81.7402 8.66455 5.34481 4.18137 1.64478 0.665866 0.242672 0.14722 0.127551 0.0793028 0.0108563 0.00341834 0.00249401 0.000894677 0.000318877 0.0003159 0.000292856 0.000196915
threshold=-2.2684013843536373 1.1268113851547243 1.0000000180025095e-35 -0.92008915543556202 1.2300296425819399 -1.2648195624351499 0.41966880857944494 1.0969202518463137 1.0472722649574282 -1.3155503273010252 1.2203876376152041 0.67230036854743969 1.0000000180025095e-35 -0.93566423654556263 0.57325074076652538 -1.5375332832336424 0.97177883982658397 1.214788615703583 -1.4054706692695615 1.0000000180025095e-35 0.99549272656440746 1.1846290826797488 -1.3325870037078855 1.2101073861122134 -0.75993573665618885 0.99846935272216808 -0.89312487840652455 1.2284716963768008 1.2206103801727297 1.2203876376152041 1.0000000180025095e-35 1.0510010719299319 -1.3907881975173948 -1.2008336186408994 1.2356483340263369 -3.0817427635192867 1.0000000180025095e-35 1.2224841117858889 -1.7752951383590696 0.99000805616378795 -0.92866182327270497 1.0019795298576357 1.0894976854324343 -1.1181649565696714 -1.0531050562858579
decision_type=2 2 2 2 2 2 2 2 2 2 2 2 2 2 2 2 2 2 2 2 2 2 2 2 2 2 2 2 2 2 2 2 2 2 2 2 2 2 2 2 2 2 2 2 2
left_child=15 2 3 7 5 -5 8 12 9 19 -11 26 -2 -9 -6 20 -13 21 29 -3 -1 -17 23 -23 25 -10 27 -8 -24 31 -26 -19 33 35 -31 -22 -18 -35 41 42 -41 44 -40 -43 -4
right_child=1 6 38 4 14 -7 11 13 24 10 -12 16 -14 -15 -16 17 36 18 -20 -21 32 22 28 -25 30 -27 -28 -29 -30 34 -32 -33 -34 37 -36 -37 -38 -39 39 40 -42 43 -44 -45 -46
leaf_value=0.25977478047719565 -0.025784152871851502 0.2359503719002258 -0.10259201875360412 0.06296078646909016 -0.15257053315681596 0.011768179361852526 0.042004020141458008 -0.07578176446178464 0.020047050882295598 0.05430622851127468 -0.14922839941387836 0.24241109957361542 -0.13904088660976802 0.077155051845528899 0.12073447348530784 0.19128271325747065 -0.11096754264495563 -0.246000797587688 0.13640091051247283 -0.13621446955851291 -0.15370545616742426 0.13478677582730128 0.13464392947779361 -0.14569724841756387 -0.16588821948109606 -0.12889086012828829 0.34232450274263027 0.28600459110340987 0.11052934262625147 -0.14579504276539509 -0.14051292512095326 -0.18474295873626723 -0.16388580246565676 -0.1110571542293915 -0.13078495100175574 -0.1169228111993518 -0.11855993270933243 -0.10701034739479319 -0.10162470234775245 -0.10215635912869046 -0.10248720543211809 -0.10144568180397251 -0.10281691857302429 -0.10255582033462535 -0.10293302536806102
leaf_weight=9.0722658932208997 1271.5287675997242 9.8794007673859578 23.006511909887195 73421.083709170111 39.443703286349773 13177.428654145449 18.668085901066661 170.69806609861553 70.471988747827709 802.58347928524017 125.94825923629105 18.627459414303303 368.14454205520451 672.87034037429839 3919.9565210305154 168.75230669975281 31.642542741261423 5.0070617496967307 164.42152991890907 413.24962441250682 2.0365578085184102 287.31354855000973 2990.6885661780834 92.827535267919302 197.37579660955817 182.48059078957886 46.976156145334244 51.897817902266979 156.81264971196651 9.9900476131588238 96.777944661676884 35.175579972565174 2.670323818922042 32.53060482814908 18.889753323048353 1.7553166169673193 24.339198745787144 8.325752589851616 84.923446622677147 310.70257559325546 110.91413802560419 2.6612534485757378 2.2822159659117451 22.192216324619949 64.152753824368119
leaf_count=6 18174 19 965 151848 200 44462 82 1924 510 2264 736 8 2193 1507 2329 31 435 21 39 5935 13 82 460 498 1263 1429 15 21 67 51 496 155 12 376 115 34 222 166 5528 15559 4834 193 100 926 2341
internal_value=0 0.0529354 0.0548409 0.0558891 0.0579185 0.055171 -0.0324215 -0.0181186 -0.051411 -0.0215803 0.0266983 0.155226 -0.0512129 0.0462079 0.118012 0.121707 -0.0252173 0.124243 0.0461277 -0.127525 -0.055024 0.129178 0.126207 0.0662947 -0.125109 -0.0873971 0.269761 0.221455 0.133443 -0.168792 -0.15754 -0.192376 -0.11538 -0.112478 -0.135977 -0.136678 -0.114268 -0.110232 -0.102253 -0.102143 -0.102243 -0.102753 -0.101656 -0.102437 -0.102843
internal_weight=0 95752.9 93662 93041.2 90557.9 86598.5 2090.92 2483.24 1898.77 1351.66 928.532 192.151 1639.67 843.568 3959.4 3986.27 74.6092 3929.88 233.484 423.129 56.3908 3696.39 3527.64 380.141 547.106 252.953 117.542 70.5659 3147.5 69.0624 294.154 40.1826 47.3186 44.6482 28.8798 3.79187 55.9817 40.8564 620.835 508.822 421.617 112.013 87.2057 24.8535 87.1593
internal_count=268644 266518 253083 222637 198839 196310 13435 23798 12652 8954 3000 783 20367 3431 2529 2126 665 1519 381 5954 607 1138 1107 580 3698 1939 118 103 527 342 1759 176 601 589 166 47 657 542 30446 26021 20393 4425 5628 1119 3306
is_linear=0
shrinkage=0.1


Tree=12
num_leaves=47
num_cat=0
split_feature=123 31 29 125 30 111 52 106 130 32 105 104 108 131 131 102 75 56 101 56 38 126 6 91 3 117 77 45 115 74 40 49 113 47 49 102 45 113 114 113 110 92 46 80 126 40
split_gain=1731.19 1393.79 1735.26 2582.56 2053.99 2158.8 1821.62 1161.04 1043.44 1287.41 1906.82 1119.52 892.925 861.234 844.352 795.955 712.137 697.38 570.635 561.107 1154.61 397.315 319.545 220.541 197.478 156.051 137.704 135.103 386.963 130.969 87.6209 54.0191 137.892 473.02 9.00291 8.65653 3.30648 0.863038 0.448776 0.327801 0.179143 0.118137 0.0983293 0.0980823 0.0855845 0.00946737
threshold=-2.2684013843536373 1.0025238394737246 1.2300296425819399 -1.586828827857971 1.0939924716949465 -0.89548027515411366 1.1391261816024782 -0.92471191287040699 1.0000000180025095e-35 0.95589664578437816 -0.84229791164398182 -0.84097775816917408 -1.0315872430801389 1.0000000180025095e-35 1.0000000180025095e-35 -0.93837743997573841 -1.1331537961959837 0.94208452105522167 -0.95478206872940052 0.95967262983322155 0.95880398154258739 -1.6082786321640012 0.66031083464622509 -1.0967549681663511 0.62616038322448742 -1.5375332832336424 -1.090987980365753 1.214788615703583 -1.4054706692695615 -1.0303271412849424 1.0352737307548525 1.1846290826797488 -1.3325870037078855 1.2101073861122134 1.2206103801727297 -0.9465770125389098 1.2203876376152041 -1.3325870037078855 -1.3907881975173948 -0.95282441377639759 -1.2008336186408994 -1.1111264824867246 1.2356483340263369 -1.3993251919746397 -3.0817427635192867 1.0397332906723025
decision_type=2 2 2 2 2 2 2 2 2 2 2 2 2 2 2 2 2 2 2 2 2 2 2 2 2 2 2 2 2 2 2 2 2 2 2 2 2 2 2 2 2 2 2 2 2 2
left_child=25 2 3 6 5 -5 7 -2 9 11 14 17 -8 -12 -11 -6 41 -3 23 20 -18 -21 -13 35 39 30 -25 31 36 -26 -1 -27 33 -33 -34 -4 37 -29 40 -20 44 43 -38 -10 -32 -42
right_child=1 8 18 4 15 -7 12 -9 16 10 13 22 -14 -15 -16 -17 19 -19 24 21 -22 -23 -24 26 29 27 -28 28 -30 -31 38 32 34 -35 -36 -37 42 -39 -40 -41 45 -43 -44 -45 -46 -47
leaf_value=0.2179225703800968 0.0063517010483872122 0.060057056178467016 -0.1657061694923217 -0.017017852876156783 -0.11343868138926667 0.049165797131583026 -0.1377478891515386 0.067876960023256452 -0.10839131618497984 0.0078028727294392241 0.028823305614221851 0.13556899012595153 0.0065276899456619382 0.10574773752420095 -0.096235456963201196 0.10342425863075083 0.089182612349994222 -0.14204574261071193 -0.1299059662944424 0.13226367229607303 -0.10910688235659126 -0.19375052521911584 0.037370596719268519 0.072320691835691717 -0.22790356744584048 0.18082313802260969 -0.12827731298833947 -0.15491878442855933 0.12994909498742865 0.11351095205492122 -0.14721081917987658 0.12927308687161962 0.12993303747346394 -0.13520407185247632 0.10473309831590982 -0.24428265864550039 -0.13974850396880217 -0.1869065669275323 -0.15462495691223974 -0.1563583824393775 -0.11765341361687794 -0.13831556386696783 -0.12708053612214934 -0.11608646512888106 -0.11590287931555121 -0.10907056329623338
leaf_weight=9.7401561290025693 3445.0057462481782 7593.3000425761566 59.892682323232293 16910.610889291391 180.13272540271282 6955.6140897301957 492.99531166814268 27966.546760638244 18.828521264716983 1819.1738849682733 3766.2044797111303 2980.2576973233372 3303.200990778394 2372.1385542973876 1365.6964420452714 2800.29780799523 4869.8967467471957 174.66309258993715 26.95109577383846 3519.6295269578695 312.49635176360607 37.783243454992771 372.83350231591612 126.72852267045528 11.267689839005468 161.06138075888157 46.880434924736619 12.244540322571991 155.7738524377346 3966.833247538656 1.9197931140661242 270.48266829550266 2799.0746425539255 90.167505566030741 149.33336216211319 18.305506646633148 9.4099125824868697 27.106906607747078 2.5532187893986693 5.6702889055013648 1.3327548652887333 2.2349338233470908 17.564480585977435 137.69985103979707 1.6015477050095785 36.007775657810271
leaf_count=7 33672 18398 271 66019 1123 27546 9184 48771 290 8805 13021 2596 10107 2539 5052 3677 5343 987 180 1814 1090 175 991 274 47 31 431 64 39 2784 13 82 460 498 67 78 51 112 12 25 13 12 115 1216 34 528
internal_value=0 0.0476764 0.0396472 0.0354076 0.0120455 0.00227083 0.0532218 0.0611293 0.0658229 0.0533819 0.0259749 0.0763583 -0.0122087 0.0585505 -0.0368095 0.0903174 0.094406 0.0555128 0.101367 0.0982188 0.0772258 0.128801 0.12465 -0.0446568 0.110535 0.116981 0.0181523 0.11943 0.043819 0.112544 -0.0531391 0.12427 0.121517 0.0631502 0.128657 -0.1841 -0.158468 -0.176953 -0.113952 -0.134504 -0.11141 -0.115487 -0.1315 -0.115161 -0.132972 -0.109377
internal_weight=0 95659.8 66316.9 62054.4 26846.7 23866.2 35207.7 31411.6 29342.8 20444.3 9323.21 11121.1 3796.2 6138.34 3184.87 2980.43 8898.57 7767.96 4262.53 8739.81 5182.39 3557.41 3353.09 251.807 4010.72 3745.37 173.609 3692.22 222.1 3978.1 53.1552 3470.12 3309.06 360.65 2948.41 78.1982 66.3258 39.3514 43.4151 32.6214 40.8619 158.763 26.9744 156.528 3.52134 37.3405
internal_count=268644 266518 204189 200099 98365 93565 101734 82443 62329 52389 29417 22972 19291 15560 13857 4800 9940 19385 4090 8422 6433 1989 3587 1054 3036 2126 705 1519 381 2831 607 1138 1107 580 527 349 342 176 600 205 588 1518 166 1506 47 541
is_linear=0
shrinkage=0.1


Tree=13
num_leaves=42
num_cat=0
split_feature=123 0 133 136 31 130 70 117 106 46 117 39 49 112 49 113 51 114 45 112 114 45 19 40 38 125 114 110 69 79 30 106 48 106 31 127 31 107 31 52 106
split_gain=1644.48 1274.73 1265.24 1265.3 1048.27 1732.41 805.495 136.748 128.477 122.481 408.119 73.0605 41.4151 121.56 272.047 28.5679 11.2053 11.5884 9.92666 4.34467 1.94241 1.84047 0.890121 2.53089 0.718272 0.382352 0.309924 0.135928 0.0649394 0.0518414 0.0362303 0.0165417 0.00607332 0.00564838 0.00485974 0.00332392 0.00223852 0.00178643 0.00158444 0.000496392 0.000282803
threshold=-2.2684013843536373 -0.28250677883625025 1.0000000180025095e-35 1.0000000180025095e-35 1.0015475749969485 1.0000000180025095e-35 -0.21487197279930112 -1.5375332832336424 -0.94856542348861683 1.2253538370132449 -1.5084647536277769 0.99549272656440746 1.1846290826797488 -1.2867581844329832 1.1924184560775759 -1.3325870037078855 1.2034946680068972 -1.3436776399612425 1.214788615703583 -1.2803115248680113 -1.3907881975173948 1.2203876376152041 0.84384140372276317 1.0517972111701968 0.96377107501029979 -2.7765511274337764 -1.3907881975173948 -1.2008336186408994 0.073515158146619811 -1.1314469575881956 0.81444874405860912 -0.92471191287040699 1.2181515693664553 -0.9236919879913329 1.0015475749969485 -1.9325801730155943 0.99000805616378795 -0.95530474185943592 1.0015475749969485 1.1391261816024782 -0.93518108129501332
decision_type=2 2 2 2 2 2 2 2 2 2 2 2 2 2 2 2 2 2 2 2 2 2 2 2 2 2 2 2 2 2 2 2 2 2 2 2 2 2 2 2 2
left_child=7 8 3 4 5 -3 -6 11 -2 12 18 -1 -9 14 -14 -15 -12 -18 19 -11 24 -20 25 -24 -10 -22 27 28 -13 33 -26 37 -29 40 -35 39 -37 -31 -33 -5 -4
right_child=1 2 29 35 6 -7 -8 9 20 10 16 26 13 15 -16 -17 17 -19 21 -21 22 -23 23 -25 30 -27 -28 32 -30 31 -32 38 -34 34 -36 36 -38 -39 -40 -41 -42
leaf_value=0.18860312564336271 0.23755606940238408 0.043402885365034949 -0.10260689991802119 -0.10264647844920466 0.061550049468919898 -0.014844502218536802 -0.13158873778886224 0.17167593437009557 -0.14739314486199576 -0.19633286571726238 0.13121056962542116 -0.11758454967184673 0.13830789753950973 0.086656271339254076 -0.15493488996806182 0.12543283536690283 0.022258365122751162 0.11467140930986558 -0.16455721943228677 -0.34074701013088293 -0.1479703455148913 -0.12760257248483411 -0.18762939795954103 -0.13916756292759891 -0.1161544334219345 -0.13458302101908876 -0.14708886961856713 -0.1090720138802402 -0.14613585506754312 -0.10157587812024305 -0.1025554702898714 -0.10278299324317131 -0.1059655059391279 -0.10360928929053158 -0.10565705137054236 -0.10149312144466066 -0.10207491328208843 -0.10264259144181512 -0.10389154907142424 -0.10194761084626909 -0.10343830978674998
leaf_weight=10.110516905784605 9.4104592371731979 55389.226361804642 6.8202238669618991 102.96230313554406 32317.107094034553 5624.7259443821386 217.38786320388317 153.09325449168682 4.489330759271982 4.2247424311935902 163.45564226806164 1.8806308843195432 81.918374590575695 204.50650335103273 51.541795931756496 2677.3061556518078 21.711488679051399 36.183089002966881 36.166685895994306 4.1097718924283964 22.976342350244522 21.481666686013341 13.070368221029637 61.401312016882002 2.1539729442447451 298.4970584185794 2.4223541095852843 25.79200791940093 1.3820698112249372 348.83687892137095 21.656680271960795 128.02538562566042 8.3245584946125728 15.323815936222671 47.552946218289435 79.704437742009759 388.43361597228795 16.439548576250672 14.337079842574893 11.276384503114967 10.224672861397265
leaf_count=6 7 125992 297 4229 52987 20068 889 31 38 21 29 28 25 151 388 488 42 12 168 20 116 144 75 332 59 1597 12 352 19 23909 1234 5023 190 494 1010 5683 20310 730 456 651 332
internal_value=0 0.0431521 0.0439352 0.0448484 0.0457631 0.0380332 0.0602595 0.112893 -0.127906 0.115267 0.0527509 -0.051447 0.120936 0.11836 0.0250587 0.122681 0.11782 0.0800149 -0.165535 -0.267544 -0.136013 -0.150787 -0.137822 -0.147673 -0.110703 -0.13554 -0.112425 -0.110179 -0.129679 -0.102353 -0.103786 -0.10198 -0.108314 -0.10472 -0.105158 -0.102094 -0.101976 -0.101624 -0.102895 -0.102577 -0.103106
internal_weight=0 95152 94718.4 94130.8 93548.4 61014 32534.5 3505.61 433.656 3455.7 287.333 49.9121 3168.37 3015.27 133.46 2881.81 221.35 57.8946 65.9829 8.33451 424.245 57.6484 395.945 74.4717 28.3 321.473 39.8016 37.3793 3.2627 587.561 23.8107 507.639 34.1166 79.9217 62.8768 582.377 468.138 365.276 142.362 114.239 17.0449
internal_count=268644 266518 263060 230809 199936 146060 53876 2126 3458 1519 436 607 1083 1052 413 639 83 54 353 41 3451 312 2120 407 1331 1713 601 589 47 32251 1293 30118 542 2133 1504 30873 25993 24639 5479 4880 629
is_linear=0
shrinkage=0.1


Tree=14
num_leaves=50
num_cat=0
split_feature=123 29 124 115 76 30 116 101 114 84 114 73 117 113 116 103 126 2 31 30 75 74 104 89 117 49 114 91 40 113 49 114 52 45 113 50 113 114 31 45 113 104 114 118 113 30 110 69 40
split_gain=1563.98 1097.64 2254.02 2312.5 3780.55 2288.96 1689.24 1501.99 1388.86 1327.29 1292.11 1077.85 932.527 781.229 647.458 534.102 457.793 271.43 239.591 152.01 171.348 145.981 136.925 129.721 119.973 112.296 535.081 111.646 62.4649 48.3843 30.6961 93.4764 266.154 14.3863 21.5684 12.2779 15.2126 4.35097 2.53355 1.1764 1.09814 0.978289 0.211753 0.206147 0.138723 0.111439 0.0996155 0.0470689 0.0133475
threshold=-2.2684013843536373 1.2300296425819399 -1.2648195624351499 -0.94436869025230397 -1.1921088695526121 1.0859191417694094 -0.92536282539367665 -0.85832881927490223 -0.9372892677783965 -1.3768064379692075 -0.98384863138198841 -0.92116880416870106 -0.91768503189086903 -0.94630783796310414 -0.93251368403434742 -0.93503764271736134 -1.412395119667053 0.5971285104751588 0.98873183131217968 1.1061799526214602 -1.0833914279937742 -1.0303271412849424 -0.91775444149970997 -1.0932315587997434 -1.5375332832336424 1.2180386185646059 -1.3654413819313047 -1.0940160751342771 1.0352737307548525 -0.91771623492240895 1.1846290826797488 -1.3833884000778196 1.1510215401649477 1.214788615703583 -1.3325870037078855 1.2176027297973635 -1.2946964502334593 -1.3751712441444395 1.0009222626686098 1.2203876376152041 -0.95282441377639759 -0.93566423654556263 -1.3907881975173948 -1.5520014166831968 -0.95282441377639759 1.0981366038322451 -1.2008336186408994 0.073515158146619811 1.0397332906723025
decision_type=2 2 2 2 2 2 2 2 2 2 2 2 2 2 2 2 2 2 2 2 2 2 2 2 2 2 2 2 2 2 2 2 2 2 2 2 2 2 2 2 2 2 2 2 2 2 2 2 2
left_child=24 2 3 4 8 6 16 -8 -2 12 -6 18 -5 -13 -11 19 -4 38 -7 22 41 45 29 -22 28 30 33 -23 -1 -3 -26 32 -32 34 -27 43 -37 -33 44 -35 -40 -21 46 -28 -17 -19 47 -30 -48
right_child=1 15 5 9 10 11 7 -9 -10 14 -12 13 -14 -15 -16 17 -18 21 -20 20 23 27 -24 -25 25 26 35 -29 42 -31 31 37 -34 39 -36 36 -38 -39 40 -41 -42 -43 -44 -45 -46 -47 48 -49 -50
leaf_value=0.16781837763374088 -0.16260252665262556 -0.14224413348688411 -0.033963524597018104 -0.016264931110625384 0.031558074014566014 -0.10415317895790838 0.031236363156173692 -0.11910798040998005 0.0067603743144028436 0.098855070291622188 0.060925188178995594 -0.011433199550876152 0.14031475917108546 0.08515147022269591 0.1747309098932717 -0.12762331119613274 -0.11083436885075999 -0.19573932283588005 0.0037220196349288166 -0.14878564106760089 0.14973159771787489 0.074693661521608487 0.28612300011349395 -0.12786121403745118 0.16353840471924985 -0.15550288016833716 0.12355383195032887 0.11406351602312251 -0.11594801349853651 0.043822700157381343 0.10806005384169647 0.11421398463926846 -0.15480192617603911 -0.15516734883843553 -0.34035576553947827 0.012103164320172326 0.11164346946768602 0.12456431159292017 -0.15289562085740405 -0.12418095165498107 -0.20707390159147648 -0.18571544209416266 -0.1408631235240978 0.12904142614941949 -0.14650470906613144 -0.21331274017767768 -0.11814447624949141 -0.14119160321785035 -0.10731611402480844
leaf_weight=10.273734197020529 1244.9443868044764 140.98161331051961 1141.0275025852025 1487.4174452899024 44017.244339053053 476.20459159929305 3860.6945445984602 802.65028783632442 792.37435345817357 4478.6103407824412 22713.308182651177 1059.8036000817083 511.03648313321173 3991.6658178176731 1501.7070104703307 24.051758913323283 2413.2232066728175 5.8823372162878504 362.69839940778911 23.050235273316503 90.167695668525994 973.09793653804809 8.5961332321166974 20.69871492497623 145.05821806192398 14.726685069501402 131.04461234807968 2772.6660177214071 1.7244549710303503 15.513313993811606 202.86586827784777 517.13296812772751 47.547283826395869 32.087734118103981 11.04666495323181 22.647170469164848 47.673068508505821 1892.3183322250843 7.1139481663703918 19.820104764774442 7.8909057229757291 10.414039999246596 2.2836141735315314 143.33017635345459 4.642201870679858 9.3349995613098127 1.183342881500727 1.2920743096619842 29.933988808654249
leaf_count=7 5292 872 5758 5982 142631 1912 19251 6000 1613 6756 40453 2953 1087 5286 1648 159 14290 25 1404 118 61 850 1 358 31 75 25 1559 28 27 160 144 324 155 54 46 16 323 32 144 32 48 12 22 22 38 13 19 528
internal_value=0 0.0389043 0.0366165 0.0433697 0.037457 -0.000120384 -0.0342228 0.00535924 -0.0967322 0.0943305 0.0415539 0.0474556 0.023775 0.0648879 0.117908 0.0894257 -0.0861564 0.099701 -0.0575135 -0.0369193 0.0380432 0.10258 -0.102455 0.0979051 0.109201 0.111504 0.063434 0.103836 -0.0499481 -0.123799 0.118742 0.116299 0.058149 -0.17366 -0.234732 0.116866 0.0795858 0.122343 -0.14809 -0.143336 -0.181387 -0.160278 -0.111382 0.12642 -0.130678 -0.20652 -0.10941 -0.126761 -0.107728
internal_weight=0 94968.7 90854.6 76746.6 68767.9 14108 8217.6 4663.34 2037.32 7978.77 66730.6 5890.37 1998.45 5051.47 5980.32 4114.1 3554.25 3804.68 838.903 309.422 144.331 3760.98 165.091 110.866 3273.99 3227.3 422.376 3745.76 46.6912 156.495 2804.92 2659.86 250.413 77.6812 25.7734 344.695 70.3202 2409.45 43.6988 51.9078 15.0049 33.4643 36.4175 274.375 28.694 15.2173 34.1339 3.01653 31.1173
internal_count=268644 266518 262316 205462 189989 56854 45299 25251 6905 15473 183084 11555 7069 8239 8404 4202 20048 2717 3316 1485 585 2472 900 419 2126 1519 537 2409 607 899 982 951 484 428 129 109 62 467 245 299 64 166 600 47 181 63 588 47 541
is_linear=0
shrinkage=0.1


Tree=15
num_leaves=50
num_cat=0
split_feature=123 133 136 53 127 31 114 1 73 20 45 117 114 47 39 116 44 49 49 117 37 115 114 110 36 79 118 106 115 106 31 126 31 31 107 31 47 114 126 53 105 31 0 31 30 106 74 107 31
split_gain=1479.98 1041.34 1041.94 1012.21 1335.76 1995.02 1512.2 598.052 387.284 262.592 106.925 97.333 57.2269 725.039 52.4806 46.1445 23.4738 19.8905 9.27713 29.3398 0.869681 0.82193 0.121709 0.071428 0.0441766 0.0421746 0.0221144 0.0133763 0.0122033 0.00473584 0.0039832 0.00249532 0.00217971 0.00162664 0.00143674 0.00128536 0.00128671 0.000925752 0.000925079 0.00079954 0.000564864 0.000408302 0.000400859 0.000326307 0.000275759 0.000227058 0.000102264 6.6333e-05 6.10486e-05
threshold=-2.2684013843536373 1.0000000180025095e-35 1.0000000180025095e-35 1.1268113851547243 -2.1362986564636226 0.99601134657859813 -1.2169456481933592 0.41966880857944494 -0.68820759654045094 1.207665801048279 1.2203876376152041 -1.5375332832336424 -1.3751712441444395 1.2178729772567751 0.99549272656440746 -1.4414005875587461 1.1846917271614077 1.1846290826797488 1.2238866686820986 -1.4951121807098386 0.933954417705536 -1.4054706692695615 -1.3907881975173948 -1.2008336186408994 0.87904706597328197 -1.1314469575881956 -1.5692783594131468 -0.92471191287040699 -1.4392571449279783 -0.9236919879913329 1.0015475749969485 -1.7752951383590696 0.99000805616378795 1.0122129917144778 -0.95530474185943592 1.0015475749969485 1.1238676309585574 -0.92866182327270497 -1.7787236571311948 1.1268113851547243 -0.90245643258094776 1.0019795298576357 0.22762243449687961 1.0019795298576357 1.0894976854324343 -0.93518108129501332 -0.67750364542007435 -0.95530474185943592 1.0122129917144778
decision_type=2 2 2 2 2 2 2 2 2 2 2 2 2 2 2 2 2 2 2 2 2 2 2 2 2 2 2 2 2 2 2 2 2 2 2 2 2 2 2 2 2 2 2 2 2 2 2 2 2
left_child=10 2 3 4 6 -6 -2 8 -5 -9 11 14 13 17 -1 21 -15 -13 20 -20 -14 24 23 -16 26 29 -12 34 -26 45 38 42 44 -32 40 39 -37 -34 -31 -29 -27 -36 46 -44 -33 47 -4 -3 -47
right_child=1 25 31 7 5 -7 -8 9 -10 -11 15 12 18 16 22 -17 -18 -19 19 -21 -22 -23 -24 -25 28 27 -28 35 -30 30 33 32 37 -35 41 36 -38 -39 -40 -41 -42 -43 43 -45 -46 48 -48 -49 -50
leaf_value=0.15133948949691178 0.020177939890173302 -0.10179530667025555 -0.10198934284105748 -0.12745110471310969 0.011503811910518365 0.045057835915632269 0.090652263653808296 0.21594753642031864 -0.023327167547784206 -0.024549313556644307 -0.12398134473204683 0.1562233016988957 0.12053857941365867 -0.012692745495594472 -0.12603299092469814 0.098155721665533519 -0.17517618381094491 0.11436425786379406 0.014782779375158936 0.12249916360594384 0.12829092278994661 -0.1769206300945477 -0.1386863927689268 -0.1069952043616425 -0.11151439334578224 -0.10140071048916502 -0.13395887735846071 -0.10268089586733176 -0.11976540364780264 -0.10261608809896249 -0.10555835638699076 -0.10132718041332799 -0.10186629731016766 -0.10397682593353821 -0.10199034684748481 -0.10457417908599301 -0.10261400755097279 -0.1022248491264075 -0.10422823402518122 -0.10185775267046149 -0.10172703183622878 -0.10303044821214491 -0.10257161155941007 -0.10212507088658945 -0.1025209357049785 -0.10332951599159577 -0.1012383214677432 -0.10257157946796469 -0.1027649006928244
leaf_weight=10.258512035012243 4570.0011240188032 1.4221106963232157 8.5280199302360398 488.40769554674625 27332.180766908452 50385.056021636352 9122.4944719523191 128.97037036716938 1329.8312509749085 70.065628781914711 6.9769225986674428 137.08063583076 1779.8489145040512 9.8236137703061086 2.1237151473760632 13.352604001760481 93.684372138231993 660.44085652753711 34.647831737995148 93.593016415834427 157.51509410142899 3.0833150744438198 1.3861538320779825 27.364953359588981 2.1011298676021406 258.60694352490827 3.2590790092945117 106.64823202416301 12.204193778336045 7.6990956952795386 36.721578000113368 69.906324986834079 268.85144604183733 7.9029259094968429 8.3353770803660137 6.8958967570215446 6.5104598794132471 98.352602212689817 6.619654154404996 13.268292338587342 66.734836840536445 6.8973649200052014 73.351917025633156 21.063842645846307 1.9901699353940774 6.818172184750436 2.3026452935300759 4.8717462159693232 2.6629455760121346
leaf_count=6 18568 85 474 2915 71712 91342 9786 120 8278 624 64 31 345 34 40 6 550 274 55 19 26 13 7 481 64 19805 18 4251 93 319 781 5606 15560 229 479 171 285 4834 175 789 4105 251 3051 1073 100 227 206 212 105
internal_value=0 0.0351793 0.0359813 0.036785 0.0383313 0.0332573 0.0671308 -0.0332818 -0.0512965 0.131287 0.105967 0.108153 0.110272 0.0892424 -0.0446183 -0.0544791 -0.159755 0.121559 0.119445 0.0933966 0.121169 -0.128256 -0.109728 -0.108366 -0.122142 -0.102193 -0.127158 -0.101844 -0.118554 -0.104401 -0.104813 -0.101969 -0.101864 -0.105278 -0.101512 -0.102694 -0.103622 -0.101962 -0.103361 -0.10259 -0.101468 -0.102461 -0.102406 -0.102472 -0.10136 -0.102862 -0.10183 -0.102396 -0.103171
internal_weight=0 94520 93971.4 93427 91409.7 77717.2 13692.5 2017.27 1818.24 199.036 3048.74 3007.77 2966.63 901.029 41.1333 40.9772 103.508 797.521 2065.6 128.241 1937.36 27.6246 30.8748 29.4887 24.5413 548.616 10.236 473.897 14.3053 74.7182 58.9433 544.347 439.101 44.6245 340.575 133.323 13.4064 367.204 14.3187 119.917 325.342 15.2327 105.246 94.4158 71.8965 15.775 10.8307 6.29386 9.48112
internal_count=268644 266518 234249 203345 191408 163054 28354 11937 11193 744 2126 1868 1334 889 534 258 584 305 445 74 371 252 528 521 239 32269 82 30136 157 2133 1504 30904 26100 1010 24640 5496 456 20394 494 5040 23910 730 4804 4124 5706 629 680 297 332
is_linear=0
shrinkage=0.1


Tree=16
num_leaves=49
num_cat=0
split_feature=123 30 124 116 89 29 114 60 99 35 126 102 131 110 30 105 50 105 70 1 74 112 117 31 45 117 30 105 114 47 40 116 44 46 49 117 88 91 133 32 116 115 51 114 110 40 114 44
split_gain=1398.42 1078.05 1722.09 1982.38 2007.68 1900.33 1671.38 1512.36 1167.81 989.928 968.703 872.522 715.411 482.613 439.868 433.216 374.569 389.831 337.187 300.419 283.601 139.47 186.123 174.898 94.1649 85.9267 66.1328 65.9351 54.7019 629.388 45.7554 40.4448 21.4084 17.3108 9.8211 27.5898 5.09443 3.16926 1.61408 1.2025 0.797155 0.542371 0.456606 0.0828493 0.0529418 0.03132 0.0148703 0.0124294
threshold=-2.2684013843536373 1.0948859453201296 -1.2702722549438474 -0.94554936885833729 -1.218499958515167 1.2195996046066286 -0.94446024298667897 0.5564037859439851 -0.90941765904426564 0.91255170106887828 -1.5656076073646543 -0.93645602464675892 1.0000000180025095e-35 -0.86245298385620106 1.0876272916793825 -0.934527426958084 1.0449844002723696 -0.89799362421035755 -0.25583006441593165 0.688165843486786 -1.0132148265838621 -0.93085756897926319 -0.9474336802959441 0.99048513174057018 1.2203876376152041 -1.5375332832336424 1.1106978654861452 -0.95545071363449086 -1.3751712441444395 1.2178729772567751 1.0352737307548525 -1.4414005875587461 1.1846917271614077 1.1965569853782656 1.2238866686820986 -1.4951121807098386 -1.1663718819618223 -1.1525315046310423 1.0000000180025095e-35 0.88908579945564281 -1.4626978039741514 -1.4054706692695615 1.0190646052360537 -1.3907881975173948 -1.2008336186408994 1.0557341575622561 -1.3654413819313047 1.201057016849518
decision_type=2 2 2 2 2 2 2 2 2 2 2 2 2 2 2 2 2 2 2 2 2 2 2 2 2 2 2 2 2 2 2 2 2 2 2 2 2 2 2 2 2 2 2 2 2 2 2 2
left_child=24 2 3 4 13 7 -6 14 -9 18 -11 19 15 -2 -4 26 17 -17 -5 -7 -13 36 -23 -24 25 30 38 -28 29 33 -1 41 -31 -27 40 -36 42 -18 -3 -38 -30 45 -14 44 -32 47 -47 -26
right_child=1 12 5 9 6 11 -8 8 -10 10 -12 20 21 -15 -16 16 37 -19 -20 -21 -22 22 23 -25 31 28 27 -29 34 32 43 -33 -34 -35 35 -37 39 -39 -40 -41 -42 -43 -44 -45 -46 46 -48 -49
leaf_value=0.13851732461456023 -0.14160582219817455 -0.13292599171914621 -0.10673567610257227 0.14026549462105131 0.028062396143025938 -0.17105866828151259 0.082195434367473022 0.015918708079380384 -0.10483947434999832 0.093823226300505422 -0.055235814011134615 3.0015865919093051e-05 -0.23068977721326253 -0.00212291567417999 -0.029079170695134944 0.073908171596175132 -0.12674514810096704 0.13911798341797704 -0.094588378253703267 0.0062843177033759419 0.10070980218217823 0.14505881769237461 0.30846973027316749 -0.17295538707875871 -0.12986837225312084 0.14045265671117363 -0.12933164060310995 0.067200966841201165 0.11570304890556204 -0.011386592145136026 -0.12370746421345979 0.093816713857289791 -0.166744724055197 0.10738717337872827 0.0133869126389213 0.11913458895218086 -0.14358746778637907 -0.20544710711023281 -0.10147929584686591 -0.17459437759990964 0.12010140575631033 -0.16504317042331029 -0.20561805722177204 -0.13372932969127108 -0.10662178609298995 -0.11596828448514587 -0.12421790581854267 -0.12112241252936273
leaf_weight=10.155636072158812 813.49449535692111 80.42290267907083 2122.8017923827283 2771.8045018799603 62376.713707417715 172.24265812337399 6277.6410015416332 6725.5291864392348 909.07058872049674 1258.0023054536432 667.230439231731 319.05317187868059 13.717110693454744 356.88583413511515 1111.2216444825754 4130.8050315184519 5.8462071679532519 1178.2358028348535 62.511662792414427 214.44901445880532 2273.1709860609844 41.643216237425804 8.5091674886643869 66.679744761437178 3.2690031453967121 228.24137684702873 26.428494536783546 48.210326528642327 643.07533827424049 9.8537496700882894 1.9558955198153878 12.611908107995985 88.829468603245914 516.92301772162318 34.445694014430046 86.954462826251984 15.493852481245993 41.001948577351868 20.478228737600148 64.890550792217255 1147.0566917210817 2.9798854589462307 15.440594121813772 1.2983019500970865 24.922475039958954 13.537012170534586 2.6055705845355943 3.2309606494382024
leaf_count=7 4637 514 14812 3884 178105 768 7111 28093 6608 2550 3255 626 57 744 3288 4961 46 669 369 563 1706 21 23 385 19 53 334 253 150 34 40 6 550 252 55 19 85 197 1512 279 221 13 63 7 480 171 17 32
internal_value=0 0.0317717 0.0290418 0.0350547 0.0307983 -0.00334446 0.0330122 -0.0227386 0.00153973 0.0974988 0.0421636 0.0674152 0.0736986 -0.0990731 -0.0800526 0.0808295 0.085896 0.0883802 0.135086 -0.0727089 0.088318 -0.100544 -0.0245402 -0.118472 0.103091 0.105225 -0.0737534 -0.0023883 0.107293 0.0860866 -0.0434653 -0.0527799 -0.151232 0.117515 0.116655 0.0891301 -0.181606 -0.195626 -0.126544 -0.168618 0.118521 -0.124938 -0.217413 -0.109057 -0.107865 -0.11966 -0.1173 -0.125521
internal_weight=0 94189.6 88431.8 74584.3 69824.7 13847.5 68654.4 10868.6 7634.6 4759.55 1925.23 2978.92 5757.8 1170.38 3234.02 5531.43 5355.89 5309.04 2834.32 386.692 2592.22 226.374 116.832 75.1889 2831.95 2793.71 175.54 74.6388 2755.38 843.848 38.3323 38.2343 98.6832 745.164 1911.53 121.4 109.542 46.8482 100.901 80.3844 1790.13 25.6224 29.1577 28.1767 26.8784 22.6425 16.1426 6.49996
internal_count=268644 266518 257119 200655 190597 56464 185216 52801 34701 10058 5805 3663 9399 5381 18100 8486 5873 5630 4253 1331 2332 913 429 408 2126 1868 2613 587 1334 889 534 258 584 305 445 74 484 243 2026 364 371 252 120 527 520 239 188 51
is_linear=0
shrinkage=0.1


Tree=17
num_leaves=59
num_cat=0
split_feature=104 70 69 0 105 30 102 30 40 113 127 74 62 102 19 88 50 45 7 44 104 34 53 44 53 111 116 31 77 51 68 105 7 122 71 97 59 40 135 69 51 127 91 103 44 39 51 35 24 4 89 73 54 55 49 40 86 28
split_gain=1323.42 2509.02 1239.65 1064.58 1942.84 1294.84 2086.49 884.28 789.254 1382.58 1125.04 735.913 520.931 749.592 517.985 493.005 449.104 416.953 392.444 377.796 305.799 301.187 289.521 273.359 260.981 260.778 249.341 248.883 200.275 185.121 176.186 157.722 131.238 114.668 108.828 65.4641 51.1903 58.0421 42.1863 36.1358 17.8143 15.1078 12.3318 12.1035 6.55866 4.85274 4.70878 4.68357 3.83023 1.14249 0.789708 0.7008 0.530296 0.468947 0.371069 0.198473 0.057282 0.00623728
threshold=-0.7551230490207671 -0.16161207854747769 -0.070470474660396562 0.63080355525016796 -0.89858704805374134 1.0882077217102053 -0.87048271298408497 1.0981366038322451 1.0494933724403384 -1.3246226310729978 -1.9610345363616941 -1.02595579624176 0.38229075074195867 -0.94329246878623951 1.0865620374679568 -1.2933410406112669 1.0742364525794985 1.2203876376152041 0.81608790159225475 1.1539756059646609 -0.7590888738632201 0.87788391113281261 1.0728804469108584 1.1386120915412905 1.0887280702590945 -0.9458445906639098 -1.4952772855758665 1.0156641602516177 -1.1683809161186216 1.1983861923217776 0.14777268469333651 -0.84001532196998585 1.0000000180025095e-35 -2.0657114982604976 -0.27339175343513483 -1.0215452313423155 0.87371140718460094 1.0715270638465884 1.0000000180025095e-35 -0.023298444226384159 1.1711457371711733 -2.0980589389801021 -1.1479778885841367 -0.77744561433792103 1.1061627864837649 0.99376225471496593 1.1459957957267763 0.95831504464149486 1.1994558572769167 0.16736046969890597 -1.2640704512596128 -0.8148270547389983 1.0707071423530581 1.0590223670005801 1.233787536621094 1.0223003625869753 -0.77301156520843495 1.1122943162918093
decision_type=2 2 2 2 2 2 2 2 2 2 2 2 2 2 2 2 2 2 2 2 2 2 2 2 2 2 2 2 2 2 2 2 2 2 2 2 2 2 2 2 2 2 2 2 2 2 2 2 2 2 2 2 2 2 2 2 2 2
left_child=1 3 38 4 7 6 -6 15 22 21 17 18 13 -13 19 -1 -7 -11 35 31 32 33 42 -12 -23 -20 45 -9 -14 -28 -22 39 -21 -10 -33 -5 41 48 44 -3 52 43 51 -16 50 -24 -46 -43 -38 -44 57 -4 55 -48 -42 -40 -52 -2
right_child=2 14 8 11 5 16 -8 27 9 10 23 12 28 -15 36 -17 -18 -19 25 20 30 24 26 -25 -26 -27 29 -29 -30 -31 -32 34 -34 -35 -36 -37 37 -39 40 -41 54 47 49 -45 46 -47 53 -49 -50 -51 56 -53 -54 -55 -56 -57 -58 -59
leaf_value=0.68108823238415983 -0.10311571181263568 0.0021586874686573975 -0.1041449089334 -0.13581761353539618 -0.022747903023726812 0.097197489742131923 0.034042649326787681 0.051560879854893375 -0.038282075521336591 0.089923534691074808 -0.02445740410374599 -0.053649026452637597 -0.13857751077985309 0.086706955157117682 -0.15394302910486352 -0.040323768854277214 -0.17570950701822824 -0.11264723861501323 0.16503097348609513 0.20908654488575307 0.099083034246015958 1.3938750509175191 -0.27669384555398524 -0.22364177642041524 -0.14583822753875489 -0.12363250543923213 0.11852253052898772 -0.17081088172398728 0.25115709759258503 -0.087476896538333571 -0.099405703302594156 0.13820450330288994 -0.16437400782860809 -0.13379351778372031 -0.093564819274896169 0.13435384148558835 -0.25830277654085537 0.089692501120223062 -0.32838973030044288 -0.18481601572670006 -0.19211069912010575 -0.26095558207203756 -0.17598492268885604 -0.31621519037434154 -0.29832314901242785 -0.12845253165650344 -0.19705845678883638 -0.22093129161957378 -0.14661641239535153 -0.24946789958508622 -0.13581660450724967 -0.13736754097651047 -0.2975118379601997 -0.15531070264532504 -0.16202214522013281 -0.35610565651315079 -0.12423877591390674 -0.11152908145776211
leaf_weight=9.4877436491660756 18.845533573068682 15.936582366935907 15.280420091003178 9.7742080446332675 7210.9264559145086 3255.5398123674095 62911.836872748565 1549.1605128254741 185.64800546132028 3484.0826193755493 135.66529908776283 415.17922265874222 14.027332931756971 4556.3840405573137 4.9304773914627722 6067.2266418458894 61.43805193156004 104.66169479396194 34.497528011910617 9.5837170500308257 84.062635942362249 2.5179858207702628 2.348623499274253 140.00499668717384 1.9560108836740253 337.21232869802043 3520.8545720241964 52.021140613593161 219.65028063207865 44.171138235367835 95.551840310916305 111.66224151104689 517.74653237173334 389.26135547459126 24.749975778162479 108.81327478867024 11.9667448066175 8.8050652295351046 7.194795221090315 29.415076551493257 8.5686240047216433 98.215988919138908 2.6201797705143681 67.846248870715499 2.8265368286520269 36.946845661848783 3.1360672786831882 41.628851488232613 4.130462320521473 10.991752050817011 4.3733980823308221 10.863154277205469 4.4384128898382178 18.944163873791695 7.8572271466255179 4.031403437256813 186.71838769782335 0.924382783472537
leaf_count=9 700 97 527 105 31625 3857 148655 3419 1165 2546 283 2291 89 4603 51 43898 316 525 68 3 126 1 14 580 58 3992 1925 344 173 173 633 35 6572 5512 88 105 54 9 34 330 35 425 17 321 27 372 44 170 74 55 34 61 20 116 34 20 1219 10
internal_value=0 0.027097 0.0687425 0.0290209 0.0260866 0.0310906 0.0282027 -0.0217769 0.0757521 0.0474637 0.0690615 0.0708122 0.0818443 0.0749857 -0.121202 -0.0391974 0.0921426 0.0840158 -0.0463092 -0.0861418 -0.119202 -0.0965909 0.110249 -0.125617 0.720719 -0.0968423 0.113209 0.0443362 0.227762 0.11597 -0.00650959 0.0424426 -0.157587 -0.102951 0.0961534 0.112086 -0.252383 -0.116732 -0.142909 -0.119113 -0.250478 -0.268271 -0.158137 -0.305222 -0.128268 -0.137313 -0.176797 -0.249041 -0.229645 -0.235323 -0.122535 -0.11795 -0.326774 -0.16124 -0.177718 -0.338343 -0.124504 -0.103509
internal_weight=0 87939.4 8355.73 86813.2 81117.6 73439.7 70122.8 7677.9 8087.87 4443.8 3864.41 5695.54 5205.24 4971.56 1126.23 6076.71 3316.98 3588.74 490.297 888.709 706.945 579.383 3644.08 275.67 4.474 371.71 3604.32 1601.18 233.678 3565.03 179.614 181.764 527.33 574.909 136.412 118.587 237.524 24.9023 267.859 45.3517 32.0905 212.622 39.7555 72.7767 235.768 39.2955 24.9068 139.845 16.0972 13.6119 210.862 26.1436 15.6646 22.0802 16.4259 11.2262 191.092 19.7699
internal_count=268644 252537 16107 243549 232123 184453 180280 47670 13814 10670 3934 11426 7156 6894 8988 43907 4173 3071 4270 7884 7334 6736 3144 863 59 4060 2484 3763 262 2098 759 550 6575 6677 123 210 1104 137 2293 427 143 967 660 372 2150 386 187 595 128 72 1963 588 74 160 69 54 1253 710
is_linear=0
shrinkage=0.1


Tree=18
num_leaves=56
num_cat=0
split_feature=124 52 127 115 21 123 118 127 113 35 123 135 39 108 30 72 36 104 46 124 107 135 106 77 47 45 115 113 48 34 120 43 1 88 114 122 40 108 46 112 54 50 40 114 52 120 40 37 42 114 46 113 60 114 114
split_gain=1231.1 908.395 1153.96 1940.37 3094.96 1695.17 2217.52 1444.64 1323.89 1290.37 656.323 613.767 639.496 606.584 636.724 492.282 482.451 464.613 450.601 408.483 357.396 328.471 301.365 398.873 319.672 238.573 277.129 163.858 518.639 81.6075 36.8547 39.8397 33.1385 28.9065 25.5619 23.8002 35.8467 23.0842 20.8529 109.419 13.4928 8.62656 4.3694 3.16681 2.57184 2.47048 2.11453 1.48603 0.826198 0.741504 0.437873 0.277106 0.170895 0.130902 0.0863526
threshold=-2.4757177829742427 1.1391261816024782 -2.1362986564636226 -1.0485301017761228 1.2839351892471316 -1.3581066727638242 -1.0398738980293272 -1.9444839358329771 -1.1727191209793089 0.95029360055923473 -1.4573667049407957 1.0000000180025095e-35 0.9483289122581483 -1.0315872430801389 1.0094352364540102 -0.50003907084465016 0.90084424614906322 -0.8501828908920287 1.2160269021987917 -2.0036482810974117 -0.95991721749305714 1.0000000180025095e-35 -0.81897318363189686 -1.0627717375755308 1.1960892677307131 1.214788615703583 -1.4054706692695615 -1.3325870037078855 1.2056764364242556 0.84363442659378063 -1.748981177806854 1.1581407785415652 -0.12759844958782193 -0.22840500622987744 -1.3833884000778196 -2.0353736877441402 1.0411698222160342 -1.0459087491035459 1.2229014039039614 -1.2642323374748228 1.0939284563064577 1.2176027297973635 1.0494933724403384 -1.3751712441444395 1.1569153070449831 -1.7202910780906675 1.0456838607788088 0.922571361064911 1.1359775662422182 -1.3751712441444395 1.231079161167145 -1.3155503273010252 0.88142618536949169 -1.3907881975173948 -1.3833884000778196
decision_type=2 2 2 2 2 2 2 2 2 2 2 2 2 2 2 2 2 2 2 2 2 2 2 2 2 2 2 2 2 2 2 2 2 2 2 2 2 2 2 2 2 2 2 2 2 2 2 2 2 2 2 2 2 2 2
left_child=25 2 8 4 10 9 -7 -6 16 -5 -4 15 -13 35 18 -10 17 -2 21 -18 -20 -15 23 -16 -24 27 48 28 29 32 31 -30 -1 44 -31 36 -3 47 43 -40 -39 -28 -32 -35 -29 -43 -38 -37 49 54 -51 53 -53 -50 -27
right_child=1 13 3 5 7 6 -8 -9 11 -11 -12 12 -14 14 22 -17 19 -19 20 -21 -22 -23 24 -25 -26 26 41 33 30 34 42 -33 -34 38 -36 37 46 40 39 -41 -42 45 -44 -45 -46 -47 -48 -49 51 50 -52 52 -54 -55 -56
leaf_value=0.11434733139570588 -0.021543321310026595 0.13931176574710205 -0.069046108115014646 0.065061724878032648 0.056282287132282706 -0.043500673965449974 0.027164570093638731 -0.043872657406011796 0.09492018218796118 -0.050922639443509755 -0.16766334517284198 0.072741007456835635 -0.13371034781584265 0.066859476331677867 -0.16156610740923916 -0.038173388136673536 0.00059704698736074454 0.076782661165986726 0.13487544836904572 -0.10725186749540955 -0.089401681437861646 -0.19667071683530316 0.03488243114130609 -0.028658513998843727 -0.19617710565432364 -0.12396331071974316 0.1178375201007551 0.13644863907262761 0.058955458689737165 -0.14294690654729422 -0.1891156733816205 -0.12304828162464208 0.21177692932783065 0.10376959659692578 0.11826754100298256 -0.14566220133228178 -0.24881195018332569 -0.17900861585416594 -0.10097911824362903 0.11285853647705771 -0.13422410426426884 0.087532255584618343 -0.13652337775113169 0.114400713691387 0.15694255626676776 0.037501235613202032 -0.1151758035731929 -0.1027671057059798 -0.10595151977845592 -0.18910038539173721 -0.14692943133434763 -0.15790923117316646 -0.13030448179925763 -0.12388981850233215 -0.13870633507060823
leaf_weight=297.30708587914705 715.60355611983687 7.6587100028991726 1875.8360845260322 15028.735770251602 3983.2339666858315 4906.2780748251826 46802.082331764977 2255.7699533984996 6862.3420628481545 1024.6137739010155 1054.0745411370881 354.65758818387985 260.05508331954479 1379.5482594300993 443.39713512081653 289.63685895968229 1596.8021649159491 1463.1610456015915 85.379592096433043 450.20559224300086 423.42812955100089 48.976403452455997 431.47409460041672 460.13664120994508 69.524644123390317 6.7255607619881657 74.25205060839653 146.12727690301836 22.016412332653999 15.522141449153425 20.049734219908714 26.50696471426636 39.554679732769728 353.39089588075876 4.9380745887756339 8.7013972201384586 1.2965808957815159 145.9758377103135 29.104793518781662 134.55839471518993 124.77944074105471 18.035645008087158 74.478237601928413 1352.8512650728226 105.40318856947124 21.798413619399071 13.641387567855416 112.42223590565845 4.3654775852337471 4.7765857279300672 5.0816089063882828 3.6646465808153135 5.7795949354767799 59.705142170190811 9.7066688686609286
leaf_count=196 9283 1 6283 22954 12502 17886 124306 13171 11652 2266 5079 477 995 3240 2518 706 8504 4935 145 4008 2168 214 694 2354 307 75 17 28 77 186 122 373 18 134 1 123 7 862 94 35 1359 12 648 327 21 31 417 6034 227 20 27 17 36 420 52
internal_value=0 0.0258934 0.0279282 0.0234305 -0.0197439 0.0292725 0.0204596 0.0200703 0.0567808 0.057659 -0.104525 0.0812887 -0.0145985 -0.0222759 -0.0081239 0.0895302 0.0117368 0.044488 0.029042 -0.0231225 -0.0517672 0.0578244 -0.0593885 -0.0938811 0.00281782 0.0927835 -0.00876764 0.101068 0.0495926 0.11401 -0.111312 -0.0404681 0.125788 0.113209 -0.0799028 -0.136382 -0.0365901 -0.142136 0.108928 0.074831 -0.158369 0.0976968 -0.147678 0.112199 0.145037 0.0601538 -0.126775 -0.105849 -0.130466 -0.14568 -0.167363 -0.125025 -0.141016 -0.122668 -0.132672
internal_weight=0 92679.4 88923.1 76930.6 9168.91 67761.7 51708.4 6239 11992.5 16053.3 2929.91 7766.69 614.713 3756.34 3341.86 7151.98 4225.77 2178.76 1937.33 2047.01 508.808 1428.52 1404.53 903.534 500.999 2835.7 213.891 2621.81 500.373 357.322 143.051 48.5234 336.862 2121.44 20.4602 414.476 22.5967 391.879 1869.91 163.663 270.755 114.086 94.528 1706.24 251.53 39.8341 14.938 121.124 99.8053 26.2904 9.85819 73.5149 9.44424 64.0706 16.4322
internal_count=268644 265450 245007 204447 37035 167412 142192 25673 40560 25220 11362 13830 1472 20443 11640 12358 26730 14218 5767 12512 2313 3454 5873 4872 1001 3194 934 2260 1621 401 1220 450 214 639 187 8803 425 8378 590 129 2221 60 770 461 49 43 424 6157 874 174 47 700 53 647 127
is_linear=0
shrinkage=0.1


Tree=19
num_leaves=58
num_cat=0
split_feature=104 69 58 69 80 110 79 75 45 103 108 5 40 113 127 69 78 131 45 108 79 107 104 87 70 46 129 53 114 51 125 58 54 131 122 44 96 56 25 69 23 116 108 108 51 91 2 41 135 74 89 98 45 5 28 130 87
split_gain=1170.63 2012.31 1313.67 1015.59 1004.89 1419.35 2618.7 1109.14 890.862 840.541 779.699 698.072 615.781 1165.52 786.062 539.496 439.442 351.951 322.71 298.834 286.146 252.863 249.064 242.791 242.547 236.062 233.777 227.109 205.8 153.591 152.29 147.361 162.922 101.617 98.2802 159.019 68.4983 67.2307 64.7764 61.5214 50.1881 33.5936 20.1112 16.2735 11.5662 8.4377 0.788821 0.778697 0.703801 0.567887 0.564571 0.347171 0.127886 0.0467904 0.00356475 0.00072377 4.62123e-06
