tree
version=v4
num_class=1
num_tree_per_iteration=1
label_index=0
max_feature_idx=136
objective=binary sigmoid:1
feature_names=Column_0 Column_1 Column_2 Column_3 Column_4 Column_5 Column_6 Column_7 Column_8 Column_9 Column_10 Column_11 Column_12 Column_13 Column_14 Column_15 Column_16 Column_17 Column_18 Column_19 Column_20 Column_21 Column_22 Column_23 Column_24 Column_25 Column_26 Column_27 Column_28 Column_29 Column_30 Column_31 Column_32 Column_33 Column_34 Column_35 Column_36 Column_37 Column_38 Column_39 Column_40 Column_41 Column_42 Column_43 Column_44 Column_45 Column_46 Column_47 Column_48 Column_49 Column_50 Column_51 Column_52 Column_53 Column_54 Column_55 Column_56 Column_57 Column_58 Column_59 Column_60 Column_61 Column_62 Column_63 Column_64 Column_65 Column_66 Column_67 Column_68 Column_69 Column_70 Column_71 Column_72 Column_73 Column_74 Column_75 Column_76 Column_77 Column_78 Column_79 Column_80 Column_81 Column_82 Column_83 Column_84 Column_85 Column_86 Column_87 Column_88 Column_89 Column_90 Column_91 Column_92 Column_93 Column_94 Column_95 Column_96 Column_97 Column_98 Column_99 Column_100 Column_101 Column_102 Column_103 Column_104 Column_105 Column_106 Column_107 Column_108 Column_109 Column_110 Column_111 Column_112 Column_113 Column_114 Column_115 Column_116 Column_117 Column_118 Column_119 Column_120 Column_121 Column_122 Column_123 Column_124 Column_125 Column_126 Column_127 Column_128 Column_129 Column_130 Column_131 Column_132 Column_133 Column_134 Column_135 Column_136
feature_infos=[-1.8014661073684692:1.9731968641281128] [-1.7160434722900391:1.9330692291259766] [-1.6382262706756592:1.893924355506897] [-1.5680137872695923:1.8557635545730591] [-1.5054070949554443:1.8185858726501465] [-1.4504051208496094:1.7823913097381592] [-1.4123568534851074:1.7937201261520386] [-1.3844102621078491:1.9274762868881226] [-1.3517893552780151:2.0758624076843262] [-1.3099035024642944:2.0974209308624268] [-1.2559221982955933:2.0165181159973145] [-1.1870334148406982:2.064321756362915] [-1.1039742231369019:2.1106562614440918] [-1.0067610740661621:2.1771299839019775] [-0.90047705173492432:2.2825961112976074] [-0.78966546058654785:2.4052433967590332] [-0.67814630270004272:2.5269482135772705] [-0.65591526031494141:2.5277442932128906] [-0.65795356035232544:2.5653238296508789] [-0.66488730907440186:2.5221147537231445] [-0.8555336594581604:2.4413206577301025] [-0.86833834648132324:2.3840618133544922] [-0.86565589904785156:2.2409591674804688] [-0.6943366527557373:2.1797337532043457] [-0.68053698539733887:2.1696581840515137] [-0.94777458906173706:2.0883691310882568] [-1.274228572845459:1.9448176622390747] [-1.700652003288269:1.7314887046813965] [-1.9202775955200195:1.5598906278610229] [-2.2033448219299316:1.3462176322937012] [-2.6534385681152344:1.1459542512893677] [-2.9375624656677246:1.0652625560760498] [-2.8964071273803711:1.0182701349258423] [-2.6209216117858887:1.0153312683105469] [-1.9672813415527344:1.0222163200378418] [-1.2877312898635864:1.096311092376709] [-0.66409575939178467:1.2162210941314697] [-0.67050886154174805:1.328394889831543] [-0.67336314916610718:1.4686216115951538] [-0.67729061841964722:1.427788257598877] [-0.67391806840896606:1.3506048917770386] [-0.77278417348861694:1.3033223152160645] [-0.78214722871780396:1.4334096908569336] [-0.67822211980819702:1.6771683692932129] [-0.67549598217010498:1.8418123722076416] [-0.67900896072387695:1.9795904159545898] [-0.6766776442527771:1.8671952486038208] [-0.68031680583953857:1.8940913677215576] [-0.67738151550292969:2.0411467552185059] [-0.6802976131439209:2.1347439289093018] [-0.67868822813034058:2.3221406936645508] [-0.68411111831665039:2.3866791725158691] [-0.68785721063613892:2.3278176784515381] [-0.6967010498046875:2.41339111328125] [-0.68777680397033691:2.0181429386138916] [-0.66555494070053101:1.7058380842208862] [-0.62731093168258667:1.5109990835189819] [-0.79989981651306152:1.3603483438491821] [-0.9627259373664856:1.3460699319839478] [-0.83332031965255737:1.3262704610824585] [-0.58480948209762573:1.3006186485290527] [-0.6035887598991394:1.5017008781433105] [-0.62945538759231567:1.6372760534286499] [-0.65896445512771606:1.5962808132171631] [-0.89532732963562012:1.2496439218521118] [-1.1747497320175171:1.0728911161422729] [-1.3727543354034424:0.99044626951217651] [-1.6710461378097534:0.88485002517700195] [-1.8910553455352783:0.75389385223388672] [-2.0949718952178955:0.60495084524154663] [-1.9126988649368286:0.45876148343086243] [-1.723555326461792:0.33052113652229309] [-1.4557671546936035:0.23037496209144592] [-1.4402464628219604:0.15855956077575684] [-1.3374539613723755:0.2961885929107666] [-1.5821062326431274:0.9557119607925415] [-1.8401819467544556:1.3625956773757935] [-2.0371255874633789:0.97979003190994263] [-2.1728529930114746:1.1285310983657837] [-2.2573421001434326:0.92254304885864258] [-2.3058340549468994:0.73609095811843872] [-2.3315773010253906:0.28676301240921021] [-2.3403120040893555:0.33890664577484131] [-2.3343968391418457:0.39074629545211792] [-2.3124566078186035:0.5232703685760498] [-2.2730567455291748:0.47703936696052551] [-2.2140905857086182:0.50853937864303589] [-2.1362462043762207:0.53271615505218506] [-2.0426793098449707:0.67684948444366455] [-1.9374580383300781:0.56802195310592651] [-1.8240519762039185:0.65060514211654663] [-1.7565661668777466:1.0689502954483032] [-1.6500253677368164:1.4164961576461792] [-1.5946441888809204:1.6280827522277832] [-1.530011773109436:1.6652539968490601] [-1.4843816757202148:1.6182962656021118] [-1.4547033309936523:1.5608183145523071] [-1.4384253025054932:1.5584532022476196] [-1.4264529943466187:1.5629584789276123] [-1.4166721105575562:1.5623300075531006] [-1.8966314792633057:1.5685317516326904] [-2.4619696140289307:1.5680602788925171] [-2.648137092590332:1.5700795650482178] [-2.5047333240509033:1.5662518739700317] [-2.1062953472137451:1.5674868822097778] [-1.4165751934051514:1.5623446702957153] [-1.2213733196258545:1.563502311706543] [-1.1215335130691528:1.561995267868042] [-1.1654683351516724:1.5723429918289185] [-1.225764274597168:1.5757462978363037] [-1.369315505027771:1.5835809707641602] [-1.5627152919769287:1.5860384702682495] [-1.9974493980407715:1.5904537439346313] [-2.3280599117279053:1.5879726409912109] [-2.4821960926055908:1.5877697467803955] [-1.9469403028488159:1.5826603174209595] [-1.6131480932235718:1.5835590362548828] [-1.6319060325622559:1.7016431093215942] [-1.6864286661148071:2.5795986652374268] [-1.7459897994995117:2.8008601665496826] [-1.8207311630249023:2.5472877025604248] [-1.9257428646087646:1.7488086223602295] [-2.1498878002166748:1.5763181447982788] [-2.3795907497406006:1.5743108987808228] [-2.6463632583618164:1.5721074342727661] [-2.9497678279876709:1.9929251670837402] [-3.3135347366333008:2.7791450023651123] [-3.8531808853149414:3.7871904373168945] [0:1] [0:1] [0:1] [0:1] [0:1] [0:1] [0:1] [0:1] [0:1]
tree_sizes=6770 6729 6150 6650 5859 6911 6139 6890 6572 6260 6324 6565 6648 6569 6338 6757 6170 6367 6097 6660 6791 6775 6707 6585 6957 5468 6878 6441 5588 6782 5619 6641 6799 6899 5010 4885 6884 6866 5398 6248 6844 6957 4890 4564 6762 6225 5192 6830 6379 5618 6181 6351 6916 5098 4618 6544 6253 5551 6544 6784 6738 6823 4565 6096 4917 4967 6000 5223 6626 6617 6920 6580 5494 5572 6352 5535 6892 4830 6155 5938 6925 6759 6039 4833 6711 6554 5688 4886 6410 6747 6940 6439 5217 6185 4296 5231 6919 6794 6814 6372 4313 6674 6933 4512 5595 4637 6902 6812 6149 6291 6456 4280 5894 6905 4624 6687 5251 6122 6808 6702 5793 5956 5093 6883 6576 6977 6412 6388 6278 5025 6608 5491 6026 6570 6574 5630 6067 6840 6523 6800 4718 5091 6689 6680 6916 6368 6906 6588 6106 4952 6588 6584 6814 6425 6107 5498 5567 6055 6255 5910 6382 6804 6209 5041 6190 4640 5777 6275 6426 6613 6238 5157 6682 5919 5144 5693 6326 5289 6106 6742 6624 6051 4097 6327 6671 5690 6709 6678 6462 5071 6620 5321 6812 5511 6630 6434 6931 6288 6925 5962

Tree=0
num_leaves=63
num_cat=0
split_feature=22 130 131 130 131 128 5 31 53 29 101 45 70 127 128 94 31 73 100 31 31 104 60 102 71 72 88 30 96 28 71 23 71 89 122 101 27 25 5 5 101 72 71 0 56 74 37 49 57 34 73 103 6 104 118 19 47 69 20 103 53 61
split_gain=44329.7 20863.3 20199 12338.1 10457.4 13083.7 17485.6 8683.07 6721.76 6767.8 6366.73 5590.05 10547.5 4578.85 4196.77 3828.04 3594.62 3010.63 2759.94 2006.34 1821.41 1712.32 1687.05 1675.55 3541.12 1635.74 1260.42 975.614 1446.12 937.272 871.632 871.07 852.059 821.628 792.371 716.52 716.373 671.64 601.301 499.811 498.677 1244.72 641.021 567.094 443.486 442.094 401.561 383.356 317.167 239.018 184.65 143.636 291.902 191.946 189.176 105.594 136.312 89.1225 61.7382 208.078 29.3903 21.4158
threshold=1.3105629086494448 1.0000000180025095e-35 1.0000000180025095e-35 1.0000000180025095e-35 1.0000000180025095e-35 1.0000000180025095e-35 0.59117063879966747 1.0061388015747073 1.0339678525924685 1.222847640514374 -0.88325902819633473 1.1983440518379214 -0.10767292231321333 -3.1384361982345577 1.0000000180025095e-35 -0.93802696466445912 0.98999729752540599 -0.73685732483863819 -0.87047073245048512 1.0048452615737917 0.99830377101898204 -0.8460981249809264 0.77287593483924877 -0.84901466965675343 -0.49014087021350855 -0.66216564178466786 -1.2882373332977293 1.0227571725845339 -0.79752701520919789 1.1739137768745425 -0.41983991861343378 1.2746963500976565 -0.51683628559112538 -1.330663740634918 -1.5023738741874693 -0.80814796686172474 1.2790771722793581 1.3153595328330996 0.71743527054786693 0.54481250047683727 -0.85324877500534047 -0.67777800559997547 -0.43448750674724573 0.46917769312858587 0.98029303550720226 -0.98209938406944264 0.94990152120590221 1.0928548574447634 0.89281120896339428 0.88965058326721203 -0.7303270399570464 -0.89081883430480946 0.71245145797729503 -0.86427119374275196 -1.0548354983329771 1.7569727301597597 0.84195664525032055 -0.16616359353065488 1.2614670991897585 -0.83570817112922657 1.0794842243194582 0.47051584720611578
decision_type=2 2 2 2 2 2 2 2 2 2 2 2 2 2 2 2 2 2 2 2 2 2 2 2 2 2 2 2 2 2 2 2 2 2 2 2 2 2 2 2 2 2 2 2 2 2 2 2 2 2 2 2 2 2 2 2 2 2 2 2 2 2
left_child=3 2 7 4 5 11 33 8 9 -2 26 12 -1 -13 -10 40 -8 22 51 48 44 34 31 49 -25 -21 37 28 -19 35 -24 -17 36 -7 -9 47 -31 -4 -28 -34 58 43 -43 -42 60 -23 -46 -20 -12 -22 -29 55 54 -54 -53 61 -57 -37 -5 -60 -6 -3
right_child=1 18 10 15 20 6 16 21 14 -11 19 13 -14 -15 -16 17 -18 27 29 25 23 45 30 24 -26 -27 38 50 -30 32 -32 -33 39 -35 -36 57 -38 -39 -40 -41 41 42 -44 -45 46 -47 -48 -49 -50 -51 -52 52 53 -55 -56 56 -58 -59 59 -61 -62 -63
leaf_value=-1.8045662299832701 -1.5813101546065709 -2.2949906565054281 -2.1318493863729953 -2.355127135091196 -2.3642665753979712 -1.4974889443496924 -2.318356882195205 -1.4424689508079169 -1.7289337371845606 -1.8805803245149886 -2.1353358432516343 -2.1554857621230741 -1.3873873060480739 -1.7959180844468419 -2.2714290464153137 -2.3154395577679501 -1.679323081363713 -1.6010599027563903 -2.0304469213071825 -1.5731907823360678 -2.0414471867145458 -1.8454595255319401 -1.3868116386700406 -1.5393728446845909 -2.0894842233741544 -2.1107058604278666 -2.2728175513626594 -2.1145909470973856 -2.2673284600800927 -1.5292921848740701 -1.7754136058029544 -1.8327103916650005 -2.3353874480965917 -2.2907601162356155 -1.8738076173745264 -1.6275122005123723 -2.1352926541089468 -1.6008076525488193 -2.0464305048386566 -2.0153290202940086 -1.4445960258541959 -2.1419154645548089 -2.2947780021582616 -2.2228773946429685 -1.7231017872637495 -2.3033019054447115 -2.2508652027920615 -1.3964839824986623 -1.8125958211620163 -2.3122770473061061 -2.3433815568467433 -1.9800521330241379 -1.8724069746650998 -2.3017415974914397 -2.2661413093628724 -2.367436840408625 -1.4559637498431894 -2.2572097649940064 -2.342492723486894 -1.850648899948325 -2.2738751918909594 -2.367436840408625
leaf_weight=10977.007531762123 14653.332226186991 65.939274534583092 44.609792247414589 232.8430463373661 301.36589801311493 13.178854957222937 97.331965699791908 44.415184810757637 3191.6665898561478 796.73651406168938 131.72331336140633 775.32268470525742 641.45698893070221 651.96426756680012 149.27065639197826 55.122674494981766 920.54062834382057 63.579546123743057 11.340514451265333 365.68587864935398 38.100371479988098 25.625130221247673 119.83722272515297 146.53099323809147 580.90566471219063 66.985977753996849 656.33165444433689 45.343497544527054 66.806278467178345 60.415248185396194 111.35251070559025 116.13720373809338 59.62108439207077 1408.0062007904053 1035.4820961803198 2.5824515372514751 28.809114024043083 51.09615033864975 142.86219145357609 268.6267132461071 32.094053655862808 652.41311503946781 473.37326408922672 13.218226686120031 22.241761267185211 119.17495666444302 40.979511886835098 60.023506805300713 39.604902595281601 225.16993276774883 158.86900845170021 24.663073778152466 36.670081406831741 14.54305851459503 367.84427040815353 3.4308952093124381 3.1446120738983154 17.33530093729496 38.302007839083672 11.092477440834044 40.84621325135231 107.0439305305481
leaf_count=72659 67703 726 426 2689 3505 51 1092 150 18965 5816 1262 7568 1850 4265 1612 617 5061 305 98 1663 333 179 345 622 5327 627 7096 426 719 251 708 798 678 15449 7496 13 276 245 1255 2285 109 6289 5211 137 131 1321 435 178 265 2514 1818 202 265 161 3955 40 11 185 438 78 442 1248
internal_value=-2.25697 -1.6899 -1.66789 -1.89683 -1.86786 -1.84422 -2.05681 -1.64137 -1.62456 -1.59674 -2.02196 -1.80448 -1.78153 -1.99124 -1.75317 -2.12012 -1.74043 -1.93448 -2.10834 -1.7711 -2.12998 -1.89937 -1.7502 -2.05691 -1.97867 -1.65641 -2.19128 -2.15614 -1.94244 -1.93551 -1.57398 -1.98808 -1.99898 -2.2834 -1.85607 -1.64524 -1.72496 -1.84833 -2.23235 -2.07346 -2.21426 -2.18551 -2.20619 -1.67163 -2.30852 -2.22228 -2.06519 -1.49723 -2.06073 -2.27308 -2.29258 -2.24941 -2.21887 -1.99433 -2.24816 -2.32487 -1.93154 -2.17557 -2.33359 -2.23204 -2.35348 -2.33982
internal_weight=0 22646.6 21514.6 19071.3 16880.9 15484.8 2439.06 20015.7 18791 15450.1 1498.9 13045.8 11618.5 1427.29 3340.94 2190.38 1017.87 737.048 1132.03 604 1396.14 1224.7 402.45 990.707 727.437 432.672 894.9 334.598 130.386 508.754 231.19 171.26 417.472 1421.19 1079.9 91.2818 89.2244 95.7059 799.194 328.248 1453.34 1171.1 1125.79 45.3123 405.433 144.8 63.2213 71.364 171.328 263.27 204.213 623.279 443.72 51.2131 392.507 179.559 6.57551 19.9178 282.238 49.3945 342.212 172.983
internal_count=268644 126653 116081 141991 121304 107995 21653 103242 94096 73519 12839 86342 74509 11833 20577 20687 6153 5736 10572 3817 13309 9146 2468 8796 5949 2290 9022 3268 1024 3964 1053 1415 3490 15500 7646 474 527 671 8351 2963 14951 11746 11500 246 4513 1500 566 276 1527 2847 2244 6608 4583 426 4157 2025 51 198 3205 516 3947 1974
is_linear=0
shrinkage=1


Tree=1
num_leaves=62
num_cat=0
split_feature=33 118 130 131 109 127 129 100 136 129 106 69 118 100 104 52 105 94 31 74 5 77 50 32 96 19 110 5 97 32 70 83 105 113 22 127 58 70 43 75 72 31 108 106 5 0 52 1 112 84 10 105 87 48 20 115 0 54 136 130 54
split_gain=14066.2 9027.05 6843.33 5804.4 5518.76 4461.36 2938.11 2759.63 2562.04 4726.25 3280.24 3167.67 2495.61 2489.63 1460.54 1367.73 1325.44 1193.05 906.516 821.764 784.381 780.971 927.729 773.762 1034.01 703.721 566.149 519.908 738.046 370.729 312.878 264.855 263.42 261.911 247.743 283.517 244.523 230.335 227.89 668.012 265.149 210.267 195.616 171.649 153.237 344.885 151.008 141.873 138.607 102.791 102.495 63.9496 70.7721 62.5303 195.98 32.7533 32.0998 26.1133 0.666769 0.0197894 0.00351872
threshold=0.92362555861473095 -0.8091161549091338 1.0000000180025095e-35 1.0000000180025095e-35 -1.1245983839035032 -2.7827947139739986 1.0000000180025095e-35 -0.90093615651130665 1.0000000180025095e-35 1.0000000180025095e-35 -0.85382443666458119 -0.07472828775644301 -1.2442662715911863 -0.87128606438636769 -0.79324024915695179 1.1315805315971377 -0.82268768548965443 -0.89089787006378163 1.0007033944129946 -0.86761939525604237 0.69399800896644603 -1.1941443681716917 1.1052767634391787 0.92546820640563976 -0.92534884810447682 1.7084237337112429 -0.92803579568862904 0.61044606566429149 -0.9181423783302306 0.96216002106666576 -0.20987932384014127 -1.3898054957389829 -0.81568819284439076 -0.94782456755638111 1.2960081696510317 -2.2088972330093379 0.78942745923995983 -0.19840393215417859 1.0849452018737795 -1.0146583318710325 -0.53680315613746632 1.0012331604957583 -0.87541967630386341 -0.83806386590003956 0.67110648751258861 0.51412871479988109 1.1292672753334048 0.38120821118354803 -1.0336883664131162 -1.4456968903541563 0.79213514924049389 -0.85138839483261097 -1.2065287828445432 1.1632145047187807 1.4644814133644106 -1.0204383134841917 0.45770195126533514 1.0290972590446474 1.0000000180025095e-35 1.0000000180025095e-35 0.65684640407562267
decision_type=2 2 2 2 2 2 2 2 2 2 2 2 2 2 2 2 2 2 2 2 2 2 2 2 2 2 2 2 2 2 2 2 2 2 2 2 2 2 2 2 2 2 2 2 2 2 2 2 2 2 2 2 2 2 2 2 2 2 2 2 2
left_child=1 2 3 4 5 -1 -6 20 9 11 29 12 46 44 -14 27 21 30 -9 -19 -5 22 -12 50 -25 36 -23 28 -11 34 -13 -29 41 48 35 -10 53 -34 39 -31 -40 -18 43 -17 49 -46 -2 -44 57 -4 -15 52 -38 58 -55 -50 -36 -27 -3 60 -35
right_child=8 25 13 7 6 -7 -8 18 10 15 16 17 14 23 -16 42 32 19 -20 -21 -22 26 -24 24 -26 33 -28 31 -30 38 -32 -33 37 59 56 -37 51 -39 40 -41 -42 -43 47 -45 45 -47 -48 -49 55 -51 -52 -53 -54 54 -56 -57 -58 -59 -60 -61 -62
leaf_value=0.048046116321926305 0.39763084182316699 -0.11045759347169473 0.56727903292697546 -0.028307828622567401 0.34421311191398107 0.44184220205417007 0.21148963140825128 0.10052434139780267 -0.0059959041378485128 0.12084334778589652 0.33818666865212943 0.0075772161871205659 0.12059581243121623 -0.029802813484908781 0.29421913248726472 0.022241328619239463 0.3542569624695166 0.45215181667954296 0.30928353865011082 0.08699601998400662 0.15618751619432017 0.36256864686283574 0.13465735857176975 0.11983948636318636 0.30758048455039316 -0.11832122936112228 0.68498516767842976 0.4995648989624113 0.29199275902653493 0.03374832583334119 -0.088505964521168684 0.3030339941162149 0.59288661730314096 -0.11999492663116683 -0.11624125648527205 0.22622599521742104 -0.11378921797198556 0.13307903842768065 -0.055965204037432381 0.55503510913466436 0.24370074867360281 0.51535590037969636 -0.011017757661864851 0.23261032035040047 0.3862444543976048 0.017123543014610144 0.5667958177208805 0.5853134056936673 0.59301409178843589 -0.03833598952270862 0.59201904739712741 0.48988776608449425 0.47103220797105144 -0.079559714254906183 0.56930540087568837 0.38946215527982431 0.24887609550689938 0.2672098434031896 -0.1183827436810384 -0.10960874096196992 -0.11638498659510155
leaf_weight=1158.2835748493671 246.43266324698925 393.86293844878674 2.8179188445210448 614.56432688981295 39457.086092017591 382.7575683221221 1741.5289086252451 264.0037010833621 60.371667094528675 281.84142220020294 529.567567281425 669.44898112118244 3923.8764399290085 123.53556887060404 552.75408487021923 61.855180591344833 176.58404695987701 73.907051838934422 980.74056110531092 371.00103110074997 368.68131491541862 241.33397873491049 388.08109152317047 447.6885666847229 851.03107373416424 5.8869898915290815 70.334889531135559 162.84878743439913 2376.5482595711946 114.50918088108301 686.38792761415243 118.44759523123503 211.46292796730995 6.9961343407630903 30.377343602478504 407.054951608181 5.6807903572916993 11.486275240778921 205.32708609104156 31.302822977304459 34.48583459854126 149.70559930801392 172.0044586956501 103.99802117049694 28.815716959536076 208.21784268319607 67.147614821791649 4.0842975899577132 10.728581562638277 516.12910017371178 2.7088802754878989 7.890878051519393 3.254866600036622 28.136021807789803 5.5775841772556296 30.036835461854938 2.6151917278766623 2.5042311102151871 145.33183024078608 3.1162631735205641 4.3972098082304001
leaf_count=8259 813 4729 15 6672 133388 1148 8642 2216 433 1725 2209 6491 28126 1108 3067 428 711 257 4108 2979 2825 954 2326 3259 4298 47 75 444 10898 791 7859 534 400 51 254 2106 57 69 1581 70 173 387 1251 531 201 2108 155 8 13 5743 10 27 11 278 15 88 13 15 1118 39 38
internal_value=0 0.309944 0.31506 0.32345 0.331653 0.145856 0.338603 0.166092 0.190939 0.167454 0.277953 0.118632 0.161137 0.142067 0.142034 0.265509 0.356266 0.00556212 0.265007 0.147655 0.0408712 0.298563 0.252112 0.219889 0.242863 -0.0591987 0.435329 0.287528 0.273848 0.120757 -0.0410646 0.41681 0.485417 0.256654 0.17754 0.196233 -0.0932973 0.569197 0.0470709 0.145658 -0.0128723 0.428171 0.0762183 0.154153 -0.00461974 0.0619969 0.433854 0.00281387 0.366848 -0.0350475 -0.0164601 0.282434 0.0992355 -0.104333 0.0277886 0.443033 -0.0872998 -0.0032654 -0.112594 -0.11667 -0.118602
internal_weight=0 47802 47148.6 44967.6 42739.7 1541.04 41198.6 2227.99 12537.2 9872.58 2664.6 6590.96 4790.21 2180.94 4476.63 3281.63 1778.56 1800.74 1244.74 444.908 983.246 1229.32 917.649 1424.96 1298.72 653.401 311.669 2939.69 2658.39 886.044 1355.84 281.296 549.239 63.6662 500.419 467.427 589.735 222.949 385.625 145.812 239.813 326.29 341.942 165.853 755.981 237.034 313.58 176.089 49.1566 518.947 126.244 16.8265 8.93566 572.908 33.7136 40.7654 32.9925 8.39122 539.195 14.5096 11.3933
internal_count=268644 190526 184000 167258 151437 9407 142030 15821 78118 65566 12552 49747 32161 16742 31193 15819 7131 17586 6324 3236 9497 5564 4535 8675 7557 6526 1029 13601 12623 5421 14350 978 1567 291 2806 2539 6235 469 2615 861 1754 1098 2218 959 8067 2309 968 1259 163 5758 1118 95 68 6140 293 101 267 62 5847 128 89
is_linear=0
shrinkage=0.1


Tree=2
num_leaves=56
num_cat=0
split_feature=32 120 130 131 5 128 30 130 100 31 128 54 134 103 32 104 100 72 107 103 86 118 103 22 32 74 72 70 54 32 98 122 117 52 53 107 76 49 38 4 103 31 21 56 100 110 106 38 117 136 129 21 72 89 90
split_gain=7447.03 5186.63 2914.67 2988.09 2930.27 3371.25 2258.3 2077.77 1591.52 1321.94 1204.49 3344.65 1244.5 984.946 950.729 830.498 822.69 795.88 742.259 706.895 697.882 735.675 628.704 595.922 580.218 578.306 394.579 390.41 363.288 252.019 215.804 199.203 375.373 196.386 195.727 167.883 173.411 167.873 134.444 108.239 187.447 96.388 63.4878 110.409 61.5441 37.7869 24.2525 24.1793 10.5728 0.478327 0.061857 0.0436561 0.0179916 0.00721412 0.000947796
threshold=0.95552045106887828 -0.60728242993354786 1.0000000180025095e-35 1.0000000180025095e-35 0.59695172309875499 1.0000000180025095e-35 1.0907627344131472 1.0000000180025095e-35 -0.87128606438636769 0.99257394671440136 1.0000000180025095e-35 1.028595566749573 1.0000000180025095e-35 -0.76670214533805836 0.96024468541145336 -0.81564879417419422 -0.85733130574226368 -0.62647396326065052 -0.89541679620742787 -0.73495683073997486 -0.99815991520881642 -1.066857576370239 -0.89081883430480946 1.2822545170783999 0.96677634119987499 -0.86761939525604237 -0.66317981481552113 -0.18766539543867108 1.0433982014656069 0.96365129947662365 -0.78852948546409596 -1.2723549008369444 -1.0144305825233457 1.1393165588378908 0.78749707341194164 -0.83392822742462147 -1.1041479706764219 1.190423905849457 0.9766564965248109 0.66364422440528881 -0.88893249630928028 0.99023434519767772 1.7114387154579165 0.67388707399368297 -0.77391925454139698 -0.89807191491127003 -0.96975478529930104 0.97953251004219066 -1.0990160107612608 1.0000000180025095e-35 1.0000000180025095e-35 1.3187478184700014 -0.59054929018020619 -0.97981032729148854 -1.1229314804077146
decision_type=2 2 2 2 2 2 2 2 2 2 2 2 2 2 2 2 2 2 2 2 2 2 2 2 2 2 2 2 2 2 2 2 2 2 2 2 2 2 2 2 2 2 2 2 2 2 2 2 2 2 2 2 2 2 2
left_child=1 2 3 4 5 -1 -6 10 39 34 12 16 15 18 23 24 26 -18 25 -17 21 -10 -11 -14 -2 29 -12 35 30 -9 -13 44 -33 -16 -5 36 -15 48 -37 41 -41 -4 46 53 -20 -30 -3 -22 -29 50 -48 -51 -27 54 -44
right_child=7 42 8 9 6 -7 -8 13 20 22 11 28 14 27 33 19 17 -19 31 -21 47 -23 -24 -25 -26 52 -28 37 45 -31 -32 32 -34 -35 -36 38 -38 -39 -40 40 -42 -43 43 -45 -46 -47 49 -49 -50 51 -52 -53 -54 -55 -56
leaf_value=0.21752223018884714 0.17183496039499965 0.15650057357531202 -0.087445691517194959 0.52446210089925305 0.26944609001099629 -0.038816367028310705 0.18643147265182208 0.37265610658255033 0.2537966709043965 0.015970483438071083 0.18888038093056045 0.018967499659042528 0.014755350321350225 0.38664639111407834 -0.047560418666992246 0.22425917226744657 0.3693844819882135 0.16903735837361927 -0.092644374490500947 -0.043735698976237608 -0.01217748361267033 0.1197182436709299 0.18395021702266065 0.17652743118519709 0.066506076281098614 -0.11731717327675964 -0.035968709081497012 0.024802271094268712 -0.057914737946426702 0.0084820584621240896 0.32841315019591477 0.10174165373975863 -0.03899680655397874 0.43449486378026614 -0.05189279325833196 0.61579859814921267 -0.11419710056996601 0.32284254434768339 -0.020670945372932688 -0.028641354834506545 0.20152872561806945 0.0030787886731531411 -0.11679056061823825 0.51717768749674098 0.09661043124219737 -0.10689389848986659 -0.108936163184139 -0.11269254719957389 -0.11287666219125952 -0.11463739001517857 -0.11570822814055369 -0.11823931218859161 -0.11145094326930526 -0.12234649961535954 -0.11398640368054076
leaf_weight=22283.553744316101 4156.3396671339869 3.4061374366283408 167.6079415678978 5.9777178764343253 26379.820852257311 525.1439250856638 3741.7934394925833 106.81522995978594 857.64746145904064 267.15436460822821 156.05613876134157 411.64188871532679 300.20414762943983 129.2172314375639 405.31654708832502 4452.912642724812 392.07782679796219 401.15063360333443 330.99172277748585 100.64886824786663 37.176362574100494 782.70063681155443 1342.2814574018121 942.96432422101498 598.27389124780893 6.0688958987593642 156.12827427685261 6.6352228075265876 309.27041333168745 23.114850006997585 23.842042088508606 280.57306905090809 583.92010685056448 8.631132706999777 411.44951117038727 3.9335312470793751 7.303865671157836 12.825945690274237 21.237405985593796 79.788762927055359 63.573100298643112 394.40622425079346 2.5785559415817261 4.4694167375564575 18.123584553599358 321.002730242908 307.70068269222975 67.177239984273911 34.995298191905022 71.948926843702793 14.106308922171591 63.213010221719742 37.741451025009155 2.2367498204112035 2.2633319348096848
leaf_count=74884 19406 16 2005 19 61692 4516 12335 371 3094 2463 592 3806 1899 342 2877 16745 891 2161 3380 676 325 5031 7228 4169 3762 51 960 44 3517 181 155 2290 5643 22 4173 14 77 37 234 850 426 4214 22 4 145 3961 4155 692 383 646 122 485 417 16 23
internal_value=0 0.226625 0.229339 0.234096 0.238659 0.21162 0.259134 0.147007 0.122622 0.114938 0.160125 0.092075 0.173599 0.0395449 0.0937543 0.187813 0.213945 0.268065 0.00860956 0.218336 0.173868 0.18982 0.156067 0.137462 0.158581 0.201928 0.0764299 0.238104 -0.0343293 0.307869 0.0359091 -0.019066 0.00668016 -0.0375092 -0.0436392 0.316098 0.359851 0.00652222 0.0787919 -0.00413361 0.0734264 -0.0239181 -0.103539 0.128046 -0.0828196 -0.0828602 -0.109348 -0.0768837 -0.0909329 -0.11133 -0.109233 -0.116322 -0.112264 -0.11765 -0.11548
internal_weight=0 57879.2 57407.3 54957.2 52930.3 22808.7 30121.6 14740 2450.08 2026.86 13136.5 2171.17 10965.3 1603.5 1657.12 9308.18 1105.41 793.228 1387.35 4553.56 1744.7 1640.35 1609.44 1243.17 4754.61 173.74 312.184 216.149 1065.76 129.93 435.484 1213.61 864.493 413.948 417.427 161.692 136.521 54.4565 25.1709 705.376 143.362 562.014 471.923 11.5481 349.115 630.273 460.375 104.354 41.6305 456.969 321.807 135.162 43.8103 7.07864 4.84189
internal_count=268644 189436 183947 167310 153427 79400 74027 79208 16637 13883 65599 16043 49556 13609 8967 40589 4604 3052 12478 17421 9142 8125 9691 6068 23168 1020 1552 1131 11439 552 3961 11458 7933 2899 4192 667 419 464 248 7495 1276 6219 5489 65 3525 7478 5424 1017 427 5408 4277 1131 468 61 45
is_linear=0
shrinkage=0.1


Tree=3
num_leaves=61
num_cat=0
split_feature=36 31 121 127 128 131 130 54 130 130 69 107 105 104 95 31 101 73 68 110 30 79 31 65 120 80 119 129 43 135 101 104 71 59 38 8 110 38 102 102 122 117 37 24 85 53 99 98 71 31 116 112 31 111 109 55 22 107 136 38
split_gain=4832.36 3463.01 3595.82 1941.96 1926.82 1612.66 1559.59 1478.15 894.91 861.295 939.632 1039.54 764.801 985.69 759.377 756.71 646.328 542.95 493.646 472.958 451.085 414.992 411.461 479.651 398.355 756.066 360.129 302.984 403.896 281.459 278.33 263.996 262 255.792 240.527 275.056 226.314 212.215 296.825 175.88 170.584 136.008 124.8 93.9534 81.6616 77.1607 123.228 71.1915 103.278 59.4712 48.3718 71.5705 30.4411 28.4982 26.2935 21.6067 13.7686 4.92379 0.352775 0.00383039
threshold=0.92420578002929699 1.0056961178779604 -0.7562788426876067 -3.4180968999862666 1.0000000180025095e-35 1.0000000180025095e-35 1.0000000180025095e-35 1.0346535444259646 1.0000000180025095e-35 1.0000000180025095e-35 1.0000000180025095e-35 -0.98811990022659291 -0.91216790676116932 -0.81564879417419422 -0.9031863510608672 0.99830377101898204 -0.82129016518592823 -0.73299038410186756 0.061046613380312927 -0.95849546790122975 1.0227571725845339 -1.4402537345886228 1.0144381523132326 0.27410049736499792 -1.7580013275146482 -0.23715674132108686 -1.6214746832847593 1.0000000180025095e-35 1.0582752227783205 1.0000000180025095e-35 -0.80742055177688588 -0.86883065104484547 -0.41983991861343378 0.83431538939476024 0.93445676565170299 0.61122915148735057 -1.1852573752403257 0.9685007929801942 -0.79185092449188221 -0.76322516798973072 -1.0771186351776121 -0.91742414236068714 0.94328385591506969 1.2583999037742617 -1.1751462817192075 1.0760435461997988 -0.80149906873702992 -0.88975471258163441 -0.44819597899913782 1.0059863924980166 -0.87379288673400868 -1.0412398576736448 1.0069844126701357 -1.0297873020172117 -0.87945297360420216 0.99949347972869884 1.7076122760772707 -0.99033603072166432 1.0000000180025095e-35 0.73247829079628002
decision_type=2 2 2 2 2 2 2 2 2 2 2 2 2 2 2 2 2 2 2 2 2 2 2 2 2 2 2 2 2 2 2 2 2 2 2 2 2 2 2 2 2 2 2 2 2 2 2 2 2 2 2 2 2 2 2 2 2 2 2 2
left_child=1 2 3 24 9 6 -5 16 22 10 12 57 36 -14 21 -7 47 33 30 34 -19 41 23 31 25 -1 -13 28 -24 -26 -18 -3 -25 -16 53 -36 -2 38 52 -20 -29 -11 49 -40 -23 46 -39 55 -49 -21 51 59 -9 -10 -47 -6 58 -12 -52 -4
right_child=4 8 50 5 7 15 -8 37 19 14 11 26 13 -15 17 -17 18 20 39 42 -22 44 27 32 29 -27 -28 40 -30 -31 -32 -33 -34 -35 35 -37 -38 45 43 -41 -42 -43 -44 -45 -46 54 -48 48 -50 -51 56 -53 -54 -55 -56 -57 -58 -59 -60 -61
leaf_value=0.47811827895487352 0.3920038359332268 0.12291025788851828 -0.11505360829146288 0.19467725303700412 -0.11447592863046299 -0.00084295217015963844 0.10994739148805842 -0.11418528986606907 0.23231011437893542 0.62950919095390412 -0.12239832398681097 0.27975108679643623 0.096820221469914453 0.16500638748947277 0.074536304298278289 0.14198204157467589 0.14171329791886111 0.13715773056709482 0.0043195532043067168 0.076231222498587839 -0.093723591417743085 -0.03809006972536607 -0.043043924857784077 0.07945440753710746 -0.11989238172852833 -0.12676732072577288 0.079175617093395448 0.11293202585420335 0.26038691273844244 0.48722208529914096 0.31051953272832755 0.18180978985957344 0.26703205137232122 0.24399334086638746 -0.11905902601125085 0.40262375840730719 0.23068598103037177 -0.056207616205987243 0.26507199632635153 0.24371231850286015 0.42285638720415375 0.04749381519329593 0.64792859637447686 0.76324867416230979 0.16755892755346341 -0.06560268562396486 0.10616912040475275 0.18921957325733332 -0.087381018495810911 -0.069020640476338185 -0.10833682365291407 0.34415028387166774 0.2497501178356783 -0.11816581851407933 -0.10465400925508553 0.12684782656000967 0.054929173418199764 -0.066541055959691564 -0.11467921360924892 -0.1100932491720788
leaf_weight=37.735680535435677 129.63631459325552 1580.9476075172424 2.085238113999365 56920.837130330503 99.64593481272459 585.63871911168098 2258.586181037128 17.902934767305855 2.6181562989950207 12.764546476304533 261.65413054078817 105.57993726432323 3232.4268650114536 6160.6773712933064 123.31516265869141 1011.9337736293674 174.83020387589931 180.66046345233917 173.62039338052273 30.156200379133224 159.18273960798979 658.92219771444798 355.6611422970891 1813.7327127233148 267.510458804667 45.675906039774418 588.35660400986671 64.786836758255959 50.040341295301914 7.8605157583951941 221.32668279856443 1467.2160330489278 77.65060480684042 320.83221633732319 12.60732690989971 50.95377629250288 264.20651134848595 261.57953384518623 7.5136295557022077 37.279441766440868 24.466029226779938 5.8576042652130118 2.5069676116108885 7.6300433352589607 19.892141401767731 319.91331762820482 56.904610522091389 24.302537217736244 30.366219148039818 431.86823879182339 286.40533167123795 5.9398654848337165 2.6368365660309783 20.377409733831882 373.95989170670509 3.8536109551787368 5.1070225089788428 16.794118762016296 126.40392028540373 6.1422948017716408
leaf_count=28 111 6704 20 138297 663 5431 14253 175 7 12 1839 271 15338 21354 817 5246 730 868 1387 246 1783 6647 2542 8754 1814 297 2663 291 196 13 618 4689 207 852 99 113 637 2880 42 234 39 47 6 14 98 3697 520 95 239 4234 4171 4 19 171 4746 20 27 106 1146 77
internal_value=0 0.178307 0.185366 0.187398 0.113857 0.188767 0.191444 0.0176527 0.105692 0.128108 0.137951 0.0441966 0.147266 0.141542 0.0566214 0.0896252 0.123316 0.12415 0.170227 -0.0157328 0.0290128 -0.0192873 0.118005 0.126715 -0.0445695 0.146885 0.109692 0.0310795 -0.00561793 -0.102562 0.236023 0.151261 0.0871554 0.196944 0.198881 0.299148 0.283785 -0.059497 0.180184 0.0466355 0.197889 0.446436 -0.0557221 0.516075 -0.0320637 -0.0679452 -0.0271952 -0.0567317 0.0355795 -0.0595401 -0.1021 0.0796241 -0.0674643 -0.0782624 -0.0866492 -0.105491 -0.10826 -0.119029 -0.110279 -0.11135
internal_weight=0 67553.5 61567.9 61135.8 14054 60777 59179.4 1813.27 5985.59 12240.8 10759.3 972.385 9786.95 9393.1 1481.43 1597.57 765.225 783.991 607.057 551.088 339.843 697.436 5434.5 4939.55 358.783 83.4116 693.937 494.954 405.701 275.371 396.157 3048.16 1891.38 444.147 86.5567 63.5611 393.843 1048.04 35.6834 210.9 89.2529 18.6222 464.531 15.1437 678.814 1012.36 318.484 158.168 54.6688 462.024 432.084 14.1674 20.5398 22.9956 693.873 103.5 417.916 278.448 412.809 8.22753
internal_count=268644 199122 170824 165379 69522 163227 152550 16079 28298 53443 42319 4879 37440 36692 11124 10677 3986 4320 2969 4876 2651 6804 23422 20354 2152 325 2934 3068 2738 1827 1348 11393 8961 1669 390 212 748 12093 250 1621 330 59 4486 56 6745 11843 3400 1017 334 4480 5445 101 194 178 8443 683 5344 1945 5317 97
is_linear=0
shrinkage=0.1


Tree=4
num_leaves=54
num_cat=0
split_feature=53 135 116 31 34 121 80 121 109 29 106 4 29 54 29 108 130 104 117 114 133 78 101 104 120 106 70 43 0 32 75 12 120 75 53 62 126 9 17 95 54 0 41 121 125 32 111 4 136 130 22 31 22
split_gain=3571.55 2647.86 2559.5 2098.95 2070.69 2354.56 1892.74 1686.91 1575.47 1139.88 1098.57 1092.67 1237.38 1032.01 945.784 689.175 476.217 445.172 397.092 337.187 334.917 315.525 397.184 302.051 271.023 249.867 270.915 245.539 216.979 205.922 153.216 147.438 139.007 117.251 87.2782 75.0335 93.5682 70.9334 95.285 69.7723 61.7049 42.3558 31.189 20.1927 18.3999 3.35674 0.283567 0.156359 0.0847654 0.0299183 0.0205491 0.00749637 0.00174347
threshold=1.0403088927268984 1.0000000180025095e-35 -0.82787048816680897 1.0055443644523623 0.83488810062408458 -1.8583036661148069 -0.39439977705478663 -1.8368352651596067 -1.1322313547134397 1.211826026439667 -0.90285414457321156 0.76390516757965099 1.2301105856895449 0.88045004010200512 1.2011157870292666 -0.9448079764842986 1.0000000180025095e-35 -0.82566642761230458 -1.576932907104492 -1.0265564322471616 1.0000000180025095e-35 -1.0227442383766172 -0.84894186258316029 -0.88811635971069325 -1.7580013275146482 -0.97387149930000294 -0.31040930747985834 1.143655598163605 0.47786189615726476 0.92353591322898876 -1.0173739790916441 0.90180206298828136 -1.7580013275146482 -0.44932283461093897 1.0295159816741946 0.76636818051338207 -2.8473465442657466 0.62707477807998668 1.1873230934143069 -0.91116595268249501 0.9489804506301881 0.33064872026443487 1.0046097040176394 -1.2747756242752073 -2.5499864816665645 0.92292863130569469 -0.64345058798789967 0.73289722204208385 1.0000000180025095e-35 1.0000000180025095e-35 1.3295035958290102 1.0030845403671267 1.3078013062477114
decision_type=2 2 2 2 2 2 2 2 2 2 2 2 2 2 2 2 2 2 2 2 2 2 2 2 2 2 2 2 2 2 2 2 2 2 2 2 2 2 2 2 2 2 2 2 2 2 2 2 2 2 2 2 2
left_child=2 4 3 9 17 8 7 -7 33 13 23 12 -11 20 -15 -13 21 28 -19 30 -1 22 -5 43 -10 45 -27 -8 31 35 -18 -2 -20 -6 46 36 -12 41 -39 -23 -21 -31 -30 51 -37 -25 47 -4 50 -49 -48 -3 -50
right_child=1 10 34 16 5 6 27 -9 24 11 29 15 -14 14 -16 -17 19 18 32 40 -22 39 -24 25 -26 26 -28 -29 42 37 -32 -33 -34 -35 -36 44 -38 38 -40 -41 -42 -43 -44 -45 -46 -47 48 49 52 -51 -52 -53 -54
leaf_value=0.197830491676391 0.041219097209065497 -0.13823474944990619 -0.13016645813054245 0.1085346553374988 0.20951986846433288 0.27885313711114884 0.142993196864769 0.10841416065942285 0.36167775493140292 0.11595398139101815 -0.13197113027460619 0.32318187550310207 -0.046892261358752213 0.16506321144598213 0.022960090281778409 0.13328654917136493 0.33233968373628087 0.37047394667377692 0.048453963430427953 0.091167677829178229 0.26153566820319413 0.31561464010229567 0.012220809425997634 0.27398858844305435 0.25161225720171659 0.2123262175383602 0.097474826500719688 -0.11303534552833211 -0.11718015556577335 0.16154279500197605 0.014727066585096064 0.178382226988446 -0.10722491620110947 -0.12548371245955089 0.23126629454352898 0.45967346733299597 0.30868624328354372 -0.088217458966135989 0.31403571374251399 0.18137852643516036 -0.078675626466534684 0.30750052586527554 0.22751423118702832 0.09693155074161186 0.36691783451681781 0.31120675410355708 -0.1069430515338157 -0.11383968902425086 -0.11162193528744346 -0.1074018706563956 -0.1117529266145097 -0.13358495025321421 -0.1145003040917577
leaf_weight=4696.0572601258755 496.97771009802818 32.758699014782906 5.8308170810341826 3899.5961398035288 11.507827416062353 591.13514344394207 41.042534694075584 32900.601290289313 295.27953796833754 2151.0667711421847 4.8474769443273535 334.62551530450583 595.85678791999817 34638.164905138314 474.78508539497852 445.63988174498081 34.834655776619911 19.282628558576107 64.232110410928726 23.349849581718445 1001.1995185613632 44.88492788374424 480.97908470034599 34.146769881248474 923.14262569695711 349.6315563172102 497.79986418783665 428.87851534038782 84.16111158952117 51.612165808677673 26.930183127522469 93.038184762001038 535.75220896303654 113.40210545808077 7.6705321595072737 34.20113343000412 810.56085734069347 19.433092907071117 8.4491069316863996 281.95179302245378 254.92518708854914 32.339766070246696 2.7095312923192969 4.0743716657161704 57.077155701816082 83.467848658561707 222.94821321219206 78.487946052104235 45.706221967935562 7.9498612061142913 9.2508599348366243 3.8776479810476294 2.205931454896926
leaf_count=7535 2136 164 35 15003 44 710 118 130623 261 5574 27 423 2862 74599 1639 1292 47 36 302 201 1038 69 2480 31 1032 671 1584 2858 836 136 147 378 3229 767 14 27 889 90 8 665 2709 40 13 12 40 43 3691 753 490 125 107 21 20
internal_value=0 0.115362 0.155888 0.157878 0.109205 0.113762 0.108626 0.111422 0.243611 0.164833 0.226695 0.110294 0.0806297 0.169547 0.163142 0.214725 0.0967759 -0.014932 -0.076203 -0.01751 0.209026 0.105031 0.0979596 0.152561 0.278286 0.163817 0.14486 -0.090674 0.0411233 0.2999 0.193857 0.062848 -0.0905585 -0.0946202 -0.102631 0.315691 0.306067 0.171871 0.0336768 0.199813 -0.0644242 0.217768 -0.106429 -0.114256 0.401673 0.300401 -0.109509 -0.114317 -0.107925 -0.113248 -0.107135 -0.137743 -0.111754
internal_weight=0 38625.4 49764.9 49384.8 36601.1 35305 33961.7 33491.7 1343.33 44337.4 2024.28 3527.19 2746.92 40810.2 35112.9 780.265 5047.45 1296.15 619.267 340.04 5697.26 4707.41 4380.58 1005.76 1218.42 965.046 847.431 469.921 676.887 1018.52 61.7648 590.016 599.984 124.91 380.05 906.687 815.408 111.834 27.8822 326.837 278.275 83.9519 86.8706 40.7107 91.2783 117.615 372.38 92.2686 280.111 86.4378 232.199 36.6363 47.9122
internal_count=268644 147126 121518 116283 143343 136413 134309 131333 2104 94962 3783 10151 8436 84811 76238 1715 21321 6930 3567 3104 8573 18217 17483 2526 1293 2329 2255 2976 3363 1257 194 2514 3531 811 5235 983 916 274 98 734 2910 176 849 197 67 74 5221 913 4308 878 3798 185 510
is_linear=0
shrinkage=0.1


Tree=5
num_leaves=63
num_cat=0
split_feature=53 128 131 130 135 34 121 80 76 109 91 75 128 100 72 106 100 22 29 72 103 116 51 32 31 54 114 102 68 32 100 71 57 100 103 88 0 4 2 125 74 87 25 77 22 100 31 127 35 78 119 11 65 49 37 68 69 117 54 30 109 128
split_gain=2790.18 2370.47 1884.95 1633.17 1571.07 1397.66 1603.83 1448.92 1159.26 1111.81 1028.41 1020.52 1071.48 677.894 1017.69 619.343 579.297 444.651 422.121 398.934 386.976 383.717 372.859 410.645 492.332 346.867 328.194 317.177 355.173 307.694 280.779 259.46 369.35 241.194 235.773 234.615 214.938 193.092 187.349 175.561 137.623 135.415 160.02 109.823 164.516 106.241 96.5275 121.833 89.9875 82.7903 77.3641 74.4066 73.1033 66.4357 55.8503 54.3319 50.9592 41.8132 30.9743 0.623658 0.0701742 0.0570153
threshold=1.0493885874748232 1.0000000180025095e-35 1.0000000180025095e-35 1.0000000180025095e-35 1.0000000180025095e-35 0.83602187037467968 -1.8583036661148069 -0.39439977705478663 -1.2256487011909483 -1.1322313547134397 -1.2642966508865354 -1.1333504915237425 1.0000000180025095e-35 -0.90093615651130665 -0.6824636161327361 -0.90285414457321156 -0.87128606438636769 1.2359533309936526 1.1528667807579043 -0.66721153259277333 -0.80452197790145863 -1.4954839944839475 1.0408809185028078 0.91826400160789501 1.0075390338897707 1.0433982014656069 -1.0265564322471616 -0.79651585221290577 0.051217215135693557 0.90148288011550914 -0.83535683155059803 -0.49014087021350855 0.88417088985443126 -0.88436940312385548 -0.84897190332412709 -0.58836674690246571 0.48092845082283026 0.64631080627441417 0.52523478865623485 -1.2184469103813169 -0.87936678528785694 -1.2985736131668089 1.3648058176040652 -1.324792146682739 1.3059143424034121 -0.90624532103538502 0.98872175812721264 -1.5950362682342527 0.86801716685295116 -1.2911090254783628 -1.0131096839904783 0.89885535836219799 0.30731041729450231 1.104956388473511 0.95125573873519909 -0.082121875137090669 -0.16835460066795346 -0.94164773821830738 1.0605713725090029 1.0419064164161684 -0.59881791472434986 1.0000000180025095e-35
decision_type=2 2 2 2 2 2 2 2 2 2 2 2 2 2 2 2 2 2 2 2 2 2 2 2 2 2 2 2 2 2 2 2 2 2 2 2 2 2 2 2 2 2 2 2 2 2 2 2 2 2 2 2 2 2 2 2 2 2 2 2 2 2
left_child=2 4 3 10 5 20 9 -8 17 -7 59 29 -13 22 18 34 41 46 33 36 38 -22 23 45 -25 27 -21 49 -29 -12 39 32 -16 -15 40 -36 -18 -20 -2 -19 -6 57 -43 44 -24 -4 47 -3 56 -10 -48 58 -50 -33 -32 -45 -17 -5 -27 60 -1 -61
right_child=1 8 13 16 15 6 7 -9 25 -11 11 12 -14 14 31 48 19 30 37 26 21 -23 43 24 -26 51 -28 28 -30 -31 54 53 -34 -35 35 -37 -38 -39 -40 -41 -42 42 -44 55 -46 -47 50 -49 52 -51 -52 -53 -54 -55 -56 -57 -58 -59 -60 61 -62 -63
leaf_value=-0.11163328696072594 0.08913433956525621 -0.11173911709397399 -0.066226981580919317 0.37857634952637276 0.19416129271884552 -0.090666620645619464 0.097979732006396245 -0.086210194228666437 -0.0084311473356821088 0.23045162682944489 0.048366894065327855 0.13741526301093351 0.050612927899617202 0.1362554952936888 0.0018134601478279695 0.22812068931544865 0.20272214916092285 0.066254548667022864 -0.064399111551851948 0.14081100730006421 0.1035568750848302 -0.08976065624630114 -0.079365915315904298 0.19172565178911261 -0.034352637239552605 -0.070420492962362691 -0.0096082444764872682 0.24135592987187532 0.01595844842086426 0.19821830481424807 0.29978020856145354 -0.086292277939182982 0.17870707911677577 0.24626129603039204 0.16037295291651227 -0.074238016198707971 -0.0871945259574953 0.32103006848387317 -0.081854887278139138 0.30960337273930683 -0.072282199808472877 0.053981026123473858 -0.04955654040404453 -0.046884972232778675 0.18608241182624516 0.36685537397316081 0.44164741363247817 0.31521599391018035 -0.06277160442732499 -0.090342065769419361 -0.039844127107700342 0.20813126414670402 0.19414442517959477 0.011695108730819108 0.10580926716100708 -0.11140081463048002 0.27694034200069417 -0.087604297328086611 -0.10754638729326174 -0.12878327800472744 -0.1068731767677585 -0.14493991911641138
leaf_weight=113.27777754515409 386.46973966434598 10.264384791254999 225.56570504233241 1.9398355856537808 25.264541611075401 117.52351579070091 27694.132056646049 433.77295849472284 245.66235170513391 1305.9246147125959 143.12618793547153 48726.033208042383 1464.8203813806176 384.98415438085794 370.57376434653997 392.90210111439228 319.45164375007153 175.16880417615175 98.022667489945889 229.5819808319211 124.08452089130878 595.10760446637869 50.479082576930523 268.57664490491152 150.19178758561611 464.709742449224 393.96018087118864 93.510747417807579 277.00282566994429 3214.1233087927103 151.41955267637968 218.91294296085835 173.20553581416607 413.26901188120246 742.56020328402519 45.220146298408508 27.797367364168167 14.984982408583162 76.815097264945507 35.685791715979576 83.310028895735741 318.20463769510388 281.17114997655153 312.86238346248865 43.440282091498375 5.8102815970778456 3.4060879051685324 19.157480537891388 11.838895484805105 247.9261109046638 164.6242188885808 8.5438043475151044 171.70829629153013 101.1701143309474 16.457409039139748 223.98595829308033 469.07950769364834 235.67051652446389 435.15385203063488 3.9752288609743101 42.623362667858601 4.8478062152862549
leaf_count=1241 1460 117 2470 10 40 808 96175 2914 1472 1221 388 97525 5032 1174 2465 421 927 664 522 689 478 3538 395 1064 1141 5174 2547 311 2330 4791 160 1487 462 607 1523 207 191 41 759 21 358 2802 2615 2793 185 17 10 35 48 1801 1307 29 287 605 81 1945 348 2751 4892 23 727 23
internal_value=0 0.0946511 0.13033 0.134538 0.101626 0.0961142 0.10038 0.0951393 -0.00238458 0.203939 0.137685 0.138452 0.134882 0.0538695 0.0938775 0.188859 0.0410506 0.120838 0.167599 0.0936129 -0.0104927 -0.056407 -0.00157471 0.0515678 0.110642 -0.0424401 0.0457746 0.00291694 0.0728446 0.19183 0.184268 0.0161111 0.0581579 0.193207 0.127866 0.146906 0.179514 -0.0132906 0.0607834 0.10744 -0.0102827 -0.0199146 0.00541087 -0.0563498 0.0434112 -0.0553515 -0.000826567 0.166264 0.24115 -0.0495744 -0.030084 -0.085585 0.177573 -0.055321 0.280765 -0.0738025 0.254688 -0.0837984 -0.0883737 -0.111796 -0.110332 -0.137661
internal_weight=0 35024.4 58576.6 55520.6 32675.7 30733.8 29551.4 28127.9 2348.69 1423.45 53712.8 53548.1 50190.9 3056.04 1775.12 1941.88 1807.78 576.184 911.261 970.791 1182.48 719.192 1280.91 650.144 418.768 1772.51 623.542 864.102 370.514 3357.25 378.732 863.862 543.779 798.253 896.355 787.78 347.249 113.008 463.285 210.855 108.575 836.986 599.376 630.768 93.9194 231.376 197.452 29.4219 1045.53 493.588 168.03 908.407 183.547 320.083 167.877 536.848 861.982 237.61 899.864 164.724 155.901 8.82304
internal_count=268644 128989 139655 122282 110585 107353 101118 99089 18404 2029 109750 107736 102557 17373 7363 3232 12532 2395 2344 4354 6235 4016 10010 4692 2205 16009 3236 5914 2641 5179 926 5019 2927 1781 2128 1730 1118 563 2219 685 398 8178 5417 5318 580 2487 1469 152 1104 3273 1317 10095 335 2092 241 4738 769 2761 10066 2014 1968 46
is_linear=0
shrinkage=0.1


Tree=6
num_leaves=56
num_cat=0
split_feature=32 120 109 20 134 53 117 30 130 56 30 134 32 24 103 101 71 131 131 116 77 108 54 100 74 38 105 42 70 48 69 118 56 58 73 33 55 103 71 103 32 21 39 106 32 30 113 62 90 72 136 3 1 88 91
split_gain=2314.5 1505.58 1379.85 1494.29 1105.86 1183.13 1495.11 1212.98 814.826 709.583 1273.51 555.285 539.656 494.647 463.286 435.357 931.864 576.93 439.362 431.134 616.752 387.047 378.91 837.23 309.028 279.228 284.994 226.356 216.816 364.966 198.285 174.138 173.818 165.747 149.259 136.181 107.867 100.343 168.62 66.6939 64.4229 42.786 47.5038 15.3962 12.8914 0.12937 0.122625 0.110003 0.0498809 0.0439313 0.0410415 0.0377009 0.0158414 0.000866126 5.18322e-05
threshold=0.95493611693382274 -0.60728242993354786 -1.1270298957824705 1.0806485414505007 1.0000000180025095e-35 0.98123872280120861 -1.5327712297439573 1.0894603729248049 1.0000000180025095e-35 0.98951345682144176 1.0449849367141726 1.0000000180025095e-35 0.96024468541145336 1.2583999037742617 -0.76799270510673512 -0.86671325564384449 -0.4891547411680221 1.0000000180025095e-35 1.0000000180025095e-35 -1.5220026969909666 -0.45520657300949091 -0.91938281059265126 1.0076172947883608 -0.84106689691543568 -0.86761939525604237 0.9160195291042329 -0.91139730811119068 1.0183197855949404 -0.27040143311023707 1.1175953149795534 -0.0097940396517515165 -1.1054235100746153 0.93093523383140575 0.79963442683219921 -0.47995802760124201 0.93764781951904308 1.046229422092438 -0.74861478805541981 -0.38767635822296137 -0.79477378726005543 0.96271365880966198 1.7114387154579165 0.60625237226486217 -0.96975478529930104 0.95937639474868786 1.0227571725845339 -0.60383421182632435 0.52454957365989696 -1.0600554347038267 -0.58875954151153553 1.0000000180025095e-35 0.7366415560245515 0.41849595308303839 -1.1427658796310423 -1.0656381249427793
decision_type=2 2 2 2 2 2 2 2 2 2 2 2 2 2 2 2 2 2 2 2 2 2 2 2 2 2 2 2 2 2 2 2 2 2 2 2 2 2 2 2 2 2 2 2 2 2 2 2 2 2 2 2 2 2 2
left_child=1 2 3 19 5 7 -7 -4 11 10 -6 15 22 -11 21 18 32 -18 27 20 -1 24 23 -13 35 47 -27 -2 29 -23 37 -24 -17 -20 -21 -10 40 38 -16 -30 -14 43 51 -3 -39 48 52 -5 -32 -26 -48 -43 -45 -53 -47
right_child=8 41 4 25 9 6 -8 -9 14 13 -12 12 36 -15 30 16 17 -19 33 34 -22 28 31 -25 49 26 -28 -29 39 -31 45 -33 -34 -35 -36 -37 -38 44 -40 -41 -42 42 -44 46 -46 54 50 -49 -50 -51 -52 53 -54 -55 -56
leaf_value=0.237552619072597 0.10958481218153791 0.086912985614318691 0.13746815442121418 -0.16628903583011401 0.012102046408608222 0.17898010089886177 0.091134142641398519 0.084614880563132877 0.18702664966401364 0.12321045978459844 0.1401254456050586 -0.022506781923860211 -0.038608729604172727 0.25065225029739602 0.17920077049392902 0.12826759067371371 0.088766274754566499 0.013655393504810102 0.085532105459511371 0.049276675038174809 -0.057827014958890678 -0.055798795709132688 0.057911538567212567 0.17367229309521576 -0.12048327346255815 0.18303191759973381 0.07190628112407231 -0.020193824718965411 -0.10509492320832059 0.087755402028171003 -0.12169389107182774 -0.022191625065863932 0.22316345849778307 -0.082395117241468585 -0.10511000744232508 -0.12222988294112332 0.22422805712703875 0.16027132251512344 -0.0050367885307288345 -0.043402565127216707 -0.11375490718735426 -0.12882152368536695 0.26485227242543324 -0.1139323101483864 0.263994698156228 -0.10986591079727087 -0.10600200409087575 -0.14915195931296751 -0.13072826018054154 -0.11209734355711219 -0.10939984503712273 -0.11118366232932747 -0.11034837862328334 -0.11409833991135121 -0.10925885447418138
leaf_weight=110.4680502563715 492.5682627260685 4.1121740415692321 17405.21882770583 29.195751816034317 839.25912354886532 2044.877814501524 36877.65885655582 5785.5740683972836 179.45038063824177 462.14003578573465 10474.949466586113 339.39502894133329 309.96727595478296 893.18653421103954 133.39982780069113 294.92735373228788 12649.454493373632 1112.5706751272082 70.229535691440105 68.692396551370621 196.30367116630077 397.32714086025953 526.98456203937531 605.90203788131475 7.2791470512747756 482.05092131346464 442.75869728624821 184.82456232607365 304.33733333647251 319.52183505147696 12.584935486316684 559.55188247561455 558.60597535222769 360.41075233370066 708.52648220211267 15.466198042035101 13.124366909265516 14.854607023298739 79.15179967135191 413.09327044337988 180.52873377501965 2.139271713793276 6.6997204348444939 14.767507322132586 61.974428988993168 2.3690053373575211 198.9800795763731 4.2969689071178427 11.880815990269184 44.056919075548649 43.280242189764977 2.3114064000546932 74.815535005182028 1.8241272009909151 3.4618431255221358
leaf_count=235 1394 16 28704 122 2937 3164 103008 14355 400 1153 17836 1340 1733 1167 384 744 45251 6269 335 266 1414 3479 2088 1135 55 642 1514 820 2799 1889 91 2405 829 2715 4261 113 22 28 584 3633 1144 14 5 158 62 29 3774 20 69 473 552 28 924 18 45
internal_value=0 0.108739 0.10968 0.0285826 0.111895 0.106403 0.0957493 0.124282 0.0707603 0.13882 0.130629 0.077398 0.0339703 0.207197 0.0101674 0.0844008 0.0889824 0.082694 0.0239672 -0.0518436 0.0485388 -0.010823 0.0569391 0.103237 0.104997 0.119557 0.12983 0.0741751 -0.0307083 0.00818777 0.120513 0.0166595 0.190373 -0.0550093 -0.091465 0.162488 -0.0586962 0.145996 0.110593 -0.0695727 -0.0662665 -0.0985134 0.0796739 -0.105395 0.24394 -0.122891 -0.107778 -0.16409 -0.126081 -0.113286 -0.106609 -0.118044 -0.110939 -0.112469 -0.109505
internal_weight=0 77174.1 76825.2 2042.29 74782.9 62113.3 38922.5 23190.8 20259.3 12669.5 11314.2 18259 2535.45 1355.33 2000.21 15723.6 14615.6 13762 1108.03 1083.99 306.772 1680.53 2031.83 945.297 246.253 958.302 924.81 677.393 1434.28 716.849 319.677 1086.54 853.533 430.64 777.219 194.917 503.62 289.381 212.552 717.431 490.496 348.93 12.9745 335.956 76.829 30.2966 331.843 33.4927 24.4658 51.3361 242.26 6.27481 89.583 4.13553 5.83085
internal_count=268644 186287 180798 8474 172324 149231 106172 43059 82357 23093 20773 68224 9867 2320 14133 58357 53093 51520 5264 6176 1649 12841 6968 2475 1041 2298 2156 2214 11800 5368 1292 4493 1573 3050 4527 513 2899 1058 968 6432 2877 5489 65 5424 90 234 5408 142 160 528 4326 60 1082 46 74
is_linear=0
shrinkage=0.1


Tree=7
num_leaves=63
num_cat=0
split_feature=37 31 128 131 130 45 70 118 118 108 31 31 130 56 16 75 119 75 30 135 72 75 106 100 30 54 97 109 117 99 41 105 122 109 106 107 104 99 75 124 105 133 109 78 87 119 76 31 48 68 53 54 118 135 37 100 74 73 120 57 73 53
split_gain=1960.73 1611.98 1303.94 1266.21 1027.8 983.201 1165.27 852.484 764.922 558.693 848.054 556.952 465.658 464.664 460.036 416.788 343.213 283.327 279.194 279.35 271.332 260.335 315.936 243.277 235.489 229.467 222.863 214.426 209.86 203.9 216.307 168.283 137.452 127.882 127.098 122.996 114.584 109.504 100.806 99.3074 89.849 74.3743 70.2435 185.216 162.418 69.1393 170.859 63.6569 104.908 60.4248 58.6391 48.7736 46.0061 38.8078 36.0759 47.1731 21.4769 35.0654 13.6375 11.5762 10.1951 7.6235
threshold=0.95630997419357311 1.0055443644523623 1.0000000180025095e-35 1.0000000180025095e-35 1.0000000180025095e-35 1.1935185790061953 -0.12346218153834342 -1.5949513316154478 -1.0106196403503416 -1.0564096570014951 0.94349321722984325 1.0007033944129946 1.0000000180025095e-35 0.98029303550720226 1.0056692361831667 -1.078577399253845 -1.6667046546936033 -1.0901651382446287 1.0980141758918764 1.0000000180025095e-35 -0.66023671627044667 -1.1191845536231992 -0.88550058007240284 -0.87994453310966481 1.0624627470970156 1.0346535444259646 -0.91482552886009205 -1.1385283470153806 -1.0471243262290952 -0.82571101188659657 1.0535112023353579 -0.95527440309524525 -1.2723549008369444 -1.0716476440429685 -0.87724956870079029 -0.92372545599937428 -0.79932653903961171 -0.78238564729690541 -1.05449903011322 -2.0217270851135249 -0.93139606714248646 1.0000000180025095e-35 -0.87576422095298756 -1.3000763058662412 -1.2409788966178892 -1.6776275634765623 -0.44288915395736689 1.0058381557464602 1.1193358302116396 -0.060019636526703828 0.98592096567153942 1.0605713725090029 -0.86826145648956288 1.0000000180025095e-35 0.96116667985916149 -0.82064062356948841 -0.98704409599304188 -0.81395530700683583 -1.7580013275146482 0.9199734926223756 -0.53577318787574757 1.0639545321464541
decision_type=2 2 2 2 2 2 2 2 2 2 2 2 2 2 2 2 2 2 2 2 2 2 2 2 2 2 2 2 2 2 2 2 2 2 2 2 2 2 2 2 2 2 2 2 2 2 2 2 2 2 2 2 2 2 2 2 2 2 2 2 2 2
left_child=1 3 9 4 5 6 -1 -7 15 10 45 13 18 24 16 -6 58 -10 19 20 -3 23 -23 -13 -5 29 -18 60 32 54 38 41 35 -16 -15 -14 -35 -32 -31 -29 -21 -20 43 44 -27 46 -2 48 -30 -34 -49 -45 -33 -47 55 -4 57 -44 -11 -56 -12 -58
right_child=2 12 25 11 8 7 -8 -9 17 14 27 21 28 34 33 -17 26 -19 31 40 -22 22 -24 -25 -26 42 -28 39 47 30 37 52 49 36 -36 -37 -38 -39 -40 -41 -42 -43 56 51 -46 53 -48 50 -50 -51 -52 -53 -54 -55 59 -57 61 -59 -60 -61 -62 -63
leaf_value=0.10172492607277689 0.36422928271997557 0.076124236026348213 -0.075173338267977868 -0.076390947784492305 0.21784803189013116 0.11928099034167926 0.18212665362857383 -0.0064129686573353986 0.010718947051581114 0.32680015404276763 0.25137380063806924 0.072887900891742838 0.16024380652878578 -0.056383956539150383 0.20413251970607282 0.069571496189405904 -0.074495846920410586 -0.10386022874289531 -0.14124133642091508 -0.091738519201145979 0.036532532628517855 0.15398999408169492 -0.025481474444354221 0.20242898516932081 0.019744767525129766 0.1483964737071076 0.073209055870709042 -0.084917446426558449 -0.072438228723935502 0.29748303591862252 -0.055765740508731398 -0.079514087592767277 -0.11826906401770454 -0.048529777945364581 0.27829810052801285 -0.056698070880493112 0.13115508427025654 0.16089098540305133 0.00082351019208020564 0.095111273321450973 0.13912062243495291 0.16407534719591219 -0.11387851280600117 -0.031277973507534335 1.0121837607541675 -0.10502192184190634 -0.11414569332357249 0.054782970473075177 0.27306895860667679 0.23252476715804457 -0.082133717649090637 -0.099502344181034846 0.22355810058100234 0.078186956604568592 -0.12303566353518434 0.069962542889393631 -0.018162866314547801 0.20508161993979526 0.24261275636323384 0.0027535055042949893 0.18810836573662995 -0.10583239074351405
leaf_weight=71003.619082286954 11.291689395904539 3503.2448735684156 54.492393814027309 687.47764888778329 212.25234184414148 836.00068558007479 1849.5393521972001 1521.8023009523749 1141.5174569450319 28.364398241043091 32.177046865224838 449.84507451206446 36.947270385921001 13.927377477288244 23.519569128751755 1773.9452916681767 103.4405313283205 266.12553019076586 9.5061953067779523 17.426676973700523 3421.6547415852547 131.4257972240448 386.65900021791458 213.90975403785706 404.85288289189339 14.687686227262022 8201.8475961461663 49.233409211039543 22.128958329558372 54.560299575328827 77.247599735856056 237.26838677376509 5.4604582861065856 455.57683252170682 61.238553553819656 89.295635648071766 38.487860783934593 33.421687662601471 14.498017989099024 81.136070393025875 517.0704278498888 49.647221475839615 8.1279485225677472 270.99148610979319 2.5555521175265303 496.39345145225525 22.038339711725712 33.760899268090725 14.57720712572336 48.739283263683319 425.77256155759096 170.85080894082785 5.1166868656873694 11.837531656026838 66.051459923386574 38.019472308456898 10.144657388329504 5.9844801723957053 59.824911758303642 8.2274000793695432 122.23177053779364 445.43116725608706
leaf_count=144958 6 11620 330 6851 678 2378 1785 6427 8257 18 18 1825 88 82 26 7130 623 2251 47 73 13267 475 1888 440 2563 126 27745 213 197 80 606 1239 45 2485 148 532 114 135 78 190 1116 99 82 2725 7 3121 217 277 56 115 4250 1986 6 29 496 169 97 41 56 73 89 5500
internal_value=0 0.0927827 0.048064 0.0971181 0.0992802 0.101709 0.103766 0.038154 0.0454502 0.0605167 -0.0181427 0.0247769 0.0511878 -0.0242108 0.0678109 0.0854169 0.0734532 -0.0109431 0.0581246 0.061938 0.0565616 0.0731702 0.0200462 0.114635 -0.04076 -0.047018 0.0713694 0.121559 -0.0283711 0.022428 0.0963246 -0.0362112 0.0639814 -0.0236871 0.216285 0.00679389 -0.0345322 0.00966373 0.235203 0.0271243 0.131594 0.11501 -0.0729278 -0.0451111 0.276415 -0.0916046 0.0479202 -0.0619522 0.0647739 0.197183 -0.0720748 -0.0576589 -0.0731163 -0.100755 -0.0572002 -0.015527 -0.100117 0.0213789 0.26969 -0.109103 0.201292 -0.10388
internal_weight=0 89391.8 11012.7 80954.1 78604.8 75211 72853.2 2357.8 3393.84 9737.4 826.339 2349.34 8437.62 1167.5 8911.06 1986.2 8393.48 1407.64 7760.94 7459.4 6924.9 1181.84 518.085 663.755 1092.33 1275.29 8305.29 284.778 676.682 346.518 179.728 301.538 180.443 517.584 75.1659 126.243 494.065 110.669 69.0583 130.369 534.497 59.1534 928.774 459.086 17.2432 541.561 33.33 496.24 36.7062 54.1997 459.533 441.842 242.385 508.231 166.791 92.5119 469.688 14.1124 88.1893 74.2789 154.409 455.576
internal_count=268644 221163 47481 188136 173864 155548 146743 8805 18316 34950 3883 14272 33027 9644 31067 7808 28442 10508 27467 26076 24887 4628 2363 2265 9414 12531 28368 510 5560 1967 899 1391 780 2625 230 620 2599 741 158 403 1189 146 10564 4844 133 3373 223 4780 253 160 4527 4711 1245 3150 1068 499 5720 123 74 569 107 5597
is_linear=0
shrinkage=0.1


Tree=8
num_leaves=60
num_cat=0
split_feature=53 128 31 125 135 35 109 119 69 29 5 76 53 29 29 106 118 104 23 54 102 133 130 114 31 21 101 108 129 98 78 92 103 88 111 125 74 11 75 31 37 32 73 110 127 78 56 107 95 10 58 99 54 30 136 23 27 11 22
split_gain=1773.62 1448.77 1189.23 1147 1093.03 1010.01 923.794 1378.83 833.034 785.102 869.424 769.806 666.91 1041.06 620.153 474.371 368.146 340.478 292.068 248.845 254.867 218.085 211.351 213.821 204.013 201.693 194.173 182.39 179.259 190.218 163.857 234.747 162.746 155.994 149.511 142.795 101.336 98.8222 88.5928 86.6876 79.9733 75.715 72.5008 72.49 69.6688 65.6101 65.5129 56.0994 53.6893 53.6582 37.6273 34.2378 30.9697 14.1189 0.156465 0.0406884 0.0188259 0.0156134 0.0130579
threshold=1.0493885874748232 1.0000000180025095e-35 1.0055443644523623 -0.41841085255146021 1.0000000180025095e-35 0.85457119345664989 -1.1322313547134397 -1.6427612304687498 -0.03489707596600055 1.2169725894927981 0.79372328519821178 -1.2256487011909483 0.89453050494194042 1.203141510486603 1.2301105856895449 -0.90285414457321156 -0.90503787994384755 -0.82566642761230458 1.2400344014167788 1.0433982014656069 -0.79651585221290577 1.0000000180025095e-35 1.0000000180025095e-35 -1.0265564322471616 1.0144381523132326 1.242617189884186 -0.81456249952316273 -1.0598968863487241 1.0000000180025095e-35 -0.90361130237579335 -1.0227442383766172 -1.0639292001724241 -0.84897190332412709 -0.58836674690246571 -1.1130077242851255 -1.2184469103813169 -0.87936678528785694 0.72946259379386913 -1.0173739790916441 0.98872175812721264 0.95125573873519909 0.92036855220794689 -0.86857464909553517 -0.85718801617622364 -1.5950362682342527 -1.2911090254783628 0.94519886374473583 -0.92664027214050282 -0.91116595268249501 1.0436479449272158 0.93864342570304882 -0.84044936299324025 1.0605713725090029 1.0701503157615664 1.0000000180025095e-35 1.5780333876609804 0.96633246541023265 1.2265042066574099 1.3105629086494448
decision_type=2 2 2 2 2 2 2 2 2 2 2 2 2 2 2 2 2 2 2 2 2 2 2 2 2 2 2 2 2 2 2 2 2 2 2 2 2 2 2 2 2 2 2 2 2 2 2 2 2 2 2 2 2 2 2 2 2 2 2
left_child=2 4 3 9 5 17 8 -8 -7 12 14 18 21 -14 -11 32 -12 34 39 20 45 -1 24 38 30 -22 35 -19 29 -26 31 -4 36 -34 -2 -20 -6 -25 53 44 -28 50 -30 -41 -3 -13 -39 -40 -32 52 -17 -43 -21 -24 55 57 -56 -5 -58
right_child=1 11 22 54 15 6 7 -9 -10 10 16 19 13 -15 -16 41 -18 27 26 49 25 -23 23 37 28 -27 40 -29 42 -31 48 -33 33 -35 -36 -37 -38 46 47 43 -42 51 -44 -45 -46 -47 -48 -49 -50 -51 -52 -53 -54 -55 56 -57 58 -59 -60
leaf_value=0.12192148499901823 0.054035164678924524 -0.11176806416666736 0.067925477754034555 -0.10517544670005859 0.13721762682287295 0.088599771840581459 0.14918218936548086 0.062645915490190787 -0.090811814938491817 0.045497787154816699 0.15138140021346055 -0.022686718970781113 0.094511709590773638 -0.011619656378869333 -0.070263107024257393 0.17435606807937251 -0.035864071592359915 0.17610078537058313 0.023963529883370197 -0.069402861373794519 0.015223432033943255 0.18072551088450844 0.25039005997982128 0.3329284892868028 -0.079895748230594643 0.19836677885722015 0.21202151731428642 -0.087347459113576165 0.209652406716033 0.058785950583583324 0.21728898966942617 0.023685751542148987 0.10855983472517139 -0.079700500699134647 -0.023963476206870074 0.22455951022014695 -0.080871690870630383 -0.071434853760011283 0.13152050733639617 0.11662596777616466 0.03352634808780719 -0.016148708719242646 0.037561183348302038 -0.090520920262325541 0.2086688071034605 -0.093283839359702386 0.19825662119326865 -0.092134109979111867 0.1081597309778327 0.24421221951522756 0.21560107870378445 0.1283184698217967 -0.10706009422037077 0.14575788383437102 -0.11993836736228601 -0.1260031918152876 -0.10922313040122954 -0.10795659980256539 -0.11160953549411066
leaf_weight=4394.6115852147341 556.21544928848743 9.511716850101946 3828.6408398896456 168.9233940243721 28.171528950333595 409.87870245426893 1964.300553150475 29394.595984261483 702.11667576432228 1496.0520191043615 785.07850337028503 268.49104046821594 47569.172871358693 942.56425703316927 670.04965955018997 696.87493476271629 121.21381299197674 27.526437357068062 198.78135474026203 467.5141117721796 339.74533569067717 736.36266887187958 27.439141601324081 6.3948662355542174 293.20282105356455 73.064103402197361 194.84217961877584 579.93528718501329 44.946199640631676 149.24862791597843 53.272318482398987 1746.60018145293 827.24570743739605 46.487390950322151 440.28654665872455 43.198757335543633 87.418512895703316 323.86677077040076 20.579667799174786 19.541175313293934 28.812967948615551 19.071854948997498 53.764845848083496 124.68550047278404 23.669087029993534 258.27774849161506 9.2649279758334142 24.646343119442463 293.23476493358612 4.9188883379101744 324.03615769743919 117.30355885624886 409.84961151331663 24.332965359091759 2.1051468253135672 0.97354518249630828 47.5470085516572 22.925412204116583 44.284979812800884
leaf_count=6085 1496 113 12215 3630 40 1102 2743 91893 4604 3630 1213 1472 91429 2725 2838 637 414 67 713 5180 2484 598 17 34 2037 157 196 3132 59 494 49 6105 1523 207 2316 24 358 3502 59 95 141 56 181 1078 35 1801 79 145 580 7 221 190 4908 42 16 10 615 377 477
internal_value=0 0.0603757 0.0875053 0.0922514 0.0654239 0.0610638 0.0648903 0.0680665 -0.0246812 0.0932601 0.044098 -0.0138073 0.0960758 0.0924496 0.00968897 0.134634 0.126338 -0.0163994 0.0802578 -0.0470084 -0.0111952 0.130361 0.0482935 -0.0190514 0.0528422 0.0476384 0.121857 -0.0754096 -0.00593054 -0.0331154 0.0582131 0.0540661 0.0837912 0.0985434 0.0195729 0.0597743 -0.0277191 -0.0564595 0.11189 -0.0289263 0.189026 0.178099 0.11592 -0.0624547 0.116811 -0.0573009 -0.0639343 0.0096378 0.124937 -0.0851474 0.187447 0.108115 -0.086994 0.201213 -0.107242 -0.105611 -0.110588 -0.105508 -0.110374
internal_weight=0 38686.4 63901.3 57001.9 36221.5 34074.9 32470.9 31358.9 1112 56715.1 3072.39 2464.9 53642.7 48511.7 2166.1 2146.61 906.292 1603.96 643.043 1821.86 939.578 5130.97 6899.44 436.525 6462.91 412.809 465.635 607.462 541.162 442.451 5921.75 5575.24 989.323 873.733 996.502 241.98 115.59 339.527 96.9981 177.407 223.655 1157.29 98.711 144.227 33.1808 526.769 333.132 45.226 346.507 882.283 1020.91 136.375 877.364 51.7721 286.759 192.822 93.9371 191.849 91.832
internal_count=268644 128989 139655 114057 110585 107353 100342 94636 5706 108932 8095 18404 100837 94154 6468 3232 1627 7011 2395 16009 5914 6683 25598 3878 21720 2641 1074 3199 2771 2531 18949 18320 2128 1730 3812 737 398 3615 263 1321 337 1104 240 1173 148 3273 3581 204 629 10095 858 246 10088 59 5125 4017 1108 4007 1092
is_linear=0
shrinkage=0.1


Tree=9
num_leaves=57
num_cat=0
split_feature=53 102 135 34 116 36 30 104 71 136 128 29 130 106 116 30 4 105 83 51 129 116 31 27 98 103 134 15 29 107 106 95 118 108 108 24 34 48 54 42 127 4 104 29 36 53 120 23 136 3 13 86 45 0 129 21
split_gain=1549.31 1102.96 1069.49 1292.67 977.105 959.534 872.706 1063.66 731.248 657.795 610.957 571.229 521.725 484.341 434.233 380.453 349.147 268.062 267.14 252.292 243.242 235.284 199.178 167.56 166.416 184.027 163.838 161.486 210.597 157.695 140.223 136.308 129.311 121.701 111.26 109.133 103.925 102.531 99.2128 85.6005 90.3874 72.9628 51.6169 26.66 24.8871 0.306217 0.263297 0.127284 0.103987 0.0543952 0.0233548 0.0101595 0.00923482 0.00565419 0.00270973 0.000783529
threshold=1.0204937458038332 -0.86901515722274769 1.0000000180025095e-35 0.83602187037467968 -0.82787048816680897 0.93320631980896007 1.0931188464164736 -0.93566751480102528 -0.20070430636405942 1.0000000180025095e-35 1.0000000180025095e-35 1.2351832389831545 1.0000000180025095e-35 -0.91257062554359425 -1.2050523757934568 1.0980141758918764 0.64309272170066845 -0.89885973930358876 -1.0838454961776731 0.9254475235939027 1.0000000180025095e-35 -1.4954839944839475 0.9935002624988557 1.2805446386337282 -0.6434832215309142 -0.84897190332412709 1.0000000180025095e-35 1.0037962198257449 1.1251273751258852 -0.91854259371757496 -0.91091367602348317 -0.90985643863677967 -1.0826827883720396 -0.90130668878555287 -0.88944673538207997 1.3127790093421938 0.8498789668083192 1.0807955265045168 0.72916772961616527 0.98927444219589245 -2.1270507574081416 0.76390516757965099 -1.0063207149505613 1.0508139729499819 0.84957763552665722 1.0408481955528261 -0.60728242993354786 1.3224459290504458 1.0000000180025095e-35 0.69690927863121044 1.290295481681824 -1.1286240220069883 0.63665318489074718 0.76521167159080516 1.0000000180025095e-35 1.3187478184700014
decision_type=2 2 2 2 2 2 2 2 2 2 2 2 2 2 2 2 2 2 2 2 2 2 2 2 2 2 2 2 2 2 2 2 2 2 2 2 2 2 2 2 2 2 2 2 2 2 2 2 2 2 2 2 2 2 2 2
left_child=4 9 3 17 6 8 11 19 -5 14 -7 12 16 24 39 30 -1 37 41 31 26 -19 -21 -22 25 -4 -16 42 35 -17 -9 -8 -14 -30 36 -29 -15 -3 -20 45 -41 -13 -11 -26 -36 -2 49 -44 50 -6 54 -52 53 -50 -48 -54
right_child=1 2 13 5 46 10 7 15 -10 27 -12 18 32 34 20 29 -18 21 38 22 23 -23 -24 -25 43 -27 -28 28 33 -31 -32 -33 -34 -35 44 -37 -38 -39 -40 40 -42 -43 47 -45 -46 -47 48 -49 52 -51 51 -53 55 -55 -56 -57
leaf_value=0.080949748962839449 -0.17859164729259255 -0.12331208363838497 0.018480489956222861 0.06511187706129884 -0.13655663364941575 0.043237802847525549 0.1584890052902522 0.06677895887342937 0.14469321354155992 0.16413493050475225 -0.02706318794335464 -0.12522359259452984 0.096898353153935579 0.17090041180252474 -0.061993959571218553 0.00068735723219743455 0.09987569989777105 0.049938651798554667 0.16374168837705264 -0.071640696865261186 0.038912229891256186 -0.087967372485902515 0.088672727817008079 -0.10627690747342788 -0.14133519861726193 0.10108626773315199 0.13037566191851654 0.012097731366254026 -0.057836908582406768 -0.073800806877670058 0.0094387862795610941 -0.043571327132803317 -0.015270199247059494 0.064021056986752006 0.057360566555041737 0.1638715051284807 0.1233152689810805 0.057093774301870952 -0.1460266452136543 0.050225246507279567 0.18637123877930437 -0.024970038156942632 -0.15109118121975393 0.042565369211877958 -0.16825338087327543 -0.14462269166028155 -0.1046616774792497 -0.16270789240857031 -0.11608528340491518 -0.11860770477086668 -0.10764731223855006 -0.1163348813575881 -0.10826924974983554 -0.11020633785301237 -0.10842682527006076 -0.11024565097650188
leaf_weight=18535.330681972206 5.6657947748899442 35.330330580472946 372.57843886315823 39040.990937743336 2.9535639882087699 9718.360050059855 760.40791538357735 782.70286010950804 1189.8170086443424 5.7908430173993102 1416.3613233827055 159.43139605224133 124.65672983974218 1122.4333222061396 1618.6845230907202 534.36228182166815 20559.45722168684 145.58089499920607 74.288186192512512 93.148239590227604 522.34765257686377 823.73290739953518 461.32584737241268 93.755058124661446 41.075931057333946 976.56438262760639 45.518347926437855 56.008943602442741 98.354071065783501 607.12249519303441 937.09293742105365 34.918721757829189 585.54457959532738 491.59672337770462 7.9292398542165783 307.38147576153278 776.44904898107052 290.82109241932631 12.0110527575016 85.139853850007057 114.13424035161734 133.28149408102036 22.41973627358675 9.7551997154951078 12.752709716558455 4.9919265657663345 155.19485329091549 16.281993702054024 1.7063521146774281 3.9417870789766312 19.865114700049165 1.4439316615462292 41.620421029627323 39.654959738254547 1.9352805614471424 2.1074458956718436
leaf_count=33220 23 127 978 106010 16 33914 970 1771 1426 9 13551 741 294 925 10070 1715 33248 477 113 333 1513 4373 957 377 209 1693 58 174 326 2497 2770 128 4252 956 15 356 1132 645 57 221 128 409 105 27 54 26 3667 69 15 34 342 13 590 473 27 25
internal_value=0 0.0578577 0.0612572 0.0577869 0.0825031 0.0602751 0.0836574 0.0403466 0.0674655 0.00329918 0.0342954 0.0881962 0.0893596 0.11631 -0.02419 0.00582755 0.0909027 -0.0408688 -0.0339896 0.113519 -0.0368602 -0.0672553 0.0617411 0.0168182 0.0715816 0.0782739 -0.0567324 0.0719023 0.0805931 -0.0389307 0.0355351 0.149618 0.00441797 0.0437054 0.14893 0.140479 0.151443 0.0375513 0.120628 0.113435 0.128203 -0.079575 -0.114315 -0.106042 -0.0817554 -0.162681 -0.107006 -0.155978 -0.106501 -0.126296 -0.105129 -0.108236 -0.109378 -0.110449 -0.104708 -0.108365
internal_weight=0 59468.6 55980.5 52661 44665.5 51365.5 44395.1 4211.08 40230.8 3488.07 11134.7 40184 39805 3319.54 2490.24 2861.28 39094.8 1295.47 379.012 1349.8 2280.31 969.314 554.474 616.103 1399.97 1349.14 1664.2 997.834 953.341 1141.48 1719.8 795.327 710.201 589.951 1919.56 363.39 1898.88 326.151 86.2992 209.932 199.274 292.713 44.4926 50.8311 20.6819 10.6577 270.424 38.7017 263.528 6.89535 178.439 21.309 85.0892 41.3613 157.13 43.7279
internal_count=268644 179967 165556 160523 88677 154901 83475 11141 107436 14411 47465 72334 71014 5033 12416 8753 66468 5622 1320 2388 12018 4850 1290 1890 2907 2671 10128 1995 1812 4212 4541 1098 4546 1282 2126 530 2057 772 170 398 349 1150 183 236 69 49 5202 174 5152 50 4049 355 1103 488 3694 615
is_linear=0
shrinkage=0.1


Tree=10
num_leaves=58
num_cat=0
split_feature=54 135 131 34 121 78 109 121 30 104 91 130 75 106 31 29 50 5 67 105 79 114 44 0 126 115 52 72 106 127 0 4 103 95 127 73 70 67 35 109 114 113 107 12 33 21 78 94 71 107 30 98 31 35 55 36 76
split_gain=1296 850.594 813.032 713.55 950.222 1050.53 815.927 718.041 598.594 838.146 563.272 477.984 603.888 356.772 314.581 312.374 300.99 256.268 252.24 462.729 383.773 254.639 252.161 243.634 216.336 326.028 201.782 201.27 198.188 189.022 182.452 157.531 145.915 135.584 130.407 119.571 164.387 116.973 106.819 105.915 102.189 96.2737 93.6553 75.2842 65.8209 36.1702 106.892 34.5813 66.1687 35.0902 24.9209 64.9639 20.3017 14.7617 0.938419 0.854603 0.0459176
threshold=1.0064920186996462 1.0000000180025095e-35 1.0000000180025095e-35 0.83710134029388439 -1.8438456058502195 -0.46615101397037501 -1.1296341419219968 -1.8219119310379026 1.0931188464164736 -0.93566751480102528 -1.2642966508865354 1.0000000180025095e-35 -1.1557512283325193 -0.90285414457321156 0.99257394671440136 1.2143028378486636 1.1820054054260256 0.79372328519821178 0.044500214979052551 -0.87634813785552967 -1.3847512602806089 -0.86336442828178395 1.160303592681885 0.43356220424175268 -2.35926342010498 -1.4480469226837156 0.93262007832527172 -0.70493945479392994 -0.91880246996879567 -3.1608371734619136 0.19631392508745196 0.71455118060112011 -0.86155039072036732 -0.90985643863677967 -2.4038972854614253 -0.45499813556671137 -0.31137913465499872 -0.18061193823814389 0.8616926670074464 -1.1245983839035032 -1.4413259029388426 -1.1805531978607176 -0.95069763064384449 0.8403950333595277 0.8857741951942445 1.473303020000458 -1.2120835185050962 -0.97775086760520924 -0.52735042572021473 -0.92235887050628651 1.0688679218292239 -0.86138290166854847 1.0019825100898745 0.86801716685295116 1.0143455862998965 0.87237444519996654 -1.4471356272697447
decision_type=2 2 2 2 2 2 2 2 2 2 2 2 2 2 2 2 2 2 2 2 2 2 2 2 2 2 2 2 2 2 2 2 2 2 2 2 2 2 2 2 2 2 2 2 2 2 2 2 2 2 2 2 2 2 2 2 2
left_child=2 3 8 24 6 7 29 -6 10 26 55 12 -12 32 42 31 -8 -17 19 28 21 -20 -7 -13 25 40 33 -21 -16 -5 41 -11 43 -10 -32 36 -34 -28 -22 -27 -2 -26 -4 52 47 53 -47 48 -15 -49 51 -46 -3 -44 -37 56 -1
right_child=1 13 14 4 5 22 16 -9 9 15 11 23 -14 44 18 17 -18 -19 20 27 38 -23 -24 -25 30 39 37 -29 -30 -31 34 -33 35 -35 -36 54 -38 -39 -40 -41 -42 -43 45 -45 50 46 -48 49 -50 -51 -52 -53 -54 -55 -56 -57 -58
leaf_value=-0.10565506015011072 0.22385263565618133 -0.14989551179104885 0.2279341505094119 -0.10415899797076783 0.16116522778019426 0.12556501871369793 0.16000262151822253 0.045138846446256903 0.13111194610298718 0.010932753094179983 0.15175243014239778 0.082842770014813383 0.077385396027175146 0.1950195453890384 0.13460840827155998 -0.068704829792077635 0.074902563537685124 0.082254045787037655 0.17307151225511724 0.055121500018746529 0.20277692320341725 -0.09353386445875006 -0.11434431951408291 -0.011493145185002353 0.14628427179936795 0.16104449988398351 -0.15260374362040477 0.14806429068402724 -0.042846940063413511 0.1108464243348079 -0.15326580774445175 0.076728227309837527 0.11356331265997693 -0.0405126484349244 0.0068242841091888246 0.17488340568164873 0.031555837060298873 0.052342841251700745 -0.077287808036077765 -0.1030475727025983 0.022601976254460563 -0.04939024636719002 -0.1076206009114453 0.16196985800963229 -0.15717512175673232 0.09223099295642874 -0.11760237698690766 0.11684923379068235 -0.17546087858087347 0.16000037661409877 0.20404834335311725 0.089287221299189465 -0.0083902452211800736 0.056533207922636719 0.15579133423628899 -0.1420273263127064 -0.10929394758957478
leaf_weight=104.30886286497116 29.812384456396103 46.296372592449188 10.034109987318514 195.07773188501596 540.27379885315895 48.051589995622635 1353.6135515272617 41793.925063934177 983.80937638133764 1407.767725225538 1117.9216449558735 394.62520822137594 46968.570628847927 9.9879858791828173 72.270844869315624 716.3693139962852 599.76958428323269 133.3946570456028 133.45026384294033 548.07989998161793 14.031480781733988 48.971729703247547 496.44195318222046 893.91451769694686 134.49103300273418 15.60119094699621 30.699692882597446 405.28739901632071 487.25440204143524 51.733450472354889 57.310815989971161 490.74581714719534 399.34210415184498 48.290413610637188 453.67244221642613 82.372399598360062 630.1290280520916 299.8780650049448 462.78955888748169 570.84977238252759 164.17621627449989 30.926185142248869 228.31331068649888 11.373751193284987 11.524982526898382 41.021521750837564 59.474753636866808 237.07858519256115 9.3185681998729688 918.80697099864483 15.572919264435766 148.46054898202419 12.98178820312023 5.6128147915005675 37.449408546090126 7.2319122105836859 51.946320973336697
leaf_count=2199 29 217 18 1447 631 103 782 134897 1310 3962 1165 1164 79639 6 310 2773 1411 282 206 2138 31 287 2949 6487 288 36 142 636 2959 171 256 953 589 168 2392 38 1601 691 2596 3549 565 139 3464 13 51 269 508 268 39 687 15 247 42 47 28 37 717
internal_value=0 0.0490005 0.0712414 0.0459072 0.0481332 0.0448444 0.112227 0.0466196 0.0738472 0.0371795 0.0768901 0.0775037 0.0791143 0.104997 0.0156903 0.00538485 0.133873 -0.0450075 0.0297696 0.0522644 -0.0218536 0.101501 -0.0931723 0.017398 -0.0229739 -0.0588488 0.101304 0.0946325 -0.019926 -0.0590923 0.0184191 0.0279402 0.0657967 0.123082 -0.0111311 0.0743716 0.0633674 0.0333101 -0.0690463 -0.096022 0.0535304 0.109701 -0.073094 -0.0736899 0.140401 -0.0821261 -0.0319506 0.148933 0.0162022 0.15115 0.0832875 0.0715327 -0.118906 -0.103682 0.168916 -0.10842 -0.106865
internal_weight=0 49106.4 56166.1 46535.7 45078.9 42878.7 2200.19 42334.2 53649.5 4110.96 49538.5 49375 48086.5 2570.7 2516.59 2748.28 1953.38 849.764 2172.14 1512.89 659.243 182.422 544.494 1288.54 1456.84 780.44 1362.68 953.367 559.525 246.811 676.4 1898.51 1219.94 1032.1 510.983 1149.29 1029.47 330.578 476.821 586.451 193.989 165.417 344.457 70.6519 1350.75 334.422 100.496 1175.19 19.3066 1155.89 175.558 159.986 59.2782 233.926 119.822 163.487 156.255
internal_count=268644 153486 115158 149645 142391 138580 3811 135528 101689 10281 91408 88455 80804 3841 13469 7970 2193 3055 9163 6043 3120 493 3052 7651 7254 4179 2311 2774 3269 1618 3075 4915 2528 1478 2648 2256 2190 833 2627 3585 594 427 4306 272 1313 4288 777 1000 45 955 313 298 259 3511 66 2953 2916
is_linear=0
shrinkage=0.1


Tree=11
num_leaves=60
num_cat=0
split_feature=130 5 128 4 101 131 99 29 135 34 108 106 117 75 56 116 75 31 91 118 75 117 110 44 117 101 72 22 75 117 102 33 123 117 104 55 0 59 75 76 79 24 117 116 33 77 31 12 89 3 57 76 75 89 31 41 35 82 74
split_gain=1173.15 998.605 857.067 856.461 952.067 744.088 707.52 698.845 682.867 1947.32 979.702 587.227 564.008 570.631 508.464 470.101 522.059 448.995 415.063 402.35 362.251 509.287 298.24 278.941 271.914 271.674 258.516 242.897 237.83 409.127 214.118 210.072 195.459 215.614 193.223 294.787 182.842 171.84 168.259 163.636 155.469 153.774 135.954 105.594 95.5586 146.622 88.0501 75.5843 74.1054 47.3957 41.1008 37.826 31.9484 25.6142 25.3221 21.2213 12.927 11.5634 7.95542
threshold=1.0000000180025095e-35 0.6219167709350587 1.0000000180025095e-35 0.56271862983703624 -0.82906562089920033 1.0000000180025095e-35 -0.90693458914756764 1.211826026439667 1.0000000180025095e-35 0.83488810062408458 -1.0193641185760496 -0.92783948779106129 -1.0458261370658872 -1.048119008541107 0.75474464893341076 -1.0580216050148008 -0.99615520238876332 1.0075390338897707 -1.2642966508865354 -0.92884713411331166 -1.05760782957077 -1.0110597014427183 -0.99185210466384877 1.0493266582489016 -1.1083991527557371 -0.88325902819633473 -0.65471011400222767 1.2347063422203066 -1.0827232003211973 -0.99533098936080922 -0.93032580614089955 0.90178892016410839 -1.2957884073257444 -1.0291516780853269 -0.8031010329723357 1.009384870529175 0.41048133373260504 0.7965250313282014 -1.03162145614624 -1.2543001770973203 -1.1753690242767332 1.3472180962562563 -1.0211421251296995 -1.0435095429420469 0.91404005885124218 -1.2181940078735349 1.019680976867676 1.266973674297333 -1.1248112916946409 0.5615527629852296 0.98912927508354198 -1.1312493681907652 -1.049811780452728 -1.1115508675575254 1.0041142106056216 1.0280821323394778 0.89116394519805919 -1.3007759451866148 -0.94198381900787342
decision_type=2 2 2 2 2 2 2 2 2 2 2 2 2 2 2 2 2 2 2 2 2 2 2 2 2 2 2 2 2 2 2 2 2 2 2 2 2 2 2 2 2 2 2 2 2 2 2 2 2 2 2 2 2 2 2 2 2 2 2
left_child=1 2 8 34 36 7 23 17 9 30 -11 31 13 44 19 16 24 18 -3 -9 21 32 -18 25 -15 -7 41 -6 29 -23 -1 -10 33 -14 54 -36 -5 -34 43 -19 -16 -8 -13 -17 53 57 -30 50 -47 -25 52 -40 -22 58 -4 -28 -55 -46 -2
right_child=12 5 3 4 27 6 26 14 11 10 -12 42 20 15 40 38 22 39 -20 -21 47 28 -24 49 -26 -27 55 -29 46 -31 -32 -33 37 -35 35 -37 -38 -39 51 -41 -42 -43 -44 -45 45 48 -48 -49 -50 -51 -52 -53 -54 56 -56 -57 -58 -59 -60
leaf_value=0.071562696659120337 0.31662035185889553 -0.10307557971424133 -0.10865176556598402 0.16016749456136559 -0.017194338792522783 -0.016169936100552826 0.13414092839614067 0.073164156628336377 0.003468389289515528 0.073448461605208348 0.04245642915296477 0.11283320868509383 0.14407033089888424 0.19827043795236549 -0.10568803212345737 0.066580498980876743 0.043034072471312135 0.17544962292724328 0.079714770282422742 0.004005909091070934 -0.068173001667917038 0.15399951444731591 -0.082461785728071266 0.16640199485495213 0.073174024279236694 0.086114614106902007 -0.12459274914824743 0.13132781028589666 -0.09797682386933948 -0.022870376611255655 -0.043070196086103171 0.077625328578705674 0.1275709426934554 0.0012538963199174469 0.028092336323245655 -0.072795207244159693 -0.066799427498882846 0.40648043659878663 0.096104822003495544 0.020707733947780124 -0.0021160890792081034 0.032218045337434963 -0.053629142926546039 -0.062731787981574 0.16205552897193801 0.16043957174991505 0.3870286319763856 0.21835253707429336 -0.098674056516483546 -0.10261197879365025 0.15997933828996955 -0.12032568334976948 -0.11760579372944302 0.13017431071224334 -0.057140074404133462 0.11355035561856251 0.2234722969654771 0.23320575142790206 0.2464923491303222
leaf_weight=174.39003827795386 35.095525234937668 124.68160175904632 444.66403587535024 38.089218586683273 126.40155503153801 1362.1178687624633 613.67270651832223 2247.871516674757 871.54544919729233 15073.554259859025 31546.488051980734 3306.6678467690945 161.07107353210449 254.73593556880951 288.42018111050129 127.26089935004711 554.62380189821124 71.248045444488525 33893.208425082266 1344.3287462890148 219.99046878516674 142.49000491946936 287.54667991399765 6.6844582445919505 546.58397418260574 320.83831837400794 54.429765172302723 854.52125515043736 401.18317020684481 1591.742701407522 2482.1801684051752 680.0856918990612 98.120756827294827 307.56838804483414 536.27997437119484 629.69545200839639 520.84702986478806 28.50819993019104 8.3526363596320135 1673.2391465678811 291.3175048828125 195.08405578136444 49.802445217967033 125.34586901217699 45.696000918745995 16.319373406469822 3.7783972769975653 7.8271725028753272 34.102142252027988 323.71321848407388 6.2687876820564261 243.11162902414799 322.2747743986547 20.118268229067326 121.50803795084357 4.0181716382503501 56.722393244504929 45.671530731022358 30.00747275352478
leaf_count=538 22 2060 3715 95 570 9387 1042 4277 2143 31812 83072 4141 548 245 1078 406 2158 73 52479 3592 1493 462 1560 44 1616 804 362 1383 3246 11916 9972 1255 363 1582 3537 8113 2154 27 38 4951 825 571 146 730 47 55 14 19 209 2275 14 1736 2609 47 901 18 27 50 20
internal_value=0 0.0568879 0.0482733 -0.00142805 0.0528343 0.0684485 0.0193634 0.0719891 0.0512746 0.0477316 0.052477 0.0868454 0.0103347 0.0468604 0.0332579 0.0292511 0.0551621 0.0765074 0.0790448 0.0472827 -0.0166508 -0.00168518 0.000185364 -0.0131626 0.112942 0.00332956 0.0948779 0.112189 -0.0244506 -0.00833819 -0.0355451 0.0359717 0.0801262 0.0503398 -0.0496667 -0.0263929 -0.0513326 0.190362 -0.0552302 0.0270277 -0.0536433 0.109556 0.110363 0.00241452 0.180144 0.122079 -0.0934516 -0.0902055 -0.0148096 -0.0971694 -0.0946084 -0.113137 -0.0975515 0.238146 -0.0975967 -0.108221 0.199045 0.197621 0.284297
internal_weight=0 100272 57456.7 3272.01 1539.86 42814.9 2880.56 39934.3 54184.7 49276.6 46620 4908.1 5722.12 2431.29 4171.94 2147.56 1643.49 35762.4 34017.9 3592.2 3290.82 2734.46 842.17 2013.35 801.32 1682.96 867.205 980.923 2139.19 1734.23 2656.57 1551.63 595.268 468.639 1732.15 1165.98 558.936 126.629 504.071 1744.49 579.738 808.757 3356.47 252.607 283.733 141.789 404.962 556.361 50.4215 330.398 548.534 251.464 542.265 141.944 566.172 58.4479 76.8407 91.3675 65.103
internal_count=268644 237385 153547 20468 4202 83838 14503 69335 133079 125394 114884 7685 31259 8966 9772 8489 5579 59563 54539 7869 22293 18158 3718 12510 1861 10191 1993 1953 15638 12378 10510 3398 2520 2130 16266 11650 2249 390 2910 5024 1903 1613 4287 1136 477 361 3260 4135 264 2319 4116 1774 4102 116 4616 380 74 97 42
is_linear=0
shrinkage=0.1


Tree=12
num_leaves=61
num_cat=0
split_feature=106 108 31 133 105 34 101 35 36 71 102 115 104 103 134 20 52 33 97 61 129 130 21 33 61 59 116 73 122 61 10 12 20 29 2 71 50 88 108 29 117 97 115 34 34 119 74 30 132 118 71 42 31 32 54 40 68 129 1 109
split_gain=1019.16 1180.28 967.278 769.785 2187.83 998.157 857.664 849.989 516.609 476.886 392.778 392.653 313.674 290.115 214.485 207.155 201.585 183.199 789.347 281.349 166.266 163.504 159.264 138.87 144.351 137.533 134.443 336.624 128.967 130.118 109.956 100.683 87.6274 72.8533 129.806 66.5087 62.4626 59.9564 59.2192 57.9429 49.636 49.2513 41.0209 37.372 31.3457 30.6642 27.3988 14.7081 12.6753 11.4345 8.58984 0.902907 0.786201 0.18227 0.123678 0.103837 0.0811983 0.0259184 0.0248694 0.0241432
threshold=-0.96614858508110035 -1.0638227462768552 1.0064682960510256 1.0000000180025095e-35 -0.89759445190429676 0.90369302034378063 -0.93686336278915394 0.88555312156677257 0.91109958291053783 -0.3000285923480987 -0.83832955360412587 -1.4437890052795408 -0.84491813182830799 -0.88631287217140187 1.0000000180025095e-35 1.3411307334899905 1.1005064845085146 0.87165632843971264 -0.87184926867485035 0.7491120994091035 1.0000000180025095e-35 1.0000000180025095e-35 1.1652394533157351 0.86392113566398632 0.71776497364044201 0.83516195416450512 -1.5220026969909666 -0.41899611055850977 -1.3380327820777891 0.54324623942375194 0.78425511717796337 0.87360003590583812 1.4004535079002383 1.1955060362815859 0.68907380104064953 -0.33421297371387476 1.1697981357574465 -0.37685598433017725 -1.0224569439887998 1.1546466350555422 -1.5327712297439573 -0.61444649100303639 -1.4881964921951292 0.8582398295402528 0.83110532164573681 -1.2241998910903928 -0.82549697160720814 1.0931188464164736 1.0000000180025095e-35 -1.5838825106620786 -0.24958124011754987 1.1011613011360171 1.0068098306655886 0.94399330019950878 1.0021227002143862 1.0732908844947817 0.16838221997022632 1.0000000180025095e-35 -0.018625138327479359 -1.1178623437881468
decision_type=2 2 2 2 2 2 2 2 2 2 2 2 2 2 2 2 2 2 2 2 2 2 2 2 2 2 2 2 2 2 2 2 2 2 2 2 2 2 2 2 2 2 2 2 2 2 2 2 2 2 2 2 2 2 2 2 2 2 2 2
left_child=17 9 3 5 7 6 -3 -5 -6 11 -7 37 13 15 21 -4 -15 18 30 20 28 -14 35 24 31 -24 27 42 29 -19 38 -20 39 45 -35 -13 -16 40 47 -25 -2 -28 -11 -39 -40 -32 -34 -1 -26 -43 -29 53 -30 56 -22 58 -21 -57 -53 -56
right_child=1 2 12 4 8 10 -8 -9 -10 26 -12 22 14 16 36 -17 -18 19 23 51 54 -23 25 32 48 -27 41 50 52 -31 33 -33 46 34 -36 -37 -38 43 44 -41 -42 49 -44 -45 -46 -47 -48 -49 -50 -51 -52 55 -54 -55 59 57 -58 -59 -60 -61
leaf_value=-0.19858249862882749 0.27051925199983318 0.023573496829001887 -0.072666120899768788 0.036864202397560844 -0.084339739420548024 -0.039909397875545843 0.0641467556762889 0.12988501460135563 0.013528127171860027 0.27062758911859069 0.037448951056496801 0.061487741890272167 0.0037663278055068759 0.046214427693640439 -0.11719204546478577 0.013685654825702075 -0.093391432102675573 0.13917555096340628 -0.041357810677669894 -0.15006430950760744 -0.18026588990154108 -0.074646427338177973 -0.0023060568594918569 0.045410102293177643 0.12815269670046259 0.19068583451235005 0.17168818392409821 -0.010960932105767946 -0.20219344386185398 0.095903734515484562 0.16770500449765702 0.02161419552374701 0.070019503557062948 0.063416691245575779 0.14989083793088886 -0.12273221330422941 0.25767179115241506 -0.14344404623978976 -0.030216519096831897 -0.10093809292478045 0.13417054101916767 -0.10020528926087176 0.10131779715021082 0.14373131317987556 0.10331719491418563 0.12783861696555071 0.1573368731519168 -0.002875357447151949 0.23567680114668194 -0.12981451011764908 -0.11873160029283797 -0.12354901947869479 -0.15344765855807446 -0.13171039622470557 -0.17039697433628892 -0.11603691181120152 -0.16361361385963158 -0.12552457727353269 -0.13378363125902396 -0.16164465356510688
leaf_weight=14.212626546621324 56.585822641849518 5769.655673045665 400.80862559005618 5800.3097978159785 1809.8579201251268 677.91167249158025 53711.34845835343 1182.6014256924391 768.33957073092461 26.937267996370792 20632.328671962023 22.575601115822792 2004.2118099965155 3532.5947429910302 217.51885681599379 905.31480009108782 106.55075221508741 943.51827670633793 531.64039735496044 10.980984017252927 7.7791543900966671 306.603800047189 436.38038840889931 316.74091213196516 32.008862689137459 40.339034751057625 5.8308720439672461 7.8963701277971259 4.4492643326520946 2637.2577562332153 277.3607143163681 486.00400310754776 58.180416032671928 440.11180973052979 286.64932794868946 148.5711782425642 4.5377430915832511 8.4853965342044848 29.108971007168293 29.580146327614784 50.550109148025513 191.68224061280489 30.527154967188835 9.7254546433687192 44.381066724658012 633.87812355160713 93.991115674376488 5.2617890983819953 16.674801558256149 408.12893521040678 116.66104076057673 3.2487442493438712 12.907258570194243 3.8959073051810256 4.734927475452424 10.925328742712734 7.405958727002143 3.9097060263156882 8.8200290054082888 9.425949022173878
leaf_count=57 39 17319 2230 11506 6544 2846 109048 1633 2182 21 71006 59 7355 11610 1254 3324 531 873 1470 51 32 2675 1234 606 63 43 9 40 18 3891 162 980 88 811 243 650 2 41 77 93 101 1330 84 18 59 621 69 13 11 2236 1008 24 58 25 20 105 32 25 49 40
internal_value=0 0.0461456 0.0475221 0.0503828 0.0235514 0.0535581 0.0602112 0.0526179 -0.0551737 -0.0401265 0.0349881 0.0156619 0.0129591 0.0276164 -0.0156583 -0.012813 0.0421269 0.0857158 0.0686034 0.101086 0.104314 -0.00663764 -0.0156831 0.017132 -0.00323635 0.0140245 -0.0948914 -0.0195306 0.105988 0.107306 0.115134 -0.0112838 0.060702 0.121139 0.0975238 -0.0984322 -0.109532 0.177672 0.00933956 0.0329101 0.206186 -0.117541 0.180684 0.00992116 0.0504253 0.139973 0.123952 -0.145704 0.164981 -0.120352 -0.111899 -0.136471 -0.165943 -0.151359 -0.170136 -0.124141 -0.155522 -0.118537 -0.131029 -0.164571
internal_weight=0 99391.4 97830.5 90352.4 9561.11 80791.2 59481 6982.91 2578.2 1560.88 21310.2 773.213 7478.14 4945.27 2532.87 1306.12 3639.15 6965.04 3295.79 3669.26 3620.07 2310.82 647.866 1564.82 1066.33 476.719 787.664 182.022 3598.13 3580.78 1730.96 1017.64 498.493 1638 726.761 171.147 222.057 125.347 92.9645 346.321 107.136 605.642 57.4644 18.2109 73.49 911.239 152.172 19.4744 48.6837 599.811 124.557 49.1867 17.3565 22.2829 21.94 26.9038 18.3869 14.835 12.0688 14.1609
internal_count=268644 257978 251065 222084 21865 200219 126367 13139 8726 6913 73852 2185 28981 17695 11286 5554 12141 10666 5423 5243 4932 10030 1986 3380 2524 1277 4728 1153 4840 4764 2043 2450 856 1837 1054 709 1256 199 206 699 140 3575 105 59 136 783 157 70 74 3566 1048 311 76 108 92 203 83 130 73 60
is_linear=0
shrinkage=0.1


Tree=13
num_leaves=60
num_cat=0
split_feature=130 5 128 5 100 30 45 71 69 131 99 29 5 63 117 75 104 63 125 116 123 29 101 75 117 32 7 100 72 27 36 26 75 116 104 32 89 32 75 0 104 55 5 75 5 123 117 33 77 12 35 88 26 57 75 89 34 74 89
split_gain=929.385 774.107 666.96 701.286 847.215 568.395 685.578 1132.75 665.058 552.256 591.542 564.687 598.674 535.848 444.404 435.371 417.669 446.018 416.567 370.261 443.619 347.625 346.414 305.161 394.368 277.635 248.432 307.905 228.476 226.827 224.086 220.566 202.55 312.481 184.766 173.967 194.139 172.741 153.95 148.082 119.513 198.663 110.168 101.455 79.3442 73.6285 66.1494 63.3751 113.393 61.1297 59.4828 59.4391 34.0123 33.253 30.7874 14.5378 19.552 11.3853 5.67767
threshold=1.0000000180025095e-35 0.62090376019477855 1.0000000180025095e-35 0.5804508924484254 -0.84106689691543568 1.0576030015945437 1.1913770437240603 -0.25647614896297449 -0.018013606779277321 1.0000000180025095e-35 -0.90693458914756764 1.2197439670562746 0.79372328519821178 0.48286966979503637 -1.0458261370658872 -1.048119008541107 -0.83335235714912403 0.42615434527397161 -1.5655442476272581 -1.0580216050148008 -1.5384970903396604 1.2351832389831545 -0.8957276940345763 -1.05760782957077 -1.0110597014427183 0.96384704113006603 0.68967628479003917 -0.90411391854286183 -0.67107346653938282 1.4921185970306399 0.89743062853813182 1.1991230249404909 -1.0827232003211973 -0.98088896274566639 -0.82748654484748829 0.94432970881462108 -1.1612405776977537 0.94804459810256969 -1.0384920835494993 0.44826674461364752 -0.79682868719100941 1.009384870529175 0.39090114831924444 -1.0670248270034788 0.67110648751258861 -1.3581561446189878 -1.0511131286621092 0.91404005885124218 -1.2181940078735349 1.266973674297333 0.8832547962665559 -1.155523896217346 1.1943243741989138 0.98912927508354198 -1.049811780452728 -1.1059648394584654 0.88866418600082409 -0.92438030242919911 -1.116503834724426
decision_type=2 2 2 2 2 2 2 2 2 2 2 2 2 2 2 2 2 2 2 2 2 2 2 2 2 2 2 2 2 2 2 2 2 2 2 2 2 2 2 2 2 2 2 2 2 2 2 2 2 2 2 2 2 2 2 2 2 2 2
left_child=1 2 5 40 34 6 7 -1 -8 11 26 16 21 22 15 47 17 -3 -18 20 42 -13 -7 24 35 -22 50 -28 37 -14 -15 -6 33 -26 -5 43 -37 -12 46 -30 52 -42 -17 -16 -34 -40 -21 55 57 53 -11 -50 -4 54 -25 58 -57 -49 -2
right_child=14 9 3 4 31 13 8 -9 -10 10 28 12 29 30 23 19 18 -19 -20 38 25 -23 -24 49 32 -27 27 -29 39 -31 -32 -33 44 -35 -36 36 -38 -39 45 -41 41 -43 -44 -45 -46 -47 -48 48 51 -51 -52 -53 -54 -55 -56 56 -58 -59 -60
leaf_value=0.04705813131288631 0.24324871779195145 0.063639786790964353 -0.031550508289511191 -0.10113692386830926 0.0034199892204205052 -0.07646925668036865 0.084609699483995618 0.12466876512619285 -0.011505633243113109 -0.037537270754630273 0.011175016654944178 0.0056035890976424453 0.11733198775890388 -0.12346994781913234 0.18187210100660139 -0.12608746642862462 -0.11191845482942529 0.031631101292510524 0.10003747762100415 0.07022830156866057 0.086221328659786725 -0.0980789647175314 0.034826241436564716 -0.066620746734462985 0.1066298622352703 -0.063792843687675044 -0.016487656901112448 0.10048776989871666 0.12770681539401832 0.013965771946071107 -0.011773047283967874 0.12371546680142829 -0.10760201162786441 -0.026759464281561562 -0.002663733111281629 0.14844466941516635 -0.011672832201893807 0.13043139305751902 -0.10548987452775414 -0.068880877582918651 0.021386552910379573 -0.073357253773971287 -0.011835333825960862 0.028698011590276979 0.035776806647341883 0.04119913225018592 -0.097967656018326341 0.18850011849628026 0.13059509116700238 0.17799705535364649 -0.10537849260435284 -0.096385975317709136 -0.10572146723620689 0.12791000070524444 -0.11602161168284297 0.041743171603725468 0.20577249582478105 0.10709962190467806 0.19695918554065125
leaf_weight=34685.242991615087 39.553586557507515 28813.748258560896 71.605887055397034 297.31901407986879 189.91871290653944 286.90699376910925 915.2483417019248 1988.3779548555613 3372.9631646350026 232.96916333585978 153.20758966356516 1279.3952413499355 581.15255032479763 197.1032629609108 150.30633998662233 134.81104719266295 95.220487132668495 5128.0479543246329 3537.2244541756809 109.69478503614664 1183.8873187974095 432.7482273131609 11081.934466391802 215.66952371224761 197.7389132604003 137.72144395112991 1238.962907128036 274.96247003600001 52.416925877332687 334.47855752706528 2023.8050403743982 771.93464601039886 345.21472852304578 1570.2595872841775 530.54416733235121 99.355283617973328 318.37944307178259 586.13784506917 316.64518981426954 142.44358427077532 366.47693789750338 558.74908676743507 225.68222273886204 60.706421218812466 43.454646598547697 38.363393303006887 29.717300698161125 71.327495843172073 17.774752259254456 8.4796094782650453 290.27569769322872 32.875268362462521 452.65025268867612 6.7477807998657218 303.94667898863554 12.935457319021227 16.58281098306179 22.635534077882767 80.274359464645386
leaf_count=82701 25 46360 809 1593 917 1162 1934 2273 12883 1386 494 3372 745 735 229 911 326 10755 5818 367 2634 1885 23739 1493 681 953 8505 635 145 785 6861 1351 2938 11697 1827 376 1677 717 2207 740 2421 7590 1081 238 322 149 187 59 55 19 2057 209 3864 14 2609 34 8 38 49
internal_value=0 0.0459132 0.0383449 -0.00574156 0.0361323 0.0409627 0.0468422 0.051266 0.00900861 0.0560439 0.0144425 0.0591187 0.0143029 0.023241 0.00471851 0.0368342 0.0622529 0.0588038 0.0944813 0.0214065 0.0437677 -0.0206024 0.0320176 -0.0191776 -0.00589302 0.0705887 -0.0157724 0.00475768 0.0803305 0.0795725 -0.021686 0.099963 -0.0262097 -0.0118408 -0.0380294 0.0637952 0.02641 0.105719 -0.05467 -0.0159993 -0.0574444 -0.0358298 -0.0545614 0.137805 -0.0915717 -0.0896382 0.0343754 0.151063 0.103878 -0.0883623 -0.0751729 -0.0167309 -0.0955908 -0.0926533 -0.0955175 0.196753 0.133892 0.168891 0.212239
internal_weight=0 100964 57790.8 3239.2 1789.72 54551.6 40961.8 36673.6 4288.21 43173.4 2971.38 40202 2627.77 13589.7 5790.74 2470.48 37574.2 33941.8 3632.44 2176.52 1682.1 1712.14 11368.8 3320.26 2785.42 1321.61 2037.17 1513.93 934.206 915.631 2220.91 961.853 2156.67 1768 827.863 628.747 417.735 739.345 494.421 194.861 1449.48 925.226 360.493 211.013 388.669 355.009 139.412 293.959 144.613 534.844 523.245 50.65 524.256 526.364 519.616 149.346 29.5183 93.963 119.828
internal_count=268644 237385 152660 20372 5688 132288 99791 84974 14817 84725 14679 70046 6787 32497 31259 8966 63259 57115 6144 8489 5579 5257 24901 22293 18158 3587 12583 9140 2096 1530 7596 2268 15638 12378 3420 2520 2053 1211 2910 885 14684 10011 1992 467 3260 2356 554 477 361 4135 3443 264 4673 4116 4102 116 42 97 74
is_linear=0
shrinkage=0.1


Tree=14
num_leaves=58
num_cat=0
split_feature=106 108 31 131 133 105 36 69 53 31 117 71 56 73 121 30 10 33 97 136 129 116 28 20 12 57 52 29 104 43 107 30 57 100 118 127 105 29 95 37 39 35 61 74 81 12 30 106 79 43 37 108 17 26 109 4 54
split_gain=830.738 963.574 739.885 664.894 684.297 1756.46 736.353 522.635 344.199 289.487 274.076 255.97 238.369 205.472 192.866 189.78 218.306 150.211 645.8 248.806 156.327 126.416 115.942 125.612 110.018 161.83 106.272 399.461 106.001 103.882 99.2272 95.8121 87.1656 67.8003 64.6596 183.96 60.9564 60.193 201.748 51.1824 46.6846 46.3104 43.7623 26.3585 24.2915 23.6039 20.4312 14.7606 14.7362 3.00692 2.22086 1.69535 0.699939 0.525476 0.435457 0.145377 0.0879932
threshold=-0.96614858508110035 -1.0598968863487241 1.0051215291023257 1.0000000180025095e-35 1.0000000180025095e-35 -0.88695517182350148 0.93634384870529186 -0.012811549939215182 1.0783252120018008 1.0007033944129946 -1.5280777812004087 -0.30738717317581171 0.98029303550720226 -0.47995802760124201 -1.0574516057968137 1.0980141758918764 0.83352792263031017 0.87165632843971264 -0.87184926867485035 1.0000000180025095e-35 1.0000000180025095e-35 -1.5220026969909666 1.2604954838752749 1.4547702670097353 0.86436888575553905 0.82742500305175792 1.0212956666946413 1.119006931781769 -0.88436287641525257 1.1100445389747622 -1.0044397711753843 1.0676783919334414 0.80397039651870739 -0.81250751018524159 -1.6020146608352659 -3.088365793228149 -0.95527440309524525 1.2051240205764773 -0.90985643863677967 0.96991539001464855 0.83715873956680309 0.82092440128326427 0.45328894257545477 -0.44314654171466822 -1.0865064859390257 0.87360003590583812 1.0764562487602236 -0.9460085630416869 -0.54175466299056996 1.158245921134949 0.83042550086975109 -1.0638227462768552 0.86911830306053173 1.1075533628463747 -1.1322313547134397 0.57843342423439037 1.0021227002143862
decision_type=2 2 2 2 2 2 2 2 2 2 2 2 2 2 2 2 2 2 2 2 2 2 2 2 2 2 2 2 2 2 2 2 2 2 2 2 2 2 2 2 2 2 2 2 2 2 2 2 2 2 2 2 2 2 2 2 2
left_child=17 7 3 4 6 -6 -3 10 15 12 13 30 -5 48 -11 16 -4 18 32 20 26 -15 24 46 25 -20 28 -28 -19 -13 -12 -25 37 47 35 43 -17 42 -39 -35 -26 55 -1 -9 -21 -43 -24 -10 -2 51 -46 -36 -52 -22 -51 -34 -55
right_child=1 2 8 9 5 -7 -8 34 33 14 11 29 -14 21 -16 36 -18 19 22 44 53 -23 23 31 40 -27 27 -29 -30 -31 -32 -33 41 39 49 -37 -38 38 -40 -41 -42 45 -44 -45 50 -47 -48 -49 -50 54 52 -53 -54 56 -56 -57 -58
leaf_value=0.13250558931751577 0.25969050712702119 0.049809318708728921 0.016542570551539949 -0.053888016285356388 0.037938500523288177 -0.07449677437067391 0.018695057812616749 -0.036226743914540678 0.066878949094353018 -0.010649090375118832 -0.0090178208104882748 0.11136522343613137 0.069325268096956355 0.15021164997419312 0.064854960944208423 0.093959196687933788 0.10002011192242349 0.11755886566275982 -0.042129338608085154 0.13957066243071545 -0.12290902655251207 -0.03831851279111198 -0.063679312861583945 -0.20985269145772853 -0.12110077821857584 0.043856655401427524 0.10779388281861238 0.017852941063187609 -0.094618511105943798 -0.12232800874466475 0.072972333781991791 0.010402635790355268 -0.17473561959172268 0.064186027797996661 -0.1323865727700487 0.2028973294571885 -0.079291664850603724 0.097663453632925779 -0.09944249417645748 -0.070491757717276768 0.074407915166768132 -0.089433901174462316 0.093221099149480527 -0.11809177190061403 -0.21766563269567554 0.10199616814820334 -0.19840396620178735 -0.11668416610075827 0.17992972414475553 -0.1177832199345267 -0.12665371680944379 -0.15259973683666639 -0.15517008979253463 -0.17069833908470308 -0.12914362722829556 -0.19459400149295794 -0.15735238693137263
leaf_weight=671.16908593475819 38.443906202912331 66267.244532704353 9792.7950184382498 1239.2642137669027 7667.9227726608515 1696.895477168262 8592.4356821067631 55.450095176696777 4.4639130011200896 690.14034312218428 736.88722411543131 20.627930089831352 179.79160687327385 54.198224611580372 663.61965004354715 22.096083417534828 323.62793378159404 1319.609645113349 405.75889245420694 2.9944971650838843 4.0746094733476665 103.45875666290522 14.470917612314222 21.863056968897581 12.622534193098543 475.23390641063452 1500.2609882615507 736.0957238599658 23.973400890827179 244.28127042204142 184.58082780241966 204.34870313107967 7.5986772626638395 44.262044012546539 167.60719584673643 23.381577886641026 250.9625621587038 439.17609759420156 58.892526544630527 77.848589517176151 376.94888055324554 9.9657606631517428 491.02761633694172 135.28842841088772 4.9428375065326682 18.212147623300552 50.672990202903748 234.67945558577776 58.278134003281593 149.68321048468351 12.219317033886908 55.147448047995567 29.119253247976303 7.6274608522653606 43.560101956129074 7.1601047515869141 14.022650852799414
leaf_count=523 21 138999 34494 9929 14997 6279 35324 302 13 2750 2095 36 620 83 2040 46 751 1327 1065 4 28 438 41 90 48 971 1988 1503 71 1133 395 435 33 136 941 28 1365 586 214 387 526 32 604 1250 20 22 204 1300 67 1237 78 256 131 32 266 29 61
internal_value=0 0.0369752 0.0384053 0.0414637 0.0430499 0.0175653 0.046238 -0.0305262 0.0136561 -0.00671798 0.00269669 -0.0174995 -0.0382771 0.0968881 0.0263634 0.0169926 0.019213 0.072804 0.0572162 0.0867294 0.0897795 0.0264931 0.010775 -0.0461205 0.0238219 0.00425408 0.0915445 0.0781899 0.113773 -0.104131 0.00740577 -0.0108847 0.099805 -0.0823009 -0.10649 -0.0618399 -0.0652721 0.103443 0.0743573 -0.0216744 0.0680732 -0.040869 0.115908 -0.0942926 -0.136456 0.0342926 -0.168477 -0.113258 0.211632 -0.129472 -0.154316 -0.137391 -0.146741 -0.155854 -0.120344 -0.18437 -0.162054
internal_weight=0 99818.9 97748 86997.3 84224.5 9364.82 74859.7 2070.87 10750.7 2772.82 1440.76 1186.38 1419.06 254.379 1353.76 10389.5 10116.4 6920.06 3265.12 3654.94 3605.66 157.657 1561.92 291.356 1270.56 880.993 3579.94 2236.36 1343.58 264.909 921.468 226.212 1703.2 361.254 630.118 214.12 273.059 1660.27 498.069 122.111 389.571 42.9367 1162.2 190.739 49.2759 28.1779 65.1439 239.143 96.722 415.998 46.2814 222.755 41.3386 25.7247 193.243 14.7588 21.6501
internal_count=268644 257978 249430 210938 195599 21276 174323 8548 38492 15339 4268 3659 10549 609 4790 36656 35245 10666 5423 5243 5010 521 3380 770 2610 2036 4889 3491 1398 1169 2490 525 2043 1836 4280 1580 1411 1927 800 523 574 116 1127 1552 233 54 245 1313 88 2700 229 1197 209 121 1503 62 93
is_linear=0
shrinkage=0.1


Tree=15
num_leaves=62
num_cat=0
split_feature=130 106 108 132 53 30 118 73 128 30 71 58 127 108 79 71 59 117 64 27 78 127 116 72 70 41 95 33 55 60 118 121 27 65 47 76 121 97 109 4 43 104 20 105 71 5 48 26 76 132 53 7 58 96 73 2 30 2 83 32 87
split_gain=757.703 622.832 780.11 594.979 1611.63 1097.45 1033.75 723.218 687.142 668.157 554.499 374.794 357.136 250.207 285.123 271.215 249.578 247.116 219.18 213.36 206.122 167.244 163.454 364.95 153.239 147.03 123.867 375.636 220.114 172.352 151.786 141.984 120.896 115.919 110.229 158.827 99.9115 97.9118 83.1081 71.1487 62.2068 58.071 57.5104 45.6255 104.202 34.7988 63.3392 32.16 23.4082 15.8493 13.5095 4.91372 0.625119 0.346467 0.277447 0.210641 0.141541 0.127597 0.0697651 0.0568428 0.00159428
threshold=1.0000000180025095e-35 -0.96975478529930104 -1.0581142306327818 1.0000000180025095e-35 1.1087837815284731 1.0345983505249026 -1.5890880823135374 -0.80718833208084095 1.0000000180025095e-35 1.0888040065765383 -0.30738717317581171 0.91428151726722728 -2.2788643836975093 -0.85162454843521107 -1.4402537345886228 -0.42170763015747065 0.83178216218948375 -1.5025672316551206 0.39473462104797369 1.2011205554008486 -1.3410429358482359 -2.7093975543975826 -1.5075426101684568 -0.36185510456562037 -0.17141753435134885 1.0587367415428164 -0.83292385935783375 0.86231583356857311 0.90798300504684459 0.80279213190078746 -1.2664514183998106 -1.4187329411506651 1.1947737932205202 0.36663022637367254 1.155776381492615 -1.1601206660270689 -1.3859009146690366 -0.85133957862853993 -1.1057437062263487 0.5479186773300172 1.1074708700180056 -0.7801326811313628 1.1801486015319826 -0.80012869834899891 -0.49014087021350855 0.39090114831924444 1.2032451629638674 1.1417483091354372 -1.177278399467468 1.0000000180025095e-35 1.0295159816741946 0.6440601944923402 0.97887146472930919 -0.86094501614570607 -0.73685732483863819 0.68367013335227977 1.0227571725845339 0.34866915643215185 -1.0602038502693174 0.94399330019950878 -1.1531258821487425
decision_type=2 2 2 2 2 2 2 2 2 2 2 2 2 2 2 2 2 2 2 2 2 2 2 2 2 2 2 2 2 2 2 2 2 2 2 2 2 2 2 2 2 2 2 2 2 2 2 2 2 2 2 2 2 2 2 2 2 2 2 2 2
left_child=1 26 10 7 5 -5 -6 9 -9 -4 17 13 45 15 18 16 20 41 55 -18 -2 -19 23 -12 32 -24 28 33 36 31 50 -29 40 38 48 -36 51 -38 -28 -32 -14 -3 -20 47 -45 54 59 -16 -17 -35 -30 -1 -31 -34 -13 -15 57 -26 -56 -47 -58
right_child=11 2 3 4 6 -7 -8 8 -10 -11 22 12 24 14 43 34 19 21 42 -21 -22 -23 25 -25 56 -27 27 29 30 52 39 -33 53 49 35 -37 37 -39 -40 -41 -42 -43 -44 44 -46 46 -48 -49 -50 -51 -52 -53 -54 -55 58 -57 60 -59 -60 -61 -62
leaf_value=0.16820005954435424 0.23044779898794365 0.13544782856127843 0.047979010413234761 0.10351501531455623 0.073922441621956075 0.02013330563288715 -0.051417153185195401 0.027272850772496429 -0.032294198465767414 0.011990093126478293 0.1250430177044754 -0.14782372740274272 0.17997991777175956 -0.12352851274777761 0.053140174045332222 0.015052237898850388 0.14186327176259558 -0.030340628969653945 -0.1289901336686613 -0.12992905103995575 0.0026421011178964678 0.046014994562620329 0.068365468079219602 -0.080348504637567042 -0.13887621787155044 -0.11050354685227093 -0.11572932692639284 0.081829343219509215 0.11146067495407119 -0.14546955919121929 -0.083688905372556896 -0.019321963603315617 -0.14544078546569292 0.08148141178450348 0.14641588044703216 -0.045874140227238958 0.094996229192180967 0.0019055216073917845 -0.012980470091563496 0.022245704202381571 0.10166523017201388 -0.080898480795888669 0.19751546037245477 0.14851616362888195 -0.063186542240384128 -0.13701190534728386 0.25917820568060218 -0.098483296463579562 -0.11574468096718982 0.20642477795323552 0.20746706869270937 0.14051402261585763 -0.12056013596606281 -0.18053403381296762 -0.1279202769760881 -0.10396403470986804 -0.10946430862581449 -0.12332893659566131 -0.11954759577229482 -0.12143201648239584 -0.11316109378833537
leaf_weight=139.68279018998146 40.220165312290192 201.81876862049103 37003.933287661523 5980.6150395870209 1032.8003503382206 2144.5008393526077 1813.330502204597 36833.1665802598 2044.0458439588547 5994.3806337416172 122.19137874990702 3.9358256906270972 138.34083938598633 6.5746004134416571 14.385082408785818 14.524562597274778 227.09592966735363 613.30368831753731 5.7848538085818282 33.09137924015522 3185.4517230279744 538.9343233704567 49.235120430588722 296.2590611949563 8.3262749016284996 689.86122675612569 98.384834617376328 2307.004513412714 37.639374494552612 19.612382128834724 116.36127231270075 147.65140263736248 3.834266021847724 20.892145365476608 48.027189455926418 406.70711600780487 1870.2260622009635 120.25005008280277 393.86268445849419 139.2977185100317 380.10661936551332 13.219475626945494 79.980905242264271 25.329249739646912 283.22370031476021 6.0069090425968188 7.209604784846305 507.92930868268013 236.07951264083385 19.750924691557884 24.003924041986465 118.47703212499619 20.716992665082216 10.565304905176161 11.49334219843149 33.765539284795523 3.4245321080088615 14.422351330518721 74.207545462995768 3.8380317836999893 1.7693082019686688
leaf_count=68 85 309 77483 7488 2178 3971 7072 89689 16382 14903 246 19 85 45 90 110 357 1885 39 151 16365 1072 111 2305 43 3807 343 3191 41 98 373 336 21 41 139 2607 2190 252 942 280 906 51 150 65 2005 32 12 4123 2014 14 12 82 170 46 72 922 44 99 567 28 18
internal_value=0 0.0373661 0.035464 0.0369554 0.0588238 0.0815077 -0.00593408 0.0340251 0.024141 0.0429618 -0.0193809 0.000245871 0.0707484 -0.00889506 -0.0550313 0.00163921 0.013082 0.0237388 0.0850771 0.107296 0.00548256 0.00537306 -0.0703133 -0.0203723 0.102654 -0.0985881 0.0697967 0.0560981 0.0859615 0.072376 0.00799226 0.0757449 0.114624 -0.0201151 -0.0549122 -0.0255652 0.0969636 0.0893724 -0.0335167 -0.0259696 0.122562 0.122148 0.175493 -0.0762965 -0.0458078 -0.0969515 0.0339789 -0.0943074 -0.108164 0.142199 0.148846 0.155494 -0.132674 -0.17119 -0.121863 -0.107153 -0.125619 -0.129019 -0.12067 -0.130938 -0.110724
internal_weight=0 100965 95371.6 92846.8 10971.2 8125.12 2846.13 81875.5 38877.2 42998.3 2524.82 5815.65 667.481 5148.17 956.973 4191.2 3485.86 1367.28 126.106 260.187 3225.67 1152.24 1157.55 418.45 560.789 739.096 5593.81 3027.88 2565.94 2494.99 317.302 2454.66 532.847 532.891 705.338 454.734 2248.64 1990.48 492.248 255.659 518.447 215.038 85.7658 830.867 308.553 106.691 17.0545 522.314 250.604 40.6431 61.6433 258.16 40.3294 14.3996 89.6367 40.3401 27.9425 22.7486 85.7009 9.84494 5.19384
internal_count=268644 237385 228952 219166 20709 11459 9250 198457 106071 92386 9786 31259 1992 29267 7439 21828 16958 3317 1156 508 16450 2957 6469 2551 1262 3918 8433 5135 3298 3795 706 3527 1058 1340 4870 2746 2592 2442 1285 653 991 360 189 6283 2070 730 72 4213 2124 55 53 150 268 67 658 967 204 142 639 60 62
is_linear=0
shrinkage=0.1


Tree=16
num_leaves=56
num_cat=0
split_feature=53 102 72 116 29 53 72 136 105 30 135 36 105 105 117 104 57 134 107 135 102 134 27 28 100 35 127 109 108 131 30 10 29 16 35 34 103 109 30 60 26 76 15 73 127 52 56 115 112 112 136 120 21 77 22
split_gain=620.907 769.283 678.547 517.385 503.697 791.797 597.783 456.212 453.55 770.573 435.095 789.089 550.653 501.711 360.396 298.937 681.741 298.421 287.96 266.639 286.389 260.944 222.966 214.31 210.191 231.962 192.784 189.596 186.264 188.464 166.599 147.142 146.579 197.606 138.835 121.849 118.358 106.134 102.706 133.755 99.3867 98.4202 89.5349 82.2463 78.1077 36.3173 34.3131 12.107 0.308009 0.0803531 0.0279317 0.027265 0.0181546 0.012961 0.000432146
threshold=1.0204937458038332 -0.86303439736366261 -0.68367701768875111 -0.82787048816680897 1.1496173739433291 0.99902510643005382 -0.69246473908424366 1.0000000180025095e-35 -0.94422039389610279 1.0968302488327029 1.0000000180025095e-35 0.87957155704498302 -0.90658298134803761 -0.90591567754745472 -1.2226360440254209 -0.85778260231018055 0.82889497280120861 1.0000000180025095e-35 -0.93278533220291127 1.0000000180025095e-35 -0.88116875290870655 1.0000000180025095e-35 1.2648419737815859 1.1385857462882998 -0.88346776366233815 0.8850952982902528 -2.1270507574081416 -0.94108849763870228 -0.89919540286064137 1.0000000180025095e-35 1.0598855018615725 0.69787812232971203 1.1224343180656435 1.0644367933273318 0.84716433286666881 0.86520078778266918 -0.85244742035865773 -0.92572832107543934 1.0629634261131289 0.67357295751571666 1.2442633509635928 -1.1164940595626829 1.0624278187751772 -0.81851625442504872 -1.7085668444633482 1.0959917902946474 0.90732359886169445 -1.3449332714080808 -0.81209319829940785 -0.62608182430267323 1.0000000180025095e-35 -0.60728242993354786 1.6398412585258486 -1.2411625981330869 1.3115205168724062
decision_type=2 2 2 2 2 2 2 2 2 2 2 2 2 2 2 2 2 2 2 2 2 2 2 2 2 2 2 2 2 2 2 2 2 2 2 2 2 2 2 2 2 2 2 2 2 2 2 2 2 2 2 2 2 2 2
left_child=3 7 17 4 6 8 28 14 27 -10 11 13 -13 -4 26 22 -17 24 36 34 -21 23 -8 -16 25 -3 30 -6 42 -30 -2 -26 33 47 -7 -23 -12 -20 44 -40 -35 43 -1 -34 -19 -43 -28 -9 -5 51 52 -50 -51 -53 -52
right_child=1 2 10 48 5 19 15 32 9 -11 18 12 -14 -15 21 16 -18 38 37 20 -22 35 -24 -25 31 -27 46 -29 29 -31 -32 -33 41 40 -36 -37 -38 -39 39 -41 -42 45 -44 -45 -46 -47 -48 -49 49 50 54 53 -54 -55 -56
leaf_value=0.16764315771130534 0.077512259945759387 0.091525940786636881 0.023622050951326565 -0.13167144619474394 0.074602667284066337 -0.06908402606387018 0.072644510237949669 0.033795319897221981 0.038173058666599813 -0.035448830699813159 -0.023085058370925424 0.07186100607090605 0.024856956903269768 -0.058226704782114405 0.027841417735059205 -0.1058775194202608 0.035067972135831592 -0.074407403285209603 0.10501788294079384 -0.10359404396541086 0.056999151708994826 -0.22225501882490895 0.036274603777512508 -0.058979944711796767 0.022206302288152319 -0.040114512609694168 0.053379475576915608 -0.056919720709664584 0.082505705901547099 0.015320371622719015 -0.12839603630451316 0.12614903701670618 0.006206873408987932 -0.15882406455579534 -0.0093209896986175909 0.11999108346835637 0.048553059340174565 -0.078102045223357938 0.039607500666831906 -0.16011784529563439 0.10876035978141654 -0.13273405645555689 0.10357824158125438 0.087150285782240905 0.11845292380442887 0.10497443617780283 0.16435044533924692 -0.15356368166112289 -0.11790643482781336 -0.10411827554015261 -0.10733437056965521 -0.1082861000548989 -0.11391310907138517 -0.11524375799340991 -0.10895346447787727
leaf_weight=294.10770489275455 90.47945724055171 369.82562885060906 1269.2328794673085 4.7502829618751994 3628.746344819665 961.63119084015489 3867.7613919191062 3.8243512511253348 19780.80483256653 1531.7623463794589 274.21475511789322 2633.7513889223337 46419.92325309664 1826.8245938643813 318.793561860919 370.34032357484102 4678.6427431032062 31.183776453137398 1214.2400385886431 136.00393775105476 605.12005288898945 11.342306233942507 2987.628784827888 2628.2053836658597 152.26270389556885 209.787134449929 35.189130410552025 113.01870811730623 3284.2671416588128 478.3304388076067 69.458645932376385 1290.308054652065 682.79551759362221 14.354825563728808 652.45619156956673 125.56915719807148 1450.9125449731946 32.497704774141312 56.36248779296875 82.773707613348961 420.12288236618042 58.039771571755409 844.65085016936064 153.80947348475456 64.299195721745491 7.2276118248701087 133.85306541621685 35.135783582925797 3.3813385516405097 138.10133743286133 33.15435840934515 51.190143030136824 1.9185972064733494 2.8251659870147696 1.7347441986203183
leaf_count=159 162 780 2639 32 5025 3452 5701 8 36849 5171 725 4406 138956 6951 1623 1198 9176 91 1223 420 954 47 5190 12959 360 986 58 372 4675 1910 240 1708 1435 75 2288 123 2598 101 93 292 529 215 935 237 64 14 103 166 31 3771 521 776 20 28 23
internal_value=0 0.0253981 0.0286116 0.0408758 0.0416657 0.0333082 0.0552965 -0.01311 0.0385193 0.0328818 0.0264112 0.0242903 0.0273807 -0.0246727 -0.0327046 0.0431948 0.0247297 0.0823556 0.0636283 -0.0221266 0.0275286 -0.0433182 0.0567942 -0.049588 0.0947419 0.0438795 0.0667889 0.0706301 0.0846891 0.0739646 -0.0119105 0.115178 0.0355148 0.0805734 -0.0449262 0.091638 0.0371659 0.100245 -0.0244014 -0.0792114 0.0999196 0.0118614 0.120124 0.0210883 0.0554667 -0.106411 0.14125 -0.135172 -0.106464 -0.105949 -0.104883 -0.109195 -0.104252 -0.10865 -0.107415
internal_weight=0 62166.6 57378.4 44452.3 44215.3 27409.5 16805.7 4788.2 25054.3 21312.6 55121.6 52149.7 49053.7 3096.06 3412.89 11904.4 5048.98 2256.8 2971.87 2355.21 741.124 3083.91 6855.39 2947 2022.18 579.613 328.98 3741.77 4901.36 3762.6 159.938 1442.57 1375.31 473.438 1614.09 136.911 1725.13 1246.74 234.619 139.136 434.478 901.872 1138.76 836.605 95.483 65.2674 169.042 38.9601 237.056 232.306 174.909 57.3966 140.02 54.0153 34.8891
internal_count=268644 179967 161973 88677 83475 54531 28944 17994 47417 42020 157599 152952 143362 9590 15315 21265 10374 4374 4647 7114 1374 14752 10891 14582 3834 1766 563 5397 7679 6585 402 2068 2679 778 5740 170 3323 1324 540 385 604 1901 1094 1672 155 229 161 174 5202 5170 4335 835 3791 804 544
is_linear=0
shrinkage=0.1


Tree=17
num_leaves=58
num_cat=0
split_feature=130 31 131 6 128 103 124 30 43 117 75 117 75 30 56 103 30 30 110 55 75 117 123 104 70 75 109 75 118 117 134 101 5 30 12 75 117 46 105 21 56 91 127 111 98 5 20 76 3 57 89 0 29 51 123 126 89
split_gain=583.602 461.22 572.981 600.671 800.772 631.146 645.28 552.807 534.488 335.922 382.673 264.04 367.721 260.163 289.794 258.015 291.983 242.418 233.364 232.785 232.387 246.967 269.789 232.379 221.075 217.652 203.128 192.095 180.94 169.701 162.146 420.58 158.508 137.484 152.721 133.449 104.444 99.1874 73.6598 65.4067 54.6524 58.1474 53.685 50.9115 48.1982 59.692 43.555 35.6832 23.7219 23.0019 22.2047 16.0997 69.2619 12.3814 10.8343 10.7242 0.00984857
