tree
version=v4
num_class=1
num_tree_per_iteration=1
label_index=0
max_feature_idx=136
objective=binary sigmoid:1
feature_names=Column_0 Column_1 Column_2 Column_3 Column_4 Column_5 Column_6 Column_7 Column_8 Column_9 Column_10 Column_11 Column_12 Column_13 Column_14 Column_15 Column_16 Column_17 Column_18 Column_19 Column_20 Column_21 Column_22 Column_23 Column_24 Column_25 Column_26 Column_27 Column_28 Column_29 Column_30 Column_31 Column_32 Column_33 Column_34 Column_35 Column_36 Column_37 Column_38 Column_39 Column_40 Column_41 Column_42 Column_43 Column_44 Column_45 Column_46 Column_47 Column_48 Column_49 Column_50 Column_51 Column_52 Column_53 Column_54 Column_55 Column_56 Column_57 Column_58 Column_59 Column_60 Column_61 Column_62 Column_63 Column_64 Column_65 Column_66 Column_67 Column_68 Column_69 Column_70 Column_71 Column_72 Column_73 Column_74 Column_75 Column_76 Column_77 Column_78 Column_79 Column_80 Column_81 Column_82 Column_83 Column_84 Column_85 Column_86 Column_87 Column_88 Column_89 Column_90 Column_91 Column_92 Column_93 Column_94 Column_95 Column_96 Column_97 Column_98 Column_99 Column_100 Column_101 Column_102 Column_103 Column_104 Column_105 Column_106 Column_107 Column_108 Column_109 Column_110 Column_111 Column_112 Column_113 Column_114 Column_115 Column_116 Column_117 Column_118 Column_119 Column_120 Column_121 Column_122 Column_123 Column_124 Column_125 Column_126 Column_127 Column_128 Column_129 Column_130 Column_131 Column_132 Column_133 Column_134 Column_135 Column_136
feature_infos=[-1.7844352722167969:2.1475074291229248] [-1.6962581872940063:2.0597634315490723] [-1.6161398887634277:1.9801409244537354] [-1.5440802574157715:1.9086390733718872] [-1.4800789356231689:1.8452587127685547] [-1.4241359233856201:1.7899996042251587] [-1.3852788209915161:1.7536556720733643] [-1.3575865030288696:1.77842116355896] [-1.3260828256607056:1.9694005250930786] [-1.2853907346725464:2.0549979209899902] [-1.2320997714996338:2.0165181159973145] [-1.1626077890396118:2.073509693145752] [-1.0779223442077637:2.1457490921020508] [-0.97803342342376709:2.2142360210418701] [-0.86829191446304321:2.2825961112976074] [-0.75375783443450928:2.3805651664733887] [-0.63882678747177124:2.4481546878814697] [-0.65620064735412598:2.4658794403076172] [-0.66012513637542725:2.4605560302734375] [-0.66667592525482178:2.4363620281219482] [-0.8555336594581604:2.3612079620361328] [-0.86833834648132324:2.2960772514343262] [-0.86565589904785156:2.1994528770446777] [-0.7797551155090332:2.1797337532043457] [-1.0841877460479736:2.1696581840515137] [-1.4308524131774902:2.0883691310882568] [-1.6366665363311768:1.9448176622390747] [-1.8254417181015015:1.7314887046813965] [-1.8814246654510498:1.5598906278610229] [-2.2033448219299316:1.3473584651947021] [-2.6534385681152344:1.1444870233535767] [-2.9375624656677246:1.0691677331924438] [-2.8855924606323242:1.0182701349258423] [-2.3245775699615479:1.0153312683105469] [-1.6179424524307251:1.0222163200378418] [-0.85442560911178589:1.0489702224731445] [-0.66409575939178467:1.2523990869522095] [-0.67049169540405273:1.4357191324234009] [-0.67177027463912964:1.5244829654693604] [-0.6765514612197876:1.427788257598877] [-0.67375040054321289:1.3506048917770386] [-0.77278417348861694:1.3033223152160645] [-0.78214722871780396:1.4334096908569336] [-0.67821109294891357:1.6771683692932129] [-0.67593681812286377:1.8418123722076416] [-0.67998087406158447:1.9795904159545898] [-0.67735743522644043:1.8671952486038208] [-0.68031680583953857:1.7601110935211182] [-0.67738151550292969:1.7336448431015015] [-0.68022686243057251:1.7715651988983154] [-0.67672491073608398:1.7863956689834595] [-0.68208664655685425:2.1010029315948486] [-0.68785721063613892:2.3278176784515381] [-0.69603323936462402:2.41339111328125] [-0.68564701080322266:2.0181429386138916] [-0.66343235969543457:1.7058380842208862] [-0.63047897815704346:1.5109990835189819] [-0.64525216817855835:1.3641012907028198] [-0.85317844152450562:1.3483799695968628] [-0.73171019554138184:1.3266682624816895] [-0.62303602695465088:1.3006186485290527] [-0.62908732891082764:1.4134206771850586] [-0.65896600484848022:1.6471337080001831] [-0.67422842979431152:1.5962808132171631] [-0.89532732963562012:1.2496439218521118] [-1.1747497320175171:1.0613176822662354] [-1.3727543354034424:0.98026233911514282] [-1.6713657379150391:0.87500208616256714] [-1.7223098278045654:0.74292320013046265] [-1.8893227577209473:0.59156680107116699] [-1.6767393350601196:0.44254273176193237] [-1.7446892261505127:0.31167539954185486] [-1.674402117729187:0.20973041653633118] [-1.5674382448196411:0.13722024857997894] [-1.4517455101013184:0.30397361516952515] [-1.6804615259170532:0.84510332345962524] [-1.8599822521209717:1.4404212236404419] [-2.0371255874633789:1.2026444673538208] [-2.1728529930114746:1.1285310983657837] [-2.2573421001434326:0.92254304885864258] [-2.3058340549468994:0.73609095811843872] [-2.3315773010253906:0.27998179197311401] [-2.3403120040893555:0.32789856195449829] [-2.3343968391418457:0.37759476900100708] [-2.3124566078186035:0.5232703685760498] [-2.2730567455291748:0.46151745319366455] [-2.2140905857086182:0.49370381236076355] [-2.1362462043762207:0.51996833086013794] [-2.0426793098449707:0.59374678134918213] [-1.9374580383300781:0.55988889932632446] [-1.8240519762039185:0.65060514211654663] [-1.7565661668777466:1.0689502954483032] [-1.6500253677368164:1.4172115325927734] [-1.5946441888809204:1.6290324926376343] [-1.530011773109436:1.6652539968490601] [-1.4861346483230591:1.6182962656021118] [-1.4531639814376831:1.5607637166976929] [-1.4315723180770874:1.5597559213638306] [-1.414076566696167:1.5645072460174561] [-1.5819015502929688:1.5648646354675293] [-2.0638625621795654:1.5687597990036011] [-2.4396805763244629:1.5680602788925171] [-2.5584738254547119:1.5700795650482178] [-2.4521515369415283:1.5650482177734375] [-2.0341367721557617:1.5674868822097778] [-1.4475361108779907:1.5623446702957153] [-1.2213733196258545:1.563502311706543] [-1.1155441999435425:1.561995267868042] [-1.1656886339187622:1.5723429918289185] [-1.2087992429733276:1.5757462978363037] [-1.3317182064056396:1.5835809707641602] [-1.6010570526123047:1.5861003398895264] [-2.1418814659118652:1.5904401540756226] [-2.4733853340148926:1.5896482467651367] [-2.5047738552093506:1.5896980762481689] [-2.0072333812713623:1.5865405797958374] [-1.577265739440918:1.5868538618087769] [-1.6321159601211548:1.7016431093215942] [-1.6864286661148071:2.5795986652374268] [-1.7459897994995117:2.8008601665496826] [-1.820858359336853:2.5472877025604248] [-1.9280952215194702:1.7180403470993042] [-2.1567583084106445:1.6308574676513672] [-2.3918964862823486:1.6220458745956421] [-2.6616356372833252:1.8138364553451538] [-2.9761693477630615:2.1645474433898926] [-3.3559722900390625:3.0688047409057617] [-3.8750591278076172:4.2020993232727051] [0:1] [0:1] [0:1] [0:1] [0:1] [0:1] [0:1] [0:1] [0:1]
tree_sizes=6783 6628 6658 6356 6658 5759 6230 6390 5953 6273 5838 6473 6311 6248 6256 6270 6656 6949 6805 6777 6784 6778 6930 5581 5839 6701 6597 5721 6768 5846 6911 5470 6908 5204 4785 5697 6933 5110 5213 6907 6251 6833 5217 6912 5509 6068 6809 6944 5616 6617 5759 5248 6348 4690 6929 6897 5440 6719 4695 4860 6150 6002 6680 6918 6905 6666 5377 4285 6803 6927 6329 4583 4627 5905 5597 6844 6537 4697 6944 6714 6233 6694 3856 6119 5553 4992 5757 6930 6257 6550 6531 6793 6422 6320 6705 6803 6912 6568 6384 6140 5257 4268 5913 6734 5287 5812 5306 4564 6696 6931 6430 6615 6919 4609 6193 6710 5384 6693 5699 5357 4950 6465 6688 4921 6716 6901 6761 4941 6257 6032 5473 6766 5078 6143 6008 6689 4727 5286 4094 5147 5906 6886 6117 5912 5844 6230 6712 5931 5134 6793 5230 5524 5047 6790 6682 6916 5700 6614 3776 5631 6913 6147 5619 4860 6155 5804 5689 3979 5426 6831 5612 5929 4199 5806 6802 4813 6808 6477 6450 5891 6570 5970 3686 5479 6604 4516 6705 5132 6939 6670 5727 6376 5676 6281 5911 6461 6674 5700 6438 6662

Tree=0
num_leaves=63
num_cat=0
split_feature=22 130 131 130 131 128 5 31 52 29 45 123 101 128 127 31 94 72 100 31 60 102 21 104 72 71 88 58 124 28 72 72 123 111 45 23 70 106 4 24 97 101 72 72 56 32 49 103 37 33 104 53 105 107 0 20 103 20 103 118 32 103
split_gain=44057.9 21122.8 20968.7 12466.8 11397.6 13457.6 17015.8 8310.82 7228.28 6740.08 6299.66 10793.8 5549.19 4444.1 4235.44 3540.66 3538.8 2610.37 2465.08 2089.8 1837.79 1730.3 2562.24 1581.73 1536.18 1427.32 1228.85 1188.46 1542.96 1101.82 946.891 934.262 898.287 889.582 877.127 767.292 671.349 654.781 626.136 592.854 548.156 473.636 980.569 555.758 459.12 434.17 419.661 346.327 339.615 261.392 218.301 355.922 364.799 318.2 144.725 114.768 375.8 92.7826 241.533 16.8312 8.47948 4.67858
threshold=1.3094656467437746 1.0000000180025095e-35 1.0000000180025095e-35 1.0000000180025095e-35 1.0000000180025095e-35 1.0000000180025095e-35 0.59090140461921703 1.0062409043312075 1.0560995340347292 1.2228289842605593 1.198200583457947 -2.1828233003616329 -0.88291823863983143 1.0000000180025095e-35 -3.1362557411193843 0.99001464247703563 -0.94213667511939991 -0.58581763505935658 -0.86951079964637745 1.0067638754844668 0.77281352877616893 -0.84889572858810414 1.2545104026794436 -0.8536025583744048 -0.65538379549980152 -0.50823515653610218 -1.2857124805450437 0.91442072391510021 -1.6724708676338194 1.1766126155853274 -0.6787540316581725 -0.66788557171821583 -1.595759332180023 -0.80155369639396656 1.1529692411422732 1.2752929925918581 -0.30554617941379542 -0.8187158703804015 0.69108688831329357 1.3302831649780276 -0.91131260991096485 -0.85238289833068837 -0.6787540316581725 -0.61690995097160328 0.94138953089714061 0.92681148648262035 1.1003788709640505 -0.81788811087608326 0.92161193490028392 0.92123311758041393 -0.88338646292686451 0.9917171597480775 -0.86139732599258412 -0.91831859946250904 0.31984187662601476 1.2576221227645876 -0.84540924429893483 1.261403024196625 -0.83672389388084401 -1.0638733506202696 0.96486875414848339 -0.84102186560630787
decision_type=2 2 2 2 2 2 2 2 2 2 2 2 2 2 2 2 2 2 2 2 2 2 2 2 2 2 2 2 2 2 2 2 2 2 2 2 2 2 2 2 2 2 2 2 2 2 2 2 2 2 2 2 2 2 2 2 2 2 2 2 2 2
left_child=3 2 7 4 5 10 33 8 9 -2 11 -1 26 -10 -12 -8 41 20 50 44 35 55 37 32 -24 -21 39 49 -29 36 -25 40 -9 -7 -22 -18 45 -23 -28 -4 -31 57 46 -44 -14 -20 -43 -38 -33 -19 54 52 -52 -53 -3 61 -57 60 -59 -56 -5 -6
right_child=1 18 12 16 21 6 15 23 13 -11 14 -13 19 -15 -16 -17 17 27 29 25 34 22 24 30 -26 -27 38 28 -30 31 -32 48 -34 -35 -36 -37 47 -39 -40 -41 -42 42 43 -45 -46 -47 -48 -49 -50 -51 51 53 -54 -55 59 56 -58 58 -60 -61 -62 -63
leaf_value=-1.3981807143245499 -1.5796551197810484 -1.8073394727803618 -2.1281690158003723 -2.363208839310075 -2.367436840408625 -2.2901171419478521 -2.310281293872765 -1.4418846150064799 -1.7291332308375358 -1.8759659385858019 -2.156990297718385 -1.8031179342439585 -2.1055501064534248 -2.2799630372967843 -1.8081846360677658 -1.6844007708938982 -2.3428234346712165 -2.0337133653483388 -2.367436840408625 -1.5142908421132399 -1.3253033089184136 -2.1323429195611556 -1.6725117109726906 -1.7258155649468454 -2.0695480623124585 -1.9459734268884215 -2.2629391111566357 -2.2300765479215072 -1.6779996017484908 -2.0676341701969343 -2.2323825334952145 -2.2059838804333878 -1.8625037492288878 -1.4961803841840773 -1.9015113946616247 -1.8340329113032012 -1.6945582575200404 -2.3574472823738981 -2.0267970482471807 -1.6573844559339943 -1.6350612737811538 -2.0191576624516476 -2.1422352634781632 -2.2870719895503879 -1.7736783316899514 -1.4528454526404735 -1.3551868406830929 -2.2811249925855961 -1.9453079215680129 -2.2907232803675139 -1.918095532544666 -1.6107575303707997 -2.3351083970632303 -2.2660447704753932 -2.2490060870150015 -2.3210545477997337 -1.850648899948325 -2.3401057506504346 -1.8255060814772386 -2.355971809642345 -2.2666816637368297 -2.3357521076758321
leaf_weight=700.84296855330467 14479.438718050718 5.1173768192529669 47.916668951511383 225.97197578847408 205.08176113665104 1408.6541337072849 100.29575288295746 53.677476271986961 3477.0551874637604 810.63979418575764 785.40557944774628 10833.709449484944 175.11260642111301 152.91134248673916 625.263468131423 914.7950044721365 38.816642120480537 48.668934509158134 5.5752047151327124 258.68919907510281 109.09711493551731 398.26702590286732 191.10253936052322 46.160724014043808 198.85074427723885 108.81055650115013 676.57281057536602 90.421523422002792 115.01991158723831 47.801930576562881 183.93085253238678 189.3623528778553 938.50700254738331 14.255649775266646 34.859581291675568 125.38093493878841 18.458496406674385 191.28168804943562 134.62804295122623 60.549672424793243 75.663046002388 19.202607437968254 598.18753607571125 475.53613385558128 54.708996042609215 75.213372632861137 18.876952573657036 22.138554230332375 67.899382337927818 211.7222293317318 72.292333990335464 7.5758098512887946 29.553225055336952 339.22526140511036 16.134487614035606 102.99294279515743 20.336208641529083 34.956885010004044 12.340817019343374 166.66501492261887 9.4824880808591825 60.307263433933258
leaf_count=2089 66685 34 456 2626 2391 15448 1118 181 20667 5884 7677 71570 1631 1663 4159 5071 444 422 65 1040 254 3805 1039 273 1788 858 7255 943 631 429 1922 1934 6699 55 261 863 104 2213 1159 321 386 164 5768 5202 347 261 49 241 535 2323 552 37 336 3647 171 1158 143 399 84 1926 102 686
internal_value=-2.25697 -1.69088 -1.66881 -1.89731 -1.8681 -1.8435 -2.05903 -1.64181 -1.62548 -1.59536 -1.80291 -1.77851 -2.02734 -1.75234 -2.00239 -1.74624 -2.12292 -1.95144 -2.11069 -1.79002 -1.72565 -2.14468 -2.07384 -1.89453 -1.87497 -1.6421 -2.18148 -2.10081 -1.92099 -1.94502 -2.13076 -2.02866 -1.83975 -2.28216 -1.46483 -1.95431 -1.68267 -2.20538 -2.22375 -1.86536 -1.80254 -2.21809 -2.1887 -2.20638 -2.02655 -1.51596 -1.69001 -2.01443 -2.13718 -2.24269 -2.24136 -2.20346 -2.0391 -2.25173 -2.33185 -2.3232 -2.24349 -2.33365 -2.20584 -2.34653 -2.35932 -2.36024
internal_weight=0 22798 21659.3 18920 16751.4 15383.2 2438 20142.3 18920 15290.1 12945.2 11534.6 1516.99 3629.97 1410.67 1015.09 2168.54 773.987 1138.68 597.321 308.154 1368.22 979.502 1222.28 389.953 367.5 919.667 465.833 205.441 502.112 230.092 380.727 992.184 1422.91 143.957 164.198 121.386 589.549 811.201 108.466 123.465 1394.56 1111.8 1073.72 229.822 80.7886 38.0796 40.5971 257.262 260.391 636.564 448.647 101.846 346.801 187.917 388.718 123.329 282.752 47.2977 182.8 235.454 265.389
internal_count=268644 127699 117041 140945 120410 107187 21692 103974 94899 72569 85495 73659 13067 22330 11836 6189 20535 6141 10658 3876 1822 13223 8845 9075 2827 1898 9191 4319 1574 3955 2195 3284 6880 15503 515 1307 671 6018 8414 777 815 14394 11183 10970 1978 326 213 345 2469 2745 6703 4572 888 3684 2131 4378 1301 3211 483 2097 2728 3077
is_linear=0
shrinkage=1


Tree=1
num_leaves=61
num_cat=0
split_feature=33 118 130 131 109 127 129 136 34 106 129 100 100 117 52 105 104 94 52 31 77 32 96 76 20 53 5 97 32 105 125 100 129 112 47 42 127 31 74 1 1 65 53 118 74 124 99 38 112 3 2 42 59 69 52 89 51 136 131 136
split_gain=13861.9 9113.33 6680.1 6199.1 5638.37 3767.11 2853.54 4340.29 3657.78 3327.54 2761.53 2307.13 2288.17 2239.89 1537.97 1456.11 1264.32 1124.21 916.379 877.134 812.917 801.949 759.359 644.19 637.253 629.646 574.685 769.326 562.02 486.152 462.393 331.18 303.514 295.878 275.269 251.715 236.198 224.637 215.883 346.857 276.874 215.317 198.573 177.05 447.476 163.516 134.331 119.085 97.1104 76.8656 51.0567 50.2659 46.779 45.393 44.4313 41.5442 25.0233 0.740978 0.00554501 0.00221769
threshold=0.92277562618255626 -0.80893227458000172 1.0000000180025095e-35 1.0000000180025095e-35 -1.1269721984863279 -2.8153320550918575 1.0000000180025095e-35 1.0000000180025095e-35 0.92227482795715343 -0.85368710756301869 1.0000000180025095e-35 -0.89955067634582508 -0.87121468782424916 -1.118263781070709 1.1303800344467165 -0.82254290580749501 -0.79319038987159718 -0.88847216963767994 1.0258699655532839 1.0027347207069399 -1.1933348774909971 0.92556270956993114 -0.92785507440567005 -1.0979130864143369 1.6969546079635622 1.0514634847640993 0.61029380559921276 -0.92041209340095509 0.96197596192359935 -0.85973629355430592 -1.6214918494224546 -0.86404046416282643 1.0000000180025095e-35 -0.93613204360008229 1.12793904542923 1.0609819889068606 -1.1642674803733823 1.0012282729148867 -0.87958094477653492 0.32762061059474951 0.3726081401109696 0.43275471031665808 1.0283744931221011 -0.93008714914321888 -1.0102317929267881 -1.2861102223396299 -0.87658658623695362 1.0264639854431155 -1.0335590243339536 0.49124611914157873 0.50958770513534557 1.128906846046448 0.6143859624862672 0.003047875477932394 1.0138088464736941 -1.109050393104553 0.97658202052116405 1.0000000180025095e-35 1.0000000180025095e-35 1.0000000180025095e-35
decision_type=2 2 2 2 2 2 2 2 2 2 2 2 2 2 2 2 2 2 2 2 2 2 2 2 2 2 2 2 2 2 2 2 2 2 2 2 2 2 2 2 2 2 2 2 2 2 2 2 2 2 2 2 2 2 2 2 2 2 2 2
left_child=1 2 3 4 5 -1 7 8 13 28 -6 18 43 29 26 20 -15 25 -5 -13 -11 46 -23 -19 32 -10 27 34 41 -2 -29 42 51 48 -8 -30 49 -17 40 47 53 -9 -28 44 -4 -33 -14 -40 56 -34 -50 57 -38 -16 -45 -41 -26 -3 59 -35
right_child=6 24 12 11 10 -7 14 9 17 15 -12 19 21 16 38 37 -18 23 -20 -21 -22 22 -24 -25 33 -27 31 30 35 -31 -32 45 36 58 -36 -37 52 -39 39 55 -42 -43 -44 54 -46 -47 -48 -49 50 -51 -52 -53 -54 -55 -56 -57 -58 -59 -60 -61
leaf_value=0.029755127776561103 0.383507003213441 -0.1101110405044201 0.24436789729753516 0.15437515852537154 0.34442466294841828 0.41462837892350485 0.16785316941807182 0.19980297186521345 0.15451992670552595 0.24869648583941861 0.21461527096223298 0.12850342494253184 0.25118668278448014 0.12052907796331976 -0.096047977020543379 0.43327365850662763 0.2971129712804621 0.49496197194761371 -0.037268653290585346 0.31647837348116692 0.43593042807166232 0.12456520410550354 0.29560266270986751 0.12343222988417302 -0.11905117742654812 -0.022517553566795918 0.49255560007705768 0.24085092673231451 0.13784759799391783 0.23590380292447671 0.33205472053489321 0.41191792131235055 -0.11692136306135509 -0.11729604168667727 -0.096816061072147908 -0.030761317033152609 -0.11713511790648481 0.56287535412375667 0.15555317564540325 0.37133189718800119 0.50189622794651589 -0.082864701144439668 0.23255906073262264 0.016257627853302564 -0.0065632166222709112 0.60946771192160343 -0.061584977843517456 0.0094472702990278865 0.6915526179962117 0.4492471029641748 0.40563333056348694 0.41820172996462035 0.19549729765094961 0.06729803489296253 -0.086814324901999959 0.62884330316156123 0.29928714981014248 -0.11836017677236799 -0.11312612955686195 -0.12008699876623508
leaf_weight=982.05782970786095 520.52661189436913 399.63714698702097 85.919694393873215 450.47666268050671 39226.032781906426 343.18838992714882 204.97996754199266 510.55991294980049 225.7592478916049 991.58047670125961 1710.2970011755824 366.17845606803894 15.710783533751963 3026.9138835072517 93.531994163990021 326.72442923486233 468.18008684366941 51.542221903800964 559.28156092017889 770.71109042316675 302.66841769218445 371.93456669151783 859.26207230240107 493.57918836921453 3.7414147779345504 1823.9367835074663 42.364998839795589 855.59203730523586 135.25658743828535 390.57495805621147 1586.9253215938807 75.959357559680939 2.7203467935323742 7.5238982141017896 48.616390466690063 256.36115576326847 22.168987363576893 226.42249286174774 143.998584613204 13.709977507591249 9.2702032923698408 28.449591338634491 95.808104164898396 52.671325050294399 411.06551342457533 93.442325294017792 109.00054324418306 91.064607441425323 8.2734963893890363 20.233780413866043 25.47908041626215 1.7915033325552929 6.1038896441459647 20.795096918940544 203.0439226552844 11.536881029605864 2.3142969831824303 149.67138475179672 2.4395012035965911 4.5802023261785507
leaf_count=7172 1892 4868 685 3559 132210 1130 1167 2767 1406 4922 8393 2722 103 21498 753 1082 2629 158 6118 3104 995 2843 4345 3589 29 18943 120 4307 808 2047 6697 271 22 65 392 1914 178 487 835 53 25 226 490 559 4288 162 1023 648 9 58 73 8 31 137 2387 18 15 1152 24 33
internal_value=0 0.310529 0.315751 0.324009 0.332429 0.129423 0.194483 0.167083 0.125117 0.272844 0.339001 0.158232 0.141843 0.180586 0.27358 0.350522 0.144183 0.0309265 0.0482281 0.255934 0.292482 0.219457 0.243934 0.158561 -0.0593997 -0.00301815 0.297668 0.282895 0.118643 0.320232 0.300107 0.427172 -0.0889914 0.268536 0.117114 0.0274727 0.143839 0.486324 0.0851096 0.136781 -0.0237174 0.184883 0.312276 0.00202908 0.0368182 0.520887 -0.0221829 0.098951 0.409561 0.382149 0.475718 -0.110634 -0.0496403 -0.0663368 -0.0655839 0.489005 0.0408242 -0.112359 -0.117476 -0.118352
internal_weight=0 47173.5 46516.8 44408.2 42261.6 1325.25 13166.6 9779.04 7001.01 2778.02 40936.3 2146.65 2108.61 4406.2 3387.6 1847.4 3495.09 2594.82 1009.76 1136.89 1294.25 1355.91 1231.2 545.121 656.679 2049.7 3003.69 2696.11 930.627 911.102 2442.52 307.575 602.327 54.3519 253.596 391.618 51.227 553.147 383.907 260.31 123.597 539.01 138.173 752.7 496.985 169.402 124.711 235.063 39.8083 22.9541 33.7526 551.1 28.2729 114.327 255.715 25.2469 6.05571 549.309 14.5436 12.1041
internal_count=268644 187206 180641 164408 148905 8302 81438 65363 52162 13201 140603 15503 16233 28066 16075 7486 24127 24096 9677 5826 5917 8314 7188 3747 6565 20349 13606 12563 5715 3939 11004 1043 6317 248 1559 2722 289 1569 2469 1554 915 2993 610 7919 4973 433 1126 1483 126 80 82 6028 209 890 2946 71 44 6020 122 98
is_linear=0
shrinkage=0.1


Tree=2
num_leaves=61
num_cat=0
split_feature=130 36 131 128 110 5 30 135 53 31 117 100 72 75 105 104 108 99 117 75 67 68 75 31 44 59 117 118 75 117 106 115 69 109 116 117 102 72 19 74 30 20 54 32 88 118 57 117 54 98 58 101 31 59 103 55 112 22 128 104
split_gain=6854.19 5727.28 4673.94 3700.75 2734.51 2656.19 2576.02 2036.95 1981.13 1788.87 1758.9 1142.39 1237.24 937.068 926.602 1668.41 964.675 868.495 853.548 1059.81 729.278 598.038 595.321 507.596 494.484 816.432 485.104 471.89 692.567 717.645 443.313 423.761 399.013 361.038 234.349 190.152 184.51 435.736 175.425 121.109 105.393 73.4364 70.8328 245.11 65.9712 67.375 62.3913 59.0677 56.3992 53.3932 147.028 44.8039 44.4468 43.1009 20.8622 20.066 0.184757 0.0533221 0.0279261 0.00520687
threshold=1.0000000180025095e-35 0.9246344566345216 1.0000000180025095e-35 1.0000000180025095e-35 -0.78309342265129078 0.62159782648086559 1.0907557606697085 1.0000000180025095e-35 1.0659829378128054 0.99177628755569469 -1.0408390760421751 -0.88692587614059437 -0.6526886224746703 -1.0545310974121092 -0.83598026633262623 -0.85771313309669484 -1.0599244832992551 -0.86327961087226857 -1.0692929625511167 -0.99456220865249623 0.035906020551919944 0.061175221577286727 -1.0385571122169492 1.0059334039688113 1.0976083278656008 0.81486341357231151 -1.1080785393714903 -0.93279400467872609 -1.067741274833679 -0.99551641941070546 -0.86007180809974659 -1.3652956485748289 -0.07302148267626761 -0.94187831878662098 -1.0432816147804258 -1.0221777558326719 -0.81952947378158558 -0.67391589283943165 1.6732822656631472 -1.0376939773559568 1.0697732567787173 1.4595805406570437 0.94912403821945202 0.9525185525417329 -1.1336038708686826 -1.0612539649009702 0.90008562803268444 -1.0630509853363035 1.0546827316284182 -0.86704614758491505 0.84839707612991344 -0.82108256220817555 0.99963784217834484 0.88638705015182506 -0.86859929561614979 1.0093873739242556 -0.53119289875030506 1.3094656467437746 1.0000000180025095e-35 -0.88338646292686451
decision_type=2 2 2 2 2 2 2 2 2 2 2 2 2 2 2 2 2 2 2 2 2 2 2 2 2 2 2 2 2 2 2 2 2 2 2 2 2 2 2 2 2 2 2 2 2 2 2 2 2 2 2 2 2 2 2 2 2 2 2 2
left_child=1 2 4 14 5 7 -7 -1 17 33 13 20 -13 44 15 31 -17 51 19 26 -11 -19 34 27 32 -26 -15 28 29 -12 -21 -3 -16 38 -20 -30 40 -38 -4 -10 -29 -35 43 59 45 52 -47 -46 -41 54 -51 -5 -2 -24 -44 -49 57 -6 -58 -25
right_child=10 3 9 8 56 6 -8 -9 39 11 23 12 -14 18 24 16 -18 21 22 30 -22 -23 53 42 25 -27 -28 36 35 -31 -32 -33 -34 41 -36 -37 37 -39 -40 48 -42 -43 49 -45 47 46 -48 55 -50 50 -52 -53 -54 -55 -56 -57 58 -59 -60 -61
leaf_value=0.20683301217679073 0.4103316893961908 0.45716368846751215 0.1518554445341137 -0.11061834366211826 -0.11454999493476979 0.27303960416685158 0.18313132215992234 0.29524304534809864 0.40525264972223313 0.13484961763380379 0.24097596055659909 0.25798184410244551 0.025796042990040721 0.40745885053121705 0.22615316130137708 -0.065746574099426094 0.12253399471525928 0.27641001144018018 0.33533677200068412 0.1259244239077533 -0.027128045585129757 0.071518041010904268 -0.1009006981204794 -0.11001954070434404 0.071780176529852399 0.2025120461828096 0.21316666521604544 -0.087647024386870692 0.029840467643161412 0.063205499225930759 -0.091248601145618266 0.24359134862439735 0.37441639991822062 -0.092334858957449722 0.073162119913682391 -0.10655047446467494 0.35415880721955062 -0.04463886092591627 0.76055281274033748 -0.046663491083018295 0.072713827056981123 0.0091864899822787591 -0.034030363999946488 0.61765425857704104 0.44254564828435294 0.3697331041235255 0.73886620462213071 -0.11678320844103007 -0.093446644042950278 0.64126235470910664 -0.11150565550185959 0.022362464017614613 0.24264636565964676 0.37076920920920298 -0.097407389018201104 0.21926078957915177 -0.1147833219279101 -0.11826686573687904 -0.10905412715596421 -0.11368710369826139
leaf_weight=23666.499158501625 108.06589351594448 113.42075115442276 35.847059190273285 106.79079654812813 81.850358836352825 23687.975817933679 3682.1218742132187 2928.4853451102972 5.3626641258597365 755.33531746268272 347.80187550932169 1085.2324598655105 291.04891359806061 180.72288629412651 599.01022684574127 306.88948244601488 2402.2984750047326 369.7298516780138 50.178691208362579 456.54523611068726 439.80821827799082 231.74620746821165 222.80895601212978 7.0614393055439004 531.66406141966581 4706.6056812033057 444.76154738664627 331.81552504748106 239.62958301603794 654.27287451922894 118.36220985651016 513.56835287809372 260.43895697593689 422.04937641322613 106.36474597454071 178.25795795768499 38.229491680860519 96.700307115912437 5.4551570415496817 491.25804870575666 46.759642615914345 85.724152401089668 61.837251454591751 6.5256658941507331 5.0192294120788574 7.7438731864094761 11.203203119337557 5.0114695131778699 541.98337091505527 3.7983349636197081 8.1875714734196645 33.216562405228615 18.515304051339626 1.9543527141213406 324.49562042206526 2.7530803382396698 10.073153041303156 73.038512229919434 54.753546357154846 8.5676706656813622
leaf_count=82254 147 142 245 809 753 54715 12201 6854 6 5436 2040 3827 2216 290 2417 2239 12479 1658 186 2568 4190 1960 2233 86 2981 18915 2269 3957 2108 5541 1068 1811 513 5045 841 1934 143 872 5 5378 461 751 658 17 6 20 21 43 6078 11 90 195 96 7 3388 9 90 563 725 83
internal_value=0 0.217998 0.230788 0.152643 0.237641 0.239075 0.260944 0.216568 0.0203944 0.111781 0.0847972 0.146768 0.20888 0.161035 0.177597 0.135226 0.101206 0.145251 0.137818 0.179221 0.0752425 0.197466 0.00747866 0.0284428 0.200778 0.189243 0.269304 0.050098 0.0798069 0.124906 0.0812127 0.282226 0.271081 -0.0520691 0.1572 -0.0283397 -0.0320539 0.068352 0.232252 -0.0687433 -0.0678401 -0.0751957 -0.0711345 0.102898 0.392996 0.412129 0.587998 0.175193 -0.0712034 -0.0808143 0.127047 -0.0790688 0.385804 -0.0967995 -0.0872631 0.00236808 -0.114427 -0.116303 -0.109944 -0.11203
internal_weight=0 68519.3 57305.3 11214 54184.8 53965.1 27370.1 26595 1780.09 3120.5 4093.95 2571.42 1376.28 1740.01 9433.9 3336.18 2709.19 741.483 1581.7 1200.39 1195.14 601.476 381.307 2353.94 6097.72 5238.27 625.484 1933.47 1419.96 1002.07 574.907 626.989 859.449 549.076 156.543 417.888 513.505 134.93 41.3022 1038.6 378.575 507.774 420.474 22.1548 158.312 145.528 18.9471 12.7838 1033.24 398.319 11.9859 140.007 126.581 224.763 386.333 7.76455 219.716 154.889 64.8267 15.6291
internal_count=268644 237451 179870 57581 158155 156024 66916 89108 16084 21715 31193 15669 6043 9804 41497 16671 14718 4622 9462 6195 9626 3618 3267 21389 24826 21896 2559 17056 11623 7581 3636 1953 2930 6046 1027 4042 5433 1015 250 11462 4418 5796 4333 186 342 284 41 58 11456 4147 101 1004 243 2240 4046 52 2131 1316 815 169
is_linear=0
shrinkage=0.1


Tree=3
num_leaves=58
num_cat=0
split_feature=32 120 45 131 130 119 127 70 130 110 70 134 128 54 100 119 105 103 30 104 32 102 9 108 107 32 75 70 22 70 39 32 53 60 53 76 113 95 77 109 19 78 21 39 99 100 106 136 129 22 21 112 75 39 110 57 106
split_gain=4753.78 3581.58 2139.85 2007.66 1925.01 1670.01 2152.52 1606.44 1519.24 1506.62 1466.7 1081.12 1106.47 2161.1 1079.85 900.504 850.02 804.215 780.555 696.793 655.43 584.756 530.008 422.987 382.868 381.194 372.356 358.676 508.921 327.259 294.476 251.167 204.586 169.137 158.301 142.846 435.558 124.566 110.6 109.684 50.9845 38.1762 28.9731 66.7828 27.0764 20.7323 20.0973 0.326268 0.0582038 0.0359126 0.0229056 0.014049 0.0135615 0.0118267 0.00987194 0.000585197 0.000449471
threshold=0.95629891753196727 -0.58524969220161427 1.1933768391609194 1.0000000180025095e-35 1.0000000180025095e-35 -1.6780253648757932 -3.0857752561569209 -0.069617394357919679 1.0000000180025095e-35 -1.2048066258430479 -0.11332217603921889 1.0000000180025095e-35 1.0000000180025095e-35 1.0295956730842593 -0.87121468782424916 -1.6378376483917234 -0.87703552842140187 -0.76807370781898487 1.0673248171806338 -0.81610646843910206 0.95943027734756481 -0.81613057851791371 0.562992423772812 -0.9201156198978423 -0.9248143434524535 0.96675667166709911 -0.96476349234580983 -0.301752358675003 1.2821050286293032 -0.18759493529796598 1.0152496099472048 0.96362465620040905 1.0679715275764468 0.82652223110198986 1.1213634610176089 -1.1453438401222227 -0.96520105004310597 -0.91842392086982716 -1.169201076030731 -0.88960251212120045 1.2449991106987002 -0.40905247628688807 1.7104648351669314 0.69208338856697094 -0.76267924904823292 -0.77396279573440541 -0.9227519929409026 1.0000000180025095e-35 1.0000000180025095e-35 1.3094656467437746 1.3510932326316836 -0.86997088789939869 -0.99456220865249623 0.69208338856697094 -0.78309342265129078 0.64579758048057567 -0.70723572373390187
decision_type=2 2 2 2 2 2 2 2 2 2 2 2 2 2 2 2 2 2 2 2 2 2 2 2 2 2 2 2 2 2 2 2 2 2 2 2 2 2 2 2 2 2 2 2 2 2 2 2 2 2 2 2 2 2 2 2 2
left_child=1 2 3 4 10 9 7 -7 11 41 -1 12 19 21 -6 -8 24 23 -18 25 27 -14 -21 26 -5 -2 31 40 -29 38 -11 -10 -15 44 37 36 -25 -22 39 -19 -13 -4 47 51 -31 -37 -28 48 50 55 -3 -44 -40 -50 -51 -49 -53
right_child=8 42 5 16 14 6 15 -9 17 30 -12 20 13 32 -16 -17 18 29 -20 22 34 -23 -24 35 -26 -27 46 28 -30 33 -32 -33 -34 -35 -36 45 -38 -39 52 -41 -42 -43 43 -45 -46 -47 -48 49 53 54 -52 56 -54 -55 -56 -57 -58
leaf_value=0.1893058415089168 0.13527413376834155 -0.10803593182137819 0.29964929371155463 0.16332112862367212 5.2405516501530921e-05 -0.070263931952631045 0.40007660745942319 0.16183999147409436 0.31340562372104963 0.0058073054307919668 0.29146988673189556 -0.11182460597937388 0.07455152622885021 0.033344178899627902 0.14365358802758679 0.14037914876050356 0.053774559859440976 0.32314019595186494 0.19475917958935313 0.11371571566387054 -0.089147505230047497 0.2179190776637944 0.19326326807331468 0.17214135753623475 -0.035141882625002702 0.053043714488874717 0.11532608690748161 -0.0010273300849897124 0.17837201198534472 -0.11502635025067015 0.47337340345847329 -0.021562197629661356 -0.065830143385549919 0.32862516038933048 0.45355863121488843 -0.084576183058520008 -0.038716044667049081 0.0022404247962508608 -0.12151863356083328 0.1317599913919521 0.01465085431846277 -0.11659455806545826 -0.12382986473778185 0.41912215433673411 0.068952631395945582 0.052967177633935214 -0.11577263430076755 -0.1130530452017527 -0.11308194084449151 -0.12279480132158703 -0.11114259335628909 -0.1132997022123661 -0.1122511096234966 -0.11962838052782976 -0.11625376897364381 -0.1145248423142429 -0.11522690154101618
leaf_weight=56595.782796896994 4204.9779657870531 265.04211168736219 2.2838265001773825 117.39412830770016 719.14896898716688 1088.7118768543005 154.28099478781223 410.6762834712863 91.790290303528309 14.372109189629553 1441.0014964565635 68.558895818889141 460.64247255772352 296.69303084909916 1926.3569071516395 992.29488621652126 704.37145708501339 128.37145606428385 887.49082907289267 1052.2940770238638 261.34237221628428 743.97521641105413 4104.999890089035 116.38219401240349 565.2263120636344 651.02296852320433 4.1119708791375151 220.66260156035423 557.9770727455616 42.456144340336323 214.5650137513876 29.604694657027721 695.87114315479994 12.534391820430754 6.6502058357000342 373.56067261099815 619.03811284154654 347.4287721440196 2.2696675136685371 39.058135762810707 59.565152212977409 62.582894891500473 2.2781211510300636 3.4398578405380249 9.856441602110861 11.290163666009901 44.351100027561188 64.136716619133949 7.7745179831981641 2.4091454297304145 26.067215360701084 2.3079119250178337 5.188788764178752 4.278268113732338 54.596838802099228 2.8203042000532141 2.5443118289113027
leaf_count=141326 17670 3887 9 598 7551 7275 226 1607 259 76 1510 428 2023 2506 9219 4117 5000 315 3680 4433 1711 2687 12839 794 5147 3755 27 1249 2047 405 319 221 8427 27 12 3895 5969 2028 18 332 280 542 16 2 53 86 397 628 76 16 310 24 55 32 454 26 23
internal_value=0 0.178795 0.180689 0.184583 0.18804 0.0972964 0.072181 -0.00669162 0.116897 0.323482 0.191842 0.127428 0.137334 0.0730716 0.104617 0.175324 0.0923437 0.0223714 0.132376 0.151435 0.0479597 0.163096 0.177032 -0.00888285 -0.00101107 0.12425 0.138167 0.102019 0.127531 0.190565 0.444021 0.231717 -0.0361854 -0.00130818 -0.0316911 -0.0311789 -0.00534731 -0.036992 0.26171 0.278495 -0.0530259 -0.101939 -0.106316 0.0572328 -0.0803621 -0.0805411 -0.0961645 -0.110363 -0.108596 -0.114686 -0.108314 -0.117352 -0.115071 -0.115406 -0.11653 -0.113115 -0.11431
internal_weight=0 66334.2 65896.5 62956.8 60682.3 2939.77 2645.96 1499.39 15262.5 293.804 58036.8 13732.7 12210.5 2197.18 2645.51 1146.58 2274.48 1529.86 1591.86 10013.3 1522.19 1204.62 5157.29 1290.13 682.62 4856 169.858 906.764 778.64 239.735 228.937 121.395 992.564 64.847 615.421 1120.27 735.42 608.771 174.888 167.43 128.124 64.8667 437.695 10.5702 52.3126 384.851 48.4631 427.125 303.162 123.963 291.109 7.13034 7.45846 12.0528 57.006 66.957 4.85222
internal_count=268644 193696 188202 174031 159606 14171 13225 8882 74948 946 142836 62095 54340 15643 16770 4343 14425 12853 8680 38697 7755 4710 17272 11648 5745 21425 904 4004 3296 1205 395 480 10933 485 3751 10744 6763 3739 720 647 708 551 5494 65 458 3981 424 5429 4305 1124 4197 63 73 108 470 654 47
is_linear=0
shrinkage=0.1


Tree=4
num_leaves=61
num_cat=0
split_feature=53 128 31 116 135 34 121 86 76 29 54 109 106 4 29 29 23 100 108 130 111 117 133 52 103 69 30 103 134 103 101 0 3 106 35 75 76 106 61 38 31 32 31 78 31 125 92 37 126 103 41 126 60 53 98 55 31 136 125 22
split_gain=3682.75 2954.27 2936.82 2798.79 1945.24 1920.93 1889.09 1716.12 1461.72 1062.49 1100.07 1050.5 1024.91 972.727 1263.78 928.13 597.101 587.636 577.071 512.667 381.341 376.431 320.072 308.411 368.83 396.45 304.86 355.336 302.077 275.572 273.857 266.829 216.479 209.574 209.418 208.255 191.643 176.968 157.742 150.296 119.988 100.847 77.5522 72.7049 69.9217 99.848 91.2827 65.9607 63.3864 53.9793 127.398 44.2469 34.599 34.2668 89.5984 25.5801 7.67829 0.242097 0.080854 0.0312527
threshold=1.0489574670791628 1.0000000180025095e-35 1.005496144294739 -0.81929117441177357 1.0000000180025095e-35 0.83362936973571788 -1.866311192512512 -0.26781035959720606 -1.2256137132644651 1.2117440700531008 0.88036039471626293 -1.1323099136352537 -0.90209630131721485 0.76306793093681347 1.2300095558166506 1.1991952657699587 1.2411716580390932 -0.75922089815139759 -0.94461402297019947 1.0000000180025095e-35 -0.97497010231018055 -1.5769090652465818 1.0000000180025095e-35 1.0999070405960085 -0.79454597830772389 -0.086996346712112413 1.0981280803680422 -0.84540924429893483 1.0000000180025095e-35 -0.85010060667991627 -0.8170604109764098 0.27505488693714147 0.65427315235137951 -0.96799829602241505 0.89211753010749828 -1.0174759626388548 -1.0040739774703977 -0.96163272857666005 0.81745943427085888 0.92927753925323497 1.0121881365776064 0.9230143427848817 1.0064139366149905 -1.2912753224372862 0.98874440789222728 -1.3470358848571775 -1.0842568278312681 0.95087382197380077 -2.8458445072174068 -0.86859929561614979 0.95814630389213573 -1.7930011749267576 0.71407422423362743 1.0920227169990542 -0.80891990661621083 0.84494853019714367 0.99771705269813549 1.0000000180025095e-35 -0.40465295314788813 1.3094656467437746
decision_type=2 2 2 2 2 2 2 2 2 2 2 2 2 2 2 2 2 2 2 2 2 2 2 2 2 2 2 2 2 2 2 2 2 2 2 2 2 2 2 2 2 2 2 2 2 2 2 2 2 2 2 2 2 2 2 2 2 2 2 2
left_child=2 4 3 9 5 17 11 -8 16 10 22 -7 29 14 -11 -12 44 31 -15 26 35 -19 -1 24 43 -26 27 32 -29 36 34 -2 -4 -31 -18 39 -6 40 41 -21 -28 -14 -39 -10 45 -3 -46 -32 -40 50 -22 -37 -51 54 -25 57 -55 58 -5 -59
right_child=1 8 19 55 12 6 7 -9 23 13 15 -13 38 18 -16 -17 30 21 -20 20 49 -23 -24 53 25 -27 37 28 -30 33 47 -33 -34 -35 -36 51 -38 42 48 -41 -42 -43 -44 -45 46 -47 -48 -49 -50 52 -52 -53 -54 56 -56 -57 -58 59 -60 -61
leaf_value=0.19903190293009107 0.18848984149859427 -0.11426790318359928 0.11112871446862201 -0.11703829026251496 0.20181260544977497 -0.10168602444456709 0.11709575873385461 -0.08722169698450985 -0.018229090907624507 0.11984313872315883 0.16477681619052589 0.2778396219923171 0.29317483054618654 0.31465228250137001 -0.043485623993672409 0.046791510098857181 0.30769412205142838 0.33142423272446453 0.13914000382624042 -0.11590548888233027 -0.091750687411492116 -0.082157745449151554 0.26185728239465833 -0.092946287893158397 0.24478402433343904 0.012840497311980862 0.20783481048987928 0.084523330051390011 -0.022429534247237586 0.28965991837596378 0.30901657388541159 0.016009007234345136 0.19732409369370818 0.14382054547178319 0.067115240975923099 -0.12271693906014665 -0.081928360469282036 0.10083678697997367 0.54404687056874745 0.41315831214177312 -0.13172469995433997 0.17461607978749735 -0.078339769247576491 -0.095564450441600182 -0.049232627189494053 0.2461134412610175 0.49813651988840024 0.13785012627150697 0.36583209401108618 -0.099986730494684095 0.17018732847597556 0.10058767313454114 0.013515344164507974 -0.11066011578424149 0.017523900584093761 0.20982212786815393 -0.061128677409605862 -0.1116938271844795 -0.10747584205511347 -0.1150152922696633
leaf_weight=4660.3721776530147 150.55740285292268 11.793455019593237 3535.0227040052414 9.1577145457267743 33.547008454799652 78.758036606013775 26880.941883407533 417.47360275685787 219.73306135088205 2186.4478321671486 38425.153151620179 985.72779775410891 724.54952654242516 317.61126932501793 604.79016345739365 678.50771787017584 47.289724126458168 22.726490303874016 456.70825071632862 6.328151434659957 48.777953594923019 695.20403880625963 981.74682754278183 301.5954764187336 96.407064907252789 312.77409707009792 50.429673001170158 1258.1419872045517 334.23162886500359 116.52181862294674 180.20810435712337 221.86112227663398 317.54503564536572 638.30879881978035 154.05131230503321 15.448218673467634 81.961657553911209 28.039781950414181 27.268373161554337 35.443717867136002 13.112295240163801 79.631117820739746 174.41925626248121 272.10181457549334 149.92618116736412 22.084981456398964 3.1098827421665183 25.72801049053669 74.439821422100067 227.880993463099 29.98040659725666 20.848663873970509 30.445043623447418 396.27136024832726 97.043125584721565 2.526098981499671 33.980734400451183 57.695203579962254 256.69402015581727 55.656828835606575
leaf_count=7446 404 119 12749 80 62 566 98298 2910 1415 5615 86829 861 779 427 2874 2195 62 34 1295 61 548 3751 1018 3452 407 3114 117 4917 1811 99 232 1491 954 1637 632 108 359 87 25 54 72 185 1028 2064 1244 38 14 138 57 2476 222 89 305 4240 1084 2 322 616 4059 495
internal_value=0 0.112094 0.154158 0.162368 0.120189 0.11406 0.119067 0.113971 0.00332413 0.164499 0.168685 0.24976 0.221819 0.111964 0.084454 0.16273 0.138641 -0.0161911 0.211132 0.0889033 -0.0183907 -0.0690656 0.209964 -0.0431549 -0.00265668 0.0674887 0.0967029 0.10181 0.0620744 0.144322 0.206552 0.0857377 0.118233 0.166334 0.123621 0.180761 0.000478102 -0.00782965 0.296275 0.333009 0.137765 0.281435 -0.0535245 -0.061014 -0.00933216 0.120661 -0.0381094 0.287632 0.413612 -0.0645142 0.00795947 0.0055476 -0.0866099 -0.087177 -0.0660538 -0.107342 -0.106748 -0.109455 -0.107805 -0.113325
internal_weight=0 33553.6 54819.2 48693.1 31229.5 29453.3 28362.9 27298.4 2324.1 48311.3 44745.8 1064.49 1776.23 3565.56 2791.24 39103.7 594.192 1090.35 774.32 6126.1 415.153 717.931 5642.12 1729.91 901.016 409.181 5710.94 5444.94 1592.37 870.339 407.277 372.419 3852.57 754.831 201.341 78.0688 115.509 266.001 905.889 41.7719 63.542 804.181 202.459 491.835 186.915 33.8784 153.036 205.936 101.708 337.084 78.7584 36.2969 258.326 828.891 398.639 381.73 430.252 379.204 265.852 113.352
internal_count=268644 130095 138549 112951 111518 108315 102635 101208 18577 107699 97488 1427 3203 10211 8489 89024 2479 5680 1722 25598 3863 3785 8464 16098 7000 3521 21735 20431 6728 2157 1064 1895 13703 1736 694 312 421 1304 1046 115 189 964 1115 3479 1415 157 1258 370 82 3551 770 197 2781 9098 4536 5252 4562 5250 4139 1111
is_linear=0
shrinkage=0.1


Tree=5
num_leaves=53
num_cat=0
split_feature=53 115 31 135 34 121 81 121 109 30 109 131 29 106 2 89 29 104 116 79 101 30 104 0 110 106 69 42 129 33 78 34 104 32 77 0 30 10 57 127 58 72 18 122 31 33 30 136 53 12 22 128
split_gain=2808.89 2023.64 1859.73 1457.35 1567.34 1745.22 1330.17 1266.95 1080.92 850.459 1212.94 855.404 701.555 685.098 650.219 443.033 424.395 353.683 385.902 286.433 321.346 363.386 238.783 219.159 182.22 179.211 203.207 171.266 150.726 141.201 133.36 132.709 107.778 102.929 96.6561 90.2552 183.542 62.0924 56.9722 80.8679 55.5875 55.5597 33.5101 20.9842 15.4683 14.3545 0.739551 0.179698 0.0910534 0.0383872 0.0223007 0.0211147
threshold=1.0403690338134768 -0.82795026898384083 1.0065958499908449 1.0000000180025095e-35 0.83595070242881786 -1.8581138253211973 -0.37139898538589472 -1.8362783193588255 -1.1323099136352537 1.092272996902466 -0.94092139601707447 1.0000000180025095e-35 1.2353702783584597 -0.90209630131721485 0.68885198235511791 -1.258888781070709 1.2011028528213503 -0.85027313232421864 -1.4952031373977659 -1.0441111922264097 -0.85021427273750294 1.0958988666534426 -0.88792631030082692 0.27505488693714147 -1.1593770384788511 -0.96980974078178395 -0.16364774852991101 1.1104239225387575 1.0000000180025095e-35 0.82405111193656932 -1.2735058069229124 0.84541374444961559 -0.86713436245918263 0.9230143427848817 -0.4286613911390304 0.50583481788635265 1.0907557606697085 0.70623549818992626 0.9922308921813966 -2.8898191452026363 0.83971366286277782 -0.54340630769729603 1.2464182972908022 -1.8703235387802122 1.0081334114074709 0.91022464632987987 1.0346764922142031 1.0000000180025095e-35 1.0489574670791628 1.2683944106101992 1.3094656467437746 1.0000000180025095e-35
decision_type=2 2 2 2 2 2 2 2 2 2 2 2 2 2 2 2 2 2 2 2 2 2 2 2 2 2 2 2 2 2 2 2 2 2 2 2 2 2 2 2 2 2 2 2 2 2 2 2 2 2 2 2
left_child=1 2 9 4 17 8 7 -7 34 11 14 12 -1 22 -11 -13 -12 23 24 20 21 -4 37 32 -19 45 -27 -8 -25 -20 -22 -10 -2 38 -6 36 -21 48 39 -15 46 42 -35 -40 -37 -24 47 49 -5 -3 -49 -48
right_child=3 40 19 13 5 6 27 -9 31 10 16 15 -14 33 -16 -17 -18 18 29 35 30 -23 25 28 -26 26 -28 -29 -30 -31 -32 -33 -34 41 -36 44 -38 -39 43 -41 -42 -43 -44 -45 -46 -47 51 50 -50 -51 -52 -53
leaf_value=0.14659498421512929 0.16558846892415818 -0.10644512124882166 0.082140502329743334 -0.14768368163434603 0.24551296680271834 0.23707106322830956 0.15263874481114773 0.091960826245797711 0.17052912194628869 0.11322845497517738 0.10560889392877537 0.14667598799474438 -0.0051208871271622826 0.04825414117740065 0.24550074160384874 0.0083795083240718569 0.0054667750905966518 0.06060764293537213 -0.12214822235535672 0.1649064672203705 0.07214748329795409 -0.037780819234876223 0.16461714398572597 -0.059349458360068802 0.42670287312890648 0.16803327700835949 0.072273118585317014 -0.10297790049340888 0.078951061830192307 -0.028678780718695868 -0.055417593636441012 0.24553632536791767 0.024577712174238306 0.082994380592872841 -0.12334315274789516 0.3418396580533829 -0.1024726606702695 0.2305035514039333 0.3396543881786237 0.23405000656104447 0.21360769189035056 0.2671656608822674 0.26526097025364337 0.26819777494676783 0.22222564438978282 0.25506438810009374 -0.13317767908316752 -0.11045828859831258 -0.1376633629055648 -0.11027512268797808 -0.11339013869554466 -0.14297257948336603
leaf_weight=43026.41058576107 165.24559439346194 210.47668438404799 3228.338796235621 13.313866451382635 7.635064296424388 612.25467504560947 28.117603123188019 34818.390102341771 304.80077730119228 1227.401337787509 630.02021362632513 345.87527100741863 306.96372804790735 24.261034190654755 533.03491699695587 701.34582149237394 1289.0758643448353 110.85833471268415 405.81558228284121 263.5971150919795 112.77819771319628 274.13965317606926 20.948627859354019 201.63348069041967 15.496403425931929 395.24512635171413 504.39832513034344 386.68479244410992 129.35815668851137 268.59089965373278 299.82759264856577 1043.223690263927 80.661120422184467 79.135738804936409 102.17448678612709 25.861939907073975 28.443546280264854 5.0465805828571311 50.007803186774254 680.88976244628429 5.4168507829308501 28.095379129052162 11.56054052710533 230.62967255711555 18.577351838350296 108.05255174636841 5.9186054617166501 52.758766129612923 28.439223676919937 29.884721778333187 51.045047357678413 3.5036436915397644
leaf_count=81263 425 3729 13060 61 20 672 53 130467 546 2897 1621 1490 1237 69 655 4746 4762 455 2615 548 475 1523 33 1758 19 721 1488 2895 436 1159 1854 721 275 205 812 18 139 6 39 645 13 36 10 174 34 63 36 616 144 394 495 17
internal_value=0 0.1323 0.133924 0.0973611 0.0928777 0.0967461 0.0923841 0.0944684 0.204 0.139532 0.0933325 0.143362 0.14552 0.176912 0.153279 0.0540559 0.0383424 -0.0118679 -0.0548744 0.0705303 0.062921 0.0727542 0.120099 0.0478271 0.105506 0.13015 0.114344 -0.0856508 -0.00529885 -0.0849228 -0.02055 0.228577 0.119335 0.232227 -0.0976966 0.159068 0.138865 -0.100813 0.242824 0.227658 -0.104309 0.14429 0.106227 0.280931 0.291836 0.240377 -0.10918 -0.108423 -0.140859 -0.106921 -0.1119 -0.13682
internal_weight=0 52670.7 52311.7 40861 38680.9 37303.3 35845.4 35430.6 1457.83 48060.1 3679.53 44380.6 43333.4 2180.02 1760.44 1047.22 1919.1 1377.66 800.761 4251.56 3915.08 3502.48 1075.44 576.898 126.355 1028.64 899.643 414.802 330.992 674.406 412.606 1348.02 245.907 1104.58 109.81 336.48 292.041 46.7997 985.788 705.151 359.004 118.792 90.6963 280.637 44.4393 129.001 353.587 344.165 41.7531 240.361 103.804 9.42225
internal_count=268644 121622 116322 147022 143328 136186 134087 131139 2099 98671 9935 88736 82500 3694 3552 6236 6383 7142 4248 17651 16912 14583 2516 2894 474 2305 2209 2948 2194 3774 2329 1267 700 1178 832 739 687 211 927 714 5300 251 215 213 52 96 5287 5234 205 4123 1111 53
is_linear=0
shrinkage=0.1


Tree=6
num_leaves=57
num_cat=0
split_feature=130 36 31 131 128 110 127 117 53 31 81 66 99 57 73 108 32 105 44 115 104 33 99 76 111 102 36 32 69 63 31 105 67 37 31 31 17 62 69 90 72 12 67 37 75 107 104 75 116 57 33 29 92 4 51 32
split_gain=2464.1 1909.72 1458.13 1382.65 1318.63 1178.79 923.013 813.01 796.652 575.91 562.181 555.982 537.542 492.287 472.186 469.567 460.787 439.495 411.314 402.567 358.461 348.771 323.168 293.199 562.678 298.426 359.741 287.454 272.815 404.787 319.95 249.238 226.534 225.205 216.865 196.436 151.734 128.218 117.16 112.469 89.1153 77.0688 74.0408 63.633 60.4831 53.1079 50.0452 46.1757 153.765 38.0961 36.9993 36.349 29.3055 15.0251 90.4752 0.0644649
threshold=1.0000000180025095e-35 0.92676916718482982 1.0053594112396242 1.0000000180025095e-35 1.0000000180025095e-35 -1.1904746294021604 -3.4193491935729976 -1.0408390760421751 1.0659829378128054 1.0007116198539736 -1.063748240470886 0.36090184748172766 -0.86327961087226857 0.93230161070823681 -0.48158933222293848 -1.056443393230438 0.96060806512832653 -0.91139438748359669 1.0917872786521914 -1.4435499310493467 -0.8227865695953368 0.89440536499023449 -0.86481922864913929 -1.1460630893707273 -0.94034805893897999 -0.7700383961200713 0.93540075421333324 0.96934762597084057 -0.093737788498401628 0.49434511363506323 1.0135437846183779 -0.80199259519577015 0.14761146903038028 0.93259361386299144 0.98558759689331066 1.0059334039688113 1.1152420639991762 0.6039787530899049 -0.025646021589636799 -1.0826616287231443 -0.57027176022529591 1.2683944106101992 0.17572636902332309 0.94411885738372814 -1.1895534992218015 -0.8277606964111327 -0.95921587944030751 -1.0568665862083433 -1.0158801078796384 0.98889741301536571 0.93509477376937877 0.86414766311645519 -1.1101222634315489 0.3566045761108399 1.1772845983505251 0.92556270956993114
decision_type=2 2 2 2 2 2 2 2 2 2 2 2 2 2 2 2 2 2 2 2 2 2 2 2 2 2 2 2 2 2 2 2 2 2 2 2 2 2 2 2 2 2 2 2 2 2 2 2 2 2 2 2 2 2 2 2
left_child=1 2 3 5 11 14 -7 10 22 13 16 12 18 -5 -1 46 21 -14 -3 -17 -11 39 43 24 33 35 -27 -24 29 30 -4 40 -31 36 -23 -26 -9 52 -33 -2 -18 47 -39 -6 -10 -46 -13 48 -25 -49 -35 -12 -30 55 -55 -53
right_child=7 4 28 9 8 6 -8 23 44 20 51 15 17 -15 -16 19 31 -19 -20 -21 -22 34 27 41 25 26 -28 -29 37 32 -32 38 -34 50 -36 -37 -38 42 -40 -41 -42 -43 -44 -45 45 -47 -48 49 -50 -51 -52 53 -54 54 -56 -57
leaf_value=0.12748860883179755 0.32117952680654477 0.10649148873857305 0.081186313246785408 -0.032697173731965394 0.13121490682273645 -0.044715643374878614 0.11978829136437837 0.44702880007923851 0.21622110066790429 0.053459713911136776 0.31910287307313989 0.19156406250522617 0.19584410973020994 0.27411066919026078 -0.014460494682457057 0.24016084163668136 5.2625009906375225e-05 0.091144952658951631 -0.054857766203595018 0.027146772015168286 0.19695866759640773 0.18510686819265706 0.10899263999227085 0.13673273806044109 0.0025506576788946931 0.40016967402660647 0.0052331957712802232 -0.063463487164167234 0.11451150211578356 -0.040269611930115461 0.012926759296114735 0.16852330391745107 0.11260442486427397 -0.12007092660662338 0.10458892683883055 -0.08579575484641605 0.18454864222853185 -0.13532972129375148 -0.040966912397146477 -0.05528130072843318 -0.10610589403289444 0.24345324469519225 0.26957670724788563 -0.12423645961716144 -0.049904745598852739 -0.096489029970928827 -0.10689123062713815 -0.1060776711614482 -0.087504308368431385 0.31276841490719137 0.13304892325651627 -0.11637443704598537 0.32255585826051453 -0.082626603124589873 0.44657622464888952 -0.12188775038232798
leaf_weight=312.35596570372581 8.4545687958598119 248.38202863186598 5853.5790196284652 1021.9219402708113 10.810219168663023 342.79846139997244 68013.971795056015 26.692029431462288 7.3369979709386817 653.36633568257093 2.1742668002843848 5.7426409572362891 419.08628635108471 55.118816308677197 938.2530156224966 100.09077700227499 260.955895639956 9253.6108232662082 434.15574654191732 780.96265622973442 237.30379858613014 530.77249769866467 659.40950140357018 39.125534206628799 1796.4247280955315 39.883894804865122 54.690357647836208 113.25189421325922 7.5616938024759284 505.70446117222309 777.9407813847065 115.84185314923525 119.91710162907839 24.620629347860813 904.62269227951765 292.68158189952374 125.92569455504417 12.417036205530168 34.691202558577061 129.35410797595978 113.45512322336435 7.5521769300103179 7.0974213927984229 99.55719967931509 516.7567116394639 464.88911277800798 259.46108637750149 291.35044593364 140.01845994219184 2.1878654211759558 7.5444305688142768 31.975043881684542 64.731218129396439 88.410458795726299 3.3531412035226813 62.98101744055748
leaf_count=861 17 758 19088 9019 34 2045 137553 32 5 3293 7 12 584 168 4940 110 1910 29040 2306 3034 641 1047 2719 155 12872 63 417 810 21 2413 3767 345 380 184 3138 3154 427 66 232 764 1082 23 12 690 5777 5491 1741 2687 1328 6 41 272 73 545 5 440
internal_value=0 0.10459 0.110511 0.114866 0.0696458 0.117203 0.118963 0.0334215 -0.00818673 0.0322011 0.0778265 0.082314 0.089629 -0.0169959 0.0209932 0.0162306 0.0927027 0.0956812 0.00385877 0.0513459 0.0916926 0.119773 0.0608511 -0.00222857 0.0122176 -0.00196102 0.171786 0.0837151 0.0680919 0.0659248 0.0731788 0.0115752 -0.0109672 0.179774 0.134362 -0.00982658 0.230455 0.239395 0.120245 -0.0321854 -0.0321158 -0.0734753 0.011935 -0.0992156 -0.0698282 -0.0719662 -0.100429 -0.0785389 -0.0385303 -0.102956 -0.0607008 -0.0874115 0.300795 -0.0921452 -0.063289 -0.120031
internal_weight=0 92297.5 78924 71575.1 13373.5 69607.4 68356.8 5135.74 1872.01 1967.71 2287.04 11501.5 10355.2 1077.04 1250.61 1146.26 2098.15 9672.7 682.538 881.053 890.67 1573.2 883.029 2848.7 2368.46 2183.68 94.5743 772.661 7348.95 7257.14 6631.52 524.944 625.622 184.783 1435.4 2089.11 152.618 91.8074 150.533 137.809 374.411 480.234 19.5145 110.367 988.983 981.646 265.204 472.682 179.144 293.538 32.1651 188.894 72.2929 186.72 91.7636 94.9561
internal_count=268644 237451 184340 158520 53111 145399 139598 31193 15526 13121 9804 37585 32688 9187 5801 4897 8535 29624 3064 3144 3934 4966 4253 21389 17190 16506 480 3529 25820 25648 22855 3569 2793 684 4185 16026 459 172 577 781 2992 4199 78 724 11273 11268 1753 4176 1483 2693 225 1269 94 1262 550 712
is_linear=0
shrinkage=0.1


Tree=7
num_leaves=58
num_cat=0
split_feature=33 120 134 54 29 30 135 104 135 57 75 55 130 134 4 23 20 29 31 128 6 131 26 53 93 74 103 32 69 57 78 20 61 125 103 69 52 51 129 25 73 88 58 95 81 21 39 62 104 136 129 112 136 11 110 68 0
split_gain=1987.94 1408.66 1187.38 1574.29 1300.4 1147.1 920.006 764.204 740.207 628.647 1016.24 849.515 563.977 531.952 683.856 567.691 507.884 506.915 454.601 443.006 1086.78 575.567 413.363 400.226 391.344 554.26 292.495 282.592 278.136 243.701 211.281 209.484 497.875 195.658 145.076 143.594 140.298 115.621 115.201 128.525 111.706 98.1346 92.2918 90.7083 75.4769 20.8874 35.7447 19.8406 0.211957 0.0572073 0.0523426 0.0448772 0.0362925 0.0177847 0.00715392 0.000329669 0.000277084
threshold=0.92277562618255626 -0.58524969220161427 1.0000000180025095e-35 0.95982065796852123 1.148041367530823 1.089421331882477 1.0000000180025095e-35 -0.94250053167343129 1.0000000180025095e-35 0.92968699336051952 -1.0823345780372617 0.92501527070999157 1.0000000180025095e-35 1.0000000180025095e-35 0.42754676938056951 1.2813829779624941 1.1326113343238833 1.2353702783584597 1.0038624405860903 1.0000000180025095e-35 0.60674035549163829 1.0000000180025095e-35 1.2184829115867617 1.1180976629257204 -0.94979494810104359 -0.86598354578018177 -0.77661991119384755 0.95438325405120861 -0.11837101355195044 0.9470297396183015 -1.4118534326553343 1.2316997051239016 0.65925088524818432 -1.7219596505165098 -0.76807370781898487 -0.15135028213262555 1.1548272967338564 1.233257055282593 1.0000000180025095e-35 1.1762740612030032 -0.72013306617736805 -1.3149827122688291 0.88423386216163646 -0.56081274151802052 -1.4671326279640196 1.7104648351669314 0.69208338856697094 0.69182100892066967 -0.86865228414535511 1.0000000180025095e-35 1.0000000180025095e-35 -0.96044912934303273 1.0000000180025095e-35 1.2269525527954104 -0.78309342265129078 -0.18237521499395368 0.39246994256973272
decision_type=2 2 2 2 2 2 2 2 2 2 2 2 2 2 2 2 2 2 2 2 2 2 2 2 2 2 2 2 2 2 2 2 2 2 2 2 2 2 2 2 2 2 2 2 2 2 2 2 2 2 2 2 2 2 2 2 2
left_child=1 2 3 5 8 17 -6 -7 -5 10 27 -12 13 16 26 42 38 -1 -17 21 -21 -18 23 -11 30 29 28 -4 -15 33 41 34 -33 -26 -32 -24 -28 47 43 -40 -31 44 -16 -2 -14 48 51 -27 50 53 52 -47 -3 -50 -52 -51 -53
right_child=12 45 9 4 6 7 -8 -9 -10 22 11 -13 24 14 15 18 19 -19 -20 20 -22 -23 35 -25 25 37 36 -29 -30 40 31 32 -34 -35 -36 -37 -38 -39 39 -41 -42 -43 -44 -45 -46 46 -48 -49 49 55 54 56 -54 -55 -56 -57 -58
leaf_value=0.12222691272714464 -0.11167302023617698 -0.10861491775407804 0.15145423893019586 0.080058718124972186 0.002042405825157616 0.14282295130673303 0.095354348650345741 0.053408235006629438 0.12972552104617641 -0.061257311397307473 -0.072894315306550078 0.096570483578016134 0.26158949497118611 -0.070479718905056873 -0.09926978668631363 0.065366918045282538 0.092085971155943053 -0.014782030125784646 -0.050689786822615969 -0.028434098041388373 0.099445881259037555 0.026684039660595012 0.057098869956235788 0.15538803921462263 -0.1231611144363654 -0.11129344499052035 -0.13729989612857824 -0.026610371070135686 0.25505192239738456 0.21733722854604914 -0.057170134900888528 -0.040299410156456043 0.21906760318504304 0.12878004203485124 0.047372829960972793 0.22183733126616423 0.2084877902151471 0.26734722124854593 0.033845943928514026 -0.10825580416155421 0.0013448218588310943 0.37983696474122425 -0.016123736550354994 0.23961873205125547 -0.11935031412325936 -0.12905858444712678 0.25201287493484864 -0.015444063552907263 -0.10587057406408694 -0.11189577083514163 -0.12462041095860035 -0.1124338479141218 -0.11279300856940191 -0.10946424929578671 -0.11760606204331087 -0.11053148490055385 -0.11080122647142442
leaf_weight=20549.849739342928 145.18293739855289 29.091919336467981 5031.4629411250353 31283.433004841208 3490.2310564294457 1189.5643202550709 1515.3675221204758 4865.1976687163115 3319.0483904778957 113.43493774533272 311.64649939537048 5821.0573493763804 10.003639958798885 29.926493212580681 441.27668254077435 1337.9608600139618 11054.528948195279 273.64189839363098 451.3764717951417 1255.39349617064 1412.0650006234646 1532.0876899063587 55.579170793294907 343.45863473415375 50.529720544815063 127.9756080955267 40.370633915066719 90.733299165964127 213.44110615551472 250.45346367359161 972.19969678670168 218.16907255351543 112.00617068260908 79.044472150504589 153.73111049085855 1102.1739405542612 16.541363283991814 9.3339642435312253 342.71625450253487 78.16565477848053 26.475204490125179 18.531061410903931 191.40549437701702 7.7423925921320906 10.834163635969162 2.2479957416653633 4.4050717353820801 25.980337306857109 186.47098953649402 1.8768679723143566 3.1049620807170868 1.9101365730166415 72.856745257973671 14.869261369109152 2.7345927953720084 31.460056908428669 2.2807970494031906
leaf_count=33263 1441 449 6406 88745 13166 1967 2735 13142 5147 443 1043 12036 38 142 2325 4272 29685 1043 2332 12622 3748 7993 149 687 376 1044 206 331 315 381 8214 1732 480 274 844 1409 32 14 1329 408 135 10 793 18 82 15 2 153 3608 20 20 20 739 205 23 365 28
internal_value=0 0.0951019 0.0959889 0.0906072 0.0779311 0.109287 0.0302912 0.0709753 0.0848227 0.123792 0.115421 0.0879588 0.0602637 0.0657826 0.0249501 0.00730241 0.0728055 0.120426 0.0360906 0.0762798 0.0392614 0.084125 0.182144 0.101601 0.0106936 0.0812152 0.167295 0.1483 0.215022 0.143725 -0.0161759 -0.0223564 0.0476863 0.0305312 -0.0428962 0.213929 -0.0367974 -0.0743994 -0.0195538 0.00745499 0.196688 0.212416 -0.0741156 -0.0938876 0.0635281 -0.104131 0.0325095 -0.0951187 -0.108457 -0.106771 -0.112128 -0.11766 -0.111601 -0.106136 -0.121336 -0.110608 -0.111545
internal_weight=0 79709.2 79355.9 66486.3 39608.1 26878.3 5005.6 6054.76 34602.5 12869.5 11254.9 6132.7 20615.4 18550.2 2722.3 2422.02 15827.9 20823.5 1789.34 15254.1 2667.46 12586.6 1614.65 456.894 2065.27 569.793 300.28 5122.2 243.368 406.503 1495.47 1456.11 330.175 129.574 1125.93 1157.75 56.912 163.29 573.807 420.882 276.929 39.3689 632.682 152.925 20.8378 353.309 10.844 153.956 342.465 234.677 107.788 6.43893 101.949 201.34 5.83955 33.3369 4.19093
internal_count=268644 187206 181712 159208 109793 49415 15901 15109 93892 22504 19816 13079 81438 67661 10417 9722 57244 34306 6604 54048 16370 37678 2688 1130 13777 2377 695 6737 457 1166 11400 11270 2212 650 9058 1558 238 1211 3196 1737 516 130 3118 1459 120 5494 65 1197 5429 4198 1231 63 1188 3813 43 385 48
is_linear=0
shrinkage=0.1


Tree=8
num_leaves=54
num_cat=0
split_feature=53 115 30 31 37 128 29 4 127 71 20 54 28 29 108 31 115 53 109 29 118 103 102 71 131 134 101 6 131 117 81 122 75 99 53 100 104 70 105 32 30 99 58 110 58 101 31 99 136 120 120 22 73
split_gain=1758.16 1170.26 1030.3 1017.79 1011.25 1043.06 663.295 687.817 629.857 927.488 862.776 606.031 608.549 554.342 467.959 887.297 406.054 358.337 348.161 308.23 263.585 253.511 274.74 270.461 250.634 224.2 291.657 284.979 278.438 175.85 279.756 220.602 148.838 252.68 147.706 328.766 146.52 174.794 122.442 113.241 85.5272 82.4301 81.9769 54.3474 40.2145 7.38667 0.939345 0.164404 0.162227 0.062828 0.0363778 0.0227461 0.008428
threshold=1.0403690338134768 -0.82795026898384083 1.0553246736526491 1.0075155496597292 0.95586439967155468 1.0000000180025095e-35 1.216742277145386 0.76306793093681347 -3.4193491935729976 -0.20823491364717481 0.9716811776161195 0.8883471190929414 1.2948117852211001 1.2300095558166506 -1.056443393230438 0.94375813007354747 -1.4349196553230283 1.0695735812187197 -1.1245120167732237 1.2011028528213503 -0.90505266189575184 -0.81990593671798695 -0.87411186099052418 -0.48891989886760706 1.0000000180025095e-35 1.0000000180025095e-35 -0.89005956053733815 0.66823685169219982 1.0000000180025095e-35 -1.5428685545921323 -0.20397720485925672 -2.0356935262680049 -1.061295688152313 -0.85046127438545216 1.0669922828674319 -0.76912251114845265 -0.86057683825492848 -0.2946337610483169 -0.95220607519149769 0.9685368835926057 1.0648649930953982 -0.92797222733497609 0.84711721539497387 -0.8974756896495818 0.83971366286277782 -0.88291823863983143 0.92624288797378551 -0.8964903950691222 1.0000000180025095e-35 -0.58524969220161427 -0.58524969220161427 1.2628921866416933 -0.93987518548965443
decision_type=2 2 2 2 2 2 2 2 2 2 2 2 2 2 2 2 2 2 2 2 2 2 2 2 2 2 2 2 2 2 2 2 2 2 2 2 2 2 2 2 2 2 2 2 2 2 2 2 2 2 2 2 2
left_child=1 3 4 6 8 14 11 13 29 10 -10 19 -13 -8 15 -6 -16 21 -11 -1 -9 22 42 -24 38 26 28 -28 -5 30 -2 -31 33 -23 35 -7 47 -38 -19 -34 -40 -27 -4 -36 46 -43 48 -26 49 -3 -50 -48 -53
right_child=2 44 17 25 5 34 7 20 9 18 -12 12 -14 -15 16 -17 -18 24 -20 -21 -22 32 23 -25 36 41 27 -29 -30 31 -32 -33 39 -35 43 -37 37 -39 40 -41 -42 45 -44 -45 -46 -47 51 -49 50 -51 -52 52 -54
leaf_value=0.13518785301089739 0.24198654606754066 -0.11734953090248586 -0.050737563522839813 0.037389902602109344 -0.093846320148937359 -0.022513298713431381 0.051502243219276468 0.14392524685216115 -0.049564027438465719 -0.085474396865936386 0.080156072776561074 0.092988816184798442 0.0030680248839213648 -0.057922391218159869 0.16708220543781893 0.128011731899391 0.056786334720311374 0.28237921487013379 0.16901496113555414 0.096357317658081962 -0.019844132560230262 -0.01917638717001157 0.079971385287502278 0.034130031647597085 -0.11649920871765139 0.2328957991906104 0.047938839187296634 0.13389510303318602 -0.059367839730453099 -0.11309129332390487 -0.12675038226985702 0.23077686834764558 -0.067969842823947343 0.16156165412136211 -0.044501799213945897 0.3202238829393585 0.17617088675104672 -0.12138155386214028 -0.033294162538716796 0.098124404015669464 -0.10922535676092898 -0.011344859986992833 0.11180875263810255 -0.097126586943156346 0.14760845596801384 -0.11690400808185589 -0.14638933444469496 -0.13202494546293189 -0.12245148689155427 -0.10561585736550416 -0.11055197278692908 -0.13925617575293178 -0.13241958361753509
leaf_weight=5367.3191223219037 46.01173947006464 4.671193338930606 350.40924810618162 1041.2694056518376 531.45098879188299 323.71285873651505 1549.9519005417824 773.22995718568563 523.95461934804916 55.890555322170258 23919.855018850416 40702.80914799124 766.79810444265604 660.14736241847277 346.94612223654985 272.80253593623638 8797.9589655660093 11.268376812338827 1408.7024680450559 3301.7460232973099 112.58792690187693 266.47137519717216 2042.3924257531762 3479.9764789789915 12.64145413786173 7.4150077551603308 1700.6798232793808 498.84225525707006 416.32211718708277 260.21561148017645 37.21857001632452 20.097184680402279 414.97990529984236 108.99017115682364 394.76728437095881 30.63631197065115 120.07744859904051 23.627003952860832 702.14652886241674 45.5542943328619 188.0768071487546 7.043609306216239 34.040959879755974 390.23742720857263 6.2553549110889426 112.65734673291445 2.7634113579988462 14.811635859310625 2.6418463736772528 197.68843352049589 93.274135299026966 3.487313274294138 3.7339291051030159
leaf_count=6614 62 42 1729 3685 3379 2281 3742 1223 2914 346 65318 78837 2240 2884 610 450 30289 12 1476 5549 401 1228 5781 11994 106 7 6003 1316 3039 1801 243 30 1922 255 4829 144 270 166 2839 172 950 24 107 5233 13 758 13 86 18 4078 1093 18 25
internal_value=0 0.0889558 0.0625771 0.0900169 0.0694843 0.0441603 0.0935791 0.0486582 0.0801727 0.0820069 0.0773755 0.0963528 0.0913261 0.0188176 0.0545392 -0.0185921 0.0609708 0.0295586 0.159303 0.120399 0.12311 0.038099 0.0453936 0.051084 -0.0241273 0.0399064 0.0444443 0.0674334 0.00975364 -0.0505398 0.0770964 -0.0884375 -0.013442 0.0332888 -0.0464716 0.00711906 0.0868092 0.127249 -0.0451897 -0.0515404 -0.0493361 -0.0906501 -0.036345 -0.0706624 -0.103409 -0.110693 -0.108502 -0.124876 -0.107492 -0.105887 -0.11088 -0.138674 -0.135721
internal_weight=0 57333.3 45175.9 57018.8 37360.5 11088.5 53234.6 3095.92 26271.9 25908.4 24443.8 50138.7 41469.6 2210.1 9949.16 804.254 9144.91 7815.46 1464.59 8669.07 885.818 6742.81 5906.82 5522.37 1072.65 3784.23 3657.11 2199.52 1457.59 363.543 83.2303 280.313 835.996 375.462 1139.35 354.349 171.158 143.704 901.492 460.534 890.223 127.116 384.45 785.005 314.516 119.701 308.26 27.4531 298.276 202.36 95.916 9.98465 7.22124
internal_count=268644 121622 147022 116322 119405 47215 101490 8250 72190 70054 68232 93240 81077 6626 34728 3829 30899 27617 1822 12163 1624 23188 19611 17775 4429 14832 14043 7319 6724 2136 305 1831 3577 1483 12487 2425 628 436 3801 2094 3789 789 1836 10062 5300 782 5287 192 5231 4120 1111 56 43
is_linear=0
shrinkage=0.1


Tree=9
num_leaves=57
num_cat=0
split_feature=130 5 128 76 131 99 30 106 34 135 108 109 133 92 117 75 32 104 53 81 22 33 58 108 27 124 7 100 75 118 72 25 3 30 0 103 70 32 101 73 90 48 4 95 101 12 76 73 31 33 117 104 4 10 57 64
split_gain=1560.76 1352 1124.17 995.178 873.099 827.503 772.548 764.065 722.2 2171.45 970.678 1288.87 730.468 645.576 622.308 543.353 503.507 454.972 410.92 350.439 346.363 341.267 339.133 332.081 307.517 364.861 300.751 393.031 288.901 397.181 246.807 289.405 243.277 242.237 239.089 217.847 183.787 179.026 173.041 192.692 162.342 144.953 122.021 67.9593 65.2807 63.1613 60.7666 60.2598 46.0188 33.5002 23.9285 22.1356 13.863 55.4188 2.10145 0.0499573
threshold=1.0000000180025095e-35 0.6205318570137025 1.0000000180025095e-35 -1.2256137132644651 1.0000000180025095e-35 -0.9075869321823119 1.0930841565132143 -0.94713270664215077 0.83595070242881786 1.0000000180025095e-35 -1.0193068385124204 -1.12224406003952 1.0000000180025095e-35 -1.2225223183631895 -1.0111188292503355 -1.1700751185417173 0.95497974753379833 -0.86713436245918263 1.0529600381851199 -1.063748240470886 1.2358192205429079 0.9285508692264558 0.93838644027709972 -1.0015081763267515 1.1952830553054812 -1.5437848567962644 0.68775624036788952 -0.90269696712493885 -1.0830715894699094 -1.0036742091178892 -0.67771381139755238 1.3344850540161135 0.69288209080696117 1.0981280803680422 0.44806106388568884 -0.76807370781898487 -0.25459593534469599 0.94266799092292797 -0.78700512647628773 -0.85560932755470265 -1.1400579214096067 1.1081956028938296 0.52799639105796825 -0.96789115667343129 -0.81296569108963002 1.2683944106101992 -1.1482912898063657 -0.86421242356300343 1.0197386145591738 0.58663979172706615 -1.0011079311370847 -0.81714650988578785 0.3566045761108399 0.50205925107002269 0.75495880842208873 0.48095521330833441
decision_type=2 2 2 2 2 2 2 2 2 2 2 2 2 2 2 2 2 2 2 2 2 2 2 2 2 2 2 2 2 2 2 2 2 2 2 2 2 2 2 2 2 2 2 2 2 2 2 2 2 2 2 2 2 2 2 2
left_child=1 2 8 20 6 26 13 32 9 17 11 -10 -12 54 19 -15 46 -1 -18 21 44 24 35 -11 36 -26 47 -28 29 37 31 -7 -8 -9 -22 -23 -2 43 39 -31 -39 -32 -40 -16 -4 48 -5 -6 50 -21 -30 -24 55 -54 -3 -51
right_child=14 4 3 16 5 30 7 33 10 23 12 -13 -14 15 28 -17 18 -19 -20 49 34 22 51 -25 25 -27 27 -29 45 38 41 -33 -34 -35 -36 -37 -38 40 42 -41 -42 -43 -44 -45 -46 -47 -48 -49 -50 52 -52 -53 53 -55 -56 -57
leaf_value=0.0092821826260973388 0.17844919483984456 -0.10889776599731336 -0.11397482110812213 -0.069596015613512696 -0.043684661269320323 0.18323095986389029 0.063440442182895254 0.039106533715501518 0.027362893925515781 -0.066510942708537066 0.063758002262171196 0.10238890992510551 0.017281384961579476 0.16979253666427196 0.30396123045530848 0.091894399343876679 0.070316374782229726 -0.071474659292704343 -0.036251055894543069 0.29800749187543135 0.14823867242909411 -0.042544693391987194 0.26938241216560227 0.14273089606172437 -0.047413035353086441 0.075293397027645481 -0.0058914478404684754 0.13884237993435075 -0.070168985511731882 0.0085144577706215887 0.006442457784026228 0.010350949296314835 0.14736927307969327 -0.024271839063761208 -0.15528725712214309 0.067032006536102598 0.069212425173662287 0.14206043081544589 -0.034348193086385752 -0.064724829433336739 -0.10297674979731908 0.2070644526111583 0.26448882095779425 0.099437324411053796 0.019624131311614126 0.17659543788048332 -0.12549912964721696 -0.1169790374116879 0.1841778938689681 -0.12506298856878509 -0.11684754923648387 0.16061891678377646 0.26313771181313306 -0.083587107231662947 -0.14953914776596272 -0.11885698943981432
leaf_weight=1691.0893140174448 370.67527195066214 137.97851736471057 44.320398800075054 414.21007674559951 243.34927812963724 471.99193025007844 687.42100565135479 1455.2028493881226 2797.7212875969708 80.714463025331497 29085.567815899849 12610.742605805397 3826.5810397416353 918.85443582385778 56.365416079759598 35112.309022337198 568.54094802588224 1187.5241537392139 995.20575644075871 2.2190887033939353 593.7408482208848 673.56342492252588 31.278592839837074 1258.147086635232 306.03306005895138 1163.9743410795927 1249.2284041717649 220.78265124931931 170.22597183287144 692.42872459068894 249.41052004694939 121.82429740577936 694.07198098301888 1029.8332950621843 27.137949332594872 248.32098039984703 263.51269839704037 71.704803913831711 22.440325707197189 746.53301800787449 43.403599940240383 42.091865532100201 34.935551546514034 22.825708165764809 209.27205569297075 8.5928348898887617 366.48124335333705 208.093665599823 5.7553110867738715 15.537436477839945 309.47301007807255 46.576144926249981 4.8651099428534499 87.86331270635128 14.015059005469082 78.529560040682554
leaf_count=4356 471 2036 274 2508 1717 603 1542 3670 10194 243 76137 22995 10305 980 84 57465 1717 6517 11050 4 1035 5498 16 1335 1249 4497 8821 620 1302 5364 1006 444 833 3524 121 978 877 351 159 5805 280 104 51 57 1311 21 2469 1451 17 102 2786 60 13 538 68 613
internal_value=0 0.0713391 0.0610737 0.00370827 0.0846947 0.0307784 0.0884732 0.0459862 0.0645883 0.0249029 0.0680521 0.0887664 0.0583543 0.0930134 0.0164976 0.0938809 -0.0302503 -0.0240327 0.00249432 0.0439517 0.0947505 0.0520019 0.00389683 0.130117 0.0748574 0.0497478 -0.00607821 0.0158463 -0.0248837 -0.00522573 0.11077 0.147764 0.105607 0.0128417 0.134972 -0.0130289 0.13306 0.129282 -0.0226916 -0.0294821 0.049665 0.0354115 0.14761 0.24501 -0.00372498 -0.0921537 -0.0958387 -0.0774699 -0.0969108 -0.0882455 -0.100283 0.204315 -0.0928341 -0.0653958 -0.112645 -0.119882
internal_weight=0 98613.5 55757 3218.91 42856.5 2806.77 40049.7 3866.53 52538.1 4217.48 48320.6 15408.5 32912.1 36183.2 5477.63 36031.2 2344.44 2878.61 1563.75 3292.95 874.471 3103.93 999.739 1338.86 2104.2 1470.01 1921.45 1470.01 2184.68 1690.64 885.319 593.816 1381.49 2485.04 620.879 921.884 634.188 194.3 1496.34 1438.96 115.108 291.502 57.3759 79.1911 253.592 494.047 780.691 451.443 485.454 189.015 479.699 77.8547 186.795 92.7284 151.994 94.067
internal_count=268644 237451 152567 20485 84884 14766 70118 9569 132082 12451 119631 33189 86442 60549 31193 58445 17744 10873 12767 14916 2741 13646 6552 1578 7094 5746 12609 9441 16277 12151 2157 1047 2375 7194 1156 6476 1348 772 11379 11169 631 1110 210 141 1585 4126 4977 3168 4105 1270 4088 76 1266 551 2104 715
is_linear=0
shrinkage=0.1


Tree=10
num_leaves=53
num_cat=0
split_feature=53 102 110 72 31 30 104 136 36 109 117 130 128 30 101 133 134 71 40 29 4 134 129 52 57 100 35 127 30 29 29 17 115 127 118 75 101 95 53 77 7 28 29 118 52 31 111 32 116 114 120 136
split_gain=1325.51 1005.46 859.03 827.412 737.85 675.148 672.73 655.428 568.01 579.298 562.57 542.431 459.39 382.007 420.997 414.945 349.554 286.465 487.587 284.233 346.298 236.359 246.603 220.598 213.013 190.101 365.291 166.607 191.534 151.619 142.68 192.578 151.392 142.658 136.877 137.336 126.426 113.018 106.54 100.436 93.8797 80.4819 79.445 75.4191 53.4068 37.8959 14.1421 8.40307 1.03309 0.0832331 0.0305468 0.0252831
threshold=1.0206596851348879 -0.86290600895881642 -0.81380620598793019 -0.68350788950920094 1.0050859451293948 1.0930841565132143 -0.94669359922409047 1.0000000180025095e-35 0.92809739708900463 -1.1323099136352537 -1.2175822854042051 1.0000000180025095e-35 1.0000000180025095e-35 1.0285890698432925 -0.79085680842399586 1.0000000180025095e-35 1.0000000180025095e-35 -0.48891989886760706 0.98373490571975719 1.21411669254303 0.76306793093681347 1.0000000180025095e-35 1.0000000180025095e-35 1.0987923145294192 0.76507699489593517 -0.88414049148559559 0.88515272736549389 -2.1266380548477168 1.0600454211235049 1.1585019230842593 1.1254034638404848 1.1221914291381838 -1.0099225640296934 -1.591824948787689 -1.1070594787597654 -0.99456220865249623 -1.0029893517494199 -0.9098452329635619 0.99302539229393016 -1.2804943323135374 0.74252697825431835 1.2239215373992922 1.1408066749572756 -0.9975236952304839 1.0960389971733095 0.92354461550712597 -0.89454764127731312 0.86248770356178295 -0.81929117441177357 -0.58221077919006337 -0.58524969220161427 1.0000000180025095e-35
decision_type=2 2 2 2 2 2 2 2 2 2 2 2 2 2 2 2 2 2 2 2 2 2 2 2 2 2 2 2 2 2 2 2 2 2 2 2 2 2 2 2 2 2 2 2 2 2 2 2 2 2 2 2
left_child=2 7 5 16 8 11 36 10 9 -5 27 13 -10 15 -15 -1 25 18 -6 24 -21 22 -12 -19 -8 26 -3 28 -2 -27 31 45 44 43 35 -13 47 -38 -36 -34 -33 -29 -23 -18 -32 -9 -4 -7 -48 50 -50 -51
right_child=1 3 46 4 17 6 19 30 12 -11 21 34 -14 14 -16 -17 33 23 -20 20 -22 42 -24 -25 -26 29 -28 41 -30 -31 32 40 39 -35 38 -37 37 -39 -40 -41 -42 -43 -44 -45 -46 -47 48 -49 49 51 -52 -53
leaf_value=0.13349796397578081 0.11962036550219152 0.13922817669226956 0.10327986350891279 -0.011017072968303189 -0.0014535386806470655 -0.023090148989346238 0.059651098241295178 0.089305880116722164 0.045674347973737518 0.065496829546612775 -0.054223891021266249 0.19154460063307532 -0.012325661319716668 0.079029540120825581 -0.040714340851341874 -0.017714635001342439 -0.010705726474171517 0.012643705700782659 0.14752502239675788 -0.055379107512880513 0.093394258713700662 0.14650154567887549 0.011592953204257126 -0.067758130082181317 -0.0048143252791491512 0.15509057587891312 -0.038850782795102776 0.19253629574438638 -0.091957283292419104 -0.0070598536332432543 -0.14693007781432429 0.12714252089792583 -0.08909051048700406 0.1928494806105463 0.022503129808454005 -0.12981058718032709 0.12637724709994647 -0.050011573600544118 -0.058363946853734243 0.060346305952186166 -0.14247659198368121 -0.025536045371534446 -0.082908890782444233 -0.19560622273994799 0.16732421954426202 -0.15723746769297564 -0.1451968171311121 -0.14934003885042643 -0.11593691930655248 -0.10470119194360697 -0.10868806677060526 -0.10763962882241825
leaf_weight=2076.5203904435039 104.49780083447695 328.99226480722427 3.2286210730671874 1019.6903601437807 470.21829973906279 7.6196815520525005 1372.7690222412348 7.7595492526888838 12175.738368369639 33435.773193601519 2109.2994364649057 59.700741767883301 1538.1197884716094 37262.02962782234 295.94261909276247 198.85225163400173 166.01671966910362 3833.7836845889688 412.32789458334446 847.57450758293271 191.87859629839659 95.968722939491272 779.71451454609632 374.59017679095268 817.99670159816742 1362.7937749549747 177.24981118738651 161.11376236379147 72.451576329767704 60.213547691702843 53.450579851865768 507.71856153011322 48.085765719413757 31.993597626686096 301.92530992627144 17.11025832593441 845.64046365022659 37.955303952097893 353.85851667076349 695.29105180501938 13.251343138515947 18.910141989588737 17.91280323266983 25.440462484955788 6.0167160630226126 31.722834542393684 6.99718253314495 17.110970929265022 6.4947050660848609 159.47233421355486 55.413404785096645 35.867706038057804
leaf_count=2384 169 721 6 4601 1916 28 3035 21 39312 79209 12211 53 14144 64156 830 519 418 15369 918 3391 406 98 2300 1957 2935 1941 967 151 251 186 219 732 151 17 1786 105 1136 117 2643 1356 74 52 55 102 10 139 38 80 60 3829 795 545
internal_value=0 0.0512367 0.0739339 0.0550118 0.0525552 0.075003 0.0365277 0.00694688 0.0563816 0.0632324 -0.0167822 0.0789282 0.0391692 0.0804964 0.078086 0.120283 0.115792 0.0163501 0.0681496 0.0151481 -0.0279162 -0.0308905 -0.0364606 0.00548708 0.0355807 0.129506 0.0768776 0.101898 0.0329903 0.148229 0.0654275 0.104147 0.0383979 -0.00261218 -0.00633918 0.11996 0.112559 0.1188 -0.0211324 0.0506799 0.120285 0.169629 0.110417 -0.0352749 -0.115135 -0.108784 -0.104743 -0.110442 -0.107285 -0.106253 -0.109449 -0.105241
internal_weight=0 60136.1 44972 55412.9 53260.2 44704.5 4138.55 4723.17 48169.3 34455.5 3359.87 40565.9 13713.9 39833.3 37558 2275.37 2152.7 5090.92 882.546 3230.22 1039.45 3002.9 2889.01 4208.37 2190.77 1929.25 506.242 356.973 176.949 1423.01 1363.3 560.452 802.844 223.451 732.595 76.811 908.326 883.596 655.784 743.377 520.97 180.024 113.882 191.457 59.4673 39.4824 267.474 24.7307 264.245 257.248 61.9081 195.34
internal_count=268644 179767 88877 161778 157426 83604 11128 17989 137266 83810 15287 72476 53456 67889 64986 2903 4352 20160 2834 9767 3797 14664 14511 17326 5970 3815 1688 623 420 2127 2702 966 1736 537 4587 158 1361 1253 4429 1507 806 203 153 520 229 160 5273 108 5267 5229 855 4374
is_linear=0
shrinkage=0.1


Tree=11
num_leaves=59
num_cat=0
split_feature=130 5 128 53 102 131 29 99 34 135 121 79 110 118 92 75 4 29 104 127 72 105 75 117 75 37 105 75 117 121 75 117 72 31 117 122 59 56 89 80 78 32 104 12 33 0 57 109 88 4 31 49 33 88 57 80 106 31
split_gain=1136.65 990.315 742.982 753.86 755.081 659.753 596.217 570.551 569.011 1706.53 935.199 979.897 587.793 467.236 444.061 433.34 423.304 423.365 361.41 345.879 290.416 285.889 273.665 564.487 287.715 224.651 336.323 218.695 308.449 320.552 225.82 295.075 193.369 178.761 178.208 178.055 172.727 168.924 152.703 144.884 125.772 82.556 66.2369 57.1878 53.1345 140.944 51.0659 50.108 43.6578 24.0889 103.621 22.5789 18.4665 16.0867 1.51135 0.0686161 0.0355155 0.0254485
threshold=1.0000000180025095e-35 0.6205318570137025 1.0000000180025095e-35 1.0659829378128054 -0.81497064232826222 1.0000000180025095e-35 1.216742277145386 -0.90571051836013783 0.83595070242881786 1.0000000180025095e-35 -1.8581138253211973 -0.41935259103775019 -1.2048066258430479 -1.0573852658271787 -1.2225223183631895 -1.1656894087791441 0.76306793093681347 1.2300095558166506 -0.86713436245918263 -2.2653037309646602 -0.62320435047149647 -0.89740857481956471 -1.0488768219947813 -1.0758026242256162 -1.0174759626388548 0.90072390437126171 -0.87703552842140187 -1.0568665862083433 -1.0111188292503355 -1.1431117057800291 -1.0830715894699094 -0.99551641941070546 -0.65188106894493092 0.94375813007354747 -1.0301972031593321 -1.2722915410995481 0.79467010498046886 0.93026232719421398 -1.3310943245887754 -1.3909065127372739 -1.3606773614883421 0.95274254679679882 -0.88418352603912342 1.2683944106101992 0.91597634553909313 0.36529497802257543 0.98889741301536571 -0.9196006953716277 -1.130783677101135 0.3566045761108399 0.96575641632080089 1.1989971995353701 0.91896900534629833 -1.1745277047157285 0.75495880842208873 -1.0710124373435972 -0.85970118641853321 0.98787853121757518
decision_type=2 2 2 2 2 2 2 2 2 2 2 2 2 2 2 2 2 2 2 2 2 2 2 2 2 2 2 2 2 2 2 2 2 2 2 2 2 2 2 2 2 2 2 2 2 2 2 2 2 2 2 2 2 2 2 2 2 2
left_child=1 2 8 4 40 6 14 25 9 18 12 -12 -10 19 54 -16 17 -8 -1 49 -6 -11 44 24 -24 26 -7 28 29 34 31 -30 37 -18 -15 -25 -31 -9 52 -27 -4 -40 -34 46 48 -46 53 -32 -21 55 -51 -52 -5 -29 -3 57 -57 -2
right_child=13 5 3 38 20 7 16 32 10 21 11 -13 -14 27 15 -17 33 -19 -20 22 -22 -23 23 35 -26 39 -28 43 30 36 47 -33 42 -35 -36 -37 -38 -39 41 -41 -42 -43 -44 -45 45 -47 -48 -49 -50 50 51 -53 -54 -55 -56 56 -58 -59
leaf_value=0.0017718670479675174 -0.12635911182807344 -0.10724236828980274 0.075505955734273975 0.20005488509829328 0.13112002694701227 -0.041172575629750942 0.033861201772554923 0.071797119547904936 -0.12132097959172164 0.01633505080509777 0.052921043677567683 -0.09529771714453121 0.14678394845615966 0.1052049227078042 0.13848952736503581 0.073838393024458104 0.029596052743993573 -0.062615893664348665 -0.070290859561656413 0.19231519023334773 0.038860215953572509 0.13197278130961074 0.15904785460583465 -0.06879232351485115 0.049352414132243838 0.013731198041566776 0.054892995698692319 -0.074727053486604356 0.13067888885824583 0.10520345420572395 0.031324290039243204 -0.020675625314806753 0.28763103974668652 0.12087136942071404 -0.042794232100218293 0.075769151488408557 0.31622174151781679 0.17066009377915572 -0.10669624821234117 -0.099017029489312236 -0.065500363213849389 -0.049860215936496866 -0.11040156294864566 0.1647536222974669 0.14809799110110811 -0.076197220756154815 0.21883024064176532 -0.10241955856617109 0.044418066383261262 0.19675381493005112 -0.11240722490964941 0.15791829131909871 0.063241226543097606 -0.11864765412037447 -0.14314048153219133 -0.11946614266722358 -0.11469328048078722 -0.11493147198984144
leaf_weight=1704.8087525777519 16.611715786159042 114.90755343064666 70.89860112965107 19.276410046964884 614.16244498640299 650.20174263045192 1568.3154639005661 540.20363964140415 86.75080756470561 266.97091780602932 47700.851704113185 450.25063124299049 1425.3824289366603 119.70864328742027 1067.4208563491702 36087.86246175319 342.82252417504787 640.65289755165577 1176.0452558174729 157.17425967752934 767.64351268112659 1073.3669435977936 304.86184415966272 486.32994677126408 1108.5037285536528 166.68978489562869 829.19863349571824 142.11468644440174 140.35984165966511 142.91455435752869 30.344934329390526 1565.0131406225264 4.51373067498207 573.5401659309864 253.96934846043587 103.29950378090143 53.24086881428957 254.1410471573472 396.6277136951685 360.38163004443049 586.87578401714563 718.57452075183392 56.687039002776146 8.6287661232054216 114.40093322843313 37.102188132703304 5.0818444788455954 364.52136918902397 22.862416423857212 14.334796629846094 64.039717689156532 3.2464156299829474 20.208217263221741 201.82302091643214 13.06098674982786 67.561872199177742 20.267392262816429 2.207703858613967
leaf_count=4356 105 2036 157 10 1017 4857 3611 1227 756 554 114589 2940 1346 421 1164 58956 822 2703 6517 110 3546 1024 532 3307 3740 766 4391 1334 430 495 222 11721 7 758 1521 456 97 363 3164 2813 2730 9808 342 17 270 240 6 3145 69 35 409 9 53 1779 68 516 187 20
internal_value=0 0.0568426 0.0481931 0.00133359 0.0378865 0.0682522 0.0715384 0.0218547 0.050971 0.0157234 0.0539669 0.0515351 0.131403 0.010355 0.0750553 0.0756957 0.0295843 0.00588057 -0.0276462 0.0421396 0.0798663 0.10894 0.0526546 0.0387251 0.0730136 -0.00730055 0.0126718 -0.0161291 -0.00629294 0.0589585 -0.0239969 -0.00821847 0.090231 0.0867242 0.00461765 -0.043466 0.162478 0.103427 -0.0632315 -0.0633597 -0.0503019 -0.0700743 -0.0810455 -0.0895627 0.13681 0.0931695 -0.0958502 -0.0921415 0.173534 -0.0882463 -0.0473584 -0.0993646 0.130034 -0.1005 -0.110906 -0.119539 -0.118365 -0.125019
internal_weight=0 100349 57078.7 3194.27 2039.58 43270.6 40408.6 2862.02 53884.4 4221.19 49663.2 48151.1 1512.13 5550.53 37283.3 37155.3 3125.33 2208.97 2880.85 2522.8 1381.81 1340.34 2334.53 2003 1413.37 2006.47 1479.4 3027.72 2670.07 569.833 2100.24 1705.37 855.545 916.363 373.678 589.629 196.155 794.345 1154.69 527.071 657.774 1115.2 61.2008 357.648 331.54 151.503 349.02 394.866 180.037 188.27 81.6209 67.2861 39.4846 343.938 127.969 106.649 87.8293 18.8194
internal_count=268644 237451 152567 20485 7450 84884 70118 14766 132082 12451 119631 117529 2102 31193 62224 60120 7894 6314 10873 10005 4563 1578 8724 8035 4272 12827 9248 21188 18052 2534 15518 12151 1939 1580 1942 3763 592 1590 13035 3579 2887 12972 349 3136 689 510 3119 3367 179 1281 453 418 63 3113 2104 828 703 125
is_linear=0
shrinkage=0.1


Tree=12
num_leaves=58
num_cat=0
split_feature=106 108 31 131 5 117 30 70 114 30 56 79 104 124 30 134 130 52 33 92 136 33 73 116 62 120 119 38 12 20 118 119 54 22 133 108 68 41 103 9 29 29 0 116 73 106 112 78 71 97 35 55 37 37 18 33 33
split_gain=1072.45 946.7 967.747 805.028 785.902 1065.19 612.043 537.605 543.605 407.799 349.519 344.035 301.485 246.992 220.307 206.603 194.768 174.124 162.607 613.954 321.573 138.614 133.508 147.443 112.618 299.835 125.428 109.155 138.46 106.583 93.2112 89.4906 87.9845 84.9433 67.3067 63.0458 66.0966 60.3444 58.714 58.427 55.1918 54.6732 84.1616 44.884 187.602 44.6429 44.28 26.9142 25.1592 20.3086 19.3018 15.3602 13.9785 2.10949 0.390848 0.141446 0.0240184
threshold=-0.96799829602241505 -1.0659607648849485 1.0056393742561343 1.0000000180025095e-35 0.59865847229957592 -1.5323618650436399 1.0930841565132143 -0.16531369090080258 -1.4027086496353147 1.0501362085342409 0.98286190629005443 -1.3417752385139463 -0.84421807527542103 -2.136452198028564 1.0981280803680422 1.0000000180025095e-35 1.0000000180025095e-35 1.1089287996292116 0.87248954176902782 -0.8944033384323119 1.0000000180025095e-35 0.86390492320060741 -0.48158933222293848 -1.5069751739501951 0.45642130076885229 -1.3153860569000242 -1.3880595564842222 0.94504109025001537 0.87510401010513317 1.4004747867584231 -1.3080930709838865 -1.5347414612770078 0.93406552076339733 1.1821765303611758 1.0000000180025095e-35 -1.0208914279937742 -0.19424685835838315 1.1072731018066408 -0.94649195671081532 0.66211065649986278 1.1731285452842715 1.1954759359359743 0.58518028259277355 -1.5220106244087217 -0.41960495710372919 -0.86161282658576954 -1.2052404880523679 -0.53483679890632618 -0.51788571476936329 -0.87450841069221485 0.87302756309509288 0.93805873394012462 0.98307475447654735 0.8302450180053712 0.93036967515945446 0.92277562618255626 0.92338800430297863
decision_type=2 2 2 2 2 2 2 2 2 2 2 2 2 2 2 2 2 2 2 2 2 2 2 2 2 2 2 2 2 2 2 2 2 2 2 2 2 2 2 2 2 2 2 2 2 2 2 2 2 2 2 2 2 2 2 2 2
left_child=18 7 3 4 5 -3 -6 8 22 10 -5 -11 14 37 17 16 -14 -4 19 32 24 27 47 -24 34 26 -26 28 -21 30 -23 -15 41 43 46 51 -37 -10 -16 -27 -36 49 -43 44 -9 -17 -20 -2 -31 -1 -29 -34 -45 -22 56 -56 -55
right_child=1 2 12 9 6 -7 -8 33 13 11 -12 -13 15 31 38 45 -18 -19 20 21 53 29 23 -25 25 39 -28 50 -30 48 -32 -33 35 -35 40 36 -38 -39 -40 -41 -42 42 -44 52 -46 -47 -48 -49 -50 -51 -52 -53 -54 54 55 -57 -58
leaf_value=0.14399761463773117 0.26328787837721107 0.10735157837462367 0.036708611773688449 -0.085466006840961228 0.065178442854190694 0.039099905502821747 0.017412393224344663 0.20152913665142563 -0.095406540845979201 0.080109259087067064 0.082817810334811087 -0.0070955142302069497 0.010515474252979704 0.13810173898408579 0.049771655973251519 -0.04087832170811944 -0.06873053492629802 -0.11117032998062078 0.16753856849246576 -0.040310225756271773 -0.22291795706804862 0.067854958265063992 0.19346462665803793 -0.10560002171736645 0.12719852795082054 -0.17233007496147665 0.080844281413432778 0.18232688491480034 0.034752196657544691 0.093689797811884065 -0.052596699833054344 0.0078830441212055027 -0.18939333226348457 0.23494042358717168 0.15669530283679828 -0.12048958572817087 0.10361813819664629 0.25758088974449556 -0.079230180485499097 -0.014099909525451919 0.017076038356023851 0.050361886776457677 0.12760142280464878 -0.12908982634758101 -0.11711520703880196 -0.11211701849070199 -0.1299197447166521 0.12783837494690459 0.16866951837856456 0.065177521794048329 0.061120584879317041 0.015013873319634241 0.018952021496861461 -0.13550794655844575 -0.1571032103981973 -0.1389513076014583 -0.12549135918188065
leaf_weight=781.78820116817951 91.171512633562088 2420.9792467802763 5562.0803684294224 745.12567074224353 39872.032890470698 41210.98247326538 2876.013576336205 22.574559755623341 301.53617303073406 700.98116356134415 147.92140716314316 1275.7296728491783 2710.9926920980215 69.31967431306839 41.927223466336727 163.33690305054188 350.20827244222164 80.780571114271879 7.6527166515588787 463.57924515008926 4.1866888850927344 256.93110139667988 37.483579494059086 29.427186883985996 1276.6676966547966 34.773843370378017 1075.4842895194888 38.065771579742432 522.96488142758608 85.614105731248856 85.666320696473122 221.12464436888695 13.856046766042711 7.120081201195716 627.03768581151962 15.869076341390608 77.097776584327221 4.922097608447074 222.59562622383237 70.951391398906708 29.651730582118034 213.10092811286449 417.35073612630367 452.40949828177691 101.78504646942019 190.63699964433908 14.461277544498442 17.482975676655769 93.762387901544571 34.11579242348671 20.063586033880711 5.0038735866546622 6.4693097397685042 7.4973647743463498 26.605119228363041 5.1187876015901557 3.516796350479126
leaf_count=629 94 4640 18262 6713 73390 116617 7475 60 1250 2414 564 6480 9483 104 125 764 3253 438 5 1271 17 452 79 140 1668 149 1703 43 998 113 234 578 56 4 472 71 110 11 1287 178 75 408 447 2749 1020 1056 52 39 60 52 46 12 31 39 116 26 22
internal_value=0 0.0462504 0.0473949 0.0505972 0.0523283 0.0428869 0.0619648 -0.0365256 0.0183816 -0.00150858 -0.057592 0.023829 0.0167372 -0.0271139 0.0304105 -0.0069142 0.00144955 0.0345916 0.0887633 0.0725581 0.104669 0.0283524 0.173061 0.0619367 0.108557 0.0985989 0.106004 0.0073266 -0.0005198 0.0704332 0.0377361 0.038962 0.117004 -0.10837 0.144613 0.0315448 0.0653638 -0.0897371 -0.0587832 -0.066143 0.150391 0.123611 0.101493 -0.112561 -0.0592728 -0.0792448 -0.026982 0.241493 0.132883 0.140702 0.140492 -0.13516 -0.127003 -0.155176 -0.14854 -0.154174 -0.13231
internal_weight=0 99935.2 98572.3 89249.8 86380 43632 42748 1362.83 772.468 2869.76 893.047 1976.71 9322.56 596.903 5907.38 3415.17 3061.2 5642.86 6308.44 3124.83 3183.61 1566.65 175.565 66.9108 3136.68 2457.88 2352.15 1044.67 986.544 521.974 342.597 290.444 1558.18 590.358 678.803 111.827 92.9669 306.458 264.523 105.725 656.689 1446.36 630.452 583.238 124.36 353.974 22.114 108.654 179.376 815.904 58.1294 18.8599 458.879 46.9248 42.7381 31.7239 11.0142
internal_count=268644 259120 252961 218293 202122 121257 80865 6159 2295 16171 7277 8894 34668 1943 20112 14556 12736 18700 9524 5002 4522 3217 352 219 4302 3698 3371 2358 2269 859 686 682 1785 3864 604 249 181 1261 1412 327 547 1536 855 3860 1080 1820 57 133 173 681 89 68 2780 220 203 142 61
is_linear=0
shrinkage=0.1


Tree=13
num_leaves=57
num_cat=0
split_feature=32 134 106 135 105 132 53 100 32 53 29 30 104 118 127 118 76 130 105 24 60 103 52 102 50 56 98 69 73 75 56 31 86 33 136 55 83 104 94 7 67 75 109 133 70 108 70 24 107 119 38 0 110 104 54 28
split_gain=886.385 919.925 817.47 907.843 1204.28 986.135 1595.63 1494.74 485.174 530.419 759.883 468.306 456.703 340.591 347.565 351.465 473.946 429.701 485.591 249.168 240.602 221.989 254.547 198.588 198.356 167.323 308.761 278.75 198.51 164.145 163.814 159.123 137.289 460.419 225.972 166.842 127.77 120.894 106.302 104.219 93.0582 86.5698 80.8535 78.4953 113.614 57.3543 56.8575 46.0304 39.9987 38.7624 35.2166 56.7948 28.9531 28.7506 14.1424 40.7384
threshold=0.95185378193855297 1.0000000180025095e-35 -0.96980974078178395 1.0000000180025095e-35 -0.9026091694831847 1.0000000180025095e-35 1.1087309718132021 -0.73529130220413197 0.9007287621498109 1.1012561321258547 1.1014234423637392 1.0948974490165713 -0.85771313309669484 -1.2336834073066709 -2.0409948825836177 -1.1247946619987486 -1.0871816277503965 1.0000000180025095e-35 -0.82799240946769703 1.2394537925720217 0.73582342267036449 -0.77318525314331044 1.1454192996025088 -0.76334443688392628 1.0576354861259463 0.99756711721420299 -0.82739153504371632 -0.05384309031069278 -0.69635218381881703 -1.1316370964050291 0.99275955557823192 0.99771705269813549 -0.92079988121986378 0.86229071021080028 1.0000000180025095e-35 0.89007532596588146 -1.0546551346778867 -0.75505775213241566 -0.92130351066589344 0.56352654099464428 0.34583377838134771 -0.92370522022247303 -1.1077389121055601 1.0000000180025095e-35 -0.20052422583103177 -0.84216395020484913 -0.21320718526840207 1.2553092837333681 -0.98355895280838002 -1.2189679741859434 1.0196149349212649 0.071836616843938841 -1.026108920574188 -0.94250053167343129 0.88036039471626293 1.2360813617706301
decision_type=2 2 2 2 2 2 2 2 2 2 2 2 2 2 2 2 2 2 2 2 2 2 2 2 2 2 2 2 2 2 2 2 2 2 2 2 2 2 2 2 2 2 2 2 2 2 2 2 2 2 2 2 2 2 2 2
left_child=1 2 32 5 24 7 -7 -4 29 10 20 -6 -12 19 25 16 39 18 -17 36 -10 47 -23 -19 -5 26 31 -28 38 54 -18 -15 35 42 -35 49 50 -30 -27 -16 45 -21 -34 44 -43 -31 -45 -11 -37 -1 -2 -52 53 -38 -3 -56
right_child=13 8 3 4 11 6 -8 -9 9 21 12 -13 -14 14 15 17 30 23 -20 41 -22 22 -24 -25 -26 28 27 -29 37 40 -32 -33 33 34 -36 48 52 -39 -40 -41 -42 43 -44 46 -46 -47 -48 -49 -50 -51 51 -53 -54 -55 55 -57
leaf_value=0.1412764127932461 0.30928893456647244 0.16283321170122 0.027978966562470738 0.029044309928620601 0.079300124077521225 0.07656720492394066 -0.0033380015483709677 -0.077254423921029242 -0.1355400344075241 0.1073345311236325 0.11225294729545321 -0.058984128515166524 0.063111963257396236 0.15098925834287771 0.12760830562152289 0.01927441500433532 0.030620126311729296 -0.023843476607363759 0.049061163838440447 0.24551611864278514 0.0031629792100155425 -0.095462491301770314 0.10986155404637599 0.090232986749019778 -0.028923835564915998 -0.13896184867365355 -0.069855153217765212 0.017072360074205734 0.0048920563630457364 -0.18569537366736849 0.17294228514565091 0.017346749558219677 -0.072831163330306772 0.093618140991227825 -0.15145967490703549 0.0080817509051483178 0.23858790068737218 -0.11987096924310514 0.071683301533561908 0.25829942384456345 0.17126128048464884 0.025101943051822968 0.019911824085105546 0.12948885878056451 0.26227140223348144 0.14441530962503621 -0.028871204439418055 0.16914237678277133 0.17188987304394543 0.10636588668094214 0.35283256150967074 -0.13007851655225641 0.083942047680292883 -0.11757109460186488 0.1725484249050524 -0.080936188285555336
leaf_weight=470.9341741502285 10.496566101908686 14.559425830841063 26933.735052905977 5400.4024989008904 12787.867715470493 9675.2883989401162 3369.3806123286486 1420.9766577929258 156.30497504770756 139.84859262406826 2734.8721190392971 249.67888204753399 6130.9776103943586 118.9807363152504 100.8126378916204 12175.612327106297 641.72538783401251 1922.693832218647 9941.9293719492853 44.386004939675331 625.69058962166309 73.153916791081429 345.7675293982029 165.75866389274597 662.73242987692356 24.925438966602087 1098.235258936882 555.47491573914886 338.03179090470076 114.33527578413486 92.53490936756134 354.67430874705315 106.51890124380589 2923.0540129467845 38.112932130694389 187.69665899127722 2.3260452747344962 100.83363826572895 616.75704410672188 154.57529027014971 8.5346284061670286 189.60997537523508 799.94900964573026 504.49899949133396 22.606349796056747 5.5171320885419837 23.739211410284042 870.52113284170628 16.192452244460583 979.71807760372758 3.8807473182678205 6.5392001867294312 8.5579602643847448 88.566624589264393 12.055804640054705 13.373100325465201
leaf_count=347 14 8 75930 11781 17986 16361 12968 6649 579 245 2979 810 10263 186 209 36235 2011 13766 30943 28 1647 272 553 547 1700 155 4818 2487 1359 475 102 1142 338 4067 188 435 1 582 1686 145 12 529 1692 697 13 6 84 861 22 1134 2 48 32 472 6 37
internal_value=0 0.0493591 0.0448559 0.0414942 0.0595285 0.0331735 0.055928 0.0227053 0.0757974 0.0783582 0.0699357 0.0766519 0.0782706 0.028935 0.0270105 0.0309576 0.0893693 0.0285695 0.0326637 0.0893201 -0.0245609 0.135211 0.074007 -0.0147893 0.0227081 -0.00399098 -0.0202677 -0.0406565 0.0280544 -0.092677 0.0485562 0.0509173 0.0816869 0.0713741 0.0904638 0.105794 -0.0446502 -0.0237735 0.063501 0.20671 -0.147781 0.109866 0.00901361 0.101735 0.0503664 -0.170499 0.122372 0.160587 0.0210911 0.117699 0.180007 0.0497742 -0.0919002 -0.108457 0.0842396 0.0392405
internal_weight=0 77267.8 66022.2 60500.1 19100.7 41399.4 13044.7 28354.7 11245.5 11077.1 9647.85 13037.5 8865.85 29308.8 28403.6 25195.6 989.648 24206 22117.5 905.208 781.996 1429.29 418.921 2088.45 6063.13 3207.91 2127.37 1653.71 1080.55 168.375 734.26 473.655 5522.18 3867.63 2961.17 1654.54 120.367 438.865 641.682 255.388 128.387 784.841 906.468 740.455 212.216 119.852 528.238 1010.37 203.889 1450.65 20.9165 10.4199 99.4506 90.8927 39.9883 25.4289
internal_count=268644 170351 152408 144185 32277 111908 29329 82579 17943 17399 15468 18796 13242 98293 96373 83958 2467 81491 67178 1920 2226 1931 825 14313 13481 12415 8633 7305 3782 544 2113 1328 8223 6285 4255 1938 569 1941 1841 354 493 1351 2030 1323 542 481 781 1106 457 1481 64 50 505 473 51 43
is_linear=0
shrinkage=0.1


Tree=14
num_leaves=57
num_cat=0
split_feature=53 128 31 118 110 8 122 14 121 135 30 132 104 76 76 128 52 71 127 120 130 103 58 23 122 101 96 6 59 49 107 107 37 123 124 105 110 0 44 94 122 31 43 71 53 119 102 13 12 69 125 42 21 12 111 14
split_gain=788.77 688.592 636.742 560.923 850.009 671.51 903.661 688.763 550.034 463.9 451.194 663.042 720.578 448.506 399.444 790.609 355.086 290.283 273.275 465.648 234.49 211.248 350.768 175.208 165.354 160.496 148.563 142.482 170.149 168.626 163.8 135.37 132.591 123.546 104.507 88.1855 75.4704 72.5901 135.056 60.3235 77.311 54.2831 52.0244 50.7046 50.109 44.2757 42.0147 36.1985 31.0547 27.5143 20.1027 13.2689 10.9094 6.10767 0.269773 0.0653354
threshold=1.0489574670791628 1.0000000180025095e-35 1.0057842135429385 -1.583536624908447 -1.2005915641784666 0.1153959482908249 -1.9935176968574522 0.55326682329177868 -0.68856158852577198 1.0000000180025095e-35 1.0285890698432925 1.0000000180025095e-35 -0.85910350084304798 -1.2256137132644651 -1.2000697851181028 1.0000000180025095e-35 1.1436890959739687 -0.26600164175033564 -3.0587306022644039 -1.7308267354965208 1.0000000180025095e-35 -0.79454597830772389 0.87448659539222728 1.2411716580390932 -1.4444770216941831 -0.8170604109764098 -0.93584915995597828 0.62144502997398388 0.78997486829757702 1.1067546010017397 -0.89840087294578541 -1.003109276294708 0.92817068099975597 -1.0554748773574827 -1.3780228495597837 -0.82998365163803089 -0.8974756896495818 0.41631713509559637 1.1002081632614138 -0.87467196583747853 -1.4945597052574155 1.0028390884399416 1.0667086243629458 -0.19094532728195188 1.0514634847640993 -1.6780253648757932 -0.78598925471305836 0.89732655882835399 0.83061513304710399 -0.15945240110158918 -2.4766802787780757 0.75561863183975231 1.2173339128494265 0.25572942197322851 -0.82363644242286671 1.2825005650520327
decision_type=2 2 2 2 2 2 2 2 2 2 2 2 2 2 2 2 2 2 2 2 2 2 2 2 2 2 2 2 2 2 2 2 2 2 2 2 2 2 2 2 2 2 2 2 2 2 2 2 2 2 2 2 2 2 2 2
left_child=2 3 8 4 17 9 16 -8 10 43 11 12 -1 23 20 -16 -7 35 19 -6 -12 41 26 37 39 33 -23 28 30 32 -26 -13 -29 -25 -30 -2 -24 38 -3 -4 49 48 -31 -5 -43 -19 -27 -42 -15 -41 -20 54 -39 -11 -10 -56
right_child=1 13 24 5 18 6 7 -9 51 53 14 31 -14 21 15 -17 -18 45 50 -21 -22 22 36 25 27 46 -28 29 34 42 -32 -33 -34 -35 -36 -37 -38 52 -40 40 47 44 -44 -45 -46 -47 -48 -49 -50 -51 -52 -53 -54 -55 55 -57
leaf_value=0.064660039130195177 0.15576788615478732 0.13391969931539824 0.22675433920829505 -0.11614843592696839 0.11157350959011494 0.14387102679819375 -0.086032444853402459 0.029726777093389195 -0.13740155651850228 0.18036722215922718 0.073623901832251121 0.067958241939166344 -0.12123870593733994 -0.11104520080989654 0.04611119818947737 -0.059125489314615032 -0.10789502581119273 -0.036673205077429875 0.19234508787129859 -0.039652726928244508 0.0014610785024819762 -0.11306296864752488 -0.026173860922835093 -0.013375717466408137 -0.001549734903941164 0.097901561564985098 0.094285508054568368 0.023138447127673923 0.13363914881247382 0.23572333289744735 -0.090894523603989169 0.12663130191843905 -0.033218296347979757 0.16740168135802153 -0.14651904272047586 -0.12227359001913228 -0.096106140544585023 -0.12777960271680078 -0.070545862878608728 0.082750795060403129 -0.047757745329206673 0.040690862867593658 0.07655595780438483 -0.047623815422929067 -0.070516475803087758 -0.11779195173180677 0.18004347114509781 0.11213619533821267 -0.043670285487125461 0.16903298554221469 0.26179816922095206 0.14741310183592962 0.020293227252359061 0.12277133844835686 -0.10462226056379553 -0.10844253655389589
leaf_weight=966.4795495159924 72.208761103451252 52.523955702781677 31.241463392972946 456.76879446208477 1576.4810978323221 873.17647506296635 521.75071576982737 34576.191687922925 2.7071579396724692 48.919201985001564 7188.0167215019464 494.04014916718006 265.86978136748075 521.5218139514327 45770.587006464601 725.19437040388584 59.859897822141647 94.127074390649796 165.04070000350475 233.81030701100826 480.38833503425121 39.470935977995396 310.20047617331147 215.34446880966425 541.01697333157063 165.69006667286158 277.43967335298657 5201.129665479064 97.102244094014168 44.625123094767332 330.5845137834549 1927.0701830983162 453.89865551516414 45.853861168026924 15.430783666670321 13.547300674021242 307.09391234815121 65.566460780799389 83.923119004815817 87.365182086825371 54.070008777081966 52.587473228573799 38.040195502340794 141.41365154087543 176.5414059869945 235.95746968314052 99.760577715933323 19.181727066636086 78.740720503032207 64.057134836912155 55.752663612365723 2.0845673084259024 5.3842293024063101 29.523252740502357 166.88138971477747 61.178758520632982
leaf_count=1855 141 175 19 2752 2423 717 2272 98319 17 26 12953 833 981 3990 85373 2321 252 731 113 886 2876 232 4028 669 1806 289 1414 17798 214 57 1844 1891 1925 25 76 100 4511 344 880 122 170 192 111 757 1296 1976 81 27 435 46 25 1 16 28 4283 950
internal_value=0 0.0285774 0.0462032 0.0318248 0.0781832 0.0287346 0.0305881 0.028006 0.0496339 -0.0699643 0.0502516 0.0842654 0.0245538 -0.0223308 0.0479574 0.0444698 0.127719 -0.052074 0.104852 0.0920417 0.0691033 -0.0496697 -0.0170593 0.0433528 0.0176617 0.0740117 0.0684604 0.014658 -0.0204962 0.0206877 -0.0354368 0.114659 0.018615 0.0183601 0.0952232 0.111844 -0.060964 -0.0345 0.00816114 0.0965559 0.0784515 -0.0864012 0.162479 -0.0999488 -0.0449932 -0.0946601 0.128772 -0.00588786 -0.102207 0.119251 0.209883 -0.103751 -0.116543 0.15869 -0.10602 -0.105647
internal_weight=0 41652.2 65028.2 39154.5 2446.93 36707.6 36031 35097.9 58050.5 676.625 57817.6 3653.46 1232.35 2497.64 54164.2 46495.8 933.036 415.841 2031.08 1810.29 7668.41 1763.6 934.205 734.047 6977.74 526.649 316.911 6721.83 984.135 5737.69 871.601 2421.11 5655.03 261.198 112.533 85.7561 617.294 207.398 136.447 255.916 224.674 829.391 82.6653 598.182 229.129 330.085 265.451 73.2517 600.263 151.422 220.793 232.852 70.9507 78.4425 230.767 228.06
internal_count=268644 130095 138549 111518 6395 105123 101560 100591 114334 3563 109083 5560 2836 18577 103523 87694 969 2948 3447 3309 15829 16098 10185 2479 24215 1064 1646 23831 3940 19891 3650 2724 19723 694 290 241 8539 1415 1055 384 365 5913 168 3509 1488 2707 370 197 4425 168 138 5251 360 54 5250 5233
is_linear=0
shrinkage=0.1


Tree=15
num_leaves=57
num_cat=0
split_feature=106 133 106 35 101 108 31 100 34 34 105 69 51 136 6 107 102 6 125 33 97 136 105 127 53 38 81 129 34 59 61 104 102 135 29 59 77 116 71 12 30 6 17 100 30 54 44 75 53 5 117 116 91 32 116 3
split_gain=757.973 1020.98 1186.38 907.114 747.185 734.673 752.333 656.98 569.427 474.062 417.846 416.98 380.694 376.458 498.826 344.847 272.232 267.426 263.906 191.998 542.544 211.572 188.926 188.784 184.504 180.233 179.62 171.518 168.966 156.678 143.958 155.26 141.651 139.962 131.083 128.723 113.69 112.865 103.631 102.524 85.8194 119.164 83.0707 74.7562 71.6808 68.7858 68.7018 56.9643 36.8306 43.2869 31.1434 48.3027 16.1749 14.6611 10.2443 1.72917
threshold=-0.95610973238944996 1.0000000180025095e-35 -0.9371887445449828 0.90052971243858349 -0.93960872292518605 -1.0581723451614378 0.96192917227745067 -0.8647959530353545 0.87467142939567577 0.89740127325057995 -0.86945572495460499 -0.043011672794818871 0.97000256180763256 1.0000000180025095e-35 0.7750324308872224 -0.9924960434436797 -0.80350121855735768 0.80162477493286144 -2.3098888397216792 0.8739973008632661 -0.87263986468315113 1.0000000180025095e-35 -0.90923520922660817 -2.2412840127944942 0.96665561199188244 0.94879570603370678 -1.0298767685890196 1.0000000180025095e-35 0.83236631751060497 0.68372362852096569 0.68424639105796825 -0.82913482189178456 -0.84605738520622242 1.0000000180025095e-35 1.203052341938019 0.78425660729408275 -1.0074641704559324 -1.3486257195472715 -0.37818011641502375 1.1294248700141909 0.94892176985740673 0.28737463057041174 1.0117171406745913 -0.87037062644958485 1.0729580521583559 1.0382409095764162 1.189014792442322 -1.1159353256225584 1.1112115979194643 0.19145969301462176 -1.4763734340667722 -1.4409019351005552 -1.0114089846611021 0.95185378193855297 -1.4812678098678587 0.4802845567464829
decision_type=2 2 2 2 2 2 2 2 2 2 2 2 2 2 2 2 2 2 2 2 2 2 2 2 2 2 2 2 2 2 2 2 2 2 2 2 2 2 2 2 2 2 2 2 2 2 2 2 2 2 2 2 2 2 2 2
left_child=18 3 8 4 13 11 -7 25 12 10 23 -6 36 14 -2 35 -17 -15 38 20 24 27 -14 -4 34 32 45 29 39 -21 31 -11 -5 -30 -20 -9 -3 -32 50 -22 41 46 -28 -27 -26 -10 -40 -12 54 -50 -1 -52 -23 -29 -42 -54
right_child=1 2 9 7 5 6 -8 15 26 30 47 -13 22 17 -16 16 -18 -19 19 21 28 52 -24 -25 44 43 42 53 33 -31 37 -33 -34 -35 -36 -37 -38 -39 40 -41 48 -43 -44 -45 -46 -47 -48 -49 49 -51 51 -53 55 -55 -56 -57
leaf_value=0.17616381904530856 -0.058001811004237153 0.11027404198491889 -0.083111548552740333 -0.074211934211576944 0.036739613404344014 0.068395171929858653 0.040907759152689759 0.087287777617671758 -0.079471466073605751 0.078068730964965305 0.21379453312920998 -0.068573309908713381 0.009662242680319488 0.086952636202968711 0.016305594887182456 0.012907075217635317 0.034358075399667808 -0.10310123818906954 0.10880231093025783 0.11363973008091324 -0.010280762185482862 0.049353172641051525 -0.054804593089008619 -0.020135099506999054 0.11131444691912158 -0.090900182965089879 -0.042601505944789342 -0.17858791385673239 0.046894436603972786 0.070693698185517476 0.14856475388697471 -0.13014516453502098 0.034071168843428812 -0.17212891630612404 0.059513331987784246 -0.085316949906136086 -0.12985783448078547 -0.039050269644800517 -0.13651971375109687 0.26099980671409756 -0.026835420154169162 0.22089204390676365 0.10114413865543559 -0.035605670098696911 -0.04196536492684079 0.19096437385295062 0.13260442832889019 -0.13716597326590804 -0.13505234911169839 0.18838205155741783 0.17404142672548728 -0.17170944108961084 -0.14529447337833287 0.0071629728924592628 -0.15048672823906337 -0.1948606787257908
leaf_weight=23.749981328845024 1305.1082853097469 376.34095825254917 746.35952515900135 171.43544629588723 664.69848958402872 13047.212686594576 42045.273769889027 48.841994017362595 81.324465215206146 406.44764665514231 4.6578767299652091 865.5368464961648 1611.7005206942558 731.02480754256248 2935.1498224884272 9973.9372043423355 14542.21345173195 82.380615100264549 1459.9295116811991 1063.0994629263878 1303.9054271765053 4.2277641743421546 633.18086117506027 1314.0776565819979 38.07331608235836 587.22699746862054 41.54911994189024 27.756381779909134 1393.4477176070213 4227.9966714531183 35.121182590723038 39.273494437336922 409.0873804949224 29.800148844718933 855.89604929089546 374.47274170070887 20.806273937225342 368.42602732777596 36.906873121857643 14.081583619117735 7.1592016965150824 20.164761573076248 1240.9195672869682 418.93198410794139 153.56881728023291 10.635213404893873 12.766786634922026 649.78556013852358 8.7996151894330996 7.8109960854053488 7.8580353856086758 8.3173824250698072 32.998849615454674 5.0172622203826895 104.49532581865788 8.9464568495750409
leaf_count=20 6096 442 2544 876 1598 26567 91156 80 277 852 2 4689 3544 960 8143 32759 49369 1152 1475 1068 3031 9 1896 3440 48 3175 146 115 2448 6775 65 170 1101 113 1438 1867 69 1297 211 17 23 19 1849 1708 408 10 31 2735 50 8 6 35 159 12 455 36
internal_value=0 0.0325534 -0.00266374 0.0355801 0.0422308 0.045519 0.0474174 0.0201164 0.0346026 -0.0446594 -0.0650573 -0.0228278 0.00744511 0.00538851 -0.00656547 0.024086 0.0256311 0.0677042 0.0604333 0.0627676 0.0491665 0.0760614 -0.00852097 -0.0429473 0.0827825 -0.0422768 0.0868067 0.0779099 0.0184171 0.0793225 0.0205474 0.0597225 0.00209385 0.0423085 0.0905858 -0.0654018 0.0976937 -0.0227219 -0.0437016 -0.00738236 -0.0733232 0.0158745 0.0964871 -0.0678773 -0.0115134 -0.0481953 -0.0673513 -0.134668 -0.12189 0.0170399 0.103276 -0.0037433 -0.137076 -0.150152 -0.142558 -0.155866
internal_weight=0 95783.1 7580.61 88202.5 61676.4 56622.7 55092.5 26526.1 4016.46 3564.15 2714.88 1530.24 2642.03 5053.66 4240.26 24939.5 24516.2 813.405 10856.8 10618.7 5248.7 5370.04 2244.88 2060.44 2507.47 1586.68 1374.43 5323.87 2741.23 5291.1 849.268 445.721 580.523 1423.25 2315.83 423.315 397.147 403.547 238.029 1317.99 198.104 69.8384 1282.47 1006.16 191.642 91.9597 49.6737 654.443 128.265 16.6106 39.9254 16.1754 46.1731 32.7736 111.655 41.9453
internal_count=268644 250634 19338 231296 140361 124010 117723 90935 8233 11105 8721 6287 5951 16351 14239 84075 82128 2112 18010 17152 8978 8174 5440 5984 3369 6860 2282 7970 5609 7843 2384 1022 1977 2561 2913 1947 511 1362 858 3048 797 261 1995 4883 456 287 242 2737 536 58 61 41 204 127 478 195
is_linear=0
shrinkage=0.1


Tree=16
num_leaves=61
num_cat=0
split_feature=130 106 108 116 8 121 69 135 117 116 126 75 118 111 118 73 127 58 75 118 74 116 117 89 124 84 30 116 78 31 93 33 97 136 31 18 119 55 48 56 95 117 55 43 76 30 50 57 112 30 4 69 102 108 75 119 1 31 40 121
split_gain=697.121 569.431 600.076 637.599 784.583 659.029 596.358 377.404 354.053 278.418 269.987 256.86 337.139 251.887 317.748 230.538 226.551 290.395 218.337 205.929 243.414 199.476 198.458 171.707 155.662 141.197 219.804 129.812 212.383 123.894 91.7954 84.8601 349.554 201.314 98.2144 87.2369 165.901 86.5742 73.5407 73.5287 68.0902 63.0074 59.2025 74.2237 59.0669 57.1987 53.1298 96.0471 30.0922 28.2364 20.0367 19.827 15.3439 11.6821 26.0679 6.57071 1.30677 0.341417 0.209269 0.00395078
threshold=1.0000000180025095e-35 -0.97182646393775929 -1.056443393230438 -1.4903872609138487 0.1153959482908249 -1.8126248717308042 -0.012615276500582693 1.0000000180025095e-35 -0.99888771772384632 -1.4857161045074461 -2.4699485301971431 -1.0777423381805418 -1.035001754760742 -1.2450917363166807 -1.6228511929512022 -0.48158933222293848 -2.2653037309646602 0.91742452979087841 -1.0920532345771787 -0.93658465147018422 -1.0102317929267881 -0.94268915057182301 -0.98133426904678334 -0.12438327074050902 -1.3894122242927549 -1.4459326267242429 1.0375137329101565 -1.5220106244087217 -0.438466265797615 0.98411297798156749 -1.0605407357215879 0.86472466588020336 -0.87167158722877491 1.0000000180025095e-35 0.99402180314064037 1.3064842224121096 -1.3880595564842222 1.0333848595619204 1.1775512695312502 0.99103564023971569 -0.89765039086341847 -1.0122681260108946 0.87474980950355541 0.94607824087142955 -1.1779886484146116 1.0888013839721682 1.1133388280868532 0.905774086713791 -1.0335590243339536 1.085927486419678 0.3566045761108399 -0.12132769823074339 -0.8789100944995879 -0.89104115962982167 -1.0837388634681699 -1.0524265170097349 0.54731377959251415 1.0056393742561343 1.0524792671203616 -1.04451048374176
decision_type=2 2 2 2 2 2 2 2 2 2 2 2 2 2 2 2 2 2 2 2 2 2 2 2 2 2 2 2 2 2 2 2 2 2 2 2 2 2 2 2 2 2 2 2 2 2 2 2 2 2 2 2 2 2 2 2 2 2 2 2
left_child=1 31 6 13 7 -6 9 -5 11 15 -11 24 16 14 -4 -3 50 -18 19 20 21 -10 -22 -15 29 26 -21 28 -8 55 -14 32 42 35 37 36 -33 -34 -29 -27 53 -31 45 -44 -32 -1 47 -26 59 -37 -13 -48 -36 54 -20 -2 58 -55 -35 -42
right_child=8 2 3 4 5 -7 27 -9 18 10 -12 12 30 23 -16 -17 17 -19 40 25 22 -23 -24 -25 46 39 -28 38 -30 41 44 33 34 56 52 49 -38 -39 -40 -41 48 -43 43 -45 -46 -47 51 -49 -50 -51 -52 -53 -54 57 -56 -57 -58 -59 -60 -61
leaf_value=0.12152589218071086 0.23168487428111156 0.19306565161481026 0.13353857168074953 -0.098547300742419242 0.12431179947772392 0.032279359034992731 0.14035113946497524 0.14085668974960677 -0.12496444775746014 -0.031993934621400023 0.04553243694775494 -0.11872791317141521 0.2759266743503927 0.12436016415383666 0.0029485647467083508 0.028261985331739372 0.010585682965411842 0.095299390522456326 -0.0056921510110642792 -0.10685349456297422 0.10346846902849527 0.16445408227558875 -0.039956108590234324 -0.12664499258524539 0.13377866471354768 -0.079919468679996664 0.2107542189303338 0.0466413130646385 -0.092886722780679692 0.02632663198180964 0.22756366095890201 0.098769133129037373 0.00050532817973289836 -0.14013104101363377 -0.19847621772792476 0.12726505593684831 0.046304580168548631 0.1426462412289842 -0.1235290289744667 0.21583716241094708 -0.11464088128706731 -0.1305655174022092 -0.16485920512060481 0.056574386352104912 -0.10322901499770512 0.073130987245929091 -0.13154069041810212 0.30873183623557232 0.17005911219095704 0.069807705293801411 -0.052863591531462431 0.15857216615120487 -0.0097456934679342952 -0.11972430174213418 -0.11499371366872778 0.14746708833018321 -0.1913410573439932 -0.11073082952431459 -0.12374033048410626 -0.10854707214822112
leaf_weight=450.67056725919247 16.943474724888802 142.4869627058506 280.69242798537016 624.82917258143425 784.90405464172363 89460.744626538828 57.937937557697296 73.605071604251862 28.318059131503105 1157.8259017914534 733.96071589738131 102.93312337994576 6.7239523977041236 1163.8329466879368 554.18785364180803 209.94821195304394 2482.7657694034278 483.44594449549913 32.690017063170671 41.461145609617233 118.13027655333281 149.73548019677401 526.32538988441229 27.907000318169594 123.14233027026057 604.4821328856051 45.926208235323429 26.700027510523796 119.70030692592263 81.172412142157555 5.4935834258794776 1194.2679458037019 751.20033419132233 25.564281702041626 27.372752159833908 448.19351586699486 1216.8306156173348 45.442066542804241 519.8497640453279 8.5245129056274873 1.4528945125639445 37.386550679802895 18.864699959754944 76.617539219558239 310.23021813854575 533.13462287187576 7.9615103825926781 42.109407775104046 13.037473786622284 105.70133900642395 83.781571000814438 3.3456667810678464 5.1123223155736914 257.09336896985769 65.619889117777348 20.440107315778732 4.6611863672733298 50.503483835607767 11.203113615512846 3.9738275445997733
leaf_count=351 14 137 335 4752 762 210460 120 51 193 3688 1412 828 12 1122 1637 691 11158 901 232 935 451 446 3732 176 288 4795 68 70 1293 316 23 1494 1665 129 111 343 1996 52 3424 40 14 229 70 122 2487 723 48 31 18 158 453 12 12 2133 644 27 19 604 76 61
internal_value=0 0.0337865 0.0320858 0.0334989 0.0322627 0.0330798 -0.0121747 -0.0733175 -0.00199651 0.0132868 -0.00191585 0.0157404 0.00770695 0.0889745 0.0468538 0.0948909 0.0176673 0.0243927 -0.0366809 -0.0190048 0.0149283 0.118424 -0.013666 0.118482 0.0997078 -0.0588542 0.0600645 -0.0910787 -0.0168146 0.0269034 -0.0896868 0.0669849 0.0504924 0.077454 0.00166329 0.0805128 0.0722914 0.00861333 -0.115216 -0.0758067 -0.100114 -0.023148 0.0880038 0.0128251 -0.0974732 0.0953002 0.164011 0.17836 0.0876958 0.1163 -0.0891736 -0.0456996 -0.168775 -0.108657 -0.0786488 0.185637 -0.14146 -0.118248 -0.135137 -0.110179
internal_weight=0 100854 95939.1 92970.7 90944.1 90245.6 2968.41 698.434 5755.15 2244.22 1891.79 3807.88 3475.37 2026.62 834.88 352.435 3152.93 2966.21 1947.27 1522.9 822.509 178.054 644.456 1191.74 332.501 700.394 87.3874 724.188 177.638 155.943 322.448 4914.84 1908.41 3006.42 829.127 2964.99 2411.1 796.642 546.55 613.007 424.371 118.559 1079.29 95.4822 315.724 983.805 176.559 165.252 18.4642 553.895 186.715 11.3072 32.4851 405.907 98.3099 37.3836 41.4286 307.597 36.7674 5.42672
internal_count=268644 237451 230130 219295 216025 211222 10835 4803 31193 5928 5100 16827 15862 3270 1972 828 13340 12059 14366 10660 4822 639 4183 1298 965 5838 1003 4907 1413 586 2522 7321 3106 4215 1840 3991 3490 1717 3494 4835 3706 545 1266 192 2510 1074 379 319 93 501 1281 60 123 3613 876 41 224 2737 205 75
is_linear=0
shrinkage=0.1


Tree=17
num_leaves=63
num_cat=0
split_feature=32 134 106 133 105 108 100 35 56 24 75 56 24 4 134 23 31 94 74 69 53 93 136 124 103 95 25 84 53 120 33 96 97 103 98 24 79 129 126 102 32 0 105 36 118 109 127 107 37 82 108 70 66 62 123 73 103 102 127 118 103 48
split_gain=588.427 695.303 567.405 937.663 1267.7 626.776 600.798 547.946 446.679 943.78 419.764 708.391 338.682 364.392 337.204 548.437 437.895 346.465 592.421 319.005 289.757 262.326 241.66 275.751 232.294 223.479 219.156 247.5 208.633 460.954 281.458 272.149 207.685 201.702 195.167 290.993 209.729 191.576 187.867 233.264 184.317 162.162 159.856 150.485 139.382 133.458 116.431 115.04 129.957 111.927 119.359 111.602 100.429 96.5059 76.6386 74.5389 48.7416 47.5114 45.379 44.4636 28.0775 23.7467
threshold=0.95419129729270946 1.0000000180025095e-35 -0.95610973238944996 1.0000000180025095e-35 -0.88899558782577504 -1.0659607648849485 -0.9456363022327422 0.88605186343193065 0.97899219393730175 1.2949356436729433 -1.0830715894699094 0.88914290070533764 1.2589478492736819 0.39647510647773748 1.0000000180025095e-35 1.2991912364959719 1.0046983957290652 -1.0647246241569517 -0.98118776082992543 -0.034727467224001878 1.0665226578712466 -0.65093499422073353 1.0000000180025095e-35 -1.2426634430885313 -0.73537510633468617 -0.99696695804595936 1.256904184818268 -1.1287626028060911 0.97438663244247448 -1.3153860569000242 0.87474253773689281 -0.80801981687545765 -0.91553872823715199 -0.82412421703338612 -0.84308895468711842 1.2735728621482851 -1.220462918281555 1.0000000180025095e-35 -1.8494245409965513 -0.81190824508666981 0.91764262318611156 0.48339462280273443 -0.86692374944686879 0.85079076886177074 -1.2336834073066709 -1.0445103645324705 -2.384848833084106 -0.87721705436706532 0.92773365974426281 -1.1997313499450681 -0.91367268562316883 -0.31117640435695643 0.23805636912584308 0.59102454781532299 -1.1957960724830625 -0.82915616035461415 -0.80924409627914418 -0.72183027863502491 -2.1437232494354244 -1.1734499335288999 -0.82358309626579274 1.1051487326622011
decision_type=2 2 2 2 2 2 2 2 2 2 2 2 2 2 2 2 2 2 2 2 2 2 2 2 2 2 2 2 2 2 2 2 2 2 2 2 2 2 2 2 2 2 2 2 2 2 2 2 2 2 2 2 2 2 2 2 2 2 2 2 2 2
left_child=1 2 28 5 7 19 -7 -5 9 26 33 -12 13 21 17 34 38 22 20 -4 25 -10 23 61 32 -19 60 -28 31 30 -30 40 -20 -11 49 44 -37 -25 52 -40 -1 54 -6 -33 -36 -31 59 48 -18 56 -51 -48 -17 -22 -24 -43 -16 -26 -15 -14 -3 -2
right_child=14 8 3 4 42 6 -8 -9 12 10 11 -13 46 58 15 16 47 18 24 -21 53 -23 41 37 57 -27 27 -29 29 45 -32 43 -34 -35 35 36 -38 -39 39 -41 -42 55 -44 -45 -46 -47 51 -49 -50 50 -52 -53 -54 -55 -56 -57 -58 -59 -60 -61 -62 -63
leaf_value=0.05966540921566791 -0.14348703495154067 0.029391531722221767 0.011002701815074567 -0.00044439075949140555 -0.058635258719333498 0.0025122691425479887 0.03532541338125094 0.084547118135125943 0.095024071860251927 0.069553957139621633 -0.083660906325820905 0.046545169325366592 -0.18741011347523867 -0.15533349967842536 -0.13809982387956518 -0.15055466078207891 0.025573079203198602 0.060082369343842923 -0.0021295251501592715 -0.10619781088214147 0.11260954198799933 -0.16371137769900557 0.17048255104083596 -0.040724791536838945 -0.044655918342026313 0.12982933962541351 -0.061316832506989917 0.062322132601205199 0.012917690367495641 -0.074987210590366657 0.063859496083568876 -0.060296766792070938 0.024439008756992259 0.1417819655924786 0.10469039103128766 0.11387429626305363 -0.021222265467532839 0.052060932952428841 0.035670639939456565 0.12956090554238911 0.10542014516465747 -0.0075974511361602028 -0.12097201829971711 0.053722033069260836 -0.1031156544814999 0.0053047727376697457 -0.0017985927234048403 -0.11383080701438382 -0.095138697221678836 -0.085905735591278481 0.23909550856403936 0.13008304787874084 0.076481542042832973 -0.064861949286397283 -0.12527946041537535 0.1514404830685068 -0.07510015544472548 -0.13884915859624791 -0.020130358479949362 0.13504654262450641 -0.14879870243230101 -0.087996678432688893
