tree
version=v4
num_class=1
num_tree_per_iteration=1
label_index=0
max_feature_idx=136
objective=binary sigmoid:1
feature_names=Column_0 Column_1 Column_2 Column_3 Column_4 Column_5 Column_6 Column_7 Column_8 Column_9 Column_10 Column_11 Column_12 Column_13 Column_14 Column_15 Column_16 Column_17 Column_18 Column_19 Column_20 Column_21 Column_22 Column_23 Column_24 Column_25 Column_26 Column_27 Column_28 Column_29 Column_30 Column_31 Column_32 Column_33 Column_34 Column_35 Column_36 Column_37 Column_38 Column_39 Column_40 Column_41 Column_42 Column_43 Column_44 Column_45 Column_46 Column_47 Column_48 Column_49 Column_50 Column_51 Column_52 Column_53 Column_54 Column_55 Column_56 Column_57 Column_58 Column_59 Column_60 Column_61 Column_62 Column_63 Column_64 Column_65 Column_66 Column_67 Column_68 Column_69 Column_70 Column_71 Column_72 Column_73 Column_74 Column_75 Column_76 Column_77 Column_78 Column_79 Column_80 Column_81 Column_82 Column_83 Column_84 Column_85 Column_86 Column_87 Column_88 Column_89 Column_90 Column_91 Column_92 Column_93 Column_94 Column_95 Column_96 Column_97 Column_98 Column_99 Column_100 Column_101 Column_102 Column_103 Column_104 Column_105 Column_106 Column_107 Column_108 Column_109 Column_110 Column_111 Column_112 Column_113 Column_114 Column_115 Column_116 Column_117 Column_118 Column_119 Column_120 Column_121 Column_122 Column_123 Column_124 Column_125 Column_126 Column_127 Column_128 Column_129 Column_130 Column_131 Column_132 Column_133 Column_134 Column_135 Column_136
feature_infos=[-1.8014661073684692:1.7600680589675903] [-1.7160434722900391:1.7309049367904663] [-1.6382262706756592:1.7044392824172974] [-1.5680137872695923:1.6806706190109253] [-1.5054070949554443:1.6595996618270874] [-1.4504051208496094:1.6412254571914673] [-1.4123568534851074:1.6617363691329956] [-1.3844102621078491:1.7939627170562744] [-1.3517893552780151:2.0758624076843262] [-1.3099035024642944:2.0974209308624268] [-1.2559221982955933:1.9997674226760864] [-1.1870334148406982:1.9951491355895996] [-1.1039742231369019:2.0742456912994385] [-1.0067610740661621:2.1771299839019775] [-0.90047705173492432:2.2759943008422852] [-0.78966546058654785:2.4052433967590332] [-0.67814630270004272:2.5269482135772705] [-0.65620064735412598:2.5277442932128906] [-0.66012513637542725:2.5653238296508789] [-0.66667592525482178:2.5221147537231445] [-0.8555336594581604:2.4413206577301025] [-0.86833834648132324:2.3840618133544922] [-0.86565589904785156:2.2409591674804688] [-0.7797551155090332:2.1030042171478271] [-1.0841877460479736:2.0889520645141602] [-1.4308524131774902:1.9925726652145386] [-1.6366665363311768:1.8694267272949219] [-1.8254417181015015:1.7314887046813965] [-1.9454965591430664:1.5598906278610229] [-2.2033448219299316:1.3473584651947021] [-2.6534385681152344:1.1438356637954712] [-2.9375624656677246:1.0691677331924438] [-2.8964071273803711:1.0156075954437256] [-2.6209216117858887:0.99408984184265137] [-1.9672813415527344:0.99887841939926147] [-1.2877312898635864:1.0987448692321777] [-0.66342759132385254:1.3781088590621948] [-0.67050886154174805:1.4172744750976562] [-0.67336314916610718:1.4686216115951538] [-0.67729061841964722:1.427788257598877] [-0.67375040054321289:1.3506048917770386] [-0.77278417348861694:1.3033223152160645] [-0.78214722871780396:1.4334096908569336] [-0.67822211980819702:1.6771683692932129] [-0.67549598217010498:1.8418123722076416] [-0.67939788103103638:1.9795904159545898] [-0.67687302827835083:1.8671952486038208] [-0.68056988716125488:1.7601110935211182] [-0.67851173877716064:1.8138210773468018] [-0.68057990074157715:2.0951991081237793] [-0.67672491073608398:2.3221406936645508] [-0.68132954835891724:2.3866791725158691] [-0.68784564733505249:2.3278176784515381] [-0.69532120227813721:2.41339111328125] [-0.68557995557785034:2.0181429386138916] [-0.66425126791000366:1.663224458694458] [-0.63047897815704346:1.3939603567123413] [-0.79989981651306152:1.3641012907028198] [-0.9627259373664856:1.3483799695968628] [-0.83332031965255737:1.3266682624816895] [-0.62303602695465088:1.3006186485290527] [-0.62908732891082764:1.6912268400192261] [-0.65896600484848022:1.8743280172348022] [-0.67422842979431152:1.7138135433197021] [-0.93073725700378418:1.3433690071105957] [-1.1305865049362183:1.0751444101333618] [-1.2528316974639893:0.99085426330566406] [-1.6713657379150391:0.88485002517700195] [-1.8910553455352783:0.75389385223388672] [-2.0949718952178955:0.60495084524154663] [-1.9126988649368286:0.45876148343086243] [-1.723555326461792:0.33052113652229309] [-1.5802557468414307:0.23037496209144592] [-1.5674382448196411:0.15855956077575684] [-1.4517455101013184:0.2961885929107666] [-1.6804615259170532:0.9557119607925415] [-1.8599822521209717:1.4404212236404419] [-1.985605001449585:1.2026444673538208] [-2.0616223812103271:1.1285310983657837] [-2.1171634197235107:0.92254304885864258] [-2.168381929397583:0.73609095811843872] [-2.1978850364685059:0.28676301240921021] [-2.2107267379760742:0.33890664577484131] [-2.208972692489624:0.39074629545211792] [-2.1915850639343262:0.5232703685760498] [-2.1574652194976807:0.47703936696052551] [-2.1063995361328125:0.50853937864303589] [-2.0390708446502686:0.53271615505218506] [-1.9571486711502075:0.67684948444366455] [-1.8642418384552002:0.56802195310592651] [-1.7650643587112427:0.65060514211654663] [-1.6926337480545044:1.0689502954483032] [-1.6396095752716064:1.4168777465820312] [-1.5815147161483765:1.6290324926376343] [-1.5245249271392822:1.6649528741836548] [-1.4861346483230591:1.6182941198348999] [-1.4547033309936523:1.5608183145523071] [-1.4384253025054932:1.5595740079879761] [-1.4264529943466187:1.5630311965942383] [-1.5388252735137939:1.5623300075531006] [-1.8966314792633057:1.5685317516326904] [-2.4619696140289307:1.5680602788925171] [-2.648137092590332:1.5700795650482178] [-2.5047333240509033:1.5659784078598022] [-2.1062953472137451:1.5674868822097778] [-1.4475361108779907:1.5623446702957153] [-1.1054823398590088:1.563502311706543] [-1.1215335130691528:1.561995267868042] [-1.1656886339187622:1.5723429918289185] [-1.225764274597168:1.5757462978363037] [-1.3317182064056396:1.5835809707641602] [-1.6010570526123047:1.5861003398895264] [-2.1418814659118652:1.5904537439346313] [-2.465855598449707:1.5886306762695312] [-2.5047738552093506:1.5883719921112061] [-2.0072333812713623:1.5865405797958374] [-1.6131480932235718:1.5868538618087769] [-1.6321159601211548:1.611059308052063] [-1.6864286661148071:2.4495923519134521] [-1.7459897994995117:2.6529664993286133] [-1.820858359336853:2.5047237873077393] [-1.9280952215194702:1.7488086223602295] [-2.1567583084106445:1.6308574676513672] [-2.3918964862823486:1.6220458745956421] [-2.6616356372833252:1.8138364553451538] [-2.9659750461578369:2.1341862678527832] [-3.3559722900390625:2.598928689956665] [-3.8750591278076172:3.4483489990234375] [0:1] [0:1] [0:1] [0:1] [0:1] [0:1] [0:1] [0:1] [0:1]
tree_sizes=6144 6659 6421 6444 6030 6900 6208 6213 6818 6774 6565 6920 6831 6895 6937 6570 6905 6903 6979 6956 6572 6566 6685 6593 6934 6205 6595 6231 6276 6367 6411 6385 5845 5518 6112 6064 6254 6642 6823 5756 6176 5826 6986 5830 5876 6074 6787 7001 5930 5892 6690 5645 6194 4643 5916 6932 6546 6943 6706 5983 6945 6427 6820 6984 5753 6743 6953 6726 5736 4821 6269 6580 6840 6911 6953 5963 6505 3794 6972 6748 6929 5419 6282 6958 6542 6942 6708 6818 6812 5963 6974 6594 6624 6536 6187 6963 6788 6861 5979 6710 6945 6182 4839 6174 5517 6701 6284 6617 5696 4094 6440 6849 6027 6476 6948 6144 6611 5171 6707 6160 6952 6467 5147 6366 6938 6834 5963 6331 6712 5940 6922 5479 6626 6687 6348 6539 5921 6292 6803 6986 6859 5070 5067 6603 6687 6925 5965 6453 6058 6734 6956 6292 6957 6468 6903 6615 6701 5481 6914 6896 6081 5806 5360 6288 6709 5032 6735 6377 6923 4857 6090 6730 5352 5843 6461 6250 6473 6033 6290 6120 6466 6314 5915 5880 6363 5459 6853 6915 6937 6405 6925 6951 6283 5009 6495 6904 6951 6771 6698 5016

Tree=0
num_leaves=57
num_cat=0
split_feature=32 107 130 30 131 129 136 109 115 105 30 32 133 133 80 105 31 136 134 72 32 97 127 78 57 71 33 100 69 74 125 31 52 66 120 54 115 102 24 122 31 52 42 80 32 111 105 31 30 70 71 32 100 3 31 15
split_gain=59070.8 20345 17733.5 16920.3 9809.28 10087.9 6931.72 6680.54 4608.27 4188.58 2185.45 1353.94 1307.51 1271.77 1176.89 1149.32 1042.09 1009.83 1117.93 957.521 1131.53 919.974 826.738 594.8 487.855 849.494 683.279 473.813 447.327 404.889 402.924 362.379 332.194 289.347 269.043 268.246 245.639 273.864 237.334 204.062 194.281 233.216 166.735 161.557 159.326 150.254 120.188 162.72 107.119 81.5399 97.7494 78.7647 71.7318 70.7501 67.3284 18.4937
threshold=0.95145252346992504 -0.8520430028438567 1.0000000180025095e-35 1.0852711200714114 1.0000000180025095e-35 1.0000000180025095e-35 1.0000000180025095e-35 -1.0293771028518675 -0.82685163617134083 -0.94949993491172779 1.0957524776458742 0.95701861381530773 1.0000000180025095e-35 1.0000000180025095e-35 -1.2655888199806211 -0.83863675594329823 1.0074979662895205 1.0000000180025095e-35 1.0000000180025095e-35 -0.61098128557205189 0.96405023336410534 -0.92936405539512623 -2.064861416816711 -1.3434560298919676 0.91048645973205578 -0.42503248155117029 0.92405012249946605 -0.90019446611404408 -0.064636968076229082 -1.0451267957687376 -1.5110853910446165 0.99432966113090526 1.1188949942588808 0.252570390701294 -1.2935433983802793 1.0274299383163454 -1.0424870252609251 -0.77997764945030201 1.2717642784118655 -1.0038458108901975 1.0127560496330263 1.0741624832153323 1.0487987995147707 -1.3490039110183714 0.94127294421195995 -0.88789859414100636 -0.91525393724441517 1.0021936297416689 1.0478231906890871 -0.33746314048767084 -0.52109432220458973 0.9378241002559663 -0.95856299996376026 0.58153143525123607 0.99655014276504528 1.0354555249214175
decision_type=2 2 2 2 2 2 2 2 2 2 2 2 2 2 2 2 2 2 2 2 2 2 2 2 2 2 2 2 2 2 2 2 2 2 2 2 2 2 2 2 2 2 2 2 2 2 2 2 2 2 2 2 2 2 2 2
left_child=1 2 3 4 5 -1 7 13 17 12 -11 14 -5 46 28 -16 22 18 30 21 -21 -13 36 51 26 -26 -24 49 -9 43 -3 -6 35 34 -15 -31 37 -8 -25 -10 42 -42 -29 -4 -20 -45 55 -48 -35 50 -18 -19 -34 -51 -41 -2
right_child=6 8 29 9 31 -7 16 11 39 10 -12 19 -14 33 15 -17 27 23 44 20 -22 -23 24 38 25 -27 -28 40 -30 32 -32 -33 52 48 -36 -37 -38 -39 -40 54 41 -43 -44 45 -46 -47 47 -49 -50 53 -52 -53 -54 -55 -56 -57
leaf_value=-1.436704221444409 -2.0341096470830946 -1.6528253571448781 -2.0341096470830946 -1.8329805998102024 -1.696979043195658 -1.8566881885451614 -1.6962733509288068 -1.817070856847901 -1.2766203971120944 -1.6785354557863481 -1.8664198683523789 -1.806277331146712 -1.3959552011863985 -1.2380424112745372 -1.6401168771971808 -1.8312528740280432 -1.2843652314364946 -1.494152298293822 -1.2043276817798207 -1.7464123419795194 -1.8404881833431515 -1.9163486791021596 -1.5541927345672391 -2.0341096470830946 -1.421503003593211 -1.591191988225986 -1.7129612701749979 -1.7998528790176469 -1.6659608635364238 -1.8691619047840644 -1.7748573582200726 -1.8169314080662819 -1.5809161615185507 -1.4256824007319371 -1.7348133642728991 -1.7522077501493036 -1.1844638713455014 -1.9374228528880277 -1.4482757625853102 -2.0341096470830946 -1.9831088024381942 -1.4896981295118878 -1.9728899478200685 -1.7738973915146574 -1.6911379978553611 -1.3964953214866402 -1.8500065829020769 -1.4870435355331075 -1.7357874547336749 -1.7540191217819803 -2.0341096470830946 -1.9135203727573673 -1.9837393915192594 -1.3435799504191737 -1.537990164120375 -1.7257516265750219
leaf_weight=27569.589259549975 16.176113858819011 332.55735804140568 7.0282425731420508 77.957080811262131 465.08484281599522 584.03647528588772 96.858437493443489 1765.2307494878769 3.5998636037111273 2252.735298499465 853.71955938637257 1415.2994712293148 561.90445248782635 255.1931676864624 1283.8615176975727 416.71074691414833 2.7277875542640686 5.0501358807086936 43.542604878544807 2497.5106311142445 2619.5214864164591 1638.2779920697212 573.87570413947105 7.1398019790649405 422.86761164665222 975.81792320311069 513.70307223498821 194.97780816257 220.35662907361984 810.05074222385883 1451.5065732002258 549.31855611503124 4.5127380490303031 59.384040519595146 11.388622820377348 258.75473627448082 6.4188113659620276 91.659760907292366 219.93271987140179 589.25678208470345 13.366729512810705 33.809518679976463 77.94878976047039 15.719040453433989 7.950680434703826 32.074929997324944 29.623167797923088 21.184178978204727 13.710971146821974 4.8678154647350302 4.7970544546842566 39.57235412299633 216.54509794712067 30.604258522391319 2.7481867522001258 2.2107889205217353
leaf_count=106587 145 1899 63 565 2831 4351 589 12554 9 13358 6431 9935 1977 554 7192 3014 7 22 82 16256 19153 13039 2794 64 1580 5059 3197 1358 1283 6121 9800 3906 23 224 73 1697 11 746 872 5282 114 146 658 106 48 113 219 91 88 32 43 314 1848 94 13 14
internal_value=-1.91944 -1.5175 -1.49666 -1.48212 -1.45642 -1.44542 -1.75109 -1.78461 -1.78164 -1.68218 -1.73017 -1.79832 -1.4492 -1.38719 -1.74801 -1.68695 -1.61603 -1.71222 -1.73885 -1.82102 -1.79457 -1.86533 -1.5945 -1.53229 -1.57895 -1.53989 -1.62918 -1.77502 -1.8003 -1.85261 -1.75211 -1.76194 -1.86393 -1.30759 -1.25926 -1.84085 -1.79281 -1.81352 -1.4667 -2.02724 -1.81688 -1.6295 -1.84927 -1.58645 -1.27949 -1.52062 -1.77795 -1.69867 -1.48385 -1.46333 -1.76232 -1.86606 -1.97552 -1.3999 -2.03181 -1.99703
internal_weight=0 36961.9 34259 32914.3 29168 28153.6 15309.9 12265.6 2702.86 3746.32 3106.45 11856.8 639.862 408.871 3686.16 1700.57 3044.3 2107.25 1835.56 8170.61 5117.03 3053.58 2681.2 271.695 2486.26 1398.69 1087.58 363.1 1985.59 1344.69 1784.06 1014.4 1289.86 339.677 266.582 1068.81 194.937 188.518 227.073 595.605 320.103 47.1762 272.927 54.8222 51.4933 47.794 69.1942 50.8073 73.095 42.9969 7.52484 44.6225 221.058 35.4721 592.005 18.3869
internal_count=268644 168382 149977 140006 117675 110938 100262 83834 18405 22331 19789 82426 2542 1408 24043 10206 16428 13101 11829 58383 35409 22974 13976 1272 12630 6639 5991 2452 13837 9971 11699 6737 9689 939 627 7818 1346 1335 936 5304 2276 260 2016 282 130 219 469 310 312 176 50 336 1871 126 5295 159
is_linear=0
shrinkage=1


Tree=1
num_leaves=61
num_cat=0
split_feature=32 130 131 128 30 129 136 84 105 113 114 37 71 104 108 78 28 76 0 110 89 117 32 56 101 69 56 45 38 133 31 0 72 69 102 44 71 54 53 75 103 67 69 80 40 113 78 107 112 37 118 109 75 94 110 32 109 77 75 73
split_gain=23614.4 8328.33 8948.18 8949.88 5441.98 4747.84 3283.9 2642.24 1250.53 1034.36 775.665 648.404 1788.38 813.69 548.57 812.948 502.068 485.051 473.215 664.102 564.403 444.303 443.908 545.691 464.285 428.399 357.068 530.099 353.476 337.237 324.482 262.25 261.866 233.271 231.024 221.78 579.252 221.73 199.109 192.961 185.946 161.832 150.38 109.616 104.345 101.538 89.039 85.9518 81.428 78.1668 76.5298 69.5035 59.4556 42.1687 26.6228 14.7228 0.0359207 0.021982 0.00487624 1.39208e-05
threshold=0.95235058665275585 1.0000000180025095e-35 1.0000000180025095e-35 1.0000000180025095e-35 1.0893838405609133 1.0000000180025095e-35 1.0000000180025095e-35 -0.97183468937873829 -0.95540347695350636 -0.86562359333038319 -0.97099891304969776 0.98591372370719921 -0.37434515357017512 -0.82401958107948292 -0.88895419239997853 -1.2421653866767881 1.0896758437156679 -1.310217499732971 0.60140693187713634 -0.90941843390464772 -1.1804612278938291 -0.89358872175216664 0.96328276395797741 0.96025735139846813 -0.77438828349113453 -0.017962907440960404 0.96655127406120311 1.1054703593254092 1.0196825861930849 1.0000000180025095e-35 1.005381762981415 0.36919881403446203 -0.57347413897514332 -0.28389671444892878 -0.81536942720413197 1.1193347573280337 -0.39051626622676844 1.0259526371955874 1.0927622318267824 -1.1001384258270261 -0.80354043841361988 0.18474981188774112 -0.064636968076229082 -1.2677801251411436 1.0701129436492922 -1.1845985054969785 -0.8966100513935088 -0.82786127924919117 -0.97319674491882313 0.99989378452301036 -1.3020102977752683 -0.92242413759231556 -1.1695452332496641 -0.98279395699501026 -0.92576351761817921 0.95978528261184703 -0.79850155115127552 -1.3032471537590025 -1.1386608481407163 -0.88794985413551319
decision_type=2 2 2 2 2 2 2 2 2 2 2 2 2 2 2 2 2 2 2 2 2 2 2 2 2 2 2 2 2 2 2 2 2 2 2 2 2 2 2 2 2 2 2 2 2 2 2 2 2 2 2 2 2 2 2 2 2 2 2 2
left_child=1 2 3 4 5 -1 7 11 -6 30 48 12 13 -2 22 26 28 -12 19 38 21 -21 23 34 -25 -14 27 -16 -13 45 39 43 -28 -32 -8 36 -24 -22 41 -4 -37 -3 50 -17 -18 55 -47 52 -5 -44 -31 -40 -11 57 -33 -9 -49 59 -59 -20
right_child=6 18 9 10 8 -7 14 29 -10 47 17 16 25 -15 15 31 44 -19 53 20 37 -23 35 24 -26 -27 32 -29 -30 42 33 54 -34 -35 -36 40 -38 -39 51 -41 -42 -43 49 -45 -46 46 -48 56 -50 -51 -52 -53 -54 -55 -56 -57 -58 58 -60 -61
leaf_value=0.30721476036749923 0.12017959744376738 0.055158009573784542 0.093399425753100021 -0.076724152939280407 0.29743888228791188 0.10036082088051462 0.14100241641756678 -0.1150620568774695 0.12099157130221345 -0.013958621480053246 -0.10676362797602182 0.28604315309174061 0.16924119228616152 0.063248515226960053 0.23135481764429106 0.13064130293435069 -0.01202439717156591 0.13118826872114836 -0.11307968825638391 0.060021991973161305 0.13745863894486443 0.23176707091097681 0.070812573337789314 0.27886546905867937 -0.018929006796721909 0.29249975715631787 0.34886498927124243 0.059725641140620525 0.050948725303020595 0.41709963461059135 -0.088300755560041286 0.46627981550762243 0.10587497053956868 0.075703655123944613 -0.067230616325150386 -0.091458333914688564 0.43597755746908756 0.35887868443331139 -0.070785845406251269 0.16770398462125272 0.09704564984595121 0.38838699925756637 0.089110102703617938 0.4289828200530364 -0.10413274562591408 0.16620005954027209 0.50597607007511225 -0.11687491473306458 -0.00088428257719543155 0.35099461205861227 0.32725317857562958 0.038903493968757703 0.37485227270519628 0.20795771946498265 0.61229047233812173 0.061391851005868331 -0.11307968825638391 -0.12008228870725111 -0.11564970803000306 -0.1133417278924601
leaf_weight=40270.928014166653 4471.5118724629283 848.0346072986722 715.21540212631226 390.3576901704073 493.39984091371298 1141.0451574847102 303.75129962712526 12.406488016247751 2160.3818853199482 72.883352600038052 98.010048881173134 89.575634688138962 705.86112248897552 5724.4571961462498 1332.275169506669 21.737015321850777 451.11634065955877 680.17970853298903 92.571388706564903 528.46054930239916 64.483589380979538 210.68116741627455 204.50761734694242 646.01678868383169 56.971181280910969 469.55479995906353 330.27174131572247 208.06428135931492 223.60358034819365 228.83547881245613 119.16971674561501 15.119727246463297 51.230400636792183 318.5553605183959 64.612612448632717 96.952155768871307 55.155641466379166 151.4420161023736 188.82517904788256 683.48007720708847 113.69641005992889 14.828822441399096 29.022989243268967 28.412812635302544 169.09114284068346 67.085401877760887 8.7143416181206685 28.013588674366474 222.13484064489603 18.767200313508511 161.86266849189997 83.228665962815285 4.1572610437870017 4.2013729363679877 71.737999111413956 7.6407091170549384 227.18348543345928 2.6786240413784972 33.780985601246357 2.0727577209472647
leaf_count=113737 27405 5890 4427 2515 1422 7309 1595 110 12572 527 929 405 4065 38545 5636 109 3349 3641 905 3541 399 1042 1217 2322 466 2163 936 1174 1505 282 940 34 266 2060 440 692 133 546 1681 3730 662 54 145 58 1392 360 18 227 1367 57 340 579 16 23 82 52 2221 20 289 20
internal_value=0 0.266433 0.275269 0.284736 0.292619 0.301515 0.128226 0.104558 0.153797 0.0768185 0.0349623 0.0951042 0.101681 0.088216 0.212624 0.246401 0.0149804 0.101219 0.0773431 0.0890764 0.150525 0.108975 0.167516 0.20307 0.254732 0.21848 0.229623 0.208172 0.118191 0.322253 0.106194 0.481746 0.316235 0.0310538 0.104477 0.0865277 0.148378 0.292754 0.0373657 0.129709 0.0102857 0.0608847 0.359395 0.299669 -0.0371365 0.15233 0.205263 -0.0855499 -0.049219 0.191952 0.379877 -0.0372289 0.00702237 -0.103895 0.586874 -0.0478091 -0.113496 -0.113889 -0.115975 -0.113085
internal_weight=0 49850.4 47625.1 45456.4 44065.8 41412 16439.6 12839.1 2653.78 2168.66 1390.68 12304.8 11371.4 10196 3600.51 2058.85 933.387 778.19 2225.29 2089.98 955.067 739.142 1541.66 1071.35 702.988 1175.42 1921.84 1540.34 313.179 534.335 1836.42 137.008 381.502 437.725 368.364 470.312 259.663 215.926 1134.92 1398.7 210.649 862.863 438.488 50.1498 620.207 95.8469 75.7997 332.238 612.493 47.7902 390.698 272.054 77.0406 135.305 86.8577 20.0472 255.197 131.104 36.4596 94.6441
internal_count=268644 172629 157640 143492 135040 121046 96015 80193 13994 14148 8452 78829 72178 65950 15822 8295 6651 4570 14989 13732 5528 4583 7527 4823 2788 6228 8012 6810 1910 1364 11157 283 1202 3000 2035 2704 1350 945 8204 8157 1354 5944 824 167 4741 540 378 2991 3882 202 622 2260 543 1257 116 162 2448 1234 309 925
is_linear=0
shrinkage=0.1


Tree=2
num_leaves=59
num_cat=0
split_feature=106 31 49 136 130 128 29 110 125 31 134 77 79 112 108 29 118 80 31 87 31 107 134 56 38 126 130 123 115 76 29 133 115 106 0 24 107 133 68 113 57 27 51 93 59 32 76 115 125 49 82 38 75 105 48 70 111 112
split_gain=13912.9 6815.87 3739.98 3444.26 3441.34 3192.62 3144.34 2481.63 1451.47 1557.53 1538.86 1400.32 832.302 574.63 535.145 434.037 371.106 348.096 345.642 338.002 329.835 267.878 249.872 228.234 325.586 197.079 184.938 160.229 143.619 183.386 129.81 120.866 120.736 120.705 113.338 112.743 106.044 96.028 87.0968 85.3688 79.2529 137.502 74.5216 70.6848 68.6382 45.0072 33.9724 33.7501 96.1431 28.6827 19.3576 25.5379 15.3044 13.7698 10.7512 0.603606 0.0570712 0.0146602
threshold=-0.86216169595718373 1.0052424073219302 1.2239301800727846 1.0000000180025095e-35 1.0000000180025095e-35 1.0000000180025095e-35 1.2226841449737551 -1.2102134823799131 -0.40416540205478663 0.99257490038871776 1.0000000180025095e-35 -1.3032471537590025 -1.0434634089469907 -0.93156048655509938 -0.86778697371482838 1.2413784861564638 -1.5790941715240476 -1.3594339489936826 1.0050985217094424 -1.2966693639755247 1.0073092579841616 -0.89423540234565724 1.0000000180025095e-35 1.0516870617866518 0.97779273986816417 -1.2689524888992307 1.0000000180025095e-35 -1.3582937121391294 -0.96810093522071827 -1.1747949719429014 1.1782670021057131 1.0000000180025095e-35 -1.426669120788574 -0.95331189036369313 0.53285232186317455 1.2354902029037478 -0.81678292155265797 1.0000000180025095e-35 -0.20224470645189283 -1.3360306620597837 0.93999660015106212 1.1553498506546023 1.0591769814491274 -0.98332911729812611 0.81277611851692211 0.96679332852363598 -1.2504621744155882 -0.89649075269699086 -1.2733894586563108 0.90179932117462169 -0.263229489326477 0.99060636758804332 -0.95832923054695118 -0.88532611727714527 1.2340738177299502 -0.05624591372907161 -0.85281446576118458 -0.85775962471961964
decision_type=2 2 2 2 2 2 2 2 2 2 2 2 2 2 2 2 2 2 2 2 2 2 2 2 2 2 2 2 2 2 2 2 2 2 2 2 2 2 2 2 2 2 2 2 2 2 2 2 2 2 2 2 2 2 2 2 2 2
left_child=1 4 3 8 5 6 7 -1 9 10 -2 47 19 -11 18 -8 50 -16 -13 25 22 40 -21 24 39 34 37 -22 45 -30 35 33 -26 52 -3 -23 -28 -25 -33 -18 41 -6 -35 -32 -40 -7 -27 48 -5 57 51 -4 -14 -42 -52 -56 -49 -10
right_child=2 12 16 11 21 28 15 -9 49 13 -12 14 31 -15 17 -17 23 -19 -20 20 27 30 -24 26 32 46 36 -29 29 -31 43 38 -34 42 -36 -37 -38 -39 44 -41 53 -43 -44 -45 -46 -47 -48 56 -50 -51 54 -53 -54 -55 55 -57 -58 -59
leaf_value=0.0048668423728687859 0.10950763370473456 0.12271371049503539 0.21365498925397475 -0.091322414796240287 0.33187496612889889 -0.065971871416926189 0.10668421534960632 0.2317221942999074 -0.12104657334396357 0.043282072078534697 0.25692314756428591 0.17739234754163008 0.12845728651533173 0.088942595141833489 0.17633248347141373 -0.023029329625524203 0.18915913921806038 0.26636955780579191 0.096837299430591592 0.083285959741950785 0.087296212785698504 0.47497282175228128 0.19340477741654682 0.32561793560116525 0.3504738642303119 -0.058475498083779498 -0.075850792950995227 0.030228823682593144 -0.062402558190528194 0.1948568947656425 -0.10110887647797179 -0.12952316097392363 0.18243858460720971 0.28180014562567229 0.5392393693945966 0.096474691986036934 0.56858223468798941 0.039596238708494214 0.24585530465172389 -0.084091207096242182 0.009985669641266905 -0.01213513019045735 0.065506744906716471 0.45992057896679228 0.021030837719620537 0.088199362199402553 0.20869840087394542 -0.12444200610892074 0.38079892414570438 0.10963771528941191 0.33677394417518486 0.39745201151017917 -0.12243272307063138 -0.1085491395295461 0.40720924013950111 0.3972015915918875 -0.11792634416006927 -0.11176222898444693
leaf_weight=487.34555758535862 4229.2103966847062 8.4356645792722684 13.792915672063829 21.646532684564594 11.996265634894369 367.61996564269066 916.35491433739662 45793.769434720278 1.7084626406431187 5241.0253418907523 850.54509329050779 2810.6766793504357 2.7567658722400692 5813.2941844984889 725.66602729260921 359.03335285186768 15.194890230894087 1051.7295709252357 657.19348915666342 810.97804325819016 669.83027304708958 8.039792098104952 276.25311500579119 413.7327591329813 72.078448683023453 11.358219072222711 18.189824827015403 1853.1914615258574 53.440820217132568 57.547515541315079 44.118482895195484 6.5643655359745017 105.12255063652992 31.648958407342434 28.959171369671822 372.10625448077917 2.970464661717414 12.080912455916403 377.62241337448359 46.187374971807003 10.853550054132937 369.42863447964191 32.070842511951923 2.366158038377761 14.085874460637568 19.963712714612484 8.1916422173380834 14.916194945573805 5.3866627365350714 5.941195420920848 26.158652395009995 16.728500425815582 20.598201103508472 100.98403786867857 181.94920933246613 90.119139522314072 136.12199628353119 376.2897879332304
leaf_count=2078 21393 45 34 140 35 2367 3989 115993 12 32037 1884 9403 15 33562 2326 2003 59 2472 3081 4068 3751 21 1064 639 99 82 171 11402 298 208 362 39 351 82 51 2265 4 53 800 262 86 2635 153 8 76 129 31 97 11 33 37 15 146 901 148 81 1057 4000
internal_value=0 0.208328 0.115164 0.106486 0.218758 0.222426 0.225065 0.229333 0.0837835 0.0883563 0.134191 0.175631 0.0853212 0.0672942 0.184994 0.0701687 0.302896 0.22961 0.162126 0.0690341 0.0652212 0.027166 0.111266 0.261009 0.182034 0.310766 0.303164 0.0453795 -0.0293099 0.0709866 0.0851908 0.208383 0.250789 0.101657 0.445278 0.10448 0.0146142 0.317503 0.231717 -0.0164494 -0.0230205 -0.0013156 0.172937 -0.0725514 0.237771 -0.0580308 0.0534738 -0.100152 0.00275298 -0.108378 0.390244 0.314392 -0.0928183 -0.0970456 0.398007 0.403894 -0.11857 -0.111804
internal_weight=0 53127.5 22955.7 21941.4 48975 48055.1 47556.5 46281.1 16518 16134.1 5079.76 5423.34 4152.55 11054.3 5245.27 1275.39 1014.31 1777.4 3467.87 3667.2 3610.25 919.893 1087.23 685.557 238.583 56.9447 446.974 2523.02 498.572 110.988 426.631 485.347 177.201 87.0748 37.3948 380.146 21.1603 425.814 398.273 61.3823 493.262 381.425 63.7198 46.4846 391.708 387.584 19.5499 178.071 27.0332 383.939 328.748 30.5214 23.355 111.838 298.227 272.068 151.038 377.998
internal_count=268644 155183 113461 111508 133378 127065 124063 118071 92921 88876 23277 18587 21805 65599 17282 5992 1953 4798 12484 20494 20285 6313 5132 1638 771 209 867 15153 3002 506 2656 1311 450 396 96 2286 175 692 915 321 3657 2670 235 370 876 2496 113 1305 151 4045 315 49 161 987 266 229 1154 4012
is_linear=0
shrinkage=0.1


Tree=3
num_leaves=59
num_cat=0
split_feature=32 51 30 103 117 108 128 131 105 117 136 5 30 53 32 134 54 69 37 102 29 113 3 101 35 133 70 107 77 75 114 57 2 135 89 69 114 105 45 31 19 108 95 96 33 127 32 2 124 106 105 102 106 136 32 29 107 28
split_gain=9232.06 4122.49 2813.59 2882.08 2512.08 3538.25 1952.23 1815.97 1643.71 1417.59 1570.94 1219.98 913.282 918.823 804.806 740.084 1308.95 591.394 1269.1 829.1 561.307 483.489 460.383 368.158 343.309 269.92 231.146 222.821 324.709 197.262 181.755 134.662 126.556 118.023 117.323 115.982 98.548 63.4077 66.1864 53.5635 53.7349 53.4764 51.1862 28.018 26.7679 57.5196 23.7294 20.614 19.3984 19.2517 13.7131 12.3928 0.896052 0.258663 0.163825 0.0631858 0.0600557 0.000691228
threshold=0.94903582334518444 0.79380965232849132 1.0803937315940859 -0.85560867190361012 -1.5325309634208677 -1.0705023407936094 1.0000000180025095e-35 1.0000000180025095e-35 -0.94410040974616993 -1.2328378558158872 1.0000000180025095e-35 0.652519851922989 1.0967949628829958 0.96915400028228771 0.95574644207954418 1.0000000180025095e-35 0.98898050189018261 -0.05709451995790004 0.97075584530830394 -0.77997764945030201 1.2071737051010134 -0.97349295020103443 0.70432576537132274 -0.88759514689445485 0.94032081961631786 1.0000000180025095e-35 -0.32273022830486292 -0.85868382453918446 -1.2897467017173765 -0.90289035439491261 -0.97982987761497486 0.92532259225845348 0.63244989514350902 1.0000000180025095e-35 -0.96301981806755055 -0.064636968076229082 -0.91483083367347706 -0.9190436303615569 1.1960418820381167 0.98297584056854259 1.0863461494445803 -0.87736836075782765 -1.0225003957748411 -0.98545542359352101 0.94568803906440746 -2.0778803825378414 0.95145252346992504 0.24270158261060717 -1.9122282862663267 -0.84681397676467884 -0.91129341721534718 -0.92322197556495655 -0.86216169595718373 1.0000000180025095e-35 0.95145252346992504 1.2413784861564638 -0.8513338267803191 1.3659748435020449
decision_type=2 2 2 2 2 2 2 2 2 2 2 2 2 2 2 2 2 2 2 2 2 2 2 2 2 2 2 2 2 2 2 2 2 2 2 2 2 2 2 2 2 2 2 2 2 2 2 2 2 2 2 2 2 2 2 2 2 2
left_child=1 21 3 6 5 -5 7 -3 20 25 14 -6 13 -10 15 26 -17 19 -19 -16 23 33 -22 -4 27 29 -11 31 -29 -2 -8 -12 -14 34 43 46 41 54 -39 48 -41 42 -23 -1 45 -26 50 -48 -37 -46 -27 -36 56 -54 -31 57 -38 -35
right_child=9 2 8 4 11 -7 30 -9 12 10 24 -13 32 -15 17 16 -18 18 -20 -21 22 36 -24 -25 44 35 -28 28 -30 37 -32 -33 -34 55 51 39 52 38 -40 40 -42 -43 -44 -45 49 -47 47 -49 -50 -51 -52 -53 53 -55 -56 -57 -58 -59
leaf_value=0.4508910504041998 0.37790077950991718 0.21670184222802039 0.2579331385264485 -0.0070899213238345251 0.14922001569825469 0.2643064819358304 -0.076471386113524997 0.085142655338733775 0.13585272473666549 0.03236907112528508 0.11219051824446724 0.015499323114896466 -0.052754076783225468 0.052285684440064074 0.051098055798271751 -0.0062904779473516893 0.16677734661266069 0.19676422085982623 0.056802185000891951 -0.089709274270367623 -0.0040728711076405228 0.15701559778265925 0.1974531695755519 0.068031327606397393 -0.050912393522376101 0.30309360616813413 0.08929094794977975 0.0048052624460623227 0.18253366359218642 -0.13713654916443377 0.05622504051472027 0.15353468940891574 0.028620479294447894 -0.14074784073312749 -0.12993326608272857 0.1509173333054665 -0.13006124528773536 0.10733883175695239 -0.12158396983118003 -0.1337207953443933 0.11925577584364006 0.16515383028303687 -0.058497766251766642 0.19992731487915999 -0.10905935275620421 0.23277372792836004 0.16198971652805816 0.24837102384192408 0.29985807827160743 0.064702408887710838 0.22730891793666946 0.091022533251395754 -0.11063609604294676 -0.11598878213455684 -0.1164629058886465 -0.12538284333659322 -0.12144305250824279 -0.13908449917092508
leaf_weight=4.7067864537239066 22.636068850755692 21388.308536380529 1155.6170481666923 552.39623242616653 22296.190906308591 3684.4165410995483 203.49489653855562 1103.3439467996359 4479.1476776450872 1126.5466163381934 2346.8329425230622 703.80472288280725 286.87156330049038 1862.9379421696067 7295.0076697394252 525.68622176349163 2590.6420824825764 875.95803888887167 2487.8500411063433 443.60198290646076 195.58376447856426 11.971128046512602 269.64310028403997 111.98069662600756 29.534850120544434 122.8735082000494 1945.1953503713012 110.17776614427567 1534.5602763071656 6.1109210997819927 209.47552201896906 1185.8868723586202 572.59641722589731 6.5822005271911603 12.382365837693213 16.398295760154724 28.671127632260323 123.33785170316696 14.070415407419203 10.281847849488257 45.789183765649796 13.672820910811422 138.79317745566368 81.069459974765778 53.645437903702259 9.4290429502725583 29.252020671963692 497.09253530204296 18.735577598214149 7.2362688034772864 29.635189190506935 3.1929506510496131 347.43416482955217 121.97433486580849 10.283195935189722 4.0112378299236289 11.261808834969996 4.0268233269453049
leaf_count=5 23 41671 1897 2273 59668 5183 1404 5246 14581 6377 8796 3016 1986 8166 43195 2499 8203 3820 14173 3225 883 45 727 364 200 132 9754 493 4106 32 980 3725 3401 32 72 40 167 489 101 56 148 39 686 188 368 26 71 522 27 37 51 16 4017 1029 88 26 79 20
internal_value=0 0.167902 0.170936 0.180148 0.158163 0.228922 0.206292 0.210248 0.119236 0.0939542 0.0889258 0.145128 0.098196 0.111306 0.0743499 0.103248 0.137583 0.058243 0.0932492 0.0430265 0.206677 -0.059059 0.112731 0.241157 0.136682 0.213847 0.0684151 0.140224 0.170628 0.102284 -0.00916232 0.126069 0.00145944 0.129536 0.167851 0.239409 -0.0915203 0.0617192 0.0838975 0.133529 0.072867 -0.0242118 -0.0413854 0.213698 -0.0469844 0.0177381 0.253634 0.24357 0.230342 -0.0884064 0.288367 -0.0846372 -0.11325 -0.112027 -0.124169 -0.136074 -0.127631 -0.140116
internal_weight=0 59865.6 59075.8 50141.4 27236.8 4236.81 22904.6 22491.7 8934.38 23514.3 22567.8 23000 7201.55 6342.09 17290.5 6188.07 3116.33 11102.4 3363.81 7738.61 1732.82 789.75 465.227 1267.6 5277.3 946.497 3071.74 5177.46 1644.74 176.438 412.97 3532.72 859.468 115.972 101.352 770.058 673.779 153.802 137.408 91.2049 56.071 164.437 150.764 85.7762 99.8456 38.9639 678.853 526.345 35.1339 60.8817 152.509 15.5753 509.341 469.408 16.3941 14.6203 39.9329 10.609
internal_count=268644 157867 151446 119441 70140 7456 49301 46917 32005 110777 108997 62684 28134 22747 91246 26833 10702 64413 17993 46420 3871 6421 1610 2261 17751 1780 16131 17120 4599 733 2384 12521 5387 359 281 1047 6062 710 590 271 204 770 731 193 631 226 776 593 67 405 183 88 5292 5046 120 78 246 52
is_linear=0
shrinkage=0.1


Tree=4
num_leaves=55
num_cat=0
split_feature=106 31 129 130 56 136 128 29 111 31 77 38 27 76 115 35 108 30 85 71 0 107 4 130 37 14 133 70 134 67 101 115 79 98 48 29 33 57 0 107 0 106 42 78 115 125 2 34 61 22 108 130 76 51
split_gain=6755.6 3117.42 2053.71 2101.54 1996.16 1806.06 1718.1 1590.53 861.185 838.475 763.985 669.559 636.763 462.006 425.902 320.073 313.272 347.943 287.372 195.346 301.062 188.476 186.46 179.763 170.58 206.504 169.852 174.53 155.107 134.966 126.808 116.288 115.736 103.433 103.051 93.1033 83.2564 62.3529 54.2403 51.5123 49.437 44.8865 39.9116 39.7135 26.1337 58.4531 24.4518 9.03685 8.6471 7.96756 0.137999 0.0951125 0.0488039 0.00917614
threshold=-0.86178493499755848 1.0052424073219302 1.0000000180025095e-35 1.0000000180025095e-35 1.0390849709510805 1.0000000180025095e-35 1.0000000180025095e-35 1.2166987061500552 -0.64017534255981434 0.99931523203849804 -1.3032471537590025 1.0074007511138918 0.99768593907356273 -1.0387544631958006 -0.98480522632598866 0.91586348414421093 -0.88851553201675404 1.068760931491852 -1.2662690877914426 -0.5614778697490691 0.5151914954185487 -0.89423540234565724 0.60435363650321972 1.0000000180025095e-35 0.95368102192878734 0.90261071920394909 1.0000000180025095e-35 -0.078565556555986391 1.0000000180025095e-35 0.067559536546468749 -0.77174878120422352 -0.96810093522071827 -0.96449944376945485 -0.81588312983512867 1.158710300922394 1.1782670021057131 0.87196090817451488 0.93999660015106212 0.15068923681974414 -0.90049880743026722 0.12850558757781985 -0.89577600359916676 0.99210068583488475 -0.8966100513935088 -0.89649075269699086 -1.2733894586563108 0.43735444545745855 0.90279278159141552 0.69818460941314708 1.2343276739120486 -0.82787629961967457 1.0000000180025095e-35 -0.45572750270366663 0.82246890664100658
decision_type=2 2 2 2 2 2 2 2 2 2 2 2 2 2 2 2 2 2 2 2 2 2 2 2 2 2 2 2 2 2 2 2 2 2 2 2 2 2 2 2 2 2 2 2 2 2 2 2 2 2 2 2 2 2
left_child=1 2 3 6 5 8 7 -1 9 11 44 -2 -4 18 -11 23 30 -18 19 39 -21 37 41 26 25 -20 27 -6 43 -24 -12 -8 33 34 -15 -23 -25 -5 -35 -3 48 -14 -42 51 45 -7 -26 -38 -34 -28 -46 -17 53 -10
right_child=4 13 12 21 15 10 31 -9 52 14 16 -13 22 32 -16 28 17 -19 24 20 -22 35 29 36 46 -27 49 -29 -30 -31 -32 -33 40 38 -36 -37 47 -39 -40 -41 42 -43 -44 -45 50 -47 -48 -49 -50 -51 -52 -53 -54 -55
leaf_value=0.15714603155743295 0.087169303666050135 0.35867667653180801 0.4722611801555866 -0.014260117693052432 0.25361229468936525 -0.091702633186797167 -0.056730734408029948 0.06679930141226105 -0.10940019446828469 -0.0018263531811343284 0.087941936902206808 0.010853783080782454 -0.1041001055072785 0.1057345818651837 0.050871204213938773 -0.12493701500062422 0.14289661139482587 0.012180062449173051 0.12280181631868059 0.064798453164397724 0.19904153579381548 0.066228475086970037 0.026258622324904758 0.26111712881981941 -0.11117514016867054 0.026917108401389896 -0.14005689605929217 0.17708343474344221 0.23316109840632118 0.47771447904056469 -0.070728375937120808 0.05519832206390049 -0.1415278648245156 0.16385092890722155 0.31204170275837706 -0.077525457427642566 -0.11919160511484546 -0.097577193494642625 -0.10690376763958431 0.0083479862184271305 0.057537099810259645 -0.041930011461589041 0.20490033818331399 0.2008009366039632 -0.12296741213333176 0.23805089660525802 -0.0331973358468921 0.037303516255701989 0.064064691660839723 0.017995421970912331 -0.1140885475145534 -0.11571613378018286 -0.12702795435431086 -0.11450641810437662
leaf_weight=54219.746332481503 9485.192767098546 4.2766601145267478 26.242534935474396 418.23484873771667 704.50696725398302 21.82093366980553 390.26003601402044 2021.216457746923 297.69062524288893 2302.0879875868559 1218.7747714444995 1308.2018237859011 186.2746440321207 627.13411957025528 4594.5992163270712 30.622282832860947 4635.5732071623206 212.98856997489929 248.40128888934851 396.68167577683926 288.60366819798946 470.57183403521776 267.77956470102072 8.6684153079986555 75.867469742894173 2345.1603506058455 12.443368047475817 516.46393093466759 19.691660493612289 6.7899802029132834 52.53922251611948 121.78837208449841 4.8459595292806608 9.5123535618185979 25.183852262794971 49.823328636586666 23.146196074783806 114.39064014703035 33.302542239427567 225.90025571733713 20.091284669935703 308.40860731899738 215.64761231839657 4.150186523795127 20.843078553676605 7.1327938586473456 85.568468272686005 4.3897039741277686 3.5403595864772797 4.2888250946998587 109.30252794921398 17.624930582940578 1.589738756418227 3.5614374354481688
leaf_count=112857 40976 14 30 2674 725 140 2522 7775 3793 14345 4244 7727 1108 2180 24917 200 11743 732 1129 1924 890 2357 1282 23 547 12758 61 806 28 8 352 513 25 42 83 372 183 997 216 1355 63 1675 276 16 141 11 545 29 15 15 1010 152 10 33
internal_value=0 0.141217 0.147446 0.149642 0.0803419 0.0737684 0.152239 0.153899 0.0576542 0.0605167 0.119945 0.0779196 -0.0121362 0.0620368 0.033281 0.198879 0.125569 0.137154 0.046022 0.0945623 0.121334 0.00966428 -0.028661 0.21048 0.0298925 0.0361006 0.216904 0.221241 -0.00611265 0.0374229 0.0813846 -0.0301089 0.124619 0.103817 0.113699 0.0524653 -0.00915938 -0.0321539 -0.0467491 0.0148571 0.183853 -0.0653404 0.192341 -0.096035 -0.0963942 -0.0104674 -0.0698433 -0.0942435 -0.0547351 -0.0995446 -0.115511 -0.121569 -0.109553 -0.109461
internal_weight=0 63211.2 58601.5 57806 25617.9 24271.9 56753 56241 17992.9 17690.1 6278.98 10793.4 795.495 4609.72 6896.69 1346 6119.88 4848.56 3670.46 915.462 685.285 1053.02 769.253 1273.91 2755 2593.56 1237.7 1220.97 72.0891 274.57 1271.31 512.048 939.258 695.133 652.318 520.395 36.2043 532.625 42.8149 230.177 244.125 494.683 235.739 52.3974 159.099 28.9537 161.436 27.5359 8.38632 16.7322 130.146 48.2472 302.842 301.252
internal_count=268644 156232 134170 130067 112412 110174 123667 120632 91801 87965 18373 48703 4103 22062 39262 2238 17071 12475 19162 4183 2814 6400 4073 1842 14979 13887 1607 1531 396 1290 4596 3035 2900 2521 2263 2729 235 3671 258 1369 379 2783 339 368 1302 151 1092 212 40 76 1151 352 3836 3826
is_linear=0
shrinkage=0.1


Tree=5
num_leaves=63
num_cat=0
split_feature=32 131 130 128 30 103 105 136 133 114 109 83 81 113 109 113 111 129 73 110 88 80 78 57 39 37 6 0 103 67 69 57 62 100 56 0 30 35 51 54 71 43 36 16 75 119 113 102 39 125 99 113 33 16 104 32 106 75 36 107 62 111
split_gain=5146.19 2413.22 2303.21 2092.47 1786.03 1771.04 682.463 649.788 787.869 460.08 421.29 503.584 437.185 424.979 363.131 342.721 302.304 283.14 268.747 258.107 312.379 256.693 227.007 226.318 335.855 306.603 300.807 240.782 224.882 224.718 210.087 305.031 282.821 160.221 153.764 149.247 129.423 123.382 119.779 108.688 104.428 99.5566 89.4452 94.8082 83.1241 108.322 77.3509 68.6397 126.03 63.7884 82.1243 95.0793 53.7882 53.7649 47.5477 26.815 18.0755 14.2853 10.9324 0.382521 0.014799 0.00208426
threshold=0.95342782139778148 1.0000000180025095e-35 1.0000000180025095e-35 1.0000000180025095e-35 1.0869331955909731 -0.84919402003288258 -0.94410040974616993 1.0000000180025095e-35 1.0000000180025095e-35 -0.96059328317642201 -0.89225298166275013 -1.3006016612052915 -1.2732424736022947 -0.96372687816619862 -0.9131939411163329 -0.86562359333038319 -0.94847416877746571 1.0000000180025095e-35 -0.85085105895996083 -0.90799808502197255 -1.2094706892967222 -1.1322690248489378 -1.4112062454223631 0.90154385566711437 0.96307805180549633 0.96020355820655834 0.6312595307826997 0.44392879307270056 -0.80962121486663807 0.11335820704698564 -0.07171971350908278 0.93028932809829723 0.6164340376853944 -0.91342782974243153 0.93588545918464672 0.46665623784065252 1.0938821434974673 0.94032081961631786 1.113812327384949 1.0632421970367434 -0.43575617671012873 0.80564191937446605 0.90659070014953624 0.97364994883537304 -1.1744133234024046 -0.86272364854812611 -1.0340262055397031 -0.8298855423927306 0.95153760910034191 -1.1563605070114134 -0.9622148573398589 -0.84887504577636708 0.92771217226982128 1.0811657905578616 -0.8469523787498473 0.95299404859542858 -0.83277708292007435 -1.0934980511665342 0.9525263011455537 -0.80368012189865101 0.41459335386753088 -0.64017534255981434
decision_type=2 2 2 2 2 2 2 2 2 2 2 2 2 2 2 2 2 2 2 2 2 2 2 2 2 2 2 2 2 2 2 2 2 2 2 2 2 2 2 2 2 2 2 2 2 2 2 2 2 2 2 2 2 2 2 2 2 2 2 2 2 2
left_child=1 2 3 4 5 -1 -6 8 10 38 12 13 16 -12 -14 36 -2 -13 -11 39 22 47 -21 24 29 30 27 -26 54 33 31 -25 -32 -9 -22 -31 44 -30 -5 40 -4 -38 53 -44 45 -3 -46 48 -10 50 51 -17 -41 -23 -27 -52 -28 -43 -49 60 -51 -61
right_child=7 15 19 9 6 -7 -8 23 21 18 11 17 14 -15 -16 49 -18 -19 -20 20 34 42 -24 25 26 28 56 -29 37 35 32 -33 -34 -35 -36 -37 41 -39 -40 52 -42 57 43 -45 46 -47 -48 58 -50 59 55 -53 -54 -55 -56 -57 -58 -59 -60 61 -62 -63
leaf_value=0.14967447559479932 -0.087648190570757123 -0.09365814433667119 0.0096067987755616181 -0.0048279989890371569 0.132103124733252 0.11558669535891629 0.047422573788323957 0.24687464410324558 -0.10117533437038173 0.0086661165889524109 -0.073807243091718364 0.23162087451656432 0.035080238842869219 0.061127358168510552 0.12433566174556283 -0.012776215568038938 0.0080990781027944127 0.0078802144646516244 0.1178456181584749 -0.11338826141686598 0.06019018121872325 -0.10362073412496636 0.053172685068348761 0.088312936193917987 0.016401566603436134 0.13654370844097558 -0.12290223650215326 0.22917563521340889 0.092709415710789264 0.10346984254359266 0.29264291773281442 0.17689287964983513 0.13052800999134906 0.030136035616954465 0.20390640292661044 0.24524133243670743 0.26896612220520744 -0.034087525797204692 -0.084056731709763119 -0.060986858587143457 0.11117445146333715 -0.10336178452946646 0.10185071814912219 0.18930494074650417 -0.0039117713310619319 0.36669013479910073 0.054528545871911499 -0.10780937344021557 0.14835677406594253 -0.12681088681954933 -0.083102769075045879 0.35219985515924634 0.077970196416403154 0.10125182148691945 -0.091417394499930624 0.16019555682785835 0.028440557536415181 -0.028464082874861303 0.083400118843568821 -0.11040573150091595 -0.12053953565202929 -0.10840048496128607
leaf_weight=31356.320498235524 397.6758233755827 68.612031929194927 1055.8246001899242 407.66288048028946 1299.5577892512083 29657.354079768062 3555.7928515449166 38.149508208036423 31.324131831526756 449.17770578712225 242.65822199732065 258.07272446155548 4318.208850607276 6124.8611730933189 509.6148698553443 18.746965795755386 1930.7228743433952 72.435456737875938 452.65733218938112 89.07813423871994 116.93107113242149 16.728310123085976 1005.0959420502186 1822.7301846593618 403.68031645566225 9.9227354526519758 150.50308326631784 61.254866376519203 493.36669357120991 157.028045758605 151.26396770775318 494.14257008582354 372.91362397372723 321.89151607453823 204.89931401610374 140.86977159976959 8.7154709398746473 90.878516979515553 358.72699584066868 280.17129596322775 111.96429669857025 85.045750796794891 157.93277734518051 576.28192227333784 254.04352374374866 5.5228847265243521 2087.8368856087327 40.09394732862711 57.202294066548347 4.5909586548805263 72.862163484096527 11.526117846369745 30.931922987103462 54.67987234890461 117.44894113391638 4.8303252607583991 8.3283492624759656 36.349915511906147 3.2311503067612639 5.3640386313199988 20.859387390315533 153.93036906421185
leaf_count=56497 2771 435 6186 2332 2941 64491 14430 53 202 2654 1597 976 22366 31120 2463 112 11717 394 1769 1047 553 81 4768 5628 1674 29 761 118 1589 459 156 938 914 1286 479 221 30 553 2239 2091 478 649 464 856 1107 10 9264 258 226 28 498 34 185 166 637 21 32 231 14 63 149 2154
internal_value=0 0.118271 0.121915 0.125659 0.12846 0.133105 0.0700877 0.0606133 0.050211 0.0150547 0.0442075 0.0622321 0.0273369 0.0559852 0.0445019 0.0278758 -0.00825395 0.182585 0.0634665 0.0345702 0.0650857 0.138933 0.0396127 0.0924412 0.0564188 0.105437 0.00384568 0.0444344 0.0467385 0.106261 0.12014 0.107205 0.17731 0.0531014 0.15169 0.170511 0.0396567 0.0729863 -0.0419129 0.00535243 0.0193448 -0.0574969 0.160102 0.170493 0.0448888 -0.0593632 0.048189 0.00958725 0.0600625 -0.0746 -0.0135346 0.126184 -0.0471708 0.0532577 -0.0736584 -0.0679763 -0.114967 -0.0809349 -0.0935491 -0.110287 -0.121671 -0.108468
internal_weight=0 73271 70432.1 67537.3 65869 61013.7 4855.35 19626.1 14791.7 1668.22 13854.2 6698.03 7156.22 6367.52 4827.82 2838.84 2328.4 330.508 901.835 2894.9 1416 937.474 1094.17 4834.37 1281.71 3552.67 623.767 464.935 711.617 657.939 2841.05 2316.87 524.178 360.041 321.83 297.898 2546.13 584.245 766.39 1478.89 1167.79 130.111 805.623 734.215 2416.02 74.1349 2341.88 131.852 88.5264 292.71 107.966 30.2731 311.103 71.4082 127.372 77.6925 158.831 121.396 43.3251 184.745 25.4503 159.294
internal_count=268644 177925 163140 147353 138359 120988 17371 90719 75671 8994 73404 34087 39317 32717 24829 14785 14488 1370 4423 15787 6847 2267 5815 15048 4604 10444 2585 1792 2808 2019 7636 6566 1070 1339 1032 680 11726 2142 4571 8940 6664 910 1567 1320 10816 445 10371 700 428 3059 665 146 2276 247 666 519 793 880 272 2394 177 2217
is_linear=0
shrinkage=0.1


Tree=6
num_leaves=57
num_cat=0
split_feature=106 31 36 30 73 48 125 105 136 119 131 133 31 134 5 108 52 76 29 59 79 103 30 104 107 30 70 117 108 66 69 91 70 126 101 56 33 37 68 133 113 39 101 67 23 46 115 65 88 55 113 108 110 136 0 37
split_gain=4100.04 2005.73 1720.47 1681.02 1629 1472.85 1043.64 1027.64 1026.13 959.411 941.003 858.82 608.847 816.766 567.995 417.535 371.607 369.368 368.428 356.56 280.98 208.366 263.252 241.682 202.812 229.101 145.877 123.197 138.183 116.819 84.5079 84.3553 78.1081 76.914 141.1 84.474 76.2255 69.9116 54.3834 45.5346 73.4422 40.5077 38.3775 33.574 21.1708 13.1936 38.904 84.3557 10.5143 4.87502 3.13786 4.26047 0.877671 0.433338 0.049611 0.0398603
threshold=-0.86104899644851673 1.0052424073219302 0.92912432551383983 1.0755470991134646 -0.8398834466934203 1.2340738177299502 -0.40416540205478663 -0.94410040974616993 1.0000000180025095e-35 -1.6426448225975034 1.0000000180025095e-35 1.0000000180025095e-35 0.99257490038871776 1.0000000180025095e-35 0.767124503850937 -1.0660091042518614 1.1128730773925783 -0.391641154885292 1.2071737051010134 0.827801674604416 -1.0434634089469907 -0.83595553040504444 1.0703262686729433 -0.85734367370605458 -0.87905547022819508 1.0690577626228335 -0.31267729401588434 -1.5184657573699949 -1.012776732444763 0.29440908133983618 -0.064636968076229082 -1.2091349959373472 -0.091604523360729204 -1.6991361975669859 -0.82412052154541005 0.98216307163238536 0.91392225027084362 0.95908531546592724 -0.20224470645189283 1.0000000180025095e-35 -1.1080525517463682 0.84781217575073253 -0.76613277196884144 0.15744968503713611 1.7204087376594546 1.235337555408478 -1.4349196553230283 0.55214580893516552 -0.87017348408699025 1.080666780471802 -1.3461246490478513 -1.0223789811134336 -1.1489624381065366 1.0000000180025095e-35 0.50135502219200145 0.93631696701049816
decision_type=2 2 2 2 2 2 2 2 2 2 2 2 2 2 2 2 2 2 2 2 2 2 2 2 2 2 2 2 2 2 2 2 2 2 2 2 2 2 2 2 2 2 2 2 2 2 2 2 2 2 2 2 2 2 2 2
left_child=1 2 3 4 10 6 8 18 12 -6 -1 15 13 -2 -9 17 -14 -4 -5 -17 21 22 26 -24 30 -26 -3 45 32 42 -10 48 -29 34 -23 -35 -33 -31 54 40 -40 44 -13 -41 53 46 49 -48 -30 -7 51 -47 -52 -8 -22 -34
right_child=5 20 11 7 9 27 41 14 24 -11 -12 29 16 -15 -16 19 -18 -19 -20 -21 38 33 23 -25 25 -27 -28 28 31 37 -32 36 55 35 -36 -37 -38 -39 39 43 -42 -43 -44 -45 -46 50 47 -49 -50 -51 52 -53 -54 -55 -56 -57
leaf_value=0.16478870685108862 0.053941247718870738 0.046654090434338866 -0.10097882894442159 0.16419710406404386 0.16386984690614514 0.22460033227765336 -0.10835623743587185 0.075790043384762834 -0.041684027899867776 0.1076546648964099 0.041523036338411728 0.18690961627369951 0.037214442496392698 0.14985629668748526 -0.0075653164283748372 -0.016034641988220643 -0.025843011424279777 0.2219421482567599 0.071051335205150307 0.06188965326856094 -0.12547941310103447 0.058155878894597092 0.037834742389694476 -0.064611531281586129 0.098018336129618355 -0.014871491783100774 0.12300274018951179 0.12698145818363724 -0.1291474202117581 -0.086807239739921438 0.067711286386649736 0.16677227109944026 -0.15323276846535769 -0.092405154193162184 -0.050524900798456576 0.2833308524590365 -0.052371183412416769 0.1072578055647381 -0.0053491142410139218 0.12893811111952183 0.17666988886022333 0.21052830594191546 0.10274657437679287 -0.03226579966861897 0.22580317138245737 0.21361932647980311 0.21243091385119017 -0.15955949161161559 0.073324257629328649 0.17756736995578368 0.21972908460667392 0.17256082789212265 0.23293161585030853 -0.11557865218108028 -0.1408060629707093 -0.16339200817018762
leaf_weight=10011.8046650365 5240.5898166671395 460.74935026466846 382.75492014735937 1781.556911572814 3340.1015538424253 62.476514831185341 276.93531588464975 9648.0058361887932 154.42371490597725 33342.278999015689 660.14320260286331 360.83712607622147 11442.482042066753 1068.9026403427124 893.1587692424655 878.85003660619259 1017.6867517456412 39.033832214772701 557.53903844207525 1769.4692599326372 3.3587586283683759 233.69894757866859 2507.2394686341286 253.56680838018656 6058.9876816272736 185.2672368735075 547.7864583209157 16.062112048268318 11.319755256175993 19.654426291584969 130.11498107761145 518.56605690717697 4.93494784832001 152.76385020464659 244.37831698358059 6.2274513244628897 16.373596020042896 334.37180949747562 70.956089206039906 478.22404360771179 32.239013276994228 4.0092520862817755 63.751533463597298 13.278423130512236 1.880509316921233 143.06269390881062 15.891553997993471 9.8899109214544279 3.3161692619323722 34.048158228397369 145.40219180285931 30.695146307349205 77.025735452771187 118.67192938178778 5.6893483400344849 17.76419834792614
leaf_count=14595 21377 2184 1565 2408 4591 39 4041 26325 679 67572 2511 410 57620 1781 3806 3838 6092 64 1629 5496 22 1128 11736 1509 15033 635 2223 26 71 76 496 773 22 988 1528 4 93 743 306 815 79 12 125 61 4 87 13 43 13 33 97 31 48 1045 28 75
internal_value=0 0.105159 0.109923 0.114065 0.122777 0.0590842 0.0542198 0.082033 0.0567585 0.112773 0.157164 0.045102 0.0448805 0.0701904 0.0687273 0.0213129 0.0320642 -0.0710946 0.141995 0.0360303 0.0442244 0.0354585 0.0443983 0.0284255 0.0909065 0.0946689 0.0881229 0.172033 0.140714 0.138903 0.00834069 0.153584 -0.041772 -0.0174361 0.00260162 -0.0776881 0.160065 0.0964839 0.108202 0.111904 0.0515151 -0.105742 0.174273 0.124583 -0.108932 0.207572 0.178862 0.0697334 -0.0832719 0.20801 0.216435 0.206366 0.224301 -0.110523 -0.135117 -0.161183
internal_weight=0 69093.5 64083.3 60234.6 47354.3 26806.8 25700 12880.3 25298.5 36682.4 10671.9 3848.72 18769.7 6309.49 10541.2 3070.11 12460.2 421.789 2339.1 2648.32 5010.16 4406.41 3769.34 2760.81 6528.79 6244.25 1008.54 1106.83 588.337 778.615 284.539 549.576 38.7613 637.069 478.077 158.991 534.94 354.026 603.746 594.698 103.195 401.497 424.589 491.502 397.488 518.492 122.306 25.7815 14.6359 96.5247 396.186 173.758 222.428 395.607 9.04811 22.6991
internal_count=268644 158365 135754 123437 89269 110279 108815 34168 103713 72163 17106 12317 86870 23158 30131 10963 63712 1629 4037 9334 22611 21300 17652 13245 16843 15668 4407 1464 1073 1354 1175 950 123 3648 2656 992 866 819 1311 1261 385 5102 535 876 5090 391 128 56 84 72 263 118 145 5086 50 97
is_linear=0
shrinkage=0.1


Tree=7
num_leaves=57
num_cat=0
split_feature=106 129 130 30 103 104 48 32 105 134 136 84 118 134 73 111 135 30 22 103 30 5 14 37 24 115 122 113 117 108 31 35 2 67 41 36 73 110 55 98 43 31 50 91 86 107 77 66 70 121 42 47 34 118 106 107
split_gain=3252.06 1781.39 1647.33 1388.82 2061.15 1214.76 1183.84 912.291 881.609 846.318 692.036 821.375 670.761 595.718 508.324 485.982 421.426 364.579 321.94 246.177 298.592 297.347 233.731 198.962 190.384 142.268 267.883 133.742 115.948 123.041 115.935 106.391 99.8959 96.4901 87.7677 69.7645 69.2173 67.4759 131.412 56.08 110.118 61.5077 44.4713 39.4238 26.8012 21.9058 51.5786 12.8168 9.91954 49.0401 41.9087 12.9772 7.16589 1.97215 1.40176 1.10772
threshold=-0.8638014793395995 1.0000000180025095e-35 1.0000000180025095e-35 1.0727757811546328 -0.85412824153900135 -0.75495338439941395 1.2340738177299502 0.82239639759063732 -0.94410040974616993 1.0000000180025095e-35 1.0000000180025095e-35 -1.1212154030799864 -1.6015497446060178 1.0000000180025095e-35 -0.74126991629600514 -0.92156448960304249 1.0000000180025095e-35 0.92606517672538768 1.4278032779693606 -0.83959713578224171 1.068760931491852 0.61713716387748729 0.9856153428554536 0.93844482302665722 1.377338230609894 -1.0368527173995969 -1.2558536529541013 -0.93319559097290028 -1.5184657573699949 -1.0076015591621397 1.0083557367324831 0.85918581485748302 0.51477137207984935 0.32565020024776464 0.98462310433387767 0.93660715222358715 -0.37044638395309443 -1.1776808500289915 1.0552108287811282 -0.94702470302581776 1.0286100506782534 1.0083557367324831 1.2242205142974856 -1.1168812513351438 -0.85662609338760365 -0.94083175063133229 -1.0288586020469663 0.457982748746872 -0.069554772228002534 -1.8663261532783506 1.1481789946556094 1.2401987314224245 0.92595168948173534 -1.6112858057022093 -0.86142870783805836 -0.93417876958847035
decision_type=2 2 2 2 2 2 2 2 2 2 2 2 2 2 2 2 2 2 2 2 2 2 2 2 2 2 2 2 2 2 2 2 2 2 2 2 2 2 2 2 2 2 2 2 2 2 2 2 2 2 2 2 2 2 2 2
left_child=1 2 3 4 13 -6 7 12 16 -10 11 15 37 -1 -13 -9 -5 43 23 20 -12 -21 39 -14 31 45 30 -20 48 33 -27 -24 -28 -30 -26 36 -31 38 -2 40 -4 -41 -35 -3 -37 47 -47 -19 54 51 -51 -50 -45 -39 -8 -56
right_child=6 17 22 8 5 -7 28 10 9 -11 19 14 18 -15 -16 -17 -18 25 27 21 -22 -23 24 -25 34 26 32 -29 29 35 -32 -33 -34 42 -36 44 -38 53 -40 41 -42 -43 -44 52 -46 46 -48 -49 49 50 -52 -53 -54 -55 55 -57
leaf_value=0.12566261763754732 -0.16260037733971144 0.040705700505155644 -0.12571878213070958 0.13190295136005256 0.080354249157978286 0.136406350823812 0.22311732066714499 0.020549755581742452 0.056757801865670789 0.15154999841352218 0.11756654312514672 0.18396491044483643 -0.093775294172054643 0.18392406454690871 0.057644900387320799 0.052882297582193163 -0.071397055695855416 -0.1239570983140897 0.11027280448446869 0.073312440012344368 0.011774417075685105 -0.022770628073293924 0.17735828477831803 0.051361375500689949 -0.0027805888529495344 0.043444377857574476 -0.10908307208779387 -0.11667478734223916 0.17570358536069983 0.16126359586866046 0.32592312706607018 0.030271839839678145 -0.012816471604665064 -0.14076830689266526 0.41516378329687148 -0.034816572037684394 0.024713382365277321 0.26470370880366534 0.22490678806093017 -0.033507853297260123 0.41459803475619533 -0.10135388165650082 0.074267828780096856 0.20049036083627075 0.10662135917649783 -0.089454816377840293 0.038231399667136672 0.071245745871273344 0.12845535656896462 -0.11290513513203702 0.15094826612092338 0.19564908394167607 0.27810443645898819 0.23300506341743132 0.19024017233016294 0.20283755693181249
leaf_weight=17510.023406252265 13.698140040040014 11.361277803778647 7.4835609048604947 2733.4682192727923 24101.978653296828 4605.1311880499125 20.373778119683266 8349.8293352276087 13477.639218747616 1012.6302394792438 2228.956497579813 644.25591706484556 880.57918098568916 1950.5002170652151 630.15423513203859 10488.077616915107 105.91465421766043 146.27583808451891 143.00311216711998 4475.7552695423365 303.0661842674017 347.05973941087723 118.29665521532297 105.80137898772955 499.49361097067595 27.900901943445206 137.36084988713264 31.72782626003027 20.971509620547295 454.35320197045803 30.31616199016571 84.164361111819744 500.79657025635242 34.80223473906517 5.0756115466356269 29.088312223553658 40.424703508615494 35.254010438919067 24.233218669891357 625.97453451156616 7.6051050275564194 169.88765597343445 13.289991319179533 19.764501720666885 24.836682789027691 225.21844305098057 36.80610404163599 3.4427768886089316 33.855208486318588 10.629632666707039 13.88056692481041 190.32368417084217 29.878893613815308 44.278686016798019 153.86936435103416 127.76024685800076
leaf_count=28079 58 39 47 4311 54402 6505 13 40767 39293 1409 4126 840 6926 1912 1906 46200 481 853 445 12073 919 1263 415 353 2809 127 787 302 21 593 80 444 2330 145 11 176 96 22 20 3879 15 1156 25 38 60 1243 163 15 46 38 15 123 20 34 100 76
internal_value=0 0.0931217 0.0952566 0.0976434 0.106378 0.089346 0.0535732 0.0495624 0.0733665 0.0633822 0.053406 0.0438073 -0.0330079 0.131502 0.121504 0.038551 0.124319 -0.0292537 -0.0560454 0.0796544 0.104904 0.0663981 -0.00773038 -0.0782076 0.0342942 -0.0423562 -0.0148043 0.0690634 0.152244 0.122502 0.190543 0.116213 -0.0335375 -0.00329063 0.00142364 0.138335 0.150107 0.194714 0.0849664 -0.0443696 0.146616 -0.0479905 -0.0813444 0.208747 0.0303267 -0.0889544 -0.071519 -0.119468 0.185608 0.170818 0.0365198 0.185502 0.247204 0.247056 0.197787 0.195955
internal_weight=0 68184.4 67015.3 65497.3 48167.6 28707.1 29914.2 28745.7 17329.7 14490.3 27467.2 20112.3 1278.58 19460.5 1274.41 18837.9 2839.38 1169.12 1161.11 7354.84 2532.02 4822.82 1517.98 986.381 707.03 1108.12 696.374 174.731 1168.46 617.767 58.2171 202.461 638.157 69.0637 504.569 548.703 494.778 117.464 37.9314 810.951 15.0887 795.862 48.0922 61.0047 53.925 411.743 262.025 149.719 550.692 248.689 24.5102 224.179 49.6434 79.5327 302.003 281.63
internal_count=268644 150863 145168 136392 90898 60907 117781 116254 45494 40702 108094 89713 8160 29991 2746 86967 4792 5695 8026 18381 5045 13336 8776 7279 3679 5598 3324 747 1527 1116 207 859 3117 191 2820 925 689 134 78 5097 62 5035 170 97 236 2274 1406 868 411 222 53 169 58 56 189 176
is_linear=0
shrinkage=0.1


Tree=8
num_leaves=62
num_cat=0
split_feature=32 51 131 130 129 128 107 71 103 37 72 70 102 38 71 70 31 94 28 103 31 68 113 71 6 14 36 114 124 98 101 124 68 73 97 100 124 30 74 103 56 96 135 30 89 69 30 127 113 112 95 69 51 2 101 106 30 106 30 27 31
split_gain=2745.08 1512.09 1235.41 1213.55 1229.97 1257.76 514.735 493.714 770.759 617.993 656.672 588.352 532.945 424.832 618.528 401.588 386.267 299.801 280.332 276.029 264.663 243.908 224.802 201.85 194.68 184.597 180.657 161.143 156.88 206.407 155.88 152.799 135.87 128.152 163.804 161.861 155.66 121.07 89.3984 89.0722 85.9806 83.839 76.814 72.8262 66.8483 63.6989 51.9458 47.4385 40.3668 41.0299 37.4012 37.0986 25.9396 23.8334 9.83435 3.38831 0.294898 0.183776 0.164845 0.0204789 0.000428974
threshold=0.95342782139778148 0.79380965232849132 1.0000000180025095e-35 1.0000000180025095e-35 1.0000000180025095e-35 1.0000000180025095e-35 -0.83684086799621571 -0.45198996365070337 -0.81866753101348866 0.95368102192878734 -0.59391570091247547 -0.22790960222482678 -0.80531352758407582 1.0074007511138918 -0.37434515357017512 -0.25846584141254419 1.0032984614372256 -1.0910500884056089 1.0896758437156679 -0.8336006999015807 1.0029677748680117 -0.011387193109840153 -0.97349295020103443 -0.47990880906581873 0.63731649518013012 0.86346182227134716 0.92776557803154003 -1.0407906770706175 -1.3643080592155454 -0.86186498403549183 -0.84777486324310292 -1.1748881936073301 0.015705767087638382 -0.88318291306495655 -0.97192800045013417 -0.92027103900909413 -1.1917286515235899 1.0808603763580324 -0.99187594652175892 -0.82233503460884083 0.9554927945137025 -0.99907302856445301 1.0000000180025095e-35 1.0577360987663271 -0.96301981806755055 -0.060052033513784402 1.0670170187950136 -1.5715557932853697 -0.91231411695480336 -0.90705987811088551 -1.0225003957748411 -0.03674959018826484 1.0874205827713015 0.7449711561203004 -0.91813817620277394 -0.86216169595718373 1.0731447339057925 -0.76006352901458729 1.0852711200714114 1.5138640403747561 0.99931523203849804
decision_type=2 2 2 2 2 2 2 2 2 2 2 2 2 2 2 2 2 2 2 2 2 2 2 2 2 2 2 2 2 2 2 2 2 2 2 2 2 2 2 2 2 2 2 2 2 2 2 2 2 2 2 2 2 2 2 2 2 2 2 2 2
left_child=1 22 3 4 5 -3 -6 8 16 11 28 12 20 14 -12 -14 21 31 -15 23 -9 43 42 -18 -21 45 -23 -19 29 -11 32 -5 60 35 36 37 -35 -4 -36 -27 46 -42 44 -2 53 -13 -32 -34 49 50 -24 -30 -37 -1 -46 58 59 -57 -50 -44 -10
right_child=7 2 33 17 6 -7 -8 9 30 10 13 25 15 18 -16 -17 19 27 -20 24 -22 26 48 -25 -26 39 -28 -29 51 -31 40 -33 47 34 38 52 -38 -39 -40 -41 41 -43 56 -45 54 -47 -48 -49 55 -51 -52 -53 -54 -55 -56 57 -58 -59 -60 -61 -62
leaf_value=0.20831917549128176 -0.094456189102820678 0.091087040021863575 0.029214955020779837 0.20379757425829356 -0.023456909898723247 0.0049135423725270144 0.093407318172846532 0.10110274423821902 -0.12601010224659437 0.041967346698837366 0.033616922402326437 -0.11751770453082289 -0.060515078998833842 0.063872256046293457 0.10629196831499406 0.049409875836477435 0.013052785573529414 -0.038328510519828274 -0.029369737945639737 0.0031555641843197414 0.05465742146076466 0.12941615656620839 0.088821354626822557 0.066129400734234747 -0.089501413316385892 -0.056321124585954375 -0.09148584277241717 0.023312269259059409 -0.095924172555633513 -0.055444944950926368 -0.099964830165092666 0.061330829515610322 0.40382730897748487 0.14908633013502418 -0.019756459794543789 -0.1132835843240164 -0.072891829805498437 -0.038047833557689217 0.03967153699386488 0.19308392106001243 0.17741342159080417 -0.044414367563407928 -0.16413428747966191 0.040317333590513836 -0.14056946589672517 0.082019218561170226 0.081329071985363502 0.14517908991542666 -0.140695392143077 0.21382142101911952 -0.076767665887318898 0.21153278681637661 0.039402980305465962 0.083022885903082669 0.038439320866895277 -0.11198141660774752 -0.12858807046510423 -0.10693318988313567 -0.1248601027304914 -0.15593233171301649 -0.12485938092833281
leaf_weight=18.299260914325714 70.989685595035553 68144.489046618342 838.8990972340107 117.89229175448418 1406.8927894979715 1736.9225861877203 514.80806638300419 2468.5356027036905 4.421796157956126 380.7133070230484 3831.9270639419556 23.990532122552395 529.34610988199711 450.28304129838943 1686.5012086927891 893.01206616312265 1784.8282607570291 526.236104644835 1135.6890430748463 755.54768407344818 2439.2484149113297 671.96890109777451 14.816926941275595 1197.0696166455746 324.00073266029358 14.728246808052061 39.180143103003502 2185.2395921647549 349.34968967735767 507.44379721581936 605.12145585566759 208.29073157906532 10.313553690910338 200.024812027812 346.672492608428 141.09158444404602 37.515302531421185 392.94533894956112 938.14278159290552 516.13193902373314 17.989903256297112 321.93964356929064 8.3316575735807437 92.124434173107147 14.396913990378382 48.026510253548622 16.228479072451591 22.695003822445869 36.741183362901211 5.4872216284275046 171.76401621848345 3.9691244661808005 12.079157203435896 89.099152967333794 3.9004656076431266 105.99145994335413 3.5323936492204657 225.60572111606598 8.0064761489629728 4.7968278974294654 12.117117851972578
leaf_count=22 386 127525 3412 324 6656 8187 1730 7389 27 1898 16716 117 2891 1996 5739 3891 8753 3354 6809 3838 9091 2041 47 4392 1966 59 232 10375 2113 2904 3798 783 18 677 1604 847 211 2156 3610 1032 64 1800 35 367 73 143 74 89 189 7 721 10 53 171 15 1181 22 3866 51 21 76
internal_value=0 0.0803438 0.0816711 0.0841556 0.0867748 0.0889452 0.00785007 0.0398077 0.0153608 0.0493224 0.030992 0.0713882 0.0623981 0.0427179 0.0558273 0.0085001 0.0316534 0.0222454 -0.00289683 0.0186742 0.0780187 0.0919494 -0.0648502 0.0343602 -0.0246532 0.165783 0.117246 0.0113492 -0.0361096 -0.0136886 -0.0641935 0.112823 0.108777 0.0177154 0.0377408 -0.00429578 0.114029 0.00775884 0.0236365 0.186164 -0.0731089 -0.0326747 0.0475271 -0.0183381 0.0742707 0.0155489 -0.0952298 0.225994 -0.0929947 -0.0556916 -0.0636178 -0.0924703 -0.101243 0.104372 -0.10241 -0.112032 -0.154236 -0.108547 -0.137862 -0.161137 -0.125167
internal_weight=0 78458.9 77748.1 74840.8 71803.1 69881.4 1921.7 21225.4 5946.54 15278.9 8345.88 6933.02 6330.14 7104.4 5518.43 1422.36 4935.71 3037.66 1585.97 4061.45 4907.78 874.263 710.77 2981.9 1079.55 602.877 711.149 2711.48 1241.48 888.157 1010.83 326.183 49.5475 2907.37 1522.36 1385.02 237.54 1231.84 1284.82 530.86 961.279 339.93 142.357 163.114 125.696 72.017 621.35 33.0086 568.413 192.068 186.581 353.319 153.171 107.398 18.2974 376.345 16.6609 331.597 44.7477 13.1285 16.5389
internal_count=268644 177925 171504 158934 144098 135712 8386 90719 27921 62798 38185 24613 23262 31260 22455 6782 21975 14836 8805 18949 16480 3026 6421 13145 5804 1351 2273 13729 6925 4802 5946 1107 210 12570 6102 6468 888 5568 5214 1091 5736 1864 359 753 281 260 3872 107 6062 775 768 2123 900 193 88 5287 78 5047 240 56 103
is_linear=0
shrinkage=0.1


Tree=9
num_leaves=62
num_cat=0
split_feature=32 51 30 36 134 32 97 116 104 111 31 102 66 5 102 73 0 101 29 1 30 135 38 73 113 103 35 71 71 53 83 133 101 105 69 135 94 88 30 114 32 75 47 111 92 118 93 31 73 37 127 101 53 31 106 32 29 32 105 30 89
split_gain=2284.05 1242.95 1259.66 1129.67 941.999 1501.32 738.575 616.932 413.602 398.772 360.079 629.399 814.494 684.481 474.834 420.273 361.277 288.131 266.471 250.198 223.394 219.576 211.65 197.296 196.818 193.152 255.315 235.294 181.631 127.604 126.553 123.58 96.382 91.2169 79.6205 63.6943 61.5878 53.9968 45.3205 43.0187 35.2779 32.8443 31.4972 30.1212 35.5874 23.2511 58.0867 22.1208 21.7108 19.3496 11.1729 9.50208 8.77538 22.3223 2.31447 0.831868 0.186712 0.135621 0.130585 0.117108 0.00585751
threshold=0.94876185059547435 0.79380965232849132 1.0914642810821535 0.92867359519004833 1.0000000180025095e-35 0.89696285128593456 -0.96700081229209889 -1.2148393988609312 -0.94683244824409474 -1.2511469125747678 1.0060909390449526 -0.81414732336997975 0.23737747222185138 0.63680386543273937 -0.84321975708007801 -0.80032283067703236 0.53060588240623485 -0.8416532278060912 0.95041677355766307 0.60306891798973095 1.098008453845978 1.0000000180025095e-35 1.0334405899047854 -0.90197280049324025 -0.97349295020103443 -0.83471912145614613 0.90759608149528515 -0.45279955863952631 -0.56989857554435719 1.0806411504745486 -1.2993873953819273 1.0000000180025095e-35 -0.9265114665031432 -0.91053482890129078 -0.064636968076229082 1.0000000180025095e-35 -0.73255661129951466 -0.95823082327842701 1.0358159542083742 -0.91483083367347706 0.95005908608436596 -0.90289035439491261 1.1405755281448366 -0.89812335371971119 -1.0592397451400755 -1.3020102977752683 -0.81676703691482533 0.97372233867645275 -0.86802285909652699 0.99989378452301036 -2.278209805488586 -0.91813817620277394 1.0542276501655581 1.0027502179145815 -0.86216169595718373 0.95122727751731884 1.2413784861564638 0.96679332852363598 -0.78680041432380665 1.0852711200714114 -1.0156963467597959
decision_type=2 2 2 2 2 2 2 2 2 2 2 2 2 2 2 2 2 2 2 2 2 2 2 2 2 2 2 2 2 2 2 2 2 2 2 2 2 2 2 2 2 2 2 2 2 2 2 2 2 2 2 2 2 2 2 2 2 2 2 2 2
left_child=1 24 3 4 5 -3 -6 31 21 22 11 13 29 17 -15 -14 25 -9 -11 28 -21 32 -5 40 35 27 -27 -12 -10 -13 -25 33 -4 52 45 37 41 48 49 43 -18 -35 -38 44 -26 50 -47 -23 -1 -36 -33 -39 55 -54 59 -2 60 -40 -56 -41 -37
right_child=7 2 8 9 6 -7 -8 10 19 18 16 12 15 14 -16 -17 23 -19 -20 20 -22 47 -24 30 39 26 -28 -29 -30 -31 -32 34 -34 36 38 56 42 51 57 54 -42 -43 -44 -45 -46 46 -48 -49 -50 -51 -52 -53 53 -55 58 -57 -58 -59 -60 -61 -62
leaf_value=0.06943772693708733 -0.17051960099659585 0.09329498240401693 0.1169844214608016 -0.13337972384047056 0.1670584981437343 0.06071327221209654 0.095552055592434876 0.093571356683348469 -0.058933287308941998 0.12428274531843345 0.010477815063177933 -0.081735086672867024 -0.034127182854212838 0.043019168748223424 -0.079546764022831853 0.039496628931967828 0.096592207333483227 0.05627996884640582 0.017729789058470582 0.05228482362364243 -0.023183664055750494 0.0074415378578597605 0.14709415734575057 0.20201775275538436 -0.004527752855275533 -0.077507728275612003 0.0059252584827576863 0.087451453803228663 0.036648708929925881 0.074812286798927957 -0.017757796815794112 0.14328551243460649 -0.027004927132102143 0.21374661787818297 0.037249690865918055 -0.15466032730680151 0.12973124468171113 -0.13662142124388493 -0.1642057941152292 -0.13508524270569444 -0.078983960970642794 0.08074150251985357 -0.11186194667561065 0.12169094637503459 -0.096260085590380198 0.1413007343220222 0.032033074679334562 -0.13414260511480278 0.1792324303756036 0.13376232952833123 0.17519292002036424 0.042718571610567864 -0.13799487545754235 0.13221312863294041 -0.11036616195318419 -0.12956560736102066 -0.12810990845146925 -0.14078372880910234 -0.10606382317569051 -0.12171470978167326 -0.15005097811167725
leaf_weight=86.386058479547501 7.8735032379627254 26243.637022033334 551.15227948874235 232.45696532726288 1883.9104644954205 30670.755468703806 6192.2800962328911 3565.6509402319789 878.32373134046793 260.34935332089663 2755.3880046382546 732.87853142619133 833.99148800969124 799.58883980661631 522.71920308470726 11025.912816643715 15.344380013644694 4945.8483688384295 2382.5785144045949 1031.4877844452858 632.88870540261269 14.775039404630659 30.426738522946835 182.43727834522724 69.299029640853405 532.07010892033577 1180.6256826296449 463.99831202626228 256.97701090574265 56.050216265022755 30.594653137028217 312.24651652574539 50.769574567675591 22.247993767261505 62.548464819788933 7.3124419748783103 7.0416631698608425 13.574319973587992 5.6921720355749112 34.55374675989151 45.019120171666145 112.19070252031088 23.096105292439461 9.5613536834716779 108.51526661962271 238.61620573699474 61.111022680997849 43.593444108963013 22.753765314817429 31.102855980396271 169.22041533887386 3.7762434035539618 8.531407490372656 4.7648954465985289 112.24416761100292 13.402334399521349 4.0892128199338904 4.3701535165309906 189.91176268458366 8.0830973386764509 4.425513580441474
leaf_count=171 33 45989 975 962 1762 70450 10386 9818 4236 431 12795 3791 4536 2939 2742 45458 69 16100 7334 3404 3073 65 57 392 272 3211 6152 1518 906 157 154 307 138 15 153 32 15 73 24 190 274 344 125 19 479 242 127 233 23 48 109 14 53 12 1423 87 26 22 3623 56 20
internal_value=0 0.0732682 0.0745453 0.0775446 0.0802721 0.0757369 0.112232 0.0399375 0.0156884 0.0165427 0.0370401 0.0425274 0.0277746 0.0615033 -0.00543215 0.0343194 0.0133403 0.0719021 0.0282261 -0.00110232 0.0235875 0.0868821 -0.100917 0.125235 -0.061845 0.0071377 -0.0199942 0.0215717 -0.0372982 -0.070613 0.170455 0.113941 0.10484 0.0427693 0.129958 0.042613 0.0737884 0.0662773 0.0476347 -0.0897802 -0.0343526 0.102752 -0.0554139 -0.0512122 -0.0605095 0.140888 0.119022 -0.0983029 0.092328 0.0693028 0.1545 -0.0975892 -0.104893 -0.0411625 -0.11074 -0.144721 -0.146512 -0.154033 -0.107662 -0.13255 -0.152922
internal_weight=0 72030.8 71356.4 67896.4 64990.6 56914.4 8076.19 28772.2 3459.97 2905.81 27688.1 22482.6 12648.8 9833.81 1322.31 11859.9 5205.48 8511.5 2642.93 2799.68 1664.38 660.29 262.884 273.395 674.486 4932.08 1712.7 3219.39 1135.3 788.929 213.032 1084.06 601.922 199.149 884.908 142.318 164.576 126.49 103.714 532.168 60.3635 134.439 30.1378 187.376 177.814 781.194 299.727 58.3685 109.14 93.6513 481.467 17.3506 34.5721 13.2963 344.793 21.2758 15.8272 10.0623 302.156 42.6368 11.738
internal_count=268644 156822 150401 137371 128587 116439 12148 111822 13030 8784 110106 85541 53942 31599 5681 49994 24565 25918 7765 11619 6477 1411 1019 889 6421 23676 9363 14313 5142 3948 546 1716 1113 684 1032 359 499 281 247 6062 343 359 140 770 751 785 369 298 194 201 416 87 185 65 5292 120 78 46 5046 246 52
is_linear=0
shrinkage=0.1


Tree=10
num_leaves=60
num_cat=0
split_feature=106 31 36 30 102 42 56 105 134 133 53 33 136 31 69 133 108 56 62 21 47 128 76 85 76 107 83 93 116 69 46 118 33 116 31 74 68 104 70 55 63 30 116 72 19 57 121 45 23 103 134 135 31 3 35 110 105 29 1
split_gain=1994.21 1247.36 1120.59 1099.42 1185.37 1056.63 841.39 718.474 668.504 632.202 626.544 563.223 409.562 452.743 445.935 406.919 287.945 281.415 265.778 228.928 349.967 225.055 202.207 146.814 143.415 165.75 138.259 120.276 114.051 104.523 324.63 124.887 102.966 99.9465 97.4368 177.096 92.038 86.3918 147.753 112.033 78.9964 74.1139 60.115 59.5955 59.5363 75.1441 69.992 36.823 36.4261 32.9251 22.6173 77.0433 4.41114 0.465321 0.13893 0.12012 0.116582 0.047858 0.00880473
threshold=-0.85877668857574452 1.0060909390449526 0.92912432551383983 1.0724061727523806 -0.85227555036544789 1.0084490180015566 1.0390849709510805 -0.93958052992820729 1.0000000180025095e-35 1.0000000180025095e-35 1.0406286716461184 0.81619000434875499 1.0000000180025095e-35 0.99137923121452343 -0.12974267452955243 1.0000000180025095e-35 -1.0660091042518614 0.98086374998092662 0.75785204768180858 1.3633086085319521 1.2295313477516177 1.0000000180025095e-35 -1.0387544631958006 -1.1046586036682127 -1.2296873927116392 -0.85925826430320729 -1.3128100037574766 -1.1378187537193296 -1.5072191953659055 -0.038817957043647759 1.2310236096382143 -1.5945796370506284 0.83432960510253917 -1.4857525229454038 1.0121387839317324 -1.0396738052368162 0.05607100576162339 -0.8469523787498473 -0.36208032071590418 0.9829089641571046 0.49768508970737463 1.0575156807899477 -0.95238864421844471 -0.52065366506576527 1.1503391861915591 0.93437743186950695 -1.4048455357551572 1.1455275416374209 1.3032029867172243 -0.81355512142181385 1.0000000180025095e-35 1.0000000180025095e-35 0.9638352394104005 0.71395713090896618 0.91586348414421093 -0.90799808502197255 -0.88249814510345448 1.069302022457123 0.21499839425086978
decision_type=2 2 2 2 2 2 2 2 2 2 2 2 2 2 2 2 2 2 2 2 2 2 2 2 2 2 2 2 2 2 2 2 2 2 2 2 2 2 2 2 2 2 2 2 2 2 2 2 2 2 2 2 2 2 2 2 2 2 2
left_child=1 2 3 4 10 -6 11 15 -9 16 -1 19 13 21 -15 -5 18 -18 -4 20 28 -13 26 48 41 -26 34 53 -2 50 31 -31 -32 -22 40 -36 49 38 -28 -39 -3 -14 -29 -38 56 46 -46 -47 54 -11 51 -25 -52 -21 55 -8 -24 -56 -58
right_child=6 22 9 7 5 -7 23 8 -10 36 -12 12 24 14 -16 -17 17 -19 -20 27 33 -23 44 29 25 -27 37 42 -30 30 32 -33 -34 -35 35 -37 43 39 -40 -41 -42 -43 -44 -45 45 47 -48 -49 -50 -51 52 -53 -54 -55 57 -57 58 -59 -60
leaf_value=0.10688482343922678 0.08716138662783092 0.012584264187336457 -0.12011674802810071 -0.012510069293909663 0.014608345460674436 0.074078524978713853 -0.12661767377623551 0.033694880057456467 0.11494910351076004 0.14337414038727977 0.049228790816600594 0.062941726147143898 0.021347241410550024 -0.0098532150151680303 0.028626738986305418 0.1055431902771935 -0.027839950903381594 0.034950729519399731 0.067252999772540831 -0.13437445774214943 0.19195204597841933 0.011725013408538529 -0.13936331848838948 -0.0069582599516198928 0.040338777392017716 0.07282412567148637 -0.015810809773084897 -0.030357057991942483 -0.1121704619674357 0.18699574477623174 0.13414939801868869 -0.068788066916188578 0.0035928365607454556 0.0069514471115190409 -0.074266102184638819 0.16334059757698749 -0.036196556869977602 -0.072159521869961704 0.032075794124626252 0.0029058672560221457 0.24290321304142415 -0.14381011940336902 0.098592689395655173 0.079628222012894267 0.11413169518357512 0.049851172303304013 0.042151988696260245 0.27083904215453231 0.21456139632982546 0.04829317288440655 0.15961185047417373 0.16634997176569336 0.1854807029511584 -0.10892579379698129 -0.12808696449572041 -0.1473062721576148 -0.12517163164467704 -0.11815065588144297 -0.1193885820809631
leaf_weight=15740.276133675128 30.164109840989113 340.76724245399237 327.04073406755924 325.96947092562914 3350.4144077003002 27590.337272040546 6.1406316161155701 12739.221581071615 1099.96789970994 345.15686972439289 2141.1748655289412 3648.8097810819745 55.236809328198433 4675.7668541520834 8461.8810692057014 2800.0945245623589 1150.9186817407608 1879.1824074462056 98.506855644285679 9.128975957632063 49.956455707550049 1121.7067044079304 6.2458536475896862 33.831560730934143 3267.9596625715494 3024.0647406876087 1308.3825314417481 46.621281415224075 593.03826143592596 22.156497284770012 710.77736879885197 137.84802644699812 66.019160710275173 70.293222278356552 40.003992103040218 145.31234112381935 50.149211034178734 351.32997332513332 1269.529611736536 458.03122785687447 15.572351187467573 53.475344121456146 161.0055190064013 389.06817393004894 166.31172680854797 10.828867860138415 719.64166211336851 24.828123457729816 3.4627360552549353 40.716316014528275 117.97647516429424 106.07475414872169 149.3793153911829 33.739623215049505 8.1988184154033679 5.1686148941516894 5.0023562237620336 11.858224749565123 5.5576665624976158
leaf_count=22998 53 1331 1380 1146 7904 52863 40 34146 1404 369 5300 11539 168 21821 40632 4159 4812 5646 249 51 35 4857 32 160 8765 6148 6718 190 6073 14 712 508 226 229 239 422 175 2173 5534 2391 19 251 500 761 214 38 2133 36 3 87 88 91 93 475 50 24 32 94 43
internal_value=0 0.0652375 0.0686379 0.0718638 0.0794843 0.0676388 0.0334015 0.0499338 0.0401531 0.0190616 0.0999809 0.029256 0.0322729 0.0245128 0.0149315 0.0932332 0.00028333 0.011101 -0.0767439 -0.044527 -0.0723844 0.050899 0.0162859 0.109471 0.0539843 0.0559518 0.00632465 0.0381519 -0.102522 0.114724 0.0963368 -0.0333686 0.123054 0.083808 0.0532355 0.112049 0.0977086 -0.00117683 0.00777163 -0.0296787 0.0226494 -0.0598934 0.0696378 0.0664035 0.0579912 0.0613926 0.0556641 0.203726 -0.0932306 0.133341 0.157018 0.124441 0.174066 -0.114345 -0.12721 -0.136073 -0.128533 -0.122212 -0.122128
internal_weight=0 74935.5 70068.2 65787.5 48822.2 30940.8 26681.7 16965.3 13839.2 4280.74 17881.5 25302.8 24308.9 17908.2 13137.6 3126.06 3455.65 3030.1 425.548 993.947 743.452 4770.52 4867.35 1378.89 6400.74 6292.02 3928.93 250.495 623.202 1344.06 936.801 160.005 776.797 120.25 541.656 185.316 825.091 3387.27 2577.91 809.361 356.34 108.712 207.627 439.217 938.416 921.61 885.953 35.657 34.829 385.873 407.262 139.906 267.356 42.8686 31.3663 11.3092 16.8059 20.057 10.56
internal_count=268644 164754 143399 129920 89065 60767 103890 40855 35550 13479 28298 101787 94181 78849 62453 5305 12087 10458 1629 7606 6390 16396 21355 2103 15332 14913 18827 1216 6126 1892 1460 522 938 264 2011 661 1392 16816 12252 4564 1350 419 690 936 2528 2421 2347 74 211 456 432 251 181 526 208 64 107 144 75
is_linear=0
shrinkage=0.1


Tree=11
num_leaves=63
num_cat=0
split_feature=31 37 50 118 110 103 30 61 103 134 40 106 68 35 101 42 109 100 31 43 73 38 69 124 114 105 29 133 127 74 30 55 104 68 102 25 100 94 127 81 127 100 127 38 31 6 70 60 114 6 35 104 26 64 57 16 5 101 74 108 39 116
split_gain=1742.02 1364.91 1040.13 784.724 1509.1 892.239 1103.75 844.177 720.2 1068.03 843.549 642.295 653.345 545.222 490.913 1019.89 407.78 331.619 406.234 347.367 311.157 360.217 412.704 289.775 284.209 282.377 276.655 244.504 229.529 206.004 205.923 204.121 190.437 183.944 179.933 156.09 148.515 115.573 113.303 110.919 98.4957 83.4924 101.453 77.2192 76.4358 73.8065 70.9818 99.3987 69.0526 68.414 66.4098 64.1434 45.1559 55.5217 43.2412 40.866 37.4246 30.6758 26.0236 23.2809 37.2912 16.1591
threshold=0.99897810816764843 0.96246585249900829 0.82583168148994457 -1.5835965871810911 -1.2047068476676939 -0.82916912436485279 1.070665776729584 0.63437226414680492 -0.83471912145614613 1.0000000180025095e-35 0.97474050521850597 -0.94957169890403736 -0.040564257651567452 0.87267878651618969 -0.86783385276794422 1.0028454065322878 -1.1246517300605772 -0.82636231184005726 1.0050985217094424 1.0690411925315859 -0.76833793520927418 1.0086691975593569 -0.020508462563157078 -1.4329009652137754 -0.92705646157264698 -0.90173566341400135 1.0552601218223574 1.0000000180025095e-35 -3.1603313684463497 -0.90856847167015065 1.068760931491852 0.94424059987068187 -0.85532909631729115 0.013725377619266512 -0.85227555036544789 1.4812865853309634 -0.86852070689201344 -0.58681875467300404 -2.6427332162857051 -1.3319348096847532 -1.3196402192115781 -0.80149400234222401 -1.7925812005996702 0.99973639845848095 1.0074979662895205 0.86160615086555492 -0.31660598516464228 0.69536086916923534 -0.99392265081405629 0.7002449929714204 0.93452593684196483 -0.92301407456397999 1.2562080621719363 0.38468863070011144 0.95726650953292858 0.9288044571876527 0.63789877295494091 -0.84231996536254872 -0.81161317229270924 -0.89704221487045277 0.63166648149490368 -0.92334535717964161
decision_type=2 2 2 2 2 2 2 2 2 2 2 2 2 2 2 2 2 2 2 2 2 2 2 2 2 2 2 2 2 2 2 2 2 2 2 2 2 2 2 2 2 2 2 2 2 2 2 2 2 2 2 2 2 2 2 2 2 2 2 2 2 2
left_child=1 2 24 4 13 6 -5 -7 9 11 36 27 32 -4 39 34 25 18 23 58 41 22 -22 -12 45 37 -23 40 -6 -21 -14 -17 -13 -20 -16 -29 46 38 -3 49 -2 42 -18 54 -41 51 56 -48 -47 -11 -45 -1 53 -38 -27 -43 -10 -54 -19 60 -26 -61
right_child=8 16 3 5 28 7 -8 -9 10 14 17 12 30 -15 15 31 20 19 33 29 21 26 -24 -25 59 43 -28 35 -30 -31 -32 -33 -34 -35 -36 -37 52 -39 -40 44 -42 55 -44 50 -46 48 47 -49 -50 -51 -52 -53 57 -55 -56 -57 -58 -59 -60 61 -62 -63
leaf_value=-0.086881125795733885 -0.065138418000582329 -0.099987077851701481 0.10910044613265742 0.083495054658865128 0.11502692895297791 -0.01458357553337916 0.04874203665193258 0.052271014697785861 0.036987699063898032 0.13928478540718695 0.075623112991167585 0.0073658769939214004 0.059115921937725628 -0.095524181500964894 0.021212915413890976 -0.035682028755836169 0.043825586257944527 -0.10587020885286687 -0.043809528022218734 -0.028403741949002637 0.027642950660346496 0.033128469114492715 0.098148644010981306 0.026883723231155111 -0.13246321198101912 -0.079894861478763513 -0.045442570099298744 0.095794472818250015 0.17009238313700445 0.022780071055552256 -0.0060861194775126051 0.11594518100189018 -0.038979830913955293 0.0182072333087747 -0.098953756319163408 -0.14618870018256522 0.25924168315195112 0.17228824088398745 0.13402425828728801 0.13922999161537791 0.25785476621630643 0.1495383299032445 -0.053606880707617245 -0.13150217463174338 -0.044051067544656007 0.085190172628906269 0.26106931666787975 -0.0011376584391131325 -0.030344756081762347 -0.10573259225776395 0.076694706512760336 0.0091381848565533982 -0.087788647935214889 -0.13303877853998261 0.10743258135612205 -0.11297775531909077 -0.12713661056961753 -0.13602881480141968 0.13999233120147087 0.065765128104933998 0.013220478733640437 -0.11040131911532902
leaf_weight=103.90295954793692 135.24078826606274 55.994085736572742 183.66200543940067 25450.813637204468 2495.9929907768965 2082.2437225133181 14258.61211104691 20323.644343480468 19.739430069923401 17.978208348155022 1900.4911848902702 5268.3489414006472 3639.0326038450003 447.44993098080158 190.70050667226315 95.77096052467823 161.3337382376194 338.4282928109169 855.343082934618 1281.7185167893767 2892.4516918584704 901.09215223044157 1164.4398837611079 3405.9544502720237 29.611191049218178 25.433382987976074 891.51719876378775 1787.4579331725836 1086.4701639711857 2034.5428344756365 558.74763435870409 1216.9251894131303 1066.006342895329 1084.8600549772382 359.52932327985764 27.060112111270428 7.0986289232969266 53.729283101856709 32.816317394375801 1567.9087167680264 10.149838760495184 6.1596351340413085 316.57910729199648 350.36924258619547 23.089273273944855 172.36163624376059 18.978401109576225 60.690875813364983 73.915872648358345 31.126020386815071 16.02146677672863 210.56039202213287 202.49937795847654 7.3374035954475403 23.903563439846039 159.01767481118441 46.912642270326614 377.66275572776794 4.3605646640062323 5.2823279798030844 43.210537552833557 364.14534577354789
leaf_count=416 581 237 255 44618 3001 5770 32634 48020 78 30 5432 20058 10888 1484 458 385 650 1888 5071 6737 10687 3413 2897 13106 173 94 5276 2728 784 8707 2259 2061 5179 4739 1404 112 22 59 50 1605 14 15 1550 1472 81 298 43 274 235 115 32 591 969 43 42 899 292 1848 7 10 161 5607
internal_value=0 0.0589344 0.0633179 0.0648463 0.106608 0.0620134 0.0710162 0.046058 0.0295335 0.0433072 0.0106171 0.0296235 0.0198419 -0.0359757 0.0921042 0.0569791 0.0170739 0.0176319 0.030023 -0.00690824 0.0241257 0.0313844 0.04788 0.0443396 -0.0377555 -0.0649386 -0.00594721 0.0821878 0.131727 0.00299778 0.0504372 0.104883 -0.000433625 -0.009133 -0.057306 0.0921858 -0.0926344 0.0565205 -0.0135176 0.132001 -0.04259 -0.0418987 -0.0207156 -0.106583 0.13657 0.00951864 -0.00238219 0.0613239 0.0505144 -0.016026 -0.122398 -0.0225879 -0.114844 0.0598573 0.0108646 -0.103188 -0.0785302 -0.119191 -0.102743 -0.0976957 -0.0460183 -0.107882
internal_weight=0 74382.7 67331.9 66328.9 4213.58 62115.3 39709.4 22405.9 27641.7 15995.1 11646.6 12492 10532.1 631.112 3503.03 1862.93 7050.86 10905.7 7246.65 3659.05 6492.59 5849.5 4056.89 5306.45 1002.99 558.267 1792.61 1959.91 3582.46 3316.26 4197.78 1312.7 6334.36 1940.2 550.23 1814.52 740.92 142.54 88.8104 1640.1 145.391 643.09 477.913 415.728 1591 560.741 146.321 79.6693 246.278 49.1042 366.391 314.463 594.598 14.436 49.3369 165.177 66.6521 580.162 342.789 442.249 72.8217 369.428
internal_count=268644 171430 144057 136566 5524 131042 77252 53790 97214 47958 49256 41819 38384 1739 6139 4308 27373 45687 28348 17339 25387 22273 13584 18538 7491 1986 8689 3435 3785 15444 13147 2446 25237 9810 1862 2840 3569 346 287 1831 595 3114 2200 1640 1686 1540 687 317 533 145 1504 1007 2882 65 136 914 370 2817 1895 5951 334 5617
is_linear=0
shrinkage=0.1


Tree=12
num_leaves=62
num_cat=0
split_feature=31 37 124 112 118 103 103 134 68 109 106 68 102 55 109 103 100 123 96 42 73 33 69 31 45 105 74 133 40 29 103 103 29 115 136 53 30 43 35 25 32 94 127 31 74 40 68 106 30 102 70 134 99 70 120 30 101 108 40 112 37
split_gain=1410.2 1109.71 843.084 678.871 1033.27 746.718 584.579 880.242 749.046 584.287 527.997 517.319 421.449 806.035 334.795 301.062 281.263 488.623 288.114 279.589 259.178 282.273 316.107 256.752 241.936 236.374 212.334 198.954 192.673 171.84 164.784 163.995 153.757 160.597 149.885 149.858 143.054 114.092 102.235 105.522 97.1581 92.0511 93.095 79.9878 78.2179 76.6135 69.7702 84.9945 65.7271 56.6382 86.1782 55.6241 48.9784 37.077 28.8807 26.5339 21.2872 17.3803 15.6565 14.866 10.4914
threshold=0.99897810816764843 0.96246585249900829 -1.0815985202789304 -1.3353486061096189 -1.5887370705604551 -0.84385222196578968 -0.83471912145614613 1.0000000180025095e-35 -0.011387193109840153 -1.135186970233917 -0.94957169890403736 -0.040564257651567452 -0.85835012793540943 0.94231468439102184 -1.1246517300605772 -0.91862505674362172 -0.83288869261741627 -1.33770215511322 -0.92779895663261402 1.0398035049438479 -0.77514725923538197 0.95019733905792247 -0.017962907440960404 1.0030807852745058 1.0800045132637026 -0.90173566341400135 -0.94596824049949635 1.0000000180025095e-35 0.95302844047546398 1.1356139779090884 -0.8642253279685973 -0.82863575220108021 1.2350924015045168 -0.86967325210571278 1.0000000180025095e-35 1.00902396440506 1.0957524776458742 1.0034279823303225 0.9301358461380006 1.2214828133583071 0.95719164609909069 -0.58681875467300404 -2.6427332162857051 1.0073092579841616 -1.0110397338867185 0.94367417693138134 0.16390645503997806 -0.92177093029022206 1.0337099432945254 -0.83233913779258717 -0.31660598516464228 1.0000000180025095e-35 -0.92765262722969044 -0.29523131251335138 -0.93893149495124806 1.0930455327033999 -0.80783581733703602 -1.0533100366592405 0.99195450544357311 -1.2728192210197447 0.93236112594604503
decision_type=2 2 2 2 2 2 2 2 2 2 2 2 2 2 2 2 2 2 2 2 2 2 2 2 2 2 2 2 2 2 2 2 2 2 2 2 2 2 2 2 2 2 2 2 2 2 2 2 2 2 2 2 2 2 2 2 2 2 2 2 2
left_child=1 2 3 35 9 -6 7 10 24 -5 27 30 43 37 25 32 17 18 -10 58 38 22 -22 -19 49 41 -21 44 -15 -13 -12 40 33 -4 -33 -1 -29 -14 39 -16 -26 42 -3 45 -2 -9 47 -27 -23 50 -8 55 -45 -51 -34 -17 -40 -48 -18 -43 -37
right_child=6 14 15 4 5 -7 8 12 16 -11 11 29 13 28 20 51 19 23 -20 26 21 48 -24 -25 31 46 -28 36 -30 -31 -32 34 54 -35 -36 60 -38 -39 56 -41 -42 59 -44 52 -46 -47 57 -49 -50 53 -52 -53 -54 -55 -56 -57 -58 -59 -60 -61 -62
leaf_value=0.20724022317248811 0.18523136062102535 -0.092843601812859985 0.036467622354384728 0.013782387403989051 0.065901265013228807 0.043866483102907083 -0.099807255834658548 0.10695311399948602 0.19468938467354546 0.13034209797401103 0.0099461840300620798 0.050111860955660462 -0.15510879431531074 -0.066019766578826661 0.075685156070549722 -0.11803759800119396 -0.11941543598575098 0.043571736412133584 0.067957938468382273 -0.06775895915229864 0.017955933789494449 -0.037579803486174831 0.069801701113314851 -0.005619077858724033 0.070123316757931861 -0.092061977592158215 0.013757694852441441 0.093002703629464611 0.096289204621065494 -0.029508012897606468 -0.025571943695670105 -0.067866796414195504 -0.0044272001956203793 -0.11494947683065354 0.18945944065130771 -0.0813398922269125 0.0011321089147234048 -0.037360924238717612 -0.038412841062665515 -0.076687554492599508 -0.057890446804979824 0.084085105154770592 0.12027335302753878 0.17491442880179803 -0.06337497726390022 0.1525474409323605 -0.14837716899605399 0.063805972236600936 0.13141576814906153 -0.11762016682224284 -0.0038892470820676341 0.17810342104039187 -0.11925447675753476 0.16608777539196298 -0.081766264208133627 0.10431671229619355 -0.110580629781016 0.022562708282652544 -0.065472923594893706 0.19289369585924726 -0.16003423966428226
leaf_weight=12.425297260284422 14.028852030634878 54.358656793832779 852.78460498899221 505.61329220235348 34880.060644418001 27508.466801792383 243.60684538632631 959.13753159344196 218.11346676945686 2878.0350523293018 4485.1687720119953 3969.9935403764248 108.98911087214947 77.248988151550293 95.604337908327579 286.35204138606787 167.86018621921539 2110.8098961785436 1010.4007497578859 347.30792061984539 3645.2338818237185 696.10567713528872 1736.0860354080796 2133.6104366481304 252.80944973230362 167.92267229408026 3996.7539447173476 1616.68091596663 1373.9024072289467 290.93397209048271 1842.9328790530562 406.94687488675117 63.946135081350803 76.31510091945529 23.968780145049095 18.923683688044548 189.34192883223295 335.92348366975784 51.684895001351833 86.635537870228291 77.451419405639172 19.720635533332825 32.904175832867622 7.6651704907417324 129.28344006836414 598.51078818738461 185.07347321510315 44.191323608160019 23.800959959626198 448.39970784634352 152.18638014793396 6.6741499900817862 21.63544774055481 4.6542157977819434 197.14959824830294 5.4692340716719618 195.37824779003859 6.1455060243606559 79.189711660146713 34.56381593644619 161.72248676419258
leaf_count=10 24 237 2270 1127 66122 64041 1340 1158 365 2808 16945 12091 460 246 333 4726 928 7176 3226 2108 13915 4087 5079 9688 696 704 17479 2325 2457 1056 8292 2156 261 986 46 61 515 1221 258 467 501 36 50 8 571 492 833 90 100 2431 666 4 97 18 961 15 1148 13 432 23 665
internal_value=0 0.0529235 0.0568755 0.058555 0.0591046 0.0561856 0.0264963 0.0388979 0.00947643 0.112925 0.0265439 0.0177393 0.0833707 0.051547 0.0152471 -0.0175441 0.0196079 0.0349194 0.0904582 0.00135545 0.0215304 0.0268149 0.0346821 0.0188442 -0.0538541 -0.0600603 0.00724044 0.0743717 0.087649 0.0446755 -0.000397759 -0.0129181 0.00497679 0.0240304 -0.0535536 -0.128685 0.0833711 -0.0662053 -0.0535716 0.00324826 0.0401021 0.0511207 -0.0124836 0.121393 -0.0390389 0.124472 -0.0990785 -0.0595888 -0.0319926 -0.0905622 -0.0629258 -0.107342 -0.0422986 -0.114706 -0.0628248 -0.11387 -0.0954833 -0.142883 -0.102125 0.153365 -0.151791
internal_weight=0 74529.3 67453.9 65965.2 65772.2 62388.5 27695.4 16021.4 11674.1 3383.65 12538.4 10589 3483.01 1896.06 7075.41 1488.69 10064 5472.93 1228.51 4591.11 6530.53 6101.23 5381.32 4244.42 1610.02 544.88 4344.06 1949.34 1451.15 4260.93 6328.1 761.177 1190.2 929.1 430.916 193.071 1806.02 444.913 429.303 182.24 330.261 141.547 87.2628 1586.95 143.312 1557.65 403.333 212.114 719.907 848.847 395.793 298.495 29.3006 453.054 261.096 291.821 247.063 191.219 247.05 54.2845 180.646
internal_count=268644 171430 144057 134834 134098 130163 97214 47958 49256 3935 41819 38384 6139 4384 27373 9223 41402 20455 3591 20947 25387 23181 18994 16864 7854 1986 19587 3435 2703 13147 25237 3399 4478 3256 2202 736 2840 1681 2206 800 1197 346 287 1755 595 1650 1640 794 4187 4455 2006 4745 105 2449 1222 4741 1406 846 1360 59 726
is_linear=0
shrinkage=0.1


Tree=13
num_leaves=63
num_cat=0
split_feature=129 130 37 131 30 103 108 122 109 110 69 18 104 71 102 96 127 5 110 73 45 104 31 43 71 127 1 69 126 33 71 52 70 0 72 81 97 31 53 51 31 32 108 92 50 34 0 31 31 38 99 62 9 82 71 104 35 69 27 110 32 32
split_gain=1255.83 1062.35 873.05 931.353 781.432 931.138 641.859 743.315 479.83 358.102 306.602 519.438 304.521 245.895 350.8 244.72 291.777 223.539 206.083 201.904 188.955 185.902 172.613 160.042 165.885 191.525 153.613 139.096 138.996 131.733 194.894 126.345 141.035 158.706 124.411 118.98 113.436 228.116 94.5743 124.355 88.3461 89.3551 77.5872 73.6842 131.925 69.5345 68.7465 55.8149 49.9305 49.1903 39.8425 32.5022 26.8028 22.8148 22.5296 37.2696 21.0438 65.239 9.70322 6.37283 5.54186 0.538334
threshold=1.0000000180025095e-35 1.0000000180025095e-35 0.96246585249900829 1.0000000180025095e-35 1.0906872153282168 -0.84385222196578968 -0.87211292982101429 -1.2350852489471433 -0.8624669313430785 -1.1971241831779478 -0.12684131413698194 1.1389592289924624 -0.95214587450027455 -0.37047354876995081 -0.76978746056556691 -1.0029377341270445 -1.5454394817352293 0.56546121835708629 -0.89801102876663197 -0.78419089317321766 1.1340548396110537 -0.82176604866981495 0.98729491233825695 1.11282354593277 -0.40460984408855433 -1.982089579105377 0.41068546473979956 -0.017962907440960404 -1.5669298171997068 0.95019733905792247 -0.3339878767728805 1.1095187067985537 -0.26625983417034144 0.42052008211612707 -0.55390292406082142 -1.3582606911659239 -0.98563721776008595 1.0060909390449526 1.0744588375091555 1.132579028606415 1.0107174515724184 0.97031110525131237 -0.91111466288566578 -1.1005831360816953 1.1297549009323122 0.90705597400665294 0.32902945578098303 0.97911807894706737 1.0024241805076601 1.0334405899047854 -0.94354340434074391 0.48818320035934454 0.22592007368803027 -1.3510931730270384 -0.3814414888620376 -0.79025638103485096 0.76403555274009716 -0.40423277020454401 1.1683111786842348 -0.9029557704925536 0.95342782139778148 0.955186426639557
decision_type=2 2 2 2 2 2 2 2 2 2 2 2 2 2 2 2 2 2 2 2 2 2 2 2 2 2 2 2 2 2 2 2 2 2 2 2 2 2 2 2 2 2 2 2 2 2 2 2 2 2 2 2 2 2 2 2 2 2 2 2 2 2
left_child=1 2 3 4 5 -1 36 17 13 27 21 -12 -6 23 38 16 -9 18 -8 53 -21 -5 35 24 26 -26 -2 52 -17 30 -16 32 45 -34 60 43 37 51 58 -40 41 -38 -39 44 -10 -24 -36 -45 -31 -29 -42 -3 -4 -11 61 -56 57 -37 -15 -58 -33 -25
right_child=8 6 9 10 12 -7 7 15 22 19 11 -13 -14 14 29 28 -18 -19 -20 20 -22 -23 31 54 25 -27 -28 49 -30 48 -32 34 33 -35 46 56 40 42 39 -41 50 -43 -44 47 -46 -47 -48 -49 -50 -51 -52 -53 -54 -55 55 -57 59 -59 -60 -61 -62 -63
leaf_value=0.06486704644990475 -0.094648600384518014 -0.094516034574517682 0.22808207754627571 0.0038770132921197883 0.077051608257833221 0.042693823291326434 0.10618308457632464 0.17956663572155815 0.1281728439745671 -0.12415326064678994 0.0089359318832792686 0.18499930056567979 -0.0056581725867372902 -0.1307303564590325 -0.043346570774098855 0.025594142063757538 0.026911515372835745 -0.13145398510078271 0.23048278879047868 0.064170501290777698 0.0091668532889825054 -0.087593560261669215 0.0037494760237732128 -0.13537232417844217 0.16573487399790576 -0.0075825328213688344 -0.028672392584833846 -0.13330848027178477 -0.034480060178818377 -0.079775208642650391 0.089104545044657119 -0.040765326843070812 0.027005144835579521 0.12890511225780871 -0.052695608420661469 -0.15571956021928349 -0.027837868149251366 0.40580647658978858 0.21353399029551112 0.069129607579351618 0.21271528894062952 0.088207624360902431 0.1355860816906912 0.18917855426839916 -0.026131614513863838 -0.10389351521358997 0.11000098416024465 0.091721521377509552 0.33046802324558278 0.08724483446578242 -0.10279501376910501 0.19979968422849209 0.028672640812101653 -0.041795735244956778 -0.010673394891415607 -0.12778673436851368 -0.025831990065423766 0.20691574468437701 0.049262612117322767 -0.14578595161852703 -0.1343580837905613 -0.1243834846730066
leaf_weight=38687.36199451983 444.82133959978819 59.393483333289623 11.502799272537233 4397.2671510614455 520.45189095288515 37101.720663476735 485.84847591817379 154.76318866014481 128.83514422550797 106.95584550499916 498.27593012154102 252.47786932438612 3076.5074501335621 15.439968951046469 253.5931484028697 628.47424854338169 655.60625148564577 31.700088374316692 183.85994775593281 732.56847681850195 4236.2279400750995 234.0131018050015 218.75314122438431 67.884386003017426 81.011839151382446 299.38685290515423 1707.7666788473725 247.00090954080224 994.76928812637925 254.2480616569519 197.7008124217391 6.7543626874685279 557.7124513015151 210.54285456240177 54.205662742257118 10.603604033589365 2970.4191245213151 12.852646589279173 109.74596105515957 130.60593613982201 4.0915348976850501 67.869417704641819 61.322155006229877 120.78205251693726 97.217909798026085 82.696991190314293 49.860948160290718 114.45097230374813 3.001791074872016 10.544032417237757 183.70917022228241 4.0052253752946845 16.280553176999092 49.067561715841293 52.311224050819874 56.546642795205116 5.5661413520574596 9.3226493597030622 3.7158598005771628 21.678698748350143 99.899763613939285 129.86590961366892
leaf_count=68719 2398 346 8 18827 990 86641 1574 431 341 717 2325 702 11023 89 1192 2559 3260 186 316 2775 15295 2792 942 358 273 1406 8086 1193 4630 1669 685 27 2155 671 238 47 16182 26 270 461 18 345 218 204 361 470 117 304 8 24 1274 8 43 284 265 344 20 11 14 102 543 842
internal_value=0 0.0438219 0.046636 0.0491217 0.051851 0.0540124 0.00477276 0.0373259 -0.00490014 0.00768841 0.00886487 0.0681459 0.00630929 -0.0249701 0.0185535 0.0111847 0.0560654 0.128026 0.140308 0.013759 0.0172762 -0.000744886 0.0378189 -0.0398079 -0.0315482 0.0293281 -0.042306 -0.101346 -0.011221 -0.0178776 0.014677 0.0182442 0.0321861 0.0549312 -0.0525308 0.0871131 -0.0255676 0.0633605 0.118023 0.135065 -0.0293599 -0.0252456 0.182409 0.102582 0.0618116 -0.0257803 0.0252564 0.141762 -0.0749882 -0.124279 -0.0959211 -0.0759226 0.111232 -0.0982528 -0.108044 -0.0715084 -0.0641584 0.0139421 -0.0958152 -0.121279 -0.128431 -0.128156
internal_weight=0 96676.9 90178.2 84768.1 79386 75789.1 6498.68 3135.02 5596.53 5410.15 5382.03 750.754 3596.96 3807.65 968.052 2433.61 810.369 701.409 669.708 5124.82 4968.8 4631.28 1788.88 2839.59 2532.99 380.399 2152.59 285.328 1623.24 708.544 451.294 1280.43 1069.71 768.255 210.721 508.457 3363.66 137.574 259.508 240.352 3226.09 3038.29 74.1748 461.286 226.053 301.45 104.067 235.233 257.25 257.545 187.801 63.3987 27.7834 156.023 306.608 108.858 47.1711 19.9263 19.1558 27.2448 106.654 197.75
internal_count=268644 243731 212358 192019 167373 155360 31373 12956 24913 20339 24646 3027 12013 18360 4388 10880 3691 2076 1890 19071 18070 21619 6553 13972 12163 1679 10484 1268 7189 3554 1877 5163 4238 2826 925 1390 18417 598 834 731 17819 16527 244 1210 702 1412 355 508 1677 1217 1292 354 51 1001 1809 609 180 58 103 122 570 1200
is_linear=0
shrinkage=0.1


Tree=14
num_leaves=63
num_cat=0
split_feature=31 36 50 111 118 127 103 134 40 36 106 68 101 42 73 101 130 99 125 74 114 0 115 73 107 109 100 126 133 26 61 68 100 71 36 101 24 0 105 69 104 54 99 127 42 82 135 30 74 70 60 39 37 102 4 126 23 132 108 39 116 39
split_gain=1088.51 785.128 718.719 613.362 1147.05 539.747 438.821 673.96 612.926 432.274 406.978 386.556 379.302 720.815 328.949 354.999 248.604 233.15 379.993 233.155 198.495 197.887 200.12 182.842 205.928 171.367 171.317 163.857 161.784 151.962 150.437 145.283 127.84 125.649 142.07 123.712 118.475 116.523 109.17 116.497 99.9799 79.8519 67.0993 71.6324 64.088 63.7519 86.1542 61.6741 60.0984 48.0303 69.4474 42.4383 42.0992 87.6154 39.6029 28.1402 25.2597 24.6105 23.6072 33.214 12.6188 9.13588
threshold=0.99897810816764843 0.93100243806839 0.82583168148994457 -1.2695363163948057 -1.5945796370506284 -3.4207168817520137 -0.83471912145614613 1.0000000180025095e-35 0.97474050521850597 0.90239873528480541 -0.94957169890403736 -0.040564257651567452 -0.86701023578643788 1.0028454065322878 -0.79140624403953541 -0.77678963541984547 1.0000000180025095e-35 -0.83749595284461964 -1.6187523007392881 -0.90856847167015065 -0.92705646157264698 0.39591974020004278 -0.95151212811470021 -0.75603628158569325 -0.8399045169353484 -1.135186970233917 -0.88288429379463185 -1.6428927779197691 1.0000000180025095e-35 1.2908650636672976 0.59370452165603649 -0.14907100051641461 -0.86930894851684559 -0.40339064598083491 0.93606275320053112 -0.85974320769309986 1.4956019520759585 0.18765270709991458 -0.85244944691658009 -0.19080606102943418 -0.70040684938430775 0.94971024990081798 -0.85400643944740284 -1.685319662094116 1.0203889012336733 -1.0290554761886594 1.0000000180025095e-35 1.0358159542083742 -1.0110397338867185 -0.31660598516464228 0.69536086916923534 0.81446832418441784 0.91131043434143078 -0.83425381779670704 0.61222052574157726 -1.5669298171997068 1.3709396719932558 1.0000000180025095e-35 -0.89704221487045277 0.63166648149490368 -0.92334535717964161 0.99274107813835155
decision_type=2 2 2 2 2 2 2 2 2 2 2 2 2 2 2 2 2 2 2 2 2 2 2 2 2 2 2 2 2 2 2 2 2 2 2 2 2 2 2 2 2 2 2 2 2 2 2 2 2 2 2 2 2 2 2 2 2 2 2 2 2 2
left_child=1 2 20 9 25 -6 7 10 32 51 28 31 38 35 33 21 17 18 -10 -19 45 27 -23 37 -25 -5 44 -16 48 -13 -15 -12 49 42 -35 -14 -30 -17 41 -40 -11 -9 43 -3 -18 46 -1 -28 -2 54 -51 -4 56 -54 -8 -36 -34 -47 59 -22 -60 -44
right_child=6 14 3 4 5 -7 8 12 16 40 11 29 13 30 15 23 26 19 -20 -21 58 22 -24 24 -26 -27 47 -29 36 -31 -32 -33 52 34 55 -37 -38 -39 39 -41 -42 -43 61 -45 -46 57 -48 -49 -50 50 -52 -53 53 -55 -56 -57 -58 -59 60 -61 -62 -63
leaf_value=0.051099968512703819 0.15009117296179034 0.022772629532204221 -0.11320302141315471 0.030123857909560087 -0.043501140958264829 0.047738993098313004 0.057114051848266234 0.066199797963152798 0.09616946854924513 -0.11884096064853236 -0.038480457974480499 0.040457340848883083 -0.010930315501393067 -0.12322297703198747 0.045112216501973917 0.16264105155638242 -0.12789123629259297 -0.053424830916959321 0.018894215795900175 0.011494189297272214 -0.12836702344921308 -0.040854865597300311 0.16899179418120489 -0.0063810501674601838 0.038467404134176056 0.12426977392627765 0.15954120060323743 -0.021228155396185992 0.075219931307609067 -0.036692375771476625 0.083949681823187836 0.0033675037273182551 -0.13101266401550499 0.25824002257939571 0.051494343438662216 -0.10912066733489295 -0.082419086005014644 -0.088059361957595408 -0.10180465623221613 0.14666540332481784 0.14251870429763014 0.12304871717719408 0.02430090805579229 -0.080726216654593619 0.18541374277346187 -0.15430469831510052 -0.03032664614009567 -0.035365424481069316 -0.061998072256150963 0.20659340247393665 -0.0047062953002826209 0.10297950341979512 0.054380146748316309 -0.10517492611818291 -0.12216328418993186 -0.1320466716050602 0.0045540155630539097 0.079048014564287339 0.04777408000684303 0.013227832643901203 -0.10812831052138863 -0.12097690097828584
leaf_weight=246.95568580925465 14.921204984188078 104.49922855198383 9.7058878242969495 211.40969124436378 655.40965285897255 60311.472785566002 17.74362924695015 309.81922556459904 708.17625224590302 393.3457182943821 981.27704910933971 4069.842360727489 249.46508445590734 36.038383208215237 3210.592443075031 19.830677397549152 7.5263807922601691 795.84704906493425 6273.9366729110479 1814.6718896403909 26.967901460826397 57.394654735922813 218.27410551905632 3142.0755191668868 1518.650690279901 2262.133771687746 16.420801773667336 421.15361379086971 1727.3078460395336 272.39661581814289 1278.1936105638742 5366.9243782758713 357.16516825556755 25.40461240708828 14.533843353390692 264.21270468086004 49.029248282313347 284.76158109307289 50.018780007958412 30.300894215703011 15.202117294073103 1220.1787197142839 4.4227309525012961 185.71193310618401 49.264973267912865 34.278138004243374 274.2326348349452 1434.0311698615551 127.7420042604208 21.325887128710747 57.476741440594196 140.96325771510601 44.766841009259224 148.84545116126537 40.3252182751894 19.64348404109478 14.294339612126349 5.205956205725669 5.2791222333908072 42.951103180646896 313.58601569570601 203.47958149760962
leaf_count=493 24 436 36 408 1824 122642 69 468 1749 1524 4784 12299 714 166 10518 21 45 4268 23672 7371 173 265 508 11953 5736 2142 56 1773 2666 848 2261 20453 1821 33 54 1083 174 1497 182 49 15 1216 20 981 136 171 865 8390 571 41 262 202 177 845 287 109 67 11 10 161 5607 1242
internal_value=0 0.0433513 0.0472662 0.0485475 0.0494666 0.0467581 0.0201736 0.0309384 0.00553616 -0.0557233 0.0202372 0.0126256 0.0701841 0.0390093 0.0163885 0.0210709 0.011267 0.0171993 0.026732 -0.00829713 -0.0391001 0.0436192 0.125301 0.00332671 0.00823237 0.116223 -0.0264877 0.0374191 0.0626403 0.0356176 0.0782687 -0.00310117 -0.0850867 -0.0581068 0.0791354 -0.061435 0.0708689 -0.0717373 0.105571 -0.00806841 -0.109116 0.111537 -0.0745231 -0.0434584 0.143892 -0.00102535 0.00825589 -0.0331589 -0.0398156 0.00162513 0.0524765 0.0890533 -0.10609 -0.0682828 -0.067383 -0.0539962 -0.125796 -0.123537 -0.0940084 -0.0413856 -0.105547 -0.117886
internal_weight=0 74379.5 64949.1 63999.6 63440.4 60966.9 27849.5 16047.7 11801.8 559.217 12609.4 10690.4 3438.23 1827.91 9430.43 8872.73 11099.9 9592.63 6982.11 2610.52 949.457 3907.41 275.669 4965.32 4660.73 2473.54 1507.24 3631.75 1919 4342.24 1314.23 6348.2 701.943 557.695 59.5819 513.678 1776.34 304.592 1610.32 80.3197 408.548 1530 498.113 290.211 56.7914 560.672 521.188 1450.45 142.663 136.871 78.8026 150.669 565.072 193.612 58.0688 34.1773 371.46 39.4841 388.784 69.919 318.865 207.902
internal_count=268644 171430 136284 128793 127016 124466 97214 47958 49256 1777 41819 38384 6139 4224 35146 32271 45687 37060 25421 11639 7491 13064 773 19207 17689 2550 8627 12291 3435 13147 2427 25237 3569 2875 196 1797 2840 1518 1915 231 1539 1684 2679 1417 181 1540 1358 8446 595 659 303 238 2910 1022 356 163 1888 182 5951 334 5617 1262
is_linear=0
shrinkage=0.1


Tree=15
num_leaves=60
num_cat=0
split_feature=129 106 32 134 53 104 124 133 109 133 24 34 96 32 2 98 107 73 135 35 71 30 135 103 108 11 30 111 75 53 118 31 53 115 26 56 0 69 38 29 55 103 89 32 5 51 52 32 48 103 54 68 29 112 31 77 96 103 38
split_gain=968.276 823.824 1004.48 973.577 1054.7 1680.86 945.768 1097.63 1002.72 748.352 536.064 488.176 600.24 463.203 458.206 438.989 385.355 363.348 353.054 332.318 280.058 271.559 269.545 262.887 245.123 242.514 165.501 215.458 232.963 239.117 164.474 141.264 142.44 142.308 145.179 124.102 117.724 112.442 181.69 104.474 187.334 98.8472 82.8149 79.6424 68.9393 65.1822 61.5501 60.708 57.806 50.9428 41.9531 10.8311 64.9796 9.06225 9.02033 15.6723 3.74897 0.280167 0.217381
threshold=1.0000000180025095e-35 -0.96298065781593312 0.8832778036594392 1.0000000180025095e-35 1.1012408137321474 -0.84513238072395314 -1.1320545077323911 1.0000000180025095e-35 -1.1425226926803587 1.0000000180025095e-35 1.2588014602661135 0.843867987394333 -0.87490245699882496 0.90445294976234447 0.67819806933403026 -0.94104784727096547 -0.83574908971786488 -0.89295968413352955 1.0000000180025095e-35 0.78953355550766002 -0.53984290361404408 1.098008453845978 1.0000000180025095e-35 -0.9151315689086913 -1.0761932730674741 0.90223088860511791 0.92606517672538768 -0.99635863304138172 -1.0275535583496092 1.1053169965744021 -0.92028203606605519 0.9845712184906007 1.1075989007949831 -0.98480522632598866 1.150529742240906 1.0171812772750857 0.38234519958496099 0.010100884828716518 1.0022767782211306 1.122164309024811 0.9328824281692506 -0.93030214309692372 -1.2160037159919737 0.96508008241653453 0.76270177960395824 1.1400790214538576 0.98636195063591015 0.89696285128593456 1.1396266222000124 -0.96988138556480397 1.0938107967376711 -0.017669121734797951 1.1301203370094302 -1.013486862182617 0.98666551709175121 -1.223669648170471 -0.60220694541931141 -0.82496029138565052 1.0086691975593569
decision_type=2 2 2 2 2 2 2 2 2 2 2 2 2 2 2 2 2 2 2 2 2 2 2 2 2 2 2 2 2 2 2 2 2 2 2 2 2 2 2 2 2 2 2 2 2 2 2 2 2 2 2 2 2 2 2 2 2 2 2
left_child=1 9 6 17 5 -5 7 8 -3 13 -6 12 21 22 25 -9 26 30 -19 -14 24 -11 44 -16 -15 -8 49 51 36 -30 -4 33 37 34 35 -18 -29 38 -33 46 -41 -22 45 -39 -1 -35 -13 -24 -36 -2 -44 53 -53 -28 55 -34 57 -51 -56
right_child=16 2 3 4 10 -7 14 15 -10 11 -12 39 19 20 23 -17 31 18 -20 -21 41 -23 47 -25 -26 -27 27 28 29 -31 -32 32 54 42 48 -37 -38 43 -40 40 -42 -43 50 -45 -46 -47 -48 -49 -50 56 -52 52 -54 -55 58 -57 -58 -59 -60
leaf_value=0.071003064646180336 -0.1491872520779485 -0.05372696840738455 -0.034690080022123482 0.083476554352577254 0.038604241822378156 0.0088290818049348262 -0.07544894152995571 0.10943332809751978 0.070057104805332393 0.11052889216469726 0.15505508733404802 -0.037503858156400276 -0.1454836912134862 0.17048937216671134 -0.018197323052776014 -0.092680043950482724 0.17824843600597093 0.018998173531895726 0.043039389792088462 0.014497675510598523 0.099805136216559717 0.0063233175614611781 -0.16720402782484969 -0.12744969058973665 -0.1264201793610438 0.048880761209827359 -0.1268940785840475 -0.076036078680613059 0.05200484225384825 -0.070665125988638486 0.013865866747497603 0.023628097983407842 -0.13884313405825671 0.098557463865338146 0.027797404981870572 -0.082931416424763663 -0.024295239802536429 0.18629643482346928 -0.093574510276933004 0.1098386452634884 0.047897380129009508 -0.13125190157099828 0.18344284538220423 -0.053268582426874704 -0.12968376863159792 -0.054044140941603473 0.12196049006208161 0.0094234718515396419 -0.11674922686624881 0.17403247564128385 -0.0014451356330675317 -0.095483503916847262 0.26220083112499032 0.010291732383346042 -0.13613412121549481 0.016327997600425574 0.12747362067880089 0.1915879854506026 -0.12408706808771063
leaf_weight=679.14397346228361 5.7575483918189994 680.3534696996212 1651.6855439096689 5106.6133660897613 566.65690492093563 7369.9425116032362 173.36516868323088 129.82762199640274 17160.778971605003 1218.4523533284664 1307.2535415738821 24.531365007162094 147.86126530170441 72.59123969078064 1307.8564403504133 623.86345752328634 63.899188533425331 42111.971763685346 7144.7662244364619 1065.4358318448067 19.503789126873016 314.66516830027103 65.77900667488575 264.84612395055592 45.069496095180511 1650.5933982692659 142.00927188247442 629.33391585201025 649.01596954464912 210.42287157475948 1207.6978694051504 1379.9718527495861 12.620873764157297 122.14841493964195 43.319418340921402 25.434196814894676 1459.6841104403138 62.945006750524044 146.29043586552143 1338.1414681822062 768.78190363943577 365.24475803971291 137.9949751496315 17.801683634519577 17.559631332755089 36.3112723082304 1818.2921915799379 27.634470909833908 76.568175494670868 20.228880122303963 13.470954805612562 239.58262736350298 5.1889945119619361 4.9842447191476813 22.588074460625648 13.440796896815298 19.283374056220055 16.509769320487976 44.459160588681698
leaf_count=1096 27 2333 6080 7364 1130 22873 1787 177 27892 1358 1221 60 515 44 5091 1923 115 127278 14514 2094 30 721 276 3571 190 3359 794 3589 2830 1181 4610 5297 66 333 120 122 6801 111 774 1494 1262 1338 200 97 64 140 1920 66 353 30 43 1346 12 25 122 57 23 10 295
internal_value=0 0.0357314 0.032954 0.0268244 0.0498886 0.039382 0.0514798 0.0603431 0.0653367 0.0664856 0.119841 0.0799325 0.0475525 -0.00317839 0.0029582 -0.0578649 -0.00696423 0.0204736 0.0224854 -0.00499882 -0.0782512 0.0891412 0.044558 -0.0365956 0.0567593 0.0370634 -0.0281113 -0.031111 -0.0218531 0.0219706 -0.0141818 0.025453 0.0115113 0.0711099 0.00738706 0.103888 -0.0398826 0.0184786 0.0123944 0.102448 0.0872373 -0.119539 0.114127 0.133481 0.065945 0.0635886 0.119838 -0.114952 -0.0645197 0.134069 0.166999 -0.100786 -0.0879008 -0.122242 -0.10874 -0.0588167 0.16318 0.181922 -0.128146
internal_weight=0 96446.8 88458.1 66466.6 14350.5 12476.6 21991.5 18594.8 17841.1 7988.69 1873.91 6696.16 2746.41 1292.53 3396.66 753.691 5621.27 52116.1 49256.7 1213.3 502.409 1533.12 790.117 1572.7 117.661 1823.96 3402 3340.22 2948.46 859.439 2859.38 2219.26 1700.12 519.147 209.221 89.3334 2089.02 1607.01 1526.26 3949.75 2106.92 384.749 309.926 80.7467 696.704 158.46 1842.82 93.4135 119.888 61.7796 151.466 391.765 244.772 146.994 93.1089 26.0617 56.022 36.7386 67.0472
internal_count=268644 243731 231203 185070 32588 30237 46133 32325 30225 12528 2351 9424 4688 3104 13808 2100 24913 152482 141792 2609 1602 2079 1502 8662 234 5146 16668 16578 14401 4011 10690 8245 6819 1426 710 237 10390 6279 6071 4736 2756 1368 716 208 1160 473 1980 342 473 90 243 2177 1358 819 540 123 63 40 417
is_linear=0
shrinkage=0.1


Tree=16
num_leaves=63
num_cat=0
split_feature=106 31 134 102 54 108 133 38 53 125 33 133 105 132 78 71 34 96 32 106 136 2 53 106 40 30 36 100 99 135 133 106 106 68 53 106 81 93 58 29 54 55 132 33 31 40 42 31 31 32 127 51 30 72 78 33 34 75 118 29 123 100
split_gain=807.179 1042.97 1139.08 979.094 1398.54 864.41 902.948 880.846 849.015 841.647 991.062 732.703 723.434 590.253 570.619 539.492 460.823 559.836 433.467 367.153 476.323 365.606 311.029 302.616 283.324 282.456 264.205 259.243 231.981 196.328 182.456 169.602 141.537 138.838 167.639 134.046 127.386 122.408 120.253 116.954 234.855 119.488 98.3686 93.4106 88.8555 85.7296 82.5327 73.2021 71.5558 70.1466 61.4395 80.5507 57.4977 40.8095 37.5187 32.8049 27.6096 27.4455 26.0882 15.318 14.0784 2.55841
threshold=-0.95995786786079396 0.97691515088081371 1.0000000180025095e-35 -0.86241284012794484 0.98042407631874096 -1.0681729912757871 1.0000000180025095e-35 0.89824882149696361 1.1012408137321474 -1.1915153861045835 0.88132333755493175 1.0000000180025095e-35 -0.86866599321365345 1.0000000180025095e-35 -0.97938698530197132 -0.23752974718809125 0.843867987394333 -0.86103075742721547 0.90445294976234447 -0.94957169890403736 1.0000000180025095e-35 0.67819806933403026 1.0834891200065615 -0.99448710680007923 1.0649706721305849 1.0948029756546023 0.8141455650329591 -0.92260617017745961 -0.87860885262489308 1.0000000180025095e-35 1.0000000180025095e-35 -0.90699517726898182 -0.89208087325096119 -0.13453466445207593 1.1422194838523867 -0.98673152923583973 -0.50673067569732655 -1.1020690798759458 0.76337057352066051 1.1267660260200503 0.96782547235488903 0.98072156310081493 1.0000000180025095e-35 0.85833871364593517 1.0083557367324831 0.70433759689331066 0.9952974021434785 0.95830062031745922 0.98494079709053051 0.89894297719001781 -2.3196012973785396 1.0016735792160036 1.0900220274925234 -0.57874003052711476 -0.8966100513935088 0.90372383594512951 0.83751666545867931 -0.48180356621742243 -1.3148394823074339 1.1486126184463503 -1.7271562218666074 -0.83359795808792103
decision_type=2 2 2 2 2 2 2 2 2 2 2 2 2 2 2 2 2 2 2 2 2 2 2 2 2 2 2 2 2 2 2 2 2 2 2 2 2 2 2 2 2 2 2 2 2 2 2 2 2 2 2 2 2 2 2 2 2 2 2 2 2 2
left_child=11 5 13 31 28 15 9 14 -6 10 -7 18 -9 19 -8 22 17 25 29 30 -21 -11 36 33 -24 38 35 -27 -5 43 -3 55 52 61 -35 -19 -2 -33 -13 50 44 -42 48 45 -41 -1 -28 -45 -25 54 51 -18 -15 -44 -31 -4 -17 -58 -52 -34 -51 -20
right_child=1 2 3 4 8 6 7 12 -10 21 -12 16 -14 32 -16 56 39 26 23 20 -22 -23 24 42 -26 27 46 -29 -30 49 -32 37 59 34 -36 -37 -38 -39 -40 40 41 -43 53 47 -46 -47 -48 -49 -50 60 58 -53 -54 -55 -56 -57 57 -59 -60 -61 -62 -63
leaf_value=-0.16035704119454286 -0.04803168284425572 -0.030096918828697496 -0.17622121706493662 -0.038171583242649409 0.032354488612721458 0.065893634895848152 0.073613396519673233 0.057849936284714243 0.11934343617108177 0.033773146419137166 0.0080152218982164746 0.10260241131462929 -0.06423231160585284 -0.1585856692705897 -0.13865995368083572 0.13268144443944385 -0.2127161565372617 0.017872920441680273 0.11740282855389593 0.0043765857265443886 0.028011471078753403 -0.030768598825369371 0.04873179572778244 0.0022536011531926851 -0.095205794858034848 0.057232838068039506 -0.0039906504327767225 -0.09947615323433158 -0.13145581159076453 -0.072329596013161787 0.059852790941805838 0.1355280875870683 0.020302379761329422 -0.1781306010356517 0.071307751776833281 -0.14231804700410788 -0.19913857292289458 0.088225314225080509 -0.14116824886072615 0.1093295006183722 0.044896939546774074 -0.10452081684664172 -0.20735297850358092 0.023579413248536629 -0.010095506563726212 0.089815400533330675 0.068429660514090995 -0.24420912428313366 -0.1152878938891105 -0.084093995493669554 0.14286687852768462 0.097093878470959696 0.061077966813284382 -0.12248230112695882 -0.2078488566463752 0.049221170422613703 -0.059377179941948188 -0.14531235781270288 0.10643441901778133 0.16345292850615792 0.098942041047810014 0.15861829630105387
leaf_weight=14.083312273025511 174.61792436242104 251.37566523998976 26.074018970131874 702.62088165432215 8514.4513388872147 21050.518306784332 158.26999614387751 1803.2050499171019 1292.2731917053461 2026.1309803985059 3442.2537883147597 1342.5247678160667 664.17981542646885 264.90200056135654 633.56908796727657 3.8708705753087989 8.4384054243564588 70.873852983117104 20.895222820341587 31630.192348413169 11674.106681913137 1548.4054137952626 886.42752860486507 101.16524012386799 161.69815900176764 364.96672436594963 669.07801751792431 148.52487967163324 429.56977386772633 47.240811869502068 2191.3046390339732 778.28512434661388 20.334698066115379 44.994923457503319 67.157491572201252 198.65248826146126 81.982881844043732 1841.3940163254738 20.546168386936188 1165.1348305642605 811.86873911321163 57.297811731696129 84.762330904603004 325.5568451359868 65.820269748568535 500.43328830599785 205.75691086053848 10.538407519459723 106.12105904519558 5.3407586514949825 519.02108074724674 1534.2639918923378 12.477374926209448 170.86110528558493 35.994454979896545 8.5780706703662855 41.812349125742912 334.33504697680473 316.34250117838383 11.82027457654476 19.712581381201744 53.938786625862122
leaf_count=55 455 795 107 2253 22459 34415 254 3051 1579 5585 9056 1553 1853 920 2181 4 34 136 30 120030 27046 8554 1628 272 676 630 1409 518 2146 187 3677 651 44 212 159 692 330 2246 68 1251 1343 169 334 651 151 725 315 44 486 16 403 1905 31 568 150 16 181 1531 349 8 33 34
internal_value=0 0.0273445 0.019452 0.0448885 0.0316682 0.0416059 0.0453585 -0.00446314 0.0438174 0.0511439 0.0577593 0.0585431 0.0249874 0.0119446 -0.0962315 -0.028172 0.0716802 0.0414985 -0.00269324 0.0128758 0.0107482 0.00581517 0.0023679 -0.0657443 0.026526 0.0751156 -0.0136279 0.0119055 -0.073565 0.0400397 0.0505961 0.0993714 -0.125681 0.0416218 -0.0287655 -0.100195 -0.0963097 0.102279 0.0989279 0.0920404 0.0748436 0.0350469 -0.109113 0.0561844 0.102944 0.0829677 0.0130423 0.0151828 -0.0579222 -0.0867777 0.107227 0.0953993 -0.148705 -0.150625 -0.130934 -0.120413 -0.133026 -0.13576 0.12907 0.072925 0.0599232 0.14711
internal_weight=0 92661 59649.8 13593.2 10938.9 33011.3 31326.5 3259.22 9806.72 28067.3 24492.8 9107.91 2467.38 46056.5 791.839 1684.74 7499.11 3020.92 1608.8 45747 43304.3 3574.54 1304.73 649.896 1048.13 1876.56 1144.36 513.492 1132.19 958.9 2442.68 2654.33 309.534 186.986 112.152 269.526 256.601 2619.68 1363.07 4478.19 2100.12 869.167 462.91 850.612 1230.96 514.517 874.835 336.095 207.286 108.289 2378.07 1542.7 277.379 255.623 83.2353 34.6521 380.018 376.147 835.364 32.155 25.0533 74.834
