tree
version=v4
num_class=1
num_tree_per_iteration=1
label_index=0
max_feature_idx=136
objective=binary sigmoid:1
feature_names=Column_0 Column_1 Column_2 Column_3 Column_4 Column_5 Column_6 Column_7 Column_8 Column_9 Column_10 Column_11 Column_12 Column_13 Column_14 Column_15 Column_16 Column_17 Column_18 Column_19 Column_20 Column_21 Column_22 Column_23 Column_24 Column_25 Column_26 Column_27 Column_28 Column_29 Column_30 Column_31 Column_32 Column_33 Column_34 Column_35 Column_36 Column_37 Column_38 Column_39 Column_40 Column_41 Column_42 Column_43 Column_44 Column_45 Column_46 Column_47 Column_48 Column_49 Column_50 Column_51 Column_52 Column_53 Column_54 Column_55 Column_56 Column_57 Column_58 Column_59 Column_60 Column_61 Column_62 Column_63 Column_64 Column_65 Column_66 Column_67 Column_68 Column_69 Column_70 Column_71 Column_72 Column_73 Column_74 Column_75 Column_76 Column_77 Column_78 Column_79 Column_80 Column_81 Column_82 Column_83 Column_84 Column_85 Column_86 Column_87 Column_88 Column_89 Column_90 Column_91 Column_92 Column_93 Column_94 Column_95 Column_96 Column_97 Column_98 Column_99 Column_100 Column_101 Column_102 Column_103 Column_104 Column_105 Column_106 Column_107 Column_108 Column_109 Column_110 Column_111 Column_112 Column_113 Column_114 Column_115 Column_116 Column_117 Column_118 Column_119 Column_120 Column_121 Column_122 Column_123 Column_124 Column_125 Column_126 Column_127 Column_128 Column_129 Column_130 Column_131 Column_132 Column_133 Column_134 Column_135 Column_136
feature_infos=[-1.8014661073684692:2.1873281002044678] [-1.7160434722900391:2.0962586402893066] [-1.6382262706756592:2.0136351585388184] [-1.5680137872695923:1.9394575357437134] [-1.5054070949554443:1.8737261295318604] [-1.4504051208496094:1.8164401054382324] [-1.4123568534851074:1.7937201261520386] [-1.3844102621078491:1.9274762868881226] [-1.3517893552780151:1.9831451177597046] [-1.3099035024642944:2.0064544677734375] [-1.2559221982955933:2.0118343830108643] [-1.1870334148406982:2.073509693145752] [-1.1039742231369019:2.1457490921020508] [-1.0067610740661621:2.2142360210418701] [-0.90047705173492432:2.2825961112976074] [-0.78966546058654785:2.3805651664733887] [-0.67814630270004272:2.4481546878814697] [-0.65620064735412598:2.4998569488525391] [-0.66012513637542725:2.5653238296508789] [-0.66667592525482178:2.5221147537231445] [-0.66607785224914551:2.4413206577301025] [-0.67318671941757202:2.3840618133544922] [-0.67530190944671631:2.2409591674804688] [-0.7797551155090332:2.1797337532043457] [-1.0841877460479736:2.1696581840515137] [-1.4308524131774902:2.0883691310882568] [-1.6366665363311768:1.9448176622390747] [-1.8254417181015015:1.7312250137329102] [-1.9202775955200195:1.5516149997711182] [-2.2033448219299316:1.3473584651947021] [-2.6534385681152344:1.1459542512893677] [-2.9375624656677246:1.0691677331924438] [-2.8964071273803711:1.0156075954437256] [-2.6209216117858887:0.99270999431610107] [-1.9672813415527344:0.99480384588241577] [-1.2877312898635864:1.0987448692321777] [-0.66409575939178467:1.3781088590621948] [-0.67050886154174805:1.4357191324234009] [-0.67336314916610718:1.5244829654693604] [-0.67729061841964722:1.427788257598877] [-0.67391806840896606:1.3506048917770386] [-0.67623704671859741:1.3033223152160645] [-0.67480045557022095:1.4334096908569336] [-0.67821109294891357:1.6771683692932129] [-0.67593681812286377:1.8418123722076416] [-0.67998087406158447:1.9795904159545898] [-0.67735743522644043:1.8671952486038208] [-0.67972826957702637:1.8940913677215576] [-0.67738151550292969:2.0411467552185059] [-0.6802976131439209:2.1347439289093018] [-0.67868822813034058:2.3221406936645508] [-0.68411111831665039:2.3866791725158691] [-0.6882440447807312:2.2922041416168213] [-0.69760811328887939:2.1755821704864502] [-0.68820065259933472:1.8716312646865845] [-0.66555494070053101:1.5453798770904541] [-0.62813276052474976:1.3767448663711548] [-0.79989981651306152:1.3468891382217407] [-0.9627259373664856:1.3174220323562622] [-0.83332031965255737:1.3004671335220337] [-0.58399802446365356:1.2900781631469727] [-0.60388213396072388:1.6912268400192261] [-0.63139909505844116:1.8743280172348022] [-0.66095739603042603:1.7138135433197021] [-0.93073725700378418:1.3433690071105957] [-1.1747497320175171:1.0751444101333618] [-1.3727543354034424:0.99085426330566406] [-1.6710461378097534:0.88485002517700195] [-1.8910553455352783:0.75389385223388672] [-2.0949718952178955:0.60495084524154663] [-1.9126988649368286:0.45876148343086243] [-1.7446892261505127:0.33052113652229309] [-1.674402117729187:0.23037496209144592] [-1.5674382448196411:0.15855956077575684] [-1.3374539613723755:0.23297213017940521] [-1.5821062326431274:0.84510332345962524] [-1.8401819467544556:1.3364263772964478] [-2.0371255874633789:1.0853415727615356] [-2.1728529930114746:0.99276179075241089] [-2.2573421001434326:0.52897804975509644] [-2.3058340549468994:0.2406151294708252] [-2.3315773010253906:0.28676301240921021] [-2.3403120040893555:0.33890664577484131] [-2.3343968391418457:0.39074629545211792] [-2.3124566078186035:0.43792322278022766] [-2.2730567455291748:0.47703936696052551] [-2.2140905857086182:0.50853937864303589] [-2.1362462043762207:0.53271615505218506] [-2.0426793098449707:0.67684948444366455] [-1.9374580383300781:0.56802195310592651] [-1.8240519762039185:0.65060514211654663] [-1.7565661668777466:1.0689502954483032] [-1.6520191431045532:1.4172115325927734] [-1.5958865880966187:1.6287872791290283] [-1.5394163131713867:1.6652539968490601] [-1.4922878742218018:1.6182962656021118] [-1.4547033309936523:1.5608183145523071] [-1.4384253025054932:1.5584532022476196] [-1.4264529943466187:1.5645072460174561] [-1.5819015502929688:1.5648646354675293] [-2.0638625621795654:1.5687597990036011] [-2.4619696140289307:1.5660412311553955] [-2.648137092590332:1.5687909126281738] [-2.5047333240509033:1.5662518739700317] [-2.1062953472137451:1.5674868822097778] [-1.4073458909988403:1.5623446702957153] [-1.2213733196258545:1.563502311706543] [-1.117332935333252:1.561995267868042] [-1.168958306312561:1.5723429918289185] [-1.225186824798584:1.5757462978363037] [-1.3164699077606201:1.5827798843383789] [-1.5990560054779053:1.5861003398895264] [-2.1418814659118652:1.5904401540756226] [-2.465855598449707:1.5896482467651367] [-2.5047738552093506:1.5896980762481689] [-2.0072333812713623:1.5826603174209595] [-1.5763039588928223:1.5835590362548828] [-1.627167820930481:1.5943964719772339] [-1.6790087223052979:2.4495923519134521] [-1.735770583152771:2.6529664993286133] [-1.8081856966018677:2.5047237873077393] [-1.9267433881759644:1.7488086223602295] [-2.1567583084106445:1.5756756067276001] [-2.3918964862823486:1.5727846622467041] [-2.6616356372833252:1.569481372833252] [-2.9761693477630615:1.9341119527816772] [-3.3342947959899902:2.598928689956665] [-3.8750591278076172:3.4483489990234375] [0:1] [0:1] [0:1] [0:1] [0:1] [0:1] [0:1] [0:1] [0:1]
tree_sizes=6471 6627 6326 6882 6335 6778 6567 6846 6444 6026 6703 6902 6649 6909 5924 6914 6903 5964 6942 6902 6148 6057 6339 6560 6952 6690 6928 6689 6718 6357 6219 6742 6973 6698 6331 5867 6855 5623 6944 5736 6261 6964 5503 5975 5560 6716 5089 6394 5194 6489 5965 6917 6744 6202 4774 4805 6322 6766 6641 4641 6941 6988 5448 6956 5122 6852 6128 5898 6975 4669 6412 6589 6730 4483 6970 6976 6244 6613 6508 6950 5287 6949 6413 5471 6919 6203 6651 6934 6575 6937 6682 6417 6945 6934 5540 5705 4447 6925 5660 6181 5452 6900 6802 6836 6030 6806 6184 4666 6351 6917 5975 5666 6643 4471 6716 6697 6949 6495 6704 6636 6927 6737 6410 6805 4828 5959 5964 6551 5672 4540 5773 6030 6852 6926 5364 5317 5963 6566 6650 6819 6706 6921 6799 6951 6699 4760 6180 6938 6712 6581 6614 6697 6993 4719 6744 3752 6728 6027 6073 4491 6496 6538 6766 6709 6607 6456 6252 6959 6006 6937 6692 6846 5712 4721 6952 6953 6930 6831 6941 5575 5348 6448 6928 6757 5652 6799 5820 5612 6631 6867 5365 6910 5834 6379 6863 6694 4438 5547 6270 6600

Tree=0
num_leaves=60
num_cat=0
split_feature=32 130 131 128 30 129 136 109 105 113 32 72 32 71 105 133 37 31 100 57 69 71 1 110 123 113 76 0 118 31 54 103 36 67 53 120 72 22 26 94 31 73 67 125 99 78 114 78 52 107 30 30 72 32 98 43 0 0 6
split_gain=58407.5 20940.2 21289.7 15062.5 14932.3 12315.1 7109.07 6308.78 3313.01 1357.29 1207.58 1340.94 1204.75 1125.24 1452.98 1075.31 1045.83 942.219 884.021 633.707 853.217 781.063 605.625 740.17 787.835 571.928 658.928 499.064 466.904 375.916 373.083 349.541 417.903 327.398 256.267 241.834 238.639 225.761 197.567 187.806 186.223 181.754 119.404 116.587 121.828 115.456 112.253 190.854 88.3036 73.7224 64.8824 46.6035 90.7717 42.3312 17.1623 14.782 5.68434e-14 2.84217e-14 7.10543e-15
threshold=0.95174404978752147 1.0000000180025095e-35 1.0000000180025095e-35 1.0000000180025095e-35 1.087014973163605 1.0000000180025095e-35 1.0000000180025095e-35 -1.0298416018486021 -0.95228639245033253 -0.8650221824645995 0.95674756169319164 -0.61130788922309864 0.96422061324119579 -0.48327198624610895 -0.84200495481491078 1.0000000180025095e-35 0.96609130501747142 1.0075192451477053 -0.83610981702804554 0.91756394505500805 -0.074335400015115724 -0.41785991191864008 0.62765708565711986 -0.90906894207000721 -1.2715896368026731 -0.9789769947528838 -1.310966372489929 0.46889461576938635 -0.90770480036735524 1.0009233951568606 1.063257157802582 -0.80376988649368275 0.95525047183036815 0.14634042233228686 1.0549225211143496 -1.3003980517387388 -0.75312358140945423 1.3078941106796267 1.2146313786506655 -0.96228763461112965 1.0156003236770632 -0.80137500166892994 0.20821342617273333 -1.1562568545341489 -0.95990225672721852 -1.3114943504333494 -1.212054908275604 -0.89454868435859669 1.1197332739830019 -0.84123495221137989 1.0194387435913088 1.0369706749916079 -0.54884213209152211 0.96058556437492382 -0.91518443822860707 1.101124703884125 0.1610340550541878 1.02103728055954 1.0537448525428774
decision_type=2 2 2 2 2 2 2 2 2 2 2 2 2 2 2 2 2 2 2 2 2 2 2 2 2 2 2 2 2 2 2 2 2 2 2 2 2 2 2 2 2 2 2 2 2 2 2 2 2 2 2 2 2 2 2 2 2 2 2
left_child=1 2 3 4 5 -1 7 15 -6 29 13 18 -13 39 -15 46 17 19 -12 20 -8 -21 23 30 34 48 -27 40 -26 45 37 51 38 35 -25 -17 -31 -3 -33 -9 -19 -29 -35 44 -11 -4 53 -48 -5 -32 -34 52 -18 -2 57 -53 -45 -24 -59
right_child=6 22 9 25 8 -7 16 10 -10 43 11 12 -14 14 -16 33 31 27 -20 21 -22 -23 54 24 28 26 -28 41 -30 36 49 32 50 42 -36 -37 -38 -39 -40 -41 -42 -43 -44 56 -46 -47 47 -49 -50 -51 -52 55 -54 -55 -56 -57 -58 58 -60
leaf_value=-1.4359234989823919 -2.0340767575865293 -1.7243121154437673 -1.8268285516513703 -1.9099869531469555 -1.4534310010484472 -1.7900985306484865 -1.6380189405009651 -1.8599657506076543 -1.7366868525422523 -1.7163814240606572 -1.8456347405525817 -1.7424812224429864 -1.8387983917525499 -1.6189134012179207 -1.7768766851366444 -1.2346636310425967 -1.3138127905620172 -1.8512585454605031 -1.9780818732505501 -1.4018144648646924 -1.3086889024840103 -1.5833839454393097 -2.0340767575865293 -1.8644225966374506 -1.852169379260777 -2.0340767575865293 -1.7586629080654548 -1.6298660481335474 -1.6800296776849679 -1.9476758129316962 -1.9906017736102328 -1.5897466414576675 -1.5573303045973508 -1.4311798564179645 -1.4797330293605602 -1.6737877755295896 -1.8076088233077889 -1.8616560317096948 -2.0340767575865293 -1.6748614378878213 -1.4643941939699974 -1.2871322240473 -1.7425459545310442 -2.0340767575865293 -1.9888647075505024 -1.7309561865048364 -1.7547996729941251 -1.2318598507346405 -2.013438112946262 -1.7623042552240358 -1.9591309740602831 -1.8062198487666994 -1.9602944907376276 -1.7308338855507521 -1.7775187907894916 -2.0340767575865293 -2.0340767575865293 -2.0340767575865293 -2.0340767575865293
leaf_weight=28294.355702102184 14.503083080053331 145.24464493989944 148.01637768745422 219.74142114818096 500.1340007930994 1017.0407413393259 1323.5970424115658 802.63052324950695 2367.893345490098 25.748886212706566 2470.7624774724245 2655.7396600097418 2541.3547039479017 963.84483548998833 1470.990724593401 236.209049269557 2.8393413275480262 227.45653308928013 633.05731213092804 381.67526686191559 83.638794437050819 624.67979282140732 101.85626809298992 20.090628653764725 430.95861150324345 99.959711074829102 663.34132857620716 67.459048807621002 248.380062058568 165.68715533614159 235.2013803422451 118.13348409533501 4.2896496355533591 49.750524371862411 125.43220911920071 13.244485631585119 457.53561644256115 680.02834524214268 10.933093398809431 58.829462647438049 13.162785246968268 20.07808855175972 16.368226602673531 135.43648353219032 45.232968792319298 829.84884412586689 39.054647132754326 8.4975988864898664 132.11947999894619 15.049905568361281 63.670589879155159 2.9917536973953238 9.2392356395721418 6.7440175414085379 2.6570671647787085 58.904829740524292 133.98617522418499 8.7018498480319959 28.894603982567787
leaf_count=109203 130 918 1065 1737 2005 6999 7391 6002 15216 161 18174 17197 18545 5225 9957 506 8 1684 5372 1362 232 3197 913 151 3194 896 4387 372 1476 1363 2021 611 21 190 531 78 3217 5095 98 347 54 52 106 1214 388 5292 257 18 1161 100 530 21 77 43 18 528 1201 78 259
internal_value=-1.91941 -1.51886 -1.50081 -1.48204 -1.46952 -1.44821 -1.75257 -1.7871 -1.68729 -1.8227 -1.80031 -1.82064 -1.78958 -1.7491 -1.71435 -1.38851 -1.61525 -1.59673 -1.87265 -1.57511 -1.61845 -1.51452 -1.83015 -1.81526 -1.744 -1.84335 -1.79473 -1.75571 -1.78923 -1.78415 -1.86992 -1.80266 -1.73307 -1.31042 -1.53284 -1.25798 -1.84485 -1.83748 -1.62739 -1.84732 -1.8301 -1.55125 -1.50826 -2.00404 -1.89002 -1.74547 -1.74673 -1.66135 -1.94883 -1.97687 -1.93377 -1.988 -1.80832 -1.93782 -2.02928 -2.02306 -2.03408 -2.03408 -2.03408
internal_weight=0 37278.6 35236.1 33294.6 32179.4 29311.4 14994.3 11981.6 2868.03 1941.49 11597.2 8300.91 5197.09 3296.3 2434.84 384.372 3012.75 2741.75 3103.82 2413.59 1407.24 1006.36 2042.5 1900.39 824.862 1115.16 763.301 328.156 679.339 1601.09 1075.52 271.002 197.027 315.572 145.523 249.454 623.223 825.273 129.067 861.46 240.619 87.5371 66.1188 340.405 70.9819 977.865 68.7993 47.5522 351.861 250.251 67.9602 73.9752 12.0786 21.2471 142.11 61.8966 269.423 139.453 37.5965
internal_count=268644 170259 155505 141604 133423 116202 98385 82147 17221 13901 80819 59288 35742 21531 15182 1328 16238 14344 23546 12182 7623 4559 14754 13486 5352 8181 5283 2162 4670 10937 8134 1894 1260 880 682 584 4580 6013 709 6349 1738 424 296 2964 549 6357 448 275 2898 2121 551 634 85 173 1268 549 2415 1250 337
is_linear=0
shrinkage=1


Tree=1
num_leaves=61
num_cat=0
split_feature=32 114 130 30 128 131 136 116 105 32 134 106 30 133 133 107 108 79 115 32 71 121 111 0 127 52 31 56 32 134 56 27 24 53 71 72 18 71 110 97 126 98 80 104 4 122 117 27 4 52 21 66 72 122 98 79 32 136 125 16
split_gain=23622.5 9747.95 6880.09 6144.18 4416.51 4300.77 3326.5 3550.57 2144.35 1647.4 1660.87 1729.55 1598.07 930.179 883.5 854.567 588.118 671.514 544.925 537.29 532.639 473.231 443.516 436.469 383.216 556.12 353.575 301.993 563.234 283.645 322.747 269.252 264.791 201.755 199.337 199.257 436.937 240.415 188.347 183.336 133.351 133.8 129.344 128.725 101.395 141.34 95.0994 92.8111 161.331 91.4791 158.923 67.6174 55.3973 33.982 27.4654 23.708 19.8051 1.40227 0.0219467 5.68434e-14
threshold=0.94908720254898082 -0.86851423978805531 1.0000000180025095e-35 1.0838072299957278 1.0000000180025095e-35 1.0000000180025095e-35 1.0000000180025095e-35 -1.1871818900108335 -0.94424450397491444 0.95447379350662243 1.0000000180025095e-35 -0.85717362165451039 1.095778286457062 1.0000000180025095e-35 1.0000000180025095e-35 -0.83719637989997853 -0.88907369971275318 -1.2688017487525938 -0.93634730577468861 0.96343839168548595 -0.40340319275856013 -0.91043263673782338 -0.98319005966186512 0.53108292818069469 -2.0703212022781368 1.1157597303390505 0.99236243963241588 0.97450095415115368 0.95829764008522045 1.0000000180025095e-35 0.98086869716644298 1.3589064478874209 1.1966923475265505 1.0627930760383608 -0.38882164657115931 -0.55969390273094166 1.1013509631156924 -0.4715778231620788 -0.92532956600189198 -0.99026989936828602 -1.3640211224555967 -0.92692396044731129 -1.2686451673507688 -0.80930268764495839 0.32741245627403265 -1.5785875320434568 -1.2733205556869505 1.2338806390762331 0.6443561613559724 1.1189390420913699 1.2197558283805849 0.43655818700790411 -0.66399580240249623 -1.0865106582641599 -0.99496188759803761 -1.2657986283302305 0.94491809606552135 1.0000000180025095e-35 -0.37753826379775995 1.1228829622268679
decision_type=2 2 2 2 2 2 2 2 2 2 2 2 2 2 2 2 2 2 2 2 2 2 2 2 2 2 2 2 2 2 2 2 2 2 2 2 2 2 2 2 2 2 2 2 2 2 2 2 2 2 2 2 2 2 2 2 2 2 2 2
left_child=1 2 3 4 5 -1 7 14 13 10 32 -12 -10 -5 29 23 19 27 -6 24 -17 40 49 -11 43 -26 31 28 -18 33 -31 -24 -9 -2 -29 37 -37 -21 42 -28 41 52 -19 -8 45 -16 -46 54 -49 50 -4 -51 -3 -43 -42 -40 57 58 -23 -59
right_child=6 21 22 8 18 -7 16 9 12 15 11 -13 -14 -15 44 20 17 38 -20 35 -22 56 26 -25 25 -27 39 34 -30 30 -32 -33 -34 -35 -36 36 -38 -39 55 -41 47 53 -44 -45 46 -47 -48 48 -50 51 -52 -53 -54 -55 -56 -57 -58 59 -60 -61
leaf_value=0.30955060364978348 0.17470641237109075 0.29653740338305812 0.52275948249640425 0.059480334172084641 0.022497070553912542 0.1214546793542817 0.15578109653750352 0.33875733872750369 0.18196620752231041 0.064648345890073219 0.26665374996608809 0.038486355176206084 0.030499523853041915 0.33852566962777225 0.32054319053263408 0.084204686789429287 0.26853130507742767 0.18261356542652152 0.23226485416493886 0.48140158926295745 0.16388005598842947 -0.11634564308339788 0.16964438034173304 0.3208083796017232 0.19856251494562727 0.3946976973829609 0.16642152186843939 0.37880664011849219 0.16271191539735308 -0.073132485529656899 0.48456108656757513 -0.048514644645743295 0.088877621814366259 -0.061764913578630287 0.031141097687545229 0.020977402929617493 0.36452179246878263 0.010747129215396785 0.45959206091751198 0.026815660504119543 0.16590994160119918 0.24046649535105424 0.45648887865137733 -0.017842973434314881 0.41886487737030775 -0.063267011786400026 0.34038050767668471 0.39810549078655877 0.033248188520060319 -0.083936793219580558 0.015201575538703389 0.20509279125088284 0.65263242387697462 -0.11725456756836945 -0.082560350374157099 0.57257445016495623 0.17506237988209744 -0.12378955443255653 -0.11315052313867201 -0.12378955443255653
leaf_weight=36777.157192334533 71.662960700690746 14.794948607683184 6.3856713175773612 135.92455684393644 630.7593924626708 1257.1436296850443 83.901242174208164 43.378531239926815 3150.3047463521361 7125.1099055707455 1715.0440872758627 412.03625036031008 894.30656185746193 986.11285847425461 49.33464115858078 1528.2237884476781 1232.1962762251496 33.666650183498859 154.09336747229099 11.30189737677574 1860.541291885078 22.667009718716145 745.5398013740778 67.143548727035522 959.92891522496939 170.19391471147537 115.52918877452612 197.29181172698736 849.93679466843605 14.39541485160589 37.173850446939468 61.218946129083633 1894.2637487649918 72.66392894089222 17.995986871421337 84.355382889509201 65.976964540779591 273.36355888843536 25.723259873688221 506.36790485680103 4.8066710904240599 3.7925580441951743 35.351085759699345 86.958942160010338 318.24727141857147 11.911216191947458 299.84913602471352 14.546765297651289 72.61981488019228 158.78829707950354 181.83600246161222 8.5289582386612874 6.1993252485990515 8.8580755516886693 59.743120610713959 66.812316507101059 2.3407951816916457 4.967848300933837 416.78983364999294 175.27189786732197
leaf_count=102549 351 62 15 751 4641 7526 407 182 15199 47951 6164 2436 5975 2733 157 10235 4573 150 770 20 10691 190 4165 321 4154 414 665 492 4061 99 74 501 11880 541 105 620 195 1799 42 3680 26 17 68 569 416 81 684 52 504 1440 1329 54 9 71 478 73 14 32 4062 1129
internal_value=0 0.270968 0.277045 0.284853 0.298488 0.303333 0.140381 0.119026 0.182407 0.107334 0.161446 0.222455 0.148475 0.304722 0.314677 0.0865471 0.219391 0.250851 0.0636816 0.174828 0.127949 -0.0734731 0.0845396 0.0670397 0.206997 0.2281 0.109412 0.236994 0.225335 0.127578 0.328883 0.15309 0.0944717 0.0556507 0.349745 0.078617 0.17175 0.0294332 0.447918 0.0527501 0.0667731 0.246886 0.322893 0.0674155 0.36863 0.245899 0.380791 0.0268309 0.0941373 -0.0154036 0.0324212 -0.0692036 0.401687 -0.0100127 -0.0640581 0.541167 -0.115265 -0.116362 -0.113315 -0.12379
internal_weight=0 46577.4 45770 43985.8 38819.2 38034.3 19715.9 15521 5166.65 14645.7 4064.72 2127.08 4044.61 1122.04 875.238 10581 4194.95 2458.97 784.853 1735.98 3388.77 807.399 1784.19 7192.25 1300.98 1130.12 1428.66 2297.42 2082.13 195.896 51.5693 806.759 1937.64 144.327 215.288 434.998 150.332 284.665 161.553 621.897 185.361 33.6449 69.0177 170.86 679.342 61.2459 618.096 151.716 87.1666 355.539 188.222 167.317 20.9943 12.6506 64.5498 92.5356 622.037 619.697 439.457 180.24
internal_count=268644 158639 151993 140144 115486 110075 110005 92263 24658 89860 20662 8600 21174 3484 2403 69198 17742 9564 5411 8178 20926 6646 11849 48272 5544 4568 9011 9231 8634 1065 173 4666 12062 892 597 2634 815 1819 333 4345 1219 159 218 976 1338 238 1100 1060 556 2838 1344 1494 71 88 504 115 5427 5413 4252 1161
is_linear=0
shrinkage=0.1


Tree=2
num_leaves=58
num_cat=0
split_feature=106 31 48 129 136 130 29 110 77 115 31 134 77 27 29 102 5 30 115 107 85 70 130 103 71 116 109 88 110 35 29 64 74 78 31 93 100 122 2 102 69 121 38 53 34 6 47 51 114 107 103 79 73 119 118 114 125
split_gain=14005.5 6316.27 3897.51 3254.64 3245.14 3193.15 3065.41 2625.99 1643.21 1511.56 1754.86 1229.26 832.141 643.188 599.726 500.228 466.487 454.288 441.3 322.426 310.557 318.822 263.915 333.223 303.117 256.362 249.488 239.273 234.14 177.933 165.397 147.669 128.202 107.654 145.179 98.7653 98.2272 89.1553 74.9486 73.7403 64.995 61.8221 49.7352 47.1807 81.4851 37.4216 29.0339 61.6489 76.9262 21.5482 9.24376 6.44619 13.1389 2.34395 0.560741 0.135847 0.0158548
threshold=-0.86162266135215748 1.0052565336227419 1.2341418862342837 1.0000000180025095e-35 1.0000000180025095e-35 1.0000000180025095e-35 1.2196913957595827 -1.2053218483924864 -1.3032737970352171 -0.8231498897075652 0.99896618723869335 1.0000000180025095e-35 -1.0381331443786619 0.99725663661956798 1.2353544831275942 -0.84763744473457325 0.6283843219280244 1.0688841938972475 -0.96395817399024952 -0.8939242660999297 -1.2668616175651548 -0.40023799240589136 1.0000000180025095e-35 -0.89912444353103627 -0.54056596755981434 -1.4729683399200437 -1.0881179571151731 -1.2765368223190305 -0.95844432711601246 0.91603183746337902 1.1785746216773989 0.47683955729007726 -0.89145547151565541 -0.96433204412460316 1.0116496086120608 -0.91271951794624318 -0.85379788279533375 -1.6390668153762815 0.23030135780572894 -0.93646538257598866 -0.23373960703611371 -0.94214674830436695 0.98820245265960704 1.0269219279289248 0.87733837962150585 0.59121868014335643 1.2404772639274599 1.1983872652053835 -1.3913350105285642 -0.93967705965042103 -0.81594398617744435 -0.34349822998046869 -0.38780200481414789 -1.6479458212852476 -1.5793805718421934 -0.86851423978805531 -0.37753826379775995
decision_type=2 2 2 2 2 2 2 2 2 2 2 2 2 2 2 2 2 2 2 2 2 2 2 2 2 2 2 2 2 2 2 2 2 2 2 2 2 2 2 2 2 2 2 2 2 2 2 2 2 2 2 2 2 2 2 2 2
left_child=1 3 4 5 9 6 7 -1 43 10 11 -2 20 -5 -8 17 -17 -10 -12 36 21 39 24 -24 -22 46 42 -23 49 31 -21 -28 -30 34 35 -14 -7 -31 50 -3 -40 -11 -27 55 -45 -36 47 53 -49 -15 -35 52 -48 -4 -53 -6 -43
right_child=2 12 25 13 8 19 14 -9 15 41 18 -13 33 28 -16 16 -18 -19 -20 30 22 27 23 -25 -26 26 29 -29 32 37 -32 -33 -34 38 45 -37 -38 -39 40 -41 -42 56 -44 44 -46 -47 51 48 -50 -51 -52 54 -54 -55 -56 -57 -58
leaf_value=0.04961735405773713 0.098513557478722286 0.18075373504223638 0.40844482891232059 0.50358253846584988 -0.13067837830891071 0.044592418186990959 0.13314303693540494 0.23262116184709647 0.24729834686781899 0.35524915336791918 0.022332682532379036 0.19051476324101535 0.26458538715369323 -0.11101947489861699 0.0033218950062169853 0.16922608655075291 -0.058526809719051637 0.068437322704484591 0.074585167349844703 0.11957799112086315 0.0063965062068902165 0.38126958702401814 0.33209550663805487 -0.051990892849038198 0.088293125016432161 -0.13242070495215097 0.056757619690327478 0.14167200608856853 0.031335513867663659 0.2891681999735794 -0.084671838309719527 0.31841502942584082 0.46364168955509505 -0.12616797950462447 0.10468652098205107 0.14648007272829741 -0.048800210856969541 -0.11918571232777248 0.11233652307375963 -0.010583351652650719 0.28343834602262369 -0.11490056642178836 0.19824771174696978 0.35483658835873955 -0.061424406352377052 -0.040596858959768674 0.39839737673886888 0.3516380682667698 -0.0044737844523724622 -0.056501188485202317 0.092347543531308904 0.40600704969449519 0.29456173297917776 0.36469089655439413 0.39385867925831564 -0.12117469853598273 -0.11175893686172267
leaf_weight=797.90581557899714 7678.4578962102532 22.834663197398186 30.248926162719727 25.032833084464073 16.619499281048775 173.80546919256449 978.4089320152998 45325.21535820514 1481.1777960807085 2.8534087985754004 3248.3863040953875 1791.0540242344141 124.76181219518185 121.71764515340328 559.24141985923052 3421.3789772540331 92.359240606427193 157.06167587637901 3216.9384405314922 419.06445132941008 604.34682124108076 44.702822528779507 24.272009260952473 325.55202515423298 1792.0545189529657 17.194660708308223 22.769528582692146 616.39095299690962 378.05388118326664 8.1896168440580386 43.789299674332142 408.98225201666355 6.9866060465574256 5.0984114110469818 38.822573259472847 163.72027022391558 319.89373130351305 15.401078432798384 25.000032335519791 170.82498996704817 198.28323913365602 16.774105429649353 6.1846704930067053 5.5961541682481757 29.45519545674324 32.630957491695881 39.811084926128387 14.082829833030702 10.655852138996122 179.28355020284653 3.1209531724452955 205.10469572246075 17.561867654323578 20.569578275084496 46.633714213967323 158.32294906675816 379.42902272939682
leaf_count=3085 41265 122 24 32 93 1220 3929 114162 3552 8 21138 5769 317 812 2944 12271 532 603 19506 2439 3821 117 101 2462 9865 93 122 2905 2079 24 366 700 13 32 193 620 2466 122 85 1165 286 150 16 7 147 193 35 18 46 1157 14 167 31 24 43 1099 4037
internal_value=0 0.208073 0.11413 0.218088 0.105839 0.221194 0.224825 0.229455 0.17334 0.0836798 0.0884939 0.115915 0.0902346 0.00569438 0.0859273 0.184516 0.16324 0.230151 0.0483318 0.0402933 0.0721791 0.124818 0.0557954 -0.0253416 0.0676397 0.322491 0.273646 0.157873 -0.012473 0.290004 0.100254 0.304616 0.0391798 0.200166 0.16595 0.197558 -0.0159216 0.0225762 0.253364 0.0119775 0.264281 -0.108552 -0.0449471 -0.100861 0.00503411 0.0383394 0.38328 0.327711 0.198248 -0.0785471 -0.043196 0.396863 0.366613 0.390735 0.403757 -0.122078 -0.111892
internal_weight=0 53520.8 22559.3 49328.4 21695.9 48617.3 47660.8 46123.1 5361.97 16333.9 15934.8 9469.51 4192.42 711.075 1537.65 5151.98 3513.74 1638.24 6465.32 956.553 3600.98 854.753 2746.23 349.824 2396.4 863.39 478.722 661.094 686.042 455.342 462.854 431.752 385.04 591.438 359.936 288.482 493.699 23.5907 231.503 193.66 223.283 399.057 23.3793 209.994 35.0513 71.4535 384.669 75.5572 24.7387 301.001 8.21936 309.111 57.373 50.8185 251.738 174.942 396.203
internal_count=268644 157002 111642 134704 110177 130611 124120 117247 18304 91873 87678 47034 22298 4093 6873 16958 12803 4155 40644 6491 20558 4309 16249 2563 13686 1465 1077 3022 4061 968 2805 822 2092 1740 1323 937 3686 146 417 1287 371 4195 109 1346 154 386 388 112 64 1969 46 276 66 48 210 1192 4187
is_linear=0
shrinkage=0.1


Tree=3
num_leaves=63
num_cat=0
split_feature=32 52 131 130 129 128 136 133 107 109 69 36 38 114 130 81 70 110 90 34 59 69 35 115 72 106 62 54 74 117 52 115 76 32 75 105 48 14 72 36 135 110 107 92 77 45 114 117 80 72 48 32 80 103 30 126 106 136 99 105 107 106
split_gain=9083.66 4233.84 2940.35 3164.23 2666.22 2555.02 1344.04 1125.67 755.313 568.925 518.652 755.268 626.753 511.853 491.06 418.227 399.562 380.369 342.788 341.154 297.002 352.993 505.864 295.467 285.432 249.253 238.348 193.97 185.229 174.692 174.438 169.805 189.718 141.588 124.064 86.0023 141.428 74.6383 79.0617 73.8097 63.1965 90.5768 82.5774 58.2673 51.6729 36.0399 23.7119 52.2481 23.5816 18.9517 37.566 33.2893 13.47 11.015 6.58436 58.1292 0.807276 0.694723 0.0587156 0.0209722 0.0204324 0.0133149
threshold=0.95348358154296886 0.7801460623741151 1.0000000180025095e-35 1.0000000180025095e-35 1.0000000180025095e-35 1.0000000180025095e-35 1.0000000180025095e-35 1.0000000180025095e-35 -0.83926576375961293 -0.89290067553520192 -0.056867735460400574 0.95525047183036815 0.97473710775375377 -0.9382793903350829 1.0000000180025095e-35 -1.2729626297950742 -0.20960124582052228 -0.90906894207000721 -1.1432853341102598 0.93668773770332348 0.80114501714706432 -0.095139008015394197 0.90559440851211559 -1.0976402759552 -0.61130788922309864 -0.83532592654228199 0.59156030416488659 1.0639969110488894 -1.0185989141464231 -0.93673822283744801 1.0753429532051089 -0.94364067912101735 -1.174545884132385 0.92907720804214489 -1.1127054691314695 -0.84800788760185231 1.0807478427886965 0.81099429726600658 -0.52673664689064015 0.90635371208190929 1.0000000180025095e-35 -0.91196018457412709 -0.96171870827674855 -1.1463819742202757 -1.0575300455093382 0.70677450299263012 -0.91495221853256214 -0.90405219793319691 -1.1398798823356626 -0.5318293273448943 1.1653173565864565 0.96040916442871105 -1.1570680141448972 -0.92391201853752125 1.0389431118965151 -1.8797786831855772 -0.86124819517135609 1.0000000180025095e-35 -0.9676452875137328 -0.95228639245033253 -0.86495190858840931 -0.86162266135215748
decision_type=2 2 2 2 2 2 2 2 2 2 2 2 2 2 2 2 2 2 2 2 2 2 2 2 2 2 2 2 2 2 2 2 2 2 2 2 2 2 2 2 2 2 2 2 2 2 2 2 2 2 2 2 2 2 2 2 2 2 2 2 2 2
left_child=1 13 3 4 5 -3 7 9 -6 14 12 -12 -11 40 15 -2 -16 27 -19 20 21 22 -8 37 30 -26 -23 -5 29 43 -22 32 -30 -31 -33 36 -25 38 -9 -39 42 53 59 -4 -44 -43 47 52 -49 54 -51 -52 -15 -42 55 -21 58 -58 -48 -1 -56 -37
right_child=6 2 28 17 8 -7 19 23 -10 10 11 -13 -14 46 16 -17 -18 18 -20 49 24 26 -24 35 25 -27 -28 -29 31 33 -32 34 -34 -35 -36 61 -38 39 -40 -41 41 45 44 -45 -46 -47 56 48 -50 50 51 -53 -54 -55 60 -57 57 -59 -60 -61 -62 -63
leaf_value=-0.13326656830540698 0.010449915232626748 0.18272321251362003 0.22152446947662763 0.044077496906028503 0.0071141662360961729 0.04646011537790061 0.12516345687255423 -0.038889235679887509 0.15622297390347703 0.08233470916742397 0.17433107652655921 0.060675778886212617 -0.013385695266775931 -0.045050618520238159 -0.040331918146530782 0.071876025272528524 0.11853881619034501 0.077849898292701253 0.21703021565478453 -0.11766062392439797 -0.12800435665310436 0.41219083624299763 -0.0068556891400529483 -0.12020101611572741 0.13033777593617443 0.23698339517629333 0.12879921939715408 -0.051528869803820612 -0.010579722490315614 0.086348704240343799 0.24219019889036342 0.108331000084108 0.088453516884794262 0.006289353196125072 0.27121194018054123 -0.12285513403800191 0.15670617614781873 0.11353907854336492 0.17198510526077151 0.23309376816570496 -0.13363887111757872 0.013084090057977619 -0.030349682907988975 -0.098012578186332924 0.18364422746370918 0.27113731852403211 -0.12407065890534447 0.18913498416731125 -0.04254907210356098 0.34645609797079252 0.20828711726719767 -0.1184959115903776 -0.12985649453659948 -0.029300325167332678 -0.11695916582589867 0.37879394314468678 -0.11054706662155429 -0.11883489327279451 -0.13162576164849379 -0.12442298797924736 -0.12518769854485162 -0.1180136864652464
leaf_weight=6.5490239411592484 1582.8340058922768 56808.531478889287 5.9858631268143645 1056.421492151916 1169.1530472114682 1410.2206188440323 1030.6125281155109 21.336589440703392 478.86130371689796 2899.151457361877 1214.0642558932304 1127.8497511148453 895.29178167879581 31.383996337652206 1053.7020643875003 3698.1697735562921 186.29410065710545 1011.1133177280426 214.49789795279503 16.683968290686611 13.12599605321884 58.077601432800293 404.02337173372507 25.222660407423973 1963.4804213270545 246.69161232560873 60.69289930164814 265.54918164014816 245.36537077277899 395.57771080732346 420.42728570103645 130.9545816630125 914.06997882574797 500.27313002198935 72.737557202577591 8.0664048343896884 68.635755389928818 57.327382415533066 106.645593136549 520.44770514219999 21.20161147415638 9.1028469353914279 12.866064727306364 122.34749814122915 91.760817177593708 13.348325982689856 22.895750150084496 10.585670053958895 7.5099073350429526 2.9339374750852611 4.0912185534834888 13.095940016210077 46.4479900598526 19.354694455862045 39.895539067685604 2.7467931881546965 348.50489588081837 142.49661335349083 18.678536847233772 4.5408618897199613 3.2646200507879248 19.205294393002987
leaf_count=35 10255 127837 26 6674 6512 8199 3778 105 1934 16800 5278 6077 5856 152 7531 19926 1001 5444 713 132 77 76 2067 182 6668 556 219 2194 1453 1862 915 670 4362 3242 246 54 317 204 303 929 116 35 56 871 232 21 153 29 35 11 15 100 269 84 326 10 4045 1071 104 29 21 150
internal_value=0 0.164226 0.167061 0.171227 0.175872 0.179423 0.0836157 0.0681191 0.0504405 0.0607342 0.0825895 0.119595 0.0597497 -0.0633785 0.040168 0.0534653 -0.0164636 0.0620779 0.102208 0.13244 0.136403 0.1017 0.0879841 0.181161 0.156794 0.142241 0.267375 0.0248727 0.0581445 0.0260094 0.230982 0.0822891 0.0674956 0.0416409 0.166495 0.0368725 0.0822926 0.205926 0.136829 0.221231 0.085948 0.00536244 0.129827 -0.0831084 0.157329 0.166509 -0.105842 -0.0600751 0.092983 -0.0686793 0.0157453 -0.0407087 -0.0956604 -0.0838454 -0.0958193 -0.0474803 -0.114085 -0.112952 -0.127465 -0.129645 -0.117582 -0.119446
internal_weight=0 65608.9 64801.7 62414.3 59866.8 58218.8 17764.1 13484.2 1648.01 12657.4 6136.36 2341.91 3794.44 807.228 6521 5281 1240 2547.58 1225.61 4279.84 4197.13 1553.41 1434.64 826.887 2643.73 2210.17 118.771 1321.97 2387.31 1024.18 433.553 1363.13 1159.44 895.851 203.692 121.13 93.8584 705.757 127.982 577.775 178.724 63.0075 115.717 128.333 104.627 22.4512 628.503 95.9276 18.0956 82.712 20.1211 17.1872 77.832 40.5563 62.5909 19.4308 532.576 491.002 41.5743 11.0899 43.1602 27.2717
internal_count=268644 178705 172239 159507 144482 136036 89939 74968 8446 72724 34011 11355 22656 6466 38713 30181 8532 15025 6157 14971 14356 6140 5845 2244 8216 7224 295 8868 12732 6001 992 6731 5815 5104 916 703 499 1541 408 1133 608 256 352 897 288 56 5858 485 64 615 126 115 421 200 489 142 5373 5116 257 64 347 204
is_linear=0
shrinkage=0.1


Tree=4
num_leaves=58
num_cat=0
split_feature=106 31 30 36 48 115 136 129 130 31 134 133 104 38 108 79 30 108 78 135 102 134 32 87 94 117 49 68 72 103 109 108 55 132 106 35 70 30 23 127 74 35 64 119 114 58 71 120 106 120 136 107 120 53 3 108 104
split_gain=6592.9 3125.29 2085.02 2241.59 2072.91 1647.6 1644.86 1290.93 1065.57 1019.36 1002.18 933.601 748.274 546.939 537.738 452.168 395.56 317.157 358.692 300.589 195.736 186.393 350.884 169.993 138.995 134.045 138.522 172.914 129.636 129.375 123.961 116.906 116.493 104.587 103.919 91.3402 88.9584 81.9087 82.2433 69.7595 51.1413 47.3108 42.2469 38.8952 37.9917 22.0826 8.26174 47.8188 73.498 0.994488 0.538131 0.491414 0.626982 0.197074 0.166519 0.037431 0.0324535
threshold=-0.86277887225151051 1.0052565336227419 1.0915051698684695 0.92791450023651134 1.2341418862342837 -0.8231498897075652 1.0000000180025095e-35 1.0000000180025095e-35 1.0000000180025095e-35 0.99255922436714183 1.0000000180025095e-35 1.0000000180025095e-35 -0.94648507237434376 1.0086017251014712 -1.0662890672683714 -1.042056620121002 1.0979841947555544 -0.88907369971275318 -1.3380149006843565 1.0000000180025095e-35 -0.90506288409233082 1.0000000180025095e-35 0.95674756169319164 -1.2962706089019773 -0.92429140210151661 -1.5236119031906126 1.2337046861648562 0.20548384636640551 -0.683538258075714 -0.78544706106185902 -0.94211444258689869 -0.86866831779479969 0.94187197089195263 1.0000000180025095e-35 -0.9300919473171233 0.91279369592666637 -0.62368309497833241 1.1031807661056521 1.2903786897659304 -1.8508577942848203 -0.79096466302871693 0.90559440851211559 0.64989191293716442 -1.6332119107246397 -1.3660486936569212 0.64454665780067455 -0.19090463966131208 -1.7428128719329832 -0.81469199061393727 -1.7589341402053831 1.0000000180025095e-35 -0.94948759675025929 -1.731426954269409 1.1136620640754702 0.77459412813186657 -1.0022134780883787 -0.93552228808403004
decision_type=2 2 2 2 2 2 2 2 2 2 2 2 2 2 2 2 2 2 2 2 2 2 2 2 2 2 2 2 2 2 2 2 2 2 2 2 2 2 2 2 2 2 2 2 2 2 2 2 2 2 2 2 2 2 2 2 2
left_child=1 2 3 7 5 6 9 8 -1 10 -2 14 19 -11 -5 21 20 29 -19 24 -14 23 32 31 -4 46 27 44 -25 -8 -9 -3 -23 -18 -13 36 -28 38 55 -24 -40 50 -37 -29 -27 -21 51 49 -49 -48 53 -6 -53 -7 -52 -17 -39
right_child=4 15 12 11 25 41 17 30 -10 13 -12 34 16 -15 -16 37 33 18 -20 45 -22 22 39 28 -26 26 35 43 -30 -31 -32 -33 -34 -35 -36 42 -38 56 40 -41 -42 -43 -44 -45 -46 -47 47 48 -50 -51 54 52 -54 -55 -56 -57 -58
leaf_value=0.16059628618671537 0.079401042196915406 0.30694394253169888 0.20461895288362542 -0.049753366784146186 0.27993713565209322 -0.10959986539215659 0.088277533763676072 -0.069329681679631647 0.04179853600012403 0.051983728748249497 0.18733546031020243 0.20956002103545421 0.081525897961295127 -0.060016562993696426 0.070047454530771464 -0.13437223603970014 -0.029850469528943102 -0.0015480389126821875 0.13965513476875119 -0.11083827687085386 -0.023659404359356657 0.11932610966898023 0.041190319675454078 0.015012433474671936 0.049468303588281151 0.24237194660998759 -0.032359272996602871 0.04897039133609965 0.054476618486753087 -0.030858818531525833 0.034579935487689992 0.040665255707401537 0.25656577715091661 0.43469562189795119 0.13401086969256759 -0.033849233895226809 0.22579367772101425 -0.14261987838563356 0.13314053756141633 -0.10597482655973652 0.1979542885021259 0.25135670557541484 0.2504979834893335 -0.14534568256182478 0.072444777514663758 0.048865339091536591 0.2751140735809009 -0.084501320922413678 0.27224117280003585 0.25779742549350676 -0.14408420307836858 0.27244253852878908 0.26111831699024218 -0.14448094677554205 -0.11679687592158948 -0.12229972698977001 -0.13070118616364923
leaf_weight=50278.004368208349 4970.2878161221743 40.314433842897415 451.44392514973879 437.9750941246748 48.489376902580261 331.81730204820633 1213.8256600797176 172.17269476503134 766.54504333436489 11927.98204844445 1040.3097250014544 430.55859054625034 1123.3122525438666 452.55724541842937 2592.2494560778141 4.4200887531042099 722.14712987095118 186.75874929130077 4898.9789761006832 37.809412591159344 209.9840520247817 126.76067425310612 89.132716059684753 1390.9370708167553 66.210889592766762 43.175207763910294 13.719746142625807 16.866720646619797 2072.8030275478959 98.551843240857124 344.5840056091547 27.897514618933201 120.78326097130775 4.8791527152061454 315.47113557159901 21.622889034450058 493.3178684040904 6.5724418610334396 369.29384070634842 50.436663955450058 181.61100594699383 3.6125142350792876 6.8901027217507353 26.462136909365654 18.92413367331028 11.229558274149893 53.637875393033028 10.60992279648781 12.673752307891844 86.886349007487297 2.2747408449649802 153.68478867411613 71.703097879886627 1.6276970803737629 132.52878801524639 6.1300343200564367 3.5017784386873227
leaf_count=101596 21958 70 831 1788 31 4178 4242 1136 4776 63243 1937 567 4315 3010 9376 25 3835 716 12406 215 1005 371 536 8028 200 48 68 46 10464 541 1779 137 271 8 805 140 661 32 956 364 214 12 11 126 62 43 35 43 8 66 11 98 54 8 1080 42 20
internal_value=0 0.141415 0.147641 0.151773 0.0817605 0.0759635 0.079487 0.15722 0.158812 0.0642936 0.0980823 0.0774032 0.0605945 0.0478897 0.052732 0.0610455 0.0326043 0.12316 0.13447 0.162358 0.06496 0.0489276 0.114801 0.0417076 0.184774 0.217519 0.188389 0.0836136 0.038629 0.0793311 -4.06099e-05 0.198041 0.186289 -0.0267329 0.177613 0.209015 0.218808 0.14414 0.149211 -0.0119913 0.154507 -0.109144 0.0348627 -0.0697038 0.190588 -0.0742673 0.260179 0.242414 0.10968 0.264407 -0.111926 0.270805 0.26884 -0.10977 -0.117257 -0.127358 -0.138477
internal_weight=0 62455.2 57964.6 55337.6 26339.8 25261.1 24789.3 51561.3 51044.5 18391.1 6010.6 3776.25 2627.02 12380.5 3030.22 4490.59 2060.32 6398.12 5085.74 566.694 1333.3 3919.07 387.113 3531.95 517.655 1078.66 640.979 105.428 3463.74 1312.38 516.757 68.2119 247.544 727.026 746.03 535.551 507.038 571.529 561.455 139.569 550.905 471.861 28.513 43.3289 62.0993 49.039 437.685 163.808 23.2837 140.524 468.249 273.877 225.388 333.445 134.804 10.5501 10.0742
internal_count=268644 153805 132275 121823 114839 113342 108053 109287 106372 90148 23895 12536 10452 66253 11164 21530 9163 17905 13122 1289 5320 20241 1542 18699 1031 1497 1162 282 18492 4783 2915 207 642 3843 1372 880 729 1289 1237 900 1170 5289 151 172 110 258 335 152 51 101 5277 183 152 4186 1091 67 52
is_linear=0
shrinkage=0.1


Tree=5
num_leaves=62
num_cat=0
split_feature=32 52 30 103 117 108 134 105 131 40 83 136 30 53 33 70 103 38 29 114 2 1 27 35 133 1 31 100 53 126 38 107 68 62 134 124 31 106 135 110 107 118 94 75 34 115 106 45 31 113 108 87 127 107 101 103 106 136 32 99 105
split_gain=5080.7 2527.65 2109.47 2444.16 1990.98 3145.75 1454.94 1133.59 1132.55 1132.27 780.336 918.748 624.604 613.425 492.04 737.401 643.835 560.884 481.07 366.805 356.65 310.531 298.502 228.425 209.287 198.985 174.001 349.979 241.154 112.218 242.202 95.7031 82.0579 62.5986 94.677 46.7199 45.6832 45.405 44.3555 65.7204 57.0964 40.6937 79.1757 40.1086 36.7298 35.3284 25.441 23.0435 22.1247 16.8269 38.8651 32.7614 16.1919 15.067 10.0774 9.20658 1.23298 0.359561 0.242654 0.0717768 0.0290535
threshold=0.94908720254898082 0.7801460623741151 1.0809513330459597 -0.85525494813919056 -1.5330090522766111 -1.0707197189331052 1.0000000180025095e-35 -0.94198006391525257 1.0000000180025095e-35 0.95534059405326854 -0.98841908574104298 1.0000000180025095e-35 1.0930430293083193 0.97048035264015209 0.95109850168228161 -0.18985090404748914 -0.76090368628501881 1.0073623657226565 1.2072784304618838 -0.9382793903350829 0.67056757211685192 0.54892385005950939 1.3380285501480105 0.94027453660964977 1.0000000180025095e-35 0.603527992963791 1.0061246752738955 -0.90061336755752552 1.044120252132416 -1.7970772385597227 1.0086017251014712 -0.99266850948333729 0.082895144820213332 0.55001378059387218 1.0000000180025095e-35 -1.9643722176551817 0.98809790611267101 -0.95221176743507374 1.0000000180025095e-35 -0.91196018457412709 -0.96171870827674855 -1.2972194552421568 -0.80445042252540577 -1.018460690975189 0.94188028573989879 -0.97706702351570118 -0.91363006830215443 0.70677450299263012 0.98357483744621288 -0.91240942478179921 -0.88604238629341114 -1.1001959443092344 -2.2666705846786495 -0.87805089354515065 -0.93793484568595875 -0.92391201853752125 -0.86238157749176014 1.0000000180025095e-35 0.95174404978752147 -0.9676452875137328 -0.95228639245033253
decision_type=2 2 2 2 2 2 2 2 2 2 2 2 2 2 2 2 2 2 2 2 2 2 2 2 2 2 2 2 2 2 2 2 2 2 2 2 2 2 2 2 2 2 2 2 2 2 2 2 2 2 2 2 2 2 2 2 2 2 2 2 2
left_child=1 19 3 6 5 -5 8 18 -3 -6 11 14 13 -9 15 16 -2 -17 21 38 -20 -4 -8 26 31 -14 28 -28 -13 30 -16 35 41 37 -35 -12 44 -33 40 55 60 52 -43 -42 -34 -31 -38 -41 -25 50 54 -52 -26 -50 -21 -40 59 -58 -37 -51 -1
right_child=10 2 7 4 9 -7 22 12 -10 -11 24 23 25 -15 29 17 -18 -19 20 49 -22 -23 -24 48 32 -27 27 -29 -30 45 -32 33 36 34 -36 58 46 -39 39 47 43 42 -44 -45 -46 -47 -48 -49 53 56 51 -53 -54 -55 -56 -57 57 -59 -60 -61 -62
leaf_value=-0.13358339540812456 0.053475124007720191 0.14930898605587178 0.12124387389123373 -0.036294610119311593 0.043164154984245355 0.20294164423757241 0.22427126393465846 0.097888073510815757 0.051407238526358791 0.10748467077899204 0.14224326408958229 0.0620927999958511 -0.036103759619006248 0.026380552457480635 0.16013052468339251 0.17618336606822874 -0.085430103229709772 0.053444248969915564 -0.032686151405144019 -0.065072760330905283 0.12915857307674794 0.21549546429835598 -0.07619454208431739 0.15590275481518351 0.18337233455301596 0.034303533250867817 0.20651343224205401 0.040017901828991592 0.11968812072520177 -0.11507799509106612 -0.027306433472645608 -0.047648623911984156 0.04983081810431543 -0.015132845719120101 0.16309661152178764 -0.14522414041209483 -0.14116874398710091 0.21302164092241568 -0.13433597718642573 -0.004274722518460789 -0.076717496935208462 0.16756442471434319 0.0048549728509822481 0.12773382124048369 0.23416825528941271 -0.029780453104115086 0.070368837464136386 0.19135751873896328 -0.083065840495166743 -0.12471265100463953 0.17792724142589747 -0.14044975929538869 0.22117418395737487 0.031631373335241991 -0.13527358482144897 -0.040343042190810724 -0.10846489443773694 -0.11494090509396444 -0.12727013522619879 -0.13319547480207736 -0.12304814104508568
leaf_weight=6.56597501039505 15790.567528322339 22461.480378136039 592.4657903239131 635.77126272022724 3114.0651249140501 4056.6120636165142 2744.481169372797 4200.8133874461055 1247.2324540317059 22594.055104285479 7.5767198875546447 891.93360789120197 618.43569925427437 1679.2024784237146 80.250258132815361 866.05121167749166 340.88937245309353 653.05957096070051 216.01489610224962 51.354589454829693 368.31508979946375 852.63039039075375 33.467318877577782 4.7263877391815177 315.18485364317894 1143.8325920924544 147.27743841707706 884.34246368706226 3930.8206451460719 140.90958175808191 489.12666408717632 7.7114765495061866 27.266022965312004 78.42765936255455 48.074372470378876 12.567067041993143 13.162846252322199 50.065165728330612 21.139607347548008 9.7939967364072817 10.530167169868944 330.37227921187878 32.883255511522293 108.07819050550461 17.908784732222557 74.087076440453529 10.008161589503286 15.629365906119345 77.110165610909462 20.858350567519665 10.557556316256521 4.6580713242292395 176.91250941157341 13.450880512595175 33.97846096009016 20.552512511610985 290.65944677591324 121.60388795286417 18.772763840854168 19.116633787751198 4.3530469685792905
leaf_count=35 77030 42400 1292 2318 9418 5106 2974 11438 5494 53280 30 2816 3513 6694 385 3099 2022 3129 872 266 868 1097 121 15 334 5288 290 3594 10316 1018 3090 35 78 429 99 61 66 100 116 35 47 456 99 241 26 448 38 21 586 139 21 23 116 83 179 84 4047 1079 117 104 29
internal_value=0 0.120578 0.122634 0.129975 0.110627 0.170528 0.152181 0.0794584 0.144159 0.0996934 0.0681868 0.0643954 0.0618163 0.0774671 0.0533682 0.0568121 0.0505398 0.123418 0.145894 -0.0620478 0.0693279 0.176854 0.220651 0.098563 0.148799 0.00959539 0.101063 0.0637873 0.109036 -0.024131 -0.00088832 0.0618962 0.169797 0.0919882 0.0525994 -0.0805959 0.0643556 0.17823 0.0552505 -0.0107282 0.0894379 0.178222 0.152835 0.109582 0.122908 -0.0856848 -0.0498002 0.115993 -0.0550219 -0.103774 -0.0667728 0.0804602 0.196962 -0.0660301 -0.0930258 -0.0880013 -0.112001 -0.110375 -0.13447 -0.128769 -0.129383
internal_weight=0 67308.3 66558.9 56887.2 30400.5 4692.38 26486.7 9671.71 23708.7 25708.1 25531.5 24384.6 7642.28 5880.02 18434.9 17650.6 16131.5 1519.11 2029.43 749.43 584.33 1445.1 2777.95 5949.66 1146.89 1762.27 5854.37 1031.62 4822.75 784.374 569.377 223.195 923.699 184.279 126.502 38.9166 68.3458 57.7766 196.643 67.1155 129.527 855.353 363.256 118.608 45.1748 214.997 23.171 25.4234 95.2874 552.787 100.549 15.2156 492.097 90.561 85.3331 41.6921 452.238 412.263 31.3398 39.975 10.919
internal_count=268644 158639 152173 121111 70122 7424 50989 31062 47894 62698 110005 107921 26933 18132 90221 85280 79052 6228 4129 6466 1740 2389 3095 17700 2084 8801 17016 3884 13132 4941 3475 871 1213 663 528 208 208 135 608 256 352 1005 555 288 104 1466 104 56 684 5858 489 44 450 669 445 200 5369 5126 178 243 64
is_linear=0
shrinkage=0.1


Tree=6
num_leaves=60
num_cat=0
split_feature=106 31 55 29 36 32 134 111 136 133 33 31 116 38 88 57 128 101 29 118 20 76 110 70 130 31 133 27 62 124 0 55 130 130 105 37 2 104 132 57 110 78 136 32 38 34 85 92 19 52 37 75 112 124 22 35 108 29 130
split_gain=4125.17 1855.28 1418.38 1332.25 1436.91 1135.31 1307.33 1254.32 1062.2 656.431 648.055 776.753 603.784 421.627 365.536 361.385 337.95 312.674 308.896 302.479 365.856 284.938 221.45 236.148 214.023 214.008 208.483 191.429 157.637 209.507 150.24 139.583 138.895 124.607 172.919 137.141 107.75 84.6127 74.8042 72.9985 61.501 79.4803 57.5582 56.4727 48.816 41.6185 38.7371 38.7105 38.5016 36.1663 29.756 27.8346 18.3242 14.2298 12.6229 0.0650013 0.0587427 0.0376067 0.00424476
threshold=-0.86162266135215748 1.0052565336227419 1.0765425562858584 1.2196913957595827 0.92925360798835765 0.87463021278381359 1.0000000180025095e-35 -1.2698804736137388 1.0000000180025095e-35 1.0000000180025095e-35 0.8175444006919862 0.99043849110603344 -0.89966779947280873 1.0073623657226565 -1.0281809568405149 0.93436703085899364 1.0000000180025095e-35 -0.89552387595176686 1.2414839267730715 -1.6019754409790037 1.3223094940185549 -1.0384859442710874 -0.91876590251922596 -0.37691776454448694 1.0000000180025095e-35 1.0061246752738955 1.0000000180025095e-35 1.1609793901443484 0.28259688615798956 -1.1319379210472105 0.53108292818069469 1.0535060167312624 1.0000000180025095e-35 1.0000000180025095e-35 -0.9079187512397765 0.95345178246498119 0.81129074096679699 -0.84003159403800953 1.0000000180025095e-35 0.9926317334175111 -1.0088546276092527 -0.96433204412460316 1.0000000180025095e-35 0.95778620243072521 1.033071041107178 0.89086863398551952 -1.0907781124114988 -1.1061357855796812 1.2556968331336977 1.2233245968818667 0.86724400520324718 -1.0285120010375974 -1.031429588794708 -1.632942199707031 1.7775616645812991 0.91016480326652538 -0.87342366576194752 1.0691677331924441 1.0000000180025095e-35
decision_type=2 2 2 2 2 2 2 2 2 2 2 2 2 2 2 2 2 2 2 2 2 2 2 2 2 2 2 2 2 2 2 2 2 2 2 2 2 2 2 2 2 2 2 2 2 2 2 2 2 2 2 2 2 2 2 2 2 2 2
left_child=1 3 8 4 5 7 -7 -1 10 15 19 16 17 -13 45 -6 -12 48 28 31 -21 22 33 32 26 -19 27 -16 29 -5 -25 -2 -24 35 -35 -3 38 40 -20 -11 41 -23 -30 54 52 47 -42 50 -10 -28 -4 -49 -26 58 -14 56 -47 -57 -39
right_child=2 21 14 18 9 6 -8 -9 12 39 11 13 43 -15 24 -17 -18 25 36 20 -22 37 23 30 44 -27 49 -29 42 -31 -32 -33 -34 34 -36 -37 -38 53 -40 -41 46 -43 -44 -45 -46 55 -48 51 -50 -51 -52 -53 -54 -55 -56 57 -58 -59 -60
leaf_value=-0.021430266209507456 -0.10848092792361436 0.031987733036642138 0.14878868632776465 0.1069639012542018 -0.021471217233397288 0.099606020573283563 0.14335025045755773 0.14558143217060038 0.024997135108138432 0.14394260460909628 0.097971785385751464 0.038121978231452441 -0.11383650715271199 -0.043162840038430635 0.15556017108845283 0.054257473997796471 0.028808354253538032 0.093228083605881071 -0.073192786807342397 -0.092960030247658032 0.058052703206495741 0.073473400848150891 -0.0016038842074330385 0.085026322264308007 -0.1182468787484202 0.031981592891385378 -0.15306664471658279 0.24533621946705778 -0.072163574931604649 0.027505244817632685 0.20482023207609715 0.24825484982111529 0.13820351532590813 0.26303166954649487 -0.059903114120154116 -0.065262210681102398 0.18998334286093677 -0.12176876763545955 0.084321143481288718 0.016629113348962506 0.080900043845578667 0.13678213916703491 0.16877625614910627 0.33655173311876435 0.23043750039911037 -0.12335412398134689 0.27055742705169594 -0.046928257037998675 0.19006529058887106 0.099349577368944689 -0.12988722539923905 0.19338872501377136 0.051074207176605137 0.11897311830411535 0.11187823746525988 -0.12729381204732257 -0.1417836887465069 -0.12028449804298852 -0.11872441750847634
leaf_weight=464.32370883971453 14.061112076044081 2178.5210052579641 4.8112646788358715 550.09490809589624 913.05032474547625 34828.674666501582 8499.0787938684225 14271.494549304247 14.738792940974234 698.9924360960722 3315.6631690785289 13052.203239992261 157.90658029913902 670.93236388266087 1135.5237398818135 2033.8586255908012 897.76854221522808 5652.7692406922579 358.44441729038954 649.36554078012705 213.06882460415363 676.91241484880447 471.77389335632324 587.55903897434473 33.354418888688087 634.55888193100691 22.83849368989468 300.33180302381516 126.56752703338861 836.32041753083467 127.39131671190262 49.866038128733635 83.661822155117989 17.569266900420189 294.79397048801184 155.34693980962038 18.045471340417862 14.405019558966165 32.918986663222313 48.138118103146553 16.140604473650455 280.46877758949995 10.757654622197149 2.8790294826030722 5.5362199619412413 3.162705734372139 32.361485630273819 7.2787326872348812 342.2794383764267 7.5537976622581473 18.816528886556625 14.265908613801001 7.9065893813967696 2.8036866933107367 2.5171409398317328 11.979428760707377 3.8166165500879279 21.201431564986706 6.7149644941091529
leaf_count=1586 55 10560 14 1521 4051 76187 14692 23177 40 1132 10901 64441 1293 4399 1529 6527 4362 14155 1912 5433 1041 2182 2697 2312 269 2401 104 229 688 2929 221 39 382 53 2177 998 30 100 96 153 65 406 23 3 12 22 81 33 404 15 112 34 48 13 6 74 19 155 51
internal_value=0 0.105354 0.0593777 0.109935 0.112494 0.116342 0.108187 0.140319 0.0536867 0.0520198 0.0414665 0.0456788 0.0875471 0.0341479 0.150776 0.0307942 0.0832349 0.092216 0.0281893 -0.0400942 -0.0556516 0.0463583 0.0340513 0.0683698 0.162133 0.0870467 0.168852 0.174338 0.0489096 0.0590325 0.106371 0.169789 0.0194544 0.0175759 -0.0417392 0.0255146 -0.0489277 0.0931649 -0.0599437 0.13574 0.0975855 0.09202 -0.0532891 -0.102417 -0.0483892 -0.0505933 0.207443 0.0152554 0.183251 -0.0903303 -0.0731412 0.112199 -0.0858009 -0.092701 -0.110295 -0.12466 -0.133432 -0.122815 -0.120801
internal_weight=0 68637.2 27269 63690.8 61757.6 58063.6 43327.8 14735.8 25670.6 3694.04 18862.9 17936.6 6807.65 13723.1 1598.38 2946.91 4213.43 6644.35 1933.15 926.362 862.434 4946.42 3916.62 1270.39 1513.05 6287.33 1466.25 1435.86 1523.74 1386.42 714.95 63.9272 555.436 2646.23 312.363 2333.87 409.409 1029.81 391.363 747.131 1005.88 957.381 137.325 163.303 46.7972 85.3326 48.5021 45.1724 357.018 30.3923 23.6278 21.5446 41.261 23.9237 160.424 40.1602 6.97932 33.1809 21.12
internal_count=268644 157002 111642 134704 127505 115642 90879 24763 108973 11863 90671 84103 18302 68840 2669 10578 15263 17000 7199 6568 6474 22298 19400 5612 2206 16556 1877 1758 5161 4450 2533 94 3079 13788 2230 11558 2038 2898 2008 1285 2734 2588 711 1302 329 463 146 193 444 119 126 67 317 164 1299 270 41 229 151
is_linear=0
shrinkage=0.1


Tree=7
num_leaves=63
num_cat=0
split_feature=106 30 103 104 48 105 78 129 131 32 50 30 118 136 31 115 38 108 30 51 49 5 30 99 100 23 107 68 30 38 101 133 30 29 6 31 70 30 26 0 73 116 109 49 114 91 35 109 52 71 114 47 54 59 114 73 68 94 71 94 114 35
split_gain=3274.78 1653.48 1920.42 1572.36 1191.2 1038.53 980.401 923.313 965.824 909.018 898.997 780.738 731.827 705.261 779.041 655.999 603.486 565.984 535.27 490.937 375.483 456.046 339.54 339.52 328.215 265.426 252.831 227.899 223.021 214.532 210.716 245.267 206.291 166.87 129.29 118.54 114.062 111.158 106.558 123.99 93.8197 91.6829 170.709 81.1951 62.4662 61.4211 58.4493 51.0404 97.4781 44.8606 40.1332 27.2062 67.7249 29.365 17.8477 12.464 11.6432 10.4824 5.41069 30.8006 2.17799 1.99733
threshold=-0.86317807435989369 1.079593360424042 -0.8488493263721465 -0.75520086288452137 1.2341418862342837 -0.94424450397491444 -0.43791681528091425 1.0000000180025095e-35 1.0000000180025095e-35 0.82211589813232433 1.0755762457847597 1.0719158053398135 -1.6019754409790037 1.0000000180025095e-35 0.99896618723869335 -1.4315172433853147 1.0073623657226565 -1.0602107048034666 1.095778286457062 1.1571059226989748 1.0196403264999392 0.7633873224258424 1.0948197841644289 -0.91139227151870716 -0.8738206923007964 1.4415513277053835 -0.87885126471519459 -0.14922667294740674 1.0688841938972475 0.9810614585876466 -0.88813593983650196 1.0000000180025095e-35 1.1104772090911867 1.1799913048744204 0.70074114203453075 0.90618309378623974 -0.36140365898609156 1.1031807661056521 1.2429396510124209 0.43441389501094824 -0.69346377253532399 -1.4684211611747739 -1.0812575817108152 1.1169224381446841 -0.97678634524345387 -1.2177256941795347 0.91279369592666637 -1.1040647029876707 1.1489806771278384 -0.2197054326534271 -1.3712289929389951 1.2404772639274599 1.1199539303779604 0.91736769676208507 -1.3875260949134824 -0.7990320324897765 -0.080509010702371583 -0.8340991437435149 -0.19090463966131208 -0.20230795443058011 -1.3913350105285642 0.8610854744911195
decision_type=2 2 2 2 2 2 2 2 2 2 2 2 2 2 2 2 2 2 2 2 2 2 2 2 2 2 2 2 2 2 2 2 2 2 2 2 2 2 2 2 2 2 2 2 2 2 2 2 2 2 2 2 2 2 2 2 2 2 2 2 2 2
left_child=1 2 7 6 9 22 10 8 11 12 -4 -1 47 14 16 17 -11 -5 20 -17 21 -7 30 32 -16 29 40 -22 -28 -14 31 -3 -24 -32 56 -8 -10 -36 43 -40 -15 51 49 -9 -27 57 -47 48 -2 50 -43 52 54 -54 -6 -25 -20 -44 60 -60 -53 -49
right_child=4 5 3 15 41 18 35 38 36 13 -12 -13 25 26 24 19 -18 -19 34 -21 27 -23 23 55 -26 44 28 -29 -30 -31 33 -33 -34 -35 37 -37 -38 -39 39 -41 -42 42 45 -45 -46 46 -48 61 -50 -51 -52 58 53 -55 -56 -57 -58 -59 59 -61 -62 -63
leaf_value=0.13500040321984116 -0.10712348350880618 -0.0034523690719247047 0.0022275407356443051 0.04396538452977259 0.19602428923031937 0.07887270277410513 -0.11880616854711275 0.35702747996083528 0.020359193822723304 0.068143705725326284 0.07880759716183279 0.095824390939804244 -0.095136482671309044 -0.0069604711111952494 0.051008067659704996 0.1738114376857671 -0.0019891389217823255 0.16517065032692052 -0.096000600655041804 0.0012073588829945151 -0.0228574724683803 -0.0086465180052243858 0.11831933333835006 -0.13249726158762348 0.0065699912622559989 0.091342377286785278 0.088017059211430992 0.041344780376631411 -0.0040270450686150198 0.064743450793260091 0.097832265653602257 0.17368493280085415 -0.025541074538589253 -0.1310133075057188 0.016400462975799873 0.26361699119827092 0.079711361517079027 -0.058406850298128969 -0.099258393849384188 0.009256042923195297 0.16055186449491832 0.2020467269348552 -0.12947729931735563 0.022919504067407136 -0.075890149480018959 0.15284167383066394 0.022242235009709795 0.22480778683810676 0.21741622813590855 -0.15706896107223059 -0.093223211254106181 0.1893420264409473 0.14821384953465808 -0.1139102560462103 0.10005740506847671 -0.057375051707401897 0.10291458070470741 0.077856151793304476 0.077934752358438664 0.19338968501108311 0.20596513048802489 0.25567436496252316
leaf_weight=19849.556318581104 14.280873358249663 83.513596266508102 1649.9398370906711 433.90120573341846 70.497135549783707 5040.5024847090244 292.80445300042629 12.55684766918421 942.12740406394005 10152.205805361271 21618.684933125973 6839.9841944798827 871.83548964560032 410.89720559865236 2327.5090432018042 233.20848287642002 1395.6098616793752 3437.1877787709236 186.12856551259756 561.66377335786819 762.53743839263916 675.13903582841158 536.6097007393837 65.504017397761345 5813.3398746624589 126.44029656052589 6506.3523047566414 2011.0587835684419 274.34072422981262 92.867337048053741 156.86926174163818 1220.8014219850302 122.41698782891035 39.985294625163078 768.18071477860212 8.3362018167972547 493.352151080966 267.90906199067831 169.00778556615114 279.31626912206411 36.396539062261581 8.8933010548353213 9.6586023494601232 17.288035936653614 27.128142684698105 483.61844768375158 36.882070668041706 43.160267725586891 26.296957686543465 24.623471826314926 9.5425945371389371 185.86664386093616 6.1972721517086056 13.76996850967407 26.726247474551201 33.321085572242737 2.9899035841226569 3.2620744258165351 27.709927529096603 139.08636848628521 136.8538036942482 40.76407890021801
leaf_count=30494 57 297 4955 1062 45 12537 1255 22 3847 37974 51477 13284 7157 1611 10741 262 7564 3835 1292 1467 3152 2515 1074 319 31862 384 15528 7493 841 294 281 1421 497 158 3633 10 2070 1583 976 1268 99 7 59 74 203 621 176 33 21 110 35 117 8 54 46 116 13 13 48 86 84 27
internal_value=0 0.0929426 0.100057 0.0815568 0.0530433 0.0591688 0.0710572 0.11832 0.120663 0.0489133 0.0733774 0.12496 -0.0347027 0.0527739 0.0429663 0.134594 0.0596678 0.151585 0.0449668 0.0518479 0.0538844 0.0685348 0.120242 0.0656774 0.0192751 -0.0603076 0.0794895 0.0236938 0.084293 -0.0797456 0.147788 0.162343 0.0915967 0.0513489 -0.0168216 -0.10822 0.0407576 -0.00294299 -0.0194716 -0.0316514 0.0066701 0.151337 0.12278 0.163491 0.0618004 0.138241 0.143588 0.195279 0.103198 -0.0687495 0.0492122 0.178472 0.135192 -0.0325543 0.169643 -0.107168 -0.0928558 -0.077132 0.188833 0.174209 0.196391 0.2398
internal_weight=0 68812.4 56838.9 28235.7 29342.6 11973.5 23569.8 28603.2 28125 28159.4 23268.6 26689.5 1242.77 26916.7 19688.7 4665.96 11547.8 3871.09 9714.45 794.872 8489.24 5715.64 2259.02 757.852 8140.85 1118.27 7227.99 2773.6 6780.69 964.703 1501.17 1304.32 659.027 196.855 1225.21 301.141 1435.48 1036.09 478.169 448.324 447.294 1183.19 576.481 29.8449 153.568 533.421 520.501 124.502 40.5778 43.0594 18.4359 606.707 117.191 19.9672 97.2234 98.8251 189.118 12.9207 489.517 166.796 322.72 83.9243
internal_count=268644 152739 116358 64323 115905 36381 57697 52035 49695 114396 56432 43778 8176 106220 88141 6626 45538 4897 32218 1729 25697 15052 4163 2006 42603 8038 18079 10645 16369 7451 2157 1718 1571 439 6521 1265 5917 5216 2340 2244 1710 1509 1021 96 587 869 797 138 78 152 42 488 153 62 91 435 1305 72 335 134 201 60
is_linear=0
shrinkage=0.1


Tree=8
num_leaves=59
num_cat=0
split_feature=32 134 51 32 106 133 133 108 103 118 111 136 97 54 6 101 101 5 31 52 31 70 71 41 114 73 133 128 0 40 75 32 76 57 8 21 100 105 83 66 70 95 30 117 122 27 114 75 31 95 107 127 23 30 71 99 75 106
split_gain=2790.85 1439.78 1306.56 1225.41 2506.76 1918.91 1197.68 1417.83 1003.57 786.267 767.089 618.478 547.918 1047.81 484.753 789.657 700.68 885.608 674.626 483.449 467.425 281.207 259.852 258.134 252.436 246.767 236.661 234.96 226.683 175.929 168.746 168.242 142.365 136.279 135.649 104.975 94.5206 93.3319 115.123 82.2817 64.5008 55.203 51.0984 52.4381 41.0108 39.5748 32.9715 52.5883 25.8234 23.4797 22.4625 14.86 14.6135 25.5202 12.3428 11.1325 2.85001 2.12112
threshold=0.94651404023170482 1.0000000180025095e-35 0.79141592979431163 0.89341619610786449 -0.95352229475975026 1.0000000180025095e-35 1.0000000180025095e-35 -1.0684352517127989 -0.92681485414504994 -1.2508966922760008 -1.0762391686439512 1.0000000180025095e-35 -0.96709221601486195 0.95218184590339672 0.65971544384956371 -0.86335521936416615 -0.84209051728248585 0.61331483721733104 1.0058274865150454 1.1420434117317202 1.0030813813209536 -0.27060501277446741 -0.50585818290710438 0.96760821342468273 -0.9382793903350829 -0.80378463864326466 1.0000000180025095e-35 1.0000000180025095e-35 0.48054698109626776 1.064964294433594 -0.90580874681472767 0.96896153688430797 -1.1689887046813963 0.9926317334175111 0.75297576189041149 1.1710147857666018 -0.89451345801353443 -0.91297185420989979 -0.94307434558868397 0.24883613735437396 -0.301135703921318 -1.0527684688568113 1.0479076504707339 -1.2789484262466428 -1.6077746152877805 1.1664174199104311 -1.0499286055564878 -0.99037912487983693 0.99995949864387523 -0.86064666509628285 -0.98729696869850148 -2.1792316436767574 1.7595775723457339 1.0749572515487673 -0.32423795759677881 -0.80482667684555043 -0.92237594723701466 -0.86277887225151051
decision_type=2 2 2 2 2 2 2 2 2 2 2 2 2 2 2 2 2 2 2 2 2 2 2 2 2 2 2 2 2 2 2 2 2 2 2 2 2 2 2 2 2 2 2 2 2 2 2 2 2 2 2 2 2 2 2 2 2 2
left_child=1 2 24 6 5 -5 7 -4 -8 26 29 -6 32 36 16 22 18 20 28 -15 -18 -19 23 -16 46 -20 30 -24 -11 33 56 40 41 44 -34 54 -14 50 -39 48 -17 -12 45 -44 -3 -41 49 -48 55 -1 -32 -50 57 -54 -31 -28 -2 -26
right_child=9 10 3 4 11 -7 8 -9 -10 14 12 -13 13 19 15 31 17 21 25 -21 -22 -23 27 -25 52 -27 39 -29 -30 35 37 -33 34 -35 -36 -37 -38 38 -40 42 -42 -43 43 -45 -46 -47 47 -49 51 -51 -52 -53 53 -55 -56 -57 -58 -59
leaf_value=-0.12216428164076619 0.24819153828817561 -0.17486976195549797 0.012380808127995427 0.00061481974555312971 0.042152035727294743 0.12931174447174243 0.11839059513111164 0.10761973294492713 -0.035734938497456861 0.094289481052712745 0.20710867932493493 0.082777442258027578 -0.027541772425861883 0.10892564652675017 0.058145093956572393 -0.10094472829371531 0.050435067231588686 -0.083432022678933279 0.0091798729358706331 0.18953387152671231 0.010967568376583735 0.048059041122060372 0.062341707471258362 -0.033905904489850501 -0.12988453699518801 0.070993849160955302 0.19096152166461366 0.23953340791761019 0.20546290563231576 -0.17070777428564105 -0.14551828688153398 0.35984065902589962 0.2161754098495032 0.13030391067016517 -0.16841239882301173 0.19742830582192594 -0.15555142652928131 -0.068743367116691392 0.083889567249700536 0.059990203543021585 -0.020185153395075369 0.16982547555299765 0.078842637233515978 -0.17080348464866668 -0.06746510903141488 0.13807894287531383 0.0024254191370669635 0.11259568171636121 0.1256692885517173 0.070245281042515414 0.060589410155579698 0.16713106756331667 -0.016869311982327415 -0.12673166469513172 -0.0055709159338232592 0.15837188060755469 0.19805742071136728 -0.10776911883790863
leaf_weight=21.776784382760528 21.45097354054451 98.087184980511665 1675.2433102577925 1353.8079852983356 19650.469558730721 8033.1021845787764 649.00085559487343 23357.852233484387 1210.374777302146 4122.2332724779844 582.39428098499775 4630.4233727753162 111.5666419416666 3901.581192150712 555.01528070867062 633.17870679497719 15420.608268782496 760.51580603420734 1537.7982097193599 919.35279732942581 3725.7870862260461 206.88648666441441 704.0628492385149 675.31220630556345 50.063815556466579 1113.4207012355328 185.04331877827644 83.73590113222599 191.9477411210537 9.9039677530527133 39.029178753495216 8.4707262367010099 15.353910058736799 21.97030334174633 22.775257468223572 37.356673955917358 119.42939445376396 69.874291628599167 168.77297781407833 101.99110458791256 117.20112624764442 1248.4478714168072 21.757485508918762 13.719345904886721 55.76138074696064 178.45480719208717 109.80990152806044 71.563767038285732 300.20586033165455 8.948235020041464 6.116388961672782 121.39725196361542 48.27104078233242 37.624506920576096 8.3353635221719724 241.76404096186161 24.054474711418152 324.28648795187473
leaf_count=104 15 402 4663 3716 56943 11368 1070 42143 3571 11504 405 8719 320 6269 2306 3199 58279 4025 7654 827 17924 976 2220 3708 307 4151 134 248 361 41 206 21 10 31 98 39 468 361 478 237 583 1238 40 61 175 233 352 130 331 24 15 101 185 234 23 238 27 5133
internal_value=0 0.0829985 0.0780394 0.0795785 0.0668653 0.110751 0.0954947 0.101246 0.0180614 0.046966 0.125454 0.0498994 0.131443 0.114329 0.0434238 0.0036337 0.0475043 0.0380382 0.0748391 0.124298 0.0427549 -0.0553116 0.0363329 0.00761939 -0.0605951 0.0351396 0.117771 0.0811756 0.0992358 -0.0536416 0.042922 -0.0833282 0.177702 -0.102672 -0.013546 0.101413 -0.0937252 0.014257 0.0391997 0.13894 -0.088331 0.181685 0.0953759 -0.0176987 -0.135942 0.10968 0.029667 0.0458948 0.155162 -0.0661277 -0.117595 0.137608 -0.102191 -0.0649919 -0.0952403 0.172501 0.22169 -0.110727
internal_weight=0 68384.9 61232.6 60560.3 33667.8 9386.91 26892.5 25033.1 1859.38 31349.8 7152.32 24280.9 6920.9 5051.93 29856.2 2776.98 27079.2 20113.8 6965.4 4820.93 19146.4 967.402 2018.13 1230.33 672.345 2651.22 1493.63 787.799 4314.18 231.415 329.298 758.851 1868.97 175.819 38.1292 55.596 230.996 283.793 238.647 1164.33 750.38 1830.84 315.923 35.4768 153.849 280.446 212.099 181.374 848.41 30.725 45.1456 421.603 460.246 85.8955 18.2393 426.807 45.5054 374.35
internal_count=268644 149008 138662 132193 80746 15084 51447 46806 4641 119636 10346 65662 9635 7884 117159 12285 104874 81204 23670 7096 76203 5001 8482 6014 6469 11805 2477 2468 11865 711 1102 3803 1751 608 108 103 788 1060 839 1375 3782 1643 571 101 577 470 610 482 804 128 221 432 5859 419 64 372 42 5440
is_linear=0
shrinkage=0.1


Tree=9
num_leaves=55
num_cat=0
split_feature=106 130 30 103 119 108 48 131 128 50 105 115 136 30 101 30 127 30 98 134 78 107 75 101 113 31 107 70 54 32 74 59 30 30 36 57 85 90 54 89 88 76 35 110 116 48 60 47 70 76 55 7 22 26
split_gain=2383.21 1398.5 1368.01 1352.21 1101.79 1700.72 889.675 818.469 814.799 778.101 614.079 613.622 525.632 550.115 520.122 374.825 343.171 236.794 264.371 233.318 188.391 258.109 186.927 174.757 110.973 129.62 130.019 108.866 95.487 131.865 110.434 77.5934 67.4547 60.6738 51.4381 43.7089 40.6066 36.4976 63.0309 35.903 35.29 39.3043 31.4774 23.4918 22.2031 50.624 11.5021 9.14665 3.99906 0.576993 0.2677 0.131166 0.0805789 0.0451895
threshold=-0.85941213369369496 1.0000000180025095e-35 1.0809513330459597 -0.8488493263721465 -1.6430171132087705 -1.0707197189331052 1.2392253875732424 1.0000000180025095e-35 1.0000000180025095e-35 1.0748581886291506 -0.94424450397491444 -0.8231498897075652 1.0000000180025095e-35 1.0567451119422915 -0.84550222754478443 1.0979841947555544 -3.4936761856079097 1.0948197841644289 -0.91437816619873036 1.0000000180025095e-35 -1.3380149006843565 -0.85898518562316883 -1.1167221069335935 -0.88813593983650196 -1.0341520905494688 1.0107600092887881 -0.91620558500289906 -0.37378773093223566 0.99398180842399608 0.94358032941818248 -1.0455082654953001 0.88976371288299572 1.0567451119422915 1.1031807661056521 0.93635886907577526 0.83968305587768566 -1.1733355522155759 -1.1361929178237913 1.1064804792404177 -0.80356675386428822 -1.2448475956916807 -1.059555649757385 0.90559440851211559 -1.0335777401924131 -1.4684211611747739 1.2492545247077944 0.70843598246574413 1.0801395773887636 -0.056252071633934968 -0.58102685213088978 1.0703224539756777 0.70172876119613659 1.200056314468384 1.1262773871421816
decision_type=2 2 2 2 2 2 2 2 2 2 2 2 2 2 2 2 2 2 2 2 2 2 2 2 2 2 2 2 2 2 2 2 2 2 2 2 2 2 2 2 2 2 2 2 2 2 2 2 2 2 2 2 2 2
left_child=1 2 3 7 5 -5 11 8 -1 -6 17 12 13 16 -15 19 -2 23 -19 -12 32 -22 28 -4 40 26 -26 -9 29 30 -3 36 -14 -17 44 -31 37 38 -8 53 -24 -42 49 -41 48 -46 51 -27 -33 52 -38 -30 -13 -36
right_child=6 22 10 4 9 -7 31 27 -10 -11 15 42 20 14 -16 33 -18 18 -20 -21 21 -23 24 -25 25 47 -28 -29 46 35 -32 34 -34 -35 39 -37 50 -39 -40 43 41 -43 -44 -45 45 -47 -48 -49 -50 -51 -52 -53 -54 -55
leaf_value=0.10170634627572378 -0.076923010052142943 0.14634767874072765 0.12844225458222433 -0.07297294961981525 -0.0046786574926749288 0.14321705614465594 0.28806717988542641 0.0071106253212229785 -0.033911569451763754 0.063574879348634969 0.034286157313972859 -0.10593966763756642 0.005684671121549037 0.017168435663483004 -0.064096055612439917 -0.012211716860248545 0.038817202971483375 0.071392754945965683 -0.090004216246229604 0.13827636736860119 0.045789472064028586 0.086450147421349766 0.26167361650421511 0.013017810184744631 0.15985055111960239 -0.12123652615725172 -0.0016814122601425088 0.057661318340719782 -0.12682786402608137 0.058484600673798563 -0.04915983130493428 0.16896061144703189 -0.11725489249325756 -0.067945723560652801 -0.13304906711197384 0.28378923267878603 -0.14266620190109522 0.17440488470689586 -0.13332742843431275 -0.020054135279043733 -0.12544672902833273 -0.050770151329477611 0.15604880580605895 0.19956551293769748 0.075139554503740297 0.15339871924670898 0.066195997144847613 -0.070360878223941908 0.14648749475056227 -0.14680167528898916 -0.17424848676282312 -0.14341954652726738 -0.10924195360035463 -0.1188046050954488
leaf_weight=28809.479681685567 260.65140464901924 57.901329681277275 1200.2039358615875 411.43855890631676 1789.9688374847174 3148.2277151197195 4.7017116546630833 985.99160870164633 449.93154670670629 24976.427208200097 7588.9767187610269 182.61822712421417 143.8003056794405 2893.1185794398189 1082.2061237990856 509.25051254034042 14928.08693793416 661.80133195966482 119.87291148304939 222.06993728876114 3459.2805950194597 2845.2487001121044 3.3493733406066886 147.26662085950375 52.27052329480648 70.583663903176785 1067.2027965337038 750.15755564719439 12.945973619818693 10.775482252240179 57.666606582701206 318.99666248261929 64.715406611561775 316.8597724288702 3.0022060200572041 42.856363035738468 6.9056566059589368 16.017545402050022 14.485202603042126 8.9658064469695109 85.723922833800316 396.36846797168255 4.590090036392211 10.662933416664599 116.76658916473389 282.97244144976139 3.3791628926992408 70.768577352166176 105.32782699167728 3.7382565438747397 4.3900674879550934 7.5397600829601279 124.10756702721119 8.6266363561153394
leaf_count=45374 939 172 1572 1679 5381 3366 5 3949 1943 56397 22989 3518 422 12751 6338 2510 63175 1494 505 315 9266 5846 4 358 199 508 5520 3031 80 43 281 205 290 1964 18 93 34 24 84 32 546 2467 12 12 193 263 13 512 89 18 19 36 1717 73
internal_value=0 0.0729476 0.075202 0.0809742 0.0659616 0.118229 0.0381901 0.0956626 0.0996209 0.0590105 0.0423254 0.0348022 0.0365042 0.0281632 -0.00495427 0.0304679 0.036831 0.0904273 0.0466419 0.0372426 0.0610467 0.0641397 -0.0108517 0.115827 -0.0211747 -0.00553256 0.00586085 0.0289526 0.0825197 0.108932 0.0487925 0.135835 -0.0324711 -0.0335888 0.142674 0.238522 0.0100323 0.0629657 -0.0300656 0.0167584 -0.0618015 -0.0640489 -0.103908 0.09925 0.14745 0.130539 -0.104738 -0.0957654 0.163382 -0.107752 -0.154941 -0.132934 -0.107276 -0.122482
internal_weight=0 74027.3 72087.9 61321.6 30326.1 3559.67 26894 30995.6 29259.4 26766.4 10766.3 25992.2 25677.1 19164.1 3975.32 8637.16 15188.7 2129.14 781.674 7811.05 6513.05 6304.53 1939.33 1347.47 1746.27 1260.83 1119.47 1736.15 193.065 169.2 115.568 901.821 208.516 826.11 855.321 53.6318 46.5002 35.2045 19.1869 31.2576 485.442 482.092 315.054 19.6287 824.064 399.739 23.8649 141.352 424.324 310.464 11.2957 20.4857 306.726 11.6288
internal_count=268644 163301 152827 121120 66823 5045 105343 54297 47317 61778 31707 104292 99027 83203 19089 27778 64114 3929 1999 23304 15824 15112 10474 1930 9756 6739 5719 6980 718 589 453 1051 712 4474 885 136 166 113 89 135 3017 3013 5265 44 750 456 129 1020 294 5253 53 116 5235 91
is_linear=0
shrinkage=0.1


Tree=10
num_leaves=61
num_cat=0
split_feature=32 131 130 30 102 4 128 105 100 71 101 72 103 38 71 31 27 37 29 111 56 30 122 102 6 72 66 17 91 131 47 64 101 3 104 67 0 101 3 98 75 116 74 30 32 117 69 122 47 126 52 16 13 63 32 21 115 29 52 6
split_gain=2106.39 1058.15 1112.71 1030.62 1579.29 1335.46 852.432 644.194 429.961 415.133 672.692 683.247 574.979 399.453 585.882 332.145 315.089 281.31 273.668 225.662 254.833 218.233 248.86 194.904 358.491 222.459 194.506 179.268 166.845 206.717 157.908 147.673 147.134 126.246 123.108 118.346 111.255 128.986 107.197 118.117 91.8801 83.1053 109.105 77.4323 77.0162 70.1015 63.5581 62.8189 58.0472 48.9813 42.6745 82.5438 37.7593 29.044 27.5202 5.19475 1.18035 0.0411809 0.0110712 0.00736275
threshold=0.95348358154296886 1.0000000180025095e-35 1.0000000180025095e-35 1.0757390260696413 -0.85718563199043263 0.61780425906181347 1.0000000180025095e-35 -0.94424450397491444 -0.84886661171913136 -0.45247004926204676 -0.81388384103775013 -0.60299095511436451 -0.81853985786437977 1.0073623657226565 -0.3701964914798736 1.0028550624847414 1.1228432059288027 0.95581343770027172 1.2072784304618838 -0.98319005966186512 0.94079473614692699 1.0516853928565981 -1.294276177883148 -0.84623500704765309 0.63340201973915111 -0.65112224221229542 0.21202737092971805 1.084187984466553 -0.9633171260356902 1.0000000180025095e-35 0.86673191189765941 0.42610365152359014 -0.84755456447601307 0.43448288738727575 -0.82745519280433644 0.13236209750175479 0.2928942888975144 -0.80260872840881337 0.46751452982425695 -0.83270826935768116 -1.1747707724571226 -0.89082032442092884 -1.0185989141464231 1.0563116669654848 0.9563809633255006 -0.85816940665245045 -0.10041857883334158 -0.97149562835693348 0.97763267159461986 -1.4400724768638609 1.1189390420913699 0.95327839255332958 0.72462880611419689 0.70616182684898388 0.95306655764579784 1.7860057353973391 -0.8231498897075652 1.2353544831275942 0.7801460623741151 0.65971544384956371
decision_type=2 2 2 2 2 2 2 2 2 2 2 2 2 2 2 2 2 2 2 2 2 2 2 2 2 2 2 2 2 2 2 2 2 2 2 2 2 2 2 2 2 2 2 2 2 2 2 2 2 2 2 2 2 2 2 2 2 2 2 2
left_child=1 2 3 4 6 -6 -1 18 -9 12 17 36 15 14 -13 26 -15 21 -5 50 34 31 -23 25 -25 -17 43 -28 29 -19 55 -11 35 -22 -21 59 44 -38 39 -34 45 42 -42 -2 -12 54 -40 -47 -43 -37 51 -4 -30 -52 -32 56 57 -3 -58 -14
right_child=9 30 19 7 5 -7 -8 8 -10 10 11 13 32 16 -16 23 -18 28 -20 20 33 22 -24 24 -26 -27 27 -29 52 -31 40 -33 38 -35 -36 49 37 -39 46 -41 41 48 -44 -45 -46 47 -48 -49 -50 -51 53 -53 -54 -55 -56 -57 58 -59 -60 -61
leaf_value=0.10135165158968434 -0.13091392884624475 -0.14148021253030266 0.24811279186073387 0.10837074162019032 0.066433777139491265 -0.047828777993519492 -0.02081652083625106 0.038124219975655134 -0.096932373656255177 0.17181506953643996 0.20044784506654423 0.025968414765509491 -0.1281716470184586 0.056333868798449975 0.097496979104718773 0.0071392390391235338 -0.041667952405887221 -0.046918154723849997 0.03389557729523119 0.00787344157249323 -0.039009895248000193 0.10530424730104536 0.038965956854827649 0.016268381449129978 -0.076524349515453935 0.073400632891139878 -0.099428189828554753 0.12310850625575626 -0.080812646858822709 0.074591101778795521 -0.092693604532505761 0.086646868672552238 0.16626563116000026 0.071797702087858573 -0.071214090189798365 0.35363906670928985 -0.035139183871198056 -0.11100090118782363 -0.087693743953338066 -0.054085156012662852 -0.01904690425214289 -0.1409960475511636 0.025382142198237548 0.026861059242354043 -0.083044627855973066 0.14956792930524307 0.18427318726553168 -0.11957694229094194 0.086973457912008098 0.11314722013832024 -0.095045744038612448 -0.035878833931423285 0.12586215019086475 0.029570463233518668 0.14300606190220708 -0.0072811084829585183 -0.10510024077777901 -0.12928888335958358 -0.11172023694351325 -0.12396195606915235
leaf_weight=19654.449972167611 43.647293969988823 8.6090124994516355 10.617916688323019 1993.4300820231438 37634.825516078621 1051.4532839395106 588.23467794060707 11564.23403852433 240.62511046230793 225.91092553734779 27.374055743217468 5652.3931049704552 8.5581217408180255 454.57300947606564 1436.0506430491805 1500.7576983422041 1178.8693424463272 481.76670708507299 655.69737014919519 1493.9679455496371 115.35507167130709 738.22802972048521 2416.7754264995456 1278.7668291702867 617.33439890295267 764.92126087099314 38.751373931765556 549.65152129530907 9.5238516405224782 197.36842769384384 150.78622893244028 2060.0729985013604 36.915297091007233 946.1957196444273 226.68483631312847 12.732669398188589 570.87215854972601 368.99899940937757 811.83272200077772 71.335895992815495 815.49748413264751 11.795868538320063 1715.34937299788 108.25944404304028 14.744662277400492 27.151495896279812 8.6848094165325147 12.74151775240898 210.29381503909826 25.290659010410309 203.17210816591978 283.54789394140244 123.09896530210972 20.599082119762897 5.122008964419364 5.2710458636283866 101.87949436903 4.0856529623270026 2.5904939360916606 8.0747159421443921
leaf_count=30012 254 42 20 2789 74503 4230 2792 30835 841 599 47 22825 50 1916 4500 7265 6758 2427 1743 7130 562 1857 8884 5904 3623 2446 212 1535 42 900 944 6268 80 3290 1756 22 3027 2223 4992 391 3987 59 6639 424 82 106 26 96 774 92 1553 1596 216 92 22 22 2216 24 30 52
internal_value=0 0.0644413 0.0667464 0.0693009 0.0751702 0.0633282 0.0978016 0.0453721 0.0353713 0.0293916 0.0377643 0.0212827 0.00669165 0.0301863 0.0404594 0.0206912 -0.0143949 0.0633428 0.0899371 0.00994314 0.0212257 0.0715356 0.0544882 0.00971275 -0.0139432 0.0295099 0.0824084 0.108453 0.00842884 -0.0116055 0.0068849 0.0950636 -0.063092 0.0597566 -0.00254583 0.0963564 -0.0577975 -0.0649229 -0.0724752 0.0210578 0.0115054 0.016213 0.0110661 -0.0184724 0.101205 -0.0546832 -0.0848151 0.0636052 0.0748653 0.193679 -0.0506634 -0.0256282 0.111021 -0.0835743 -0.0849502 -0.104394 -0.108763 -0.137557 -0.105264 -0.126128
internal_weight=0 79754.3 76683.1 73383 58929 38686.3 20242.7 14454 11804.9 21842.1 15956.6 9703.88 5885.51 8721.89 7088.44 4902.09 1633.44 6252.75 2649.13 3300.14 2782.2 5440.99 3155 4161.78 1896.1 2265.68 740.31 588.403 811.758 679.135 3071.17 2285.98 983.425 1061.55 1720.65 54.6562 981.99 939.871 928.769 108.251 2948.74 2752.94 2530.85 151.907 42.1187 195.801 820.518 39.893 222.09 38.0233 517.937 294.166 132.623 223.771 155.908 122.436 117.165 12.6947 104.47 16.6328
internal_count=268644 178705 163744 147745 111537 78733 32804 36208 31676 89939 62571 41378 27368 35999 27325 21663 8674 21193 4532 15999 12738 17608 10741 19238 9527 9711 2425 1747 3585 3327 14961 6867 5705 3852 8886 216 5379 5250 5489 471 12627 11459 10626 678 129 1168 5018 202 833 114 3261 1616 258 1645 966 2334 2312 66 2246 102
is_linear=0
shrinkage=0.1


Tree=11
num_leaves=63
num_cat=0
split_feature=32 47 30 106 129 128 56 70 100 72 38 72 70 126 73 103 104 123 0 113 69 30 96 97 69 0 97 76 78 130 4 33 68 103 0 56 31 41 46 68 29 132 102 25 2 10 102 72 52 30 1 109 75 30 96 35 0 45 113 76 104 24
split_gain=1739.16 986.155 903.935 889.235 853.365 787.185 710.324 346.441 491.825 603.119 366.006 486.545 444.168 339.813 329.863 305.143 287 280.166 281.347 278.319 259.361 254.102 225.796 207.033 204.649 186.161 202.842 177.231 161.501 137.559 132.706 121.481 196.972 119.173 116.148 109.472 107.175 103.536 102.122 91.921 89.5773 66.8817 61.8479 58.1702 46.9047 38.7168 38.6751 37.0953 32.9494 30.099 26.3271 24.464 49.0987 39.5838 16.71 10.8558 22.7175 8.60101 10.4103 9.00276 7.34287 3.98258
threshold=0.95348358154296886 0.80216273665428173 1.0894187092781069 -0.85794180631637562 1.0000000180025095e-35 1.0000000180025095e-35 1.0389931797981264 -0.29391430318355555 -0.82682898640632618 -0.60037723183631886 0.99444910883903515 -0.55674877762794484 -0.20597837865352628 -3.144817471504211 -0.33974108099937433 -0.83273816108703602 -0.94648507237434376 -1.3779363036155698 0.46889461576938635 -0.92435228824615467 -0.092903144657611833 1.1031807661056521 -0.91158613562583912 -0.90196001529693592 -0.46902599930763239 0.34366765618324285 -0.8511621057987212 -1.1175588965415952 -0.96433204412460316 1.0000000180025095e-35 0.60953339934349071 0.92067259550094616 -0.027632163837552067 -0.81956952810287464 0.63784992694854747 0.93209668993949901 0.99963489174842846 1.015505373477936 1.1326669454574587 -0.017966929823160168 1.2353544831275942 1.0000000180025095e-35 -0.79325056076049794 1.6238026618957522 0.81129074096679699 0.99488854408264171 -0.91967386007308949 -0.79192227125167836 0.72755619883537304 1.0622157454490664 0.33931761980056768 -0.90004050731658924 -1.0730983614921568 1.0915051698684695 -1.0345687866210935 0.90641483664512645 0.29818275570869451 0.73847353458404552 -0.9235641062259673 -1.1089494824409483 -0.92456734180450428 1.3336999416351321
decision_type=2 2 2 2 2 2 2 2 2 2 2 2 2 2 2 2 2 2 2 2 2 2 2 2 2 2 2 2 2 2 2 2 2 2 2 2 2 2 2 2 2 2 2 2 2 2 2 2 2 2 2 2 2 2 2 2 2 2 2 2 2 2
left_child=1 19 3 4 5 -3 13 15 17 27 12 -12 -11 -5 -6 28 24 22 20 40 -19 23 38 -18 45 26 49 42 31 -8 -20 32 -2 39 -26 -33 -29 -24 -9 -27 46 -23 -10 -42 -45 -4 48 -48 -1 -17 -28 52 53 -21 -35 56 -30 58 -53 -59 -54 -57
right_child=7 2 16 6 14 -7 29 8 9 10 11 -13 -14 -15 -16 25 21 18 30 51 -22 41 37 -25 34 33 50 36 55 -31 -32 35 -34 54 -36 -37 -38 -39 -40 -41 43 -43 -44 44 -46 -47 47 -49 -50 -51 -52 57 60 -55 -56 61 -58 59 -60 -61 -62 -63
leaf_value=-0.044609441280064048 0.0078312678101046477 0.06873463636533389 -0.11277471416199597 -0.11053025502125931 -0.041008565210099025 -0.039726718465319028 0.11031474726228724 0.20613930568142341 -0.050946967297532703 0.031402989218080678 -0.049589948031241608 0.027127657186690069 0.11076696502490689 0.02794252976073185 0.26011366799112823 0.13825146838208999 0.019444869433378947 0.02423230417159368 0.19224674613834308 0.1725902492782434 0.067677537315275801 -0.077499291571887063 -0.039913317519009887 -0.083124436583964234 0.059957327094531492 -0.083780044025652381 -0.0068712221919025656 0.062310636450802606 -0.030833530522796318 -0.058562867718778035 0.078002112452382324 -0.046325246174984139 0.083221181183465401 0.16496612678396885 0.14676773457140388 0.01450287734473346 -0.038767262402616395 0.086491997579382307 -0.052762059601143899 -0.011505331420360469 0.20062757788451063 0.3148487079598668 -0.1066084885929663 -0.074294965106565289 0.088587543399972435 0.0079522222003908984 -0.17708353489768852 0.027041585604402077 0.063853479227862123 0.27353716052590027 -0.12925241422519879 0.086001727765446123 -0.0062422461149628725 -0.12619463073399426 -0.10595793873035571 0.10948271251282665 0.12130976229975994 -0.16842437537403177 -0.10552905282988496 -0.025071575467364306 -0.13231899732705707 0.15121891110525909
leaf_weight=31.455870822072029 1136.3133912459016 62206.666421063244 57.337867677211761 180.71738894283772 895.17386070638895 676.43119115382433 1261.3088417425752 213.62766445428133 466.70914658904076 4018.5834891796112 1174.2134930118918 2793.0191810727119 855.26210230588913 9155.5272557362914 37.91979806125164 49.686429440975189 3180.5744332745671 4157.6761150211096 166.38059104979038 14.66430748999119 2052.4274478405714 377.14311996102333 71.393287807703018 209.76968687027693 412.87389295548201 250.35673256963491 55.52129703015089 184.07605786621571 13.426434442400931 50.150956533849239 261.45115043222904 508.17479827255011 498.6364067196846 2.2926231473684302 245.92723201215267 708.1734367609024 243.88683653622866 701.40640643239021 16.405197560787201 592.26160340756178 9.1555856168270093 4.3953784704208365 348.82926496118307 170.68120837956667 19.722261592745781 49.493474163115025 15.130661532282828 21.629387423396111 255.53685925155878 24.581845201551914 25.721663609147072 2.8612561076879492 5.507322095334529 6.3558757379651061 325.25420561432838 34.380970053374767 36.478798151016235 37.443795405328274 346.43095341697335 4.9613776654005042 28.655890211462975 68.24831323325634
leaf_count=88 5392 115789 263 737 3986 3017 1601 352 2618 14910 6103 12190 2359 29729 36 113 11303 16569 302 28 6865 2278 276 842 821 1606 253 591 35 340 907 2663 1485 7 281 3238 1209 2027 79 2965 9 3 2236 739 34 161 64 47 477 42 167 7 30 40 2236 45 46 176 5591 18 170 53
internal_value=0 0.0578245 0.0590551 0.0616956 0.0661593 0.0675679 0.0349425 0.0261064 0.0323006 0.0178013 0.0269729 0.00442094 0.0453298 0.0252622 -0.0287713 0.000746963 0.0157224 0.0514374 0.0439946 -0.0423814 0.0385909 0.00439155 0.100703 0.0130986 0.0715439 -0.0392154 0.0635786 -0.0474069 0.0183835 0.103857 0.122431 0.0130204 0.0308241 -0.0528764 0.0923632 -0.0109103 0.00470852 0.0748143 0.187675 -0.0329794 0.00711325 -0.0729794 -0.074755 -0.0455842 -0.0574234 -0.0568436 0.0395956 -0.0569776 0.0519654 0.183029 -0.0456173 -0.100341 -0.0380052 0.0822466 -0.104062 0.118634 0.0803773 -0.109123 -0.10396 -0.151652 -0.111995 0.137237
internal_weight=0 79971.6 79001.4 74463.9 63816.2 62883.1 10647.7 22054.9 17725.3 10084.6 8841.08 3967.23 4873.85 9336.24 933.094 4329.51 4537.52 7640.77 6637.94 970.193 6210.1 3771.88 1002.83 3390.34 765.632 1325.68 155.511 1243.5 3003.83 1311.46 427.832 2851.3 1634.95 1170.17 658.801 1216.35 427.963 772.8 230.033 842.618 523.312 381.538 815.538 199.559 190.403 106.831 323.753 36.76 286.993 74.2683 81.243 446.881 55.1834 21.0202 327.547 152.535 49.9052 391.697 349.292 42.4052 34.1632 102.629
internal_count=268644 178705 171187 155235 122828 118806 32407 89939 69593 42216 35562 18293 17269 30466 4022 20346 15952 27377 24643 7518 23434 14426 2734 12145 1526 7389 575 6654 12957 1941 1209 12778 6877 6814 1102 5901 1800 2303 431 4571 1458 2281 4854 782 773 424 676 111 565 155 420 6060 268 68 2243 179 81 5792 5598 194 200 98
is_linear=0
shrinkage=0.1


Tree=12
num_leaves=61
num_cat=0
split_feature=32 134 118 109 104 30 135 36 105 72 36 118 53 108 52 104 55 99 5 101 100 6 30 31 26 52 104 133 70 93 127 36 99 27 71 75 70 5 52 66 105 108 52 104 33 73 71 26 50 126 29 30 64 98 30 89 31 45 31 76
split_gain=1479.43 1137.48 877.161 1561.86 919.691 1426.78 967.723 1409.91 694.991 683.607 658.73 616.568 560.013 476.007 399.759 661.396 442.025 329.607 352.942 614.487 373.668 715.71 427.267 334.439 323.653 310.394 231.33 223.826 209.431 204.576 174.166 265.887 151.433 154.961 139.469 139.25 135.723 105.238 96.0435 79.0408 74.8206 85.8662 73.6787 55.8493 60.9002 49.1103 45.4666 37.9409 167.68 35.7545 65.0325 33.5515 30.0728 28.8413 15.7892 12.7833 9.08629 7.71897 6.12946 3.8441
threshold=0.94558423757553112 1.0000000180025095e-35 -1.5892466902732847 -1.1356124877929685 -0.87342733144760121 1.0701755881309511 1.0000000180025095e-35 0.84528878331184398 -0.94198006391525257 -0.56761541962623585 0.90260139107704174 -1.2508966922760008 1.0684193372726443 -0.99587538838386525 1.1314612030982973 -0.85160750150680531 0.94932156801223766 -0.78005829453468312 0.64091515541076671 -0.86583968997001637 -0.85584700107574452 0.62542465329170238 1.068275034427643 0.98947221040725719 1.4089711904525759 1.1420434117317202 -0.71215951442718495 1.0000000180025095e-35 -0.33695709705352778 -0.64793473482131947 -3.1812286376953121 0.92085692286491405 -0.75876232981681813 1.1192518472671511 -0.32423795759677881 -0.90580874681472767 -0.27624663710594172 0.41222898662090307 1.1214163899421694 0.24777880311012271 -0.91297185420989979 -0.98226591944694508 1.1405653357505801 -0.83567512035369862 0.9104309380054475 -0.77876994013786305 -0.33752776682376856 1.218747675418854 1.1860014796257021 -2.0799183845520015 1.0976778268814089 1.0587260723114016 0.40886512398719793 -0.71677568554878224 1.0434145927429201 -1.0441337227821348 0.99152725934982311 1.1849423646926882 0.93725338578224193 -0.97951930761337269
decision_type=2 2 2 2 2 2 2 2 2 2 2 2 2 2 2 2 2 2 2 2 2 2 2 2 2 2 2 2 2 2 2 2 2 2 2 2 2 2 2 2 2 2 2 2 2 2 2 2 2 2 2 2 2 2 2 2 2 2 2 2
left_child=1 2 3 10 5 12 7 -6 -7 14 38 27 -4 -8 15 24 -17 18 20 28 22 -22 -13 32 -3 43 -12 35 -20 37 31 -5 33 -19 -34 59 -21 -27 -1 51 53 -42 -32 44 -11 -25 -47 48 -16 50 -41 56 -53 -37 -51 -49 -29 -45 -31 -2
right_child=11 9 4 30 6 8 13 -9 -10 25 26 17 -14 -15 47 16 -18 23 19 36 21 -23 -24 45 -26 29 -28 39 -30 58 42 -33 34 -35 -36 40 -38 -39 -40 49 41 -43 -44 57 -46 46 -48 55 -50 54 -52 52 -54 -55 -56 -57 -58 -59 -60 -61
leaf_value=-0.06402380060830308 0.20545728562645552 0.12105527841425863 0.084885877672078835 0.11611617618786024 -0.068201125834760151 0.079046718243860101 0.0035510334961840924 0.031474771175708738 0.02803277917552387 -0.18474459693439349 -0.09876641604858144 0.062361721366012694 0.01928692153366179 0.099800889740614171 -0.13868904824653702 -0.054016353855783544 0.067605088455768875 0.1696535782782112 0.0019022559800993125 -0.07650354266355909 0.029038083748186151 -0.054751055301563101 0.0032252169165393587 0.17174977962573124 -0.099255495275255623 0.09676911904327265 0.15586318085603307 0.16966990458816478 0.064302415827189013 -0.1889581497732937 -0.00074269508588242262 -0.15975337663657468 -0.084635188941993456 0.030061582605327892 0.032683796774025935 -0.13111907754968974 0.096832990823091172 -0.20280168452039918 0.16687164418707823 0.070950846864481429 0.045030631237951937 -0.10108938522612723 0.16426986149649403 -0.17067577646690468 0.13076821424151958 -0.090081507048409587 -0.029350831850955102 0.10645355016895924 0.15363396631280909 0.18023029411295788 -0.077307142501839454 0.10687987999673416 -0.040957316258047619 0.12211559053444554 0.07482059744469409 0.17744478984995485 0.13461749512175955 -0.042388970396849746 -0.070270744712447639 0.15037845671566297
leaf_weight=20.409686490893364 23.780652478337288 3397.1352699398994 14758.548171266913 1731.3023004978895 1531.2777468785644 3301.4466320797801 631.83423426747322 19370.598545610905 13974.982848741114 10.644901216030123 542.9531364440918 6108.8047711700201 1427.2311360165477 2751.0091237276793 21.359076395630836 378.75817599892616 1416.1179124265909 100.67147152125835 1410.6839755624533 953.63873285055161 19038.757171332836 1077.1149312183261 1527.2107235640287 8.1534556150436384 68.017113514244556 192.02135893702507 38.188641652464867 88.153800413012505 869.30443423986435 33.265144631266594 27.717827916145325 35.656908482313156 194.840914927423 378.58876618742943 211.13515534251928 49.855693727731705 47.418427616357803 12.489390805363653 153.54869136214256 246.74795258045197 230.43503924459219 48.71894920617342 1137.9999898672104 130.15422596037388 14.384424000978468 502.13621148467064 163.38725534081459 26.398386240005493 241.36144484579563 35.942522168159485 33.617460481822491 348.13688449561596 14.325849816203116 4.943411909043788 23.50169113278389 647.92232723534107 459.04244421422482 4.8655817061662665 5.006055772304534 27.124654218554497
leaf_count=72 15 3692 23591 1959 8835 5594 1472 46566 37131 43 2108 18334 3944 4031 74 1180 2444 266 6340 4834 69141 5319 6273 14 241 275 37 62 2605 135 60 123 909 1264 867 235 168 50 159 438 654 262 772 510 17 2833 926 36 196 25 109 392 34 13 36 454 415 14 15 31
internal_value=0 0.0542748 0.0500367 0.0973208 0.0470171 0.057768 0.0322033 0.0241725 0.0377813 0.0937246 -0.0309325 0.0287855 0.0791015 0.0818237 0.10193 0.0912101 0.0419403 0.0257799 0.0280339 -0.00298174 0.0317008 0.0245516 0.0505344 -0.0190888 0.116731 -0.0325065 -0.0820339 0.0887227 0.0256939 0.0387647 0.130343 0.110549 0.021317 0.0593837 -0.0236213 0.0220423 -0.0682929 0.0784744 0.139782 0.109261 -0.00144241 0.0195292 0.160346 -0.140619 -0.00341849 -0.0721835 -0.075172 0.162106 0.129868 0.06811 0.0531738 0.124634 0.101037 -0.108275 0.138556 0.174666 0.140264 -0.166053 -0.173433 0.176109
internal_weight=0 68034.6 61434.7 3687.78 57746.9 33462.2 24284.7 20901.9 17276.4 6599.9 755.1 34226.2 16185.8 3382.84 6197.07 5260.03 1794.88 32591.8 31032.9 3281.05 27751.9 20115.9 7636.02 1558.91 3465.15 402.831 581.142 1634.33 2279.99 242.782 2932.68 1766.96 885.236 479.26 405.976 384.858 1001.06 204.511 173.958 1249.47 333.953 279.154 1165.72 160.049 25.0293 673.677 665.523 937.041 262.721 339.81 280.365 909.659 362.463 54.7991 59.4442 674.321 547.196 135.02 38.2712 50.9053
internal_count=268644 145830 136454 5290 131164 70260 60904 55401 42725 9376 2376 122814 27535 5503 8317 7557 3624 120093 113014 13947 99067 74460 24607 7079 3933 1059 2145 2721 8945 475 2914 2082 3306 1530 1776 1210 5002 325 231 1511 1164 916 832 584 60 3773 3759 760 270 608 547 903 426 248 61 490 477 524 150 46
is_linear=0
shrinkage=0.1


Tree=13
num_leaves=63
num_cat=0
split_feature=31 37 47 117 103 30 61 110 130 129 111 95 36 73 114 130 76 30 111 103 109 114 114 128 118 72 43 71 35 73 30 73 127 97 27 127 31 105 29 74 38 52 126 111 50 5 26 91 29 87 119 92 109 38 74 72 45 127 91 77 32 89
split_gain=1324.09 1204.72 864.4 764.004 751.817 814.345 794.475 751.541 466.327 494.567 425.655 401.988 369.968 346.311 342.15 514.147 341.422 339.724 316.754 318.593 265.931 221.57 174.809 191.706 158.52 137.713 180.343 185.77 135.436 115.368 105.686 103.276 208.091 126.994 87.0939 82.9063 73.766 90.971 70.2662 66.3867 65.4263 62.9855 58.5821 51.6723 50.7596 50.6955 44.1567 40.7999 36.1146 29.4431 29.144 23.0339 22.4057 35.731 16.2722 13.3148 9.44426 6.56892 6.33188 30.8081 0.170069 0.0530897
threshold=0.99974063038826 0.96232625842094432 0.80216273665428173 -1.5378677248954771 -0.81751689314842213 1.0726432204246523 0.64853572845458995 -1.2053218483924864 1.0000000180025095e-35 1.0000000180025095e-35 -1.2483827471733091 -1.0365767478942869 0.90304049849510204 -0.75704762339591969 -0.99493327736854542 1.0000000180025095e-35 -1.2198703885078428 0.9251520335674287 -0.88701826333999623 -0.83681032061576832 -1.1299165487289426 -0.92612251639366139 -0.90824556350707997 1.0000000180025095e-35 -1.6108911633491514 -0.66786393523216236 1.052295506000519 -0.44323575496673578 0.94027453660964977 -0.77543038129806507 1.0876144170761111 -0.84790152311325062 -1.5460489988327024 -0.99026989936828602 1.2708995342254641 -1.5853410959243772 1.0107600092887881 -0.9079187512397765 1.2353544831275942 -0.97094452381134022 1.033071041107178 1.0554676055908205 -2.8474124670028682 -0.84489580988883961 1.0777533054351809 0.77272441983222973 1.2204000949859621 -0.9665653109550475 1.1382972598075869 -1.260566174983978 -1.6332119107246397 -1.0562785267829893 -0.90004050731658924 0.62540376186370861 -0.52570912241935719 -0.35425660014152521 0.73847353458404552 -1.5765266418457029 -1.1046943664550779 -1.20612496137619 0.94908720254898082 -1.188549220561981
decision_type=2 2 2 2 2 2 2 2 2 2 2 2 2 2 2 2 2 2 2 2 2 2 2 2 2 2 2 2 2 2 2 2 2 2 2 2 2 2 2 2 2 2 2 2 2 2 2 2 2 2 2 2 2 2 2 2 2 2 2 2 2 2
left_child=1 2 21 7 5 -5 -6 12 9 16 20 31 -4 28 17 -16 22 -15 19 -18 40 38 49 -24 -9 44 30 -28 29 -12 -27 32 41 -34 -20 46 37 51 47 -39 54 -10 50 -30 48 -40 -33 -1 -11 -2 -22 -13 53 -23 -3 -44 -54 -37 61 -60 -46 -38
right_child=8 10 3 4 6 -7 -8 24 11 25 13 36 -14 14 15 -17 18 -19 34 -21 42 52 23 -25 -26 26 27 -29 43 -31 -32 35 33 -35 -36 57 58 39 45 -41 -42 -43 55 -45 60 -47 -48 -49 -50 -51 -52 -53 56 -55 -56 -57 -58 -59 59 -61 -62 -63
leaf_value=0.032181385782317121 -0.092450077099568373 -0.045363817771968573 0.1183992573658838 0.066403840506271711 -0.027973757691418383 0.037077745398902039 0.040661625244383152 0.14412146298686654 0.053159991911559616 0.0049660584862203788 -0.057308191398790079 0.2439574571678973 -0.055797571226364487 0.10480796319304925 0.037440089699812024 0.17835858075151834 0.042419790011412446 -0.00037610040386991655 0.12261054426873029 0.015993008203176107 -0.17488381134120856 -0.12692339639306516 -0.023897601012768922 0.062327862745612028 0.098430008247206102 0.047587731075147521 -0.091199382339247986 -0.0015141765614863222 -0.12624648888353449 0.0098814778059964636 0.33840439905259873 0.26771925040277067 0.082262742637156216 -0.048214938984529693 -0.12972310318491961 -0.020528273132967838 -0.12381075448998878 -0.0072170240313969448 -0.150511940191873 -0.049421682111698624 0.08235431587818931 0.28650924254764798 0.039834527051519991 0.15408649997440405 -0.13440855884647504 -0.023972267945821898 -0.044948404670882153 -0.18861501740945386 -0.074072100585100095 0.026295595664253026 0.082533597798732164 0.034504244078478234 -0.10408413704119156 0.046294175351869776 -0.1504262878809155 0.14420524714295666 -0.15890650040716703 -0.13080730633506599 0.078462973445104459 -0.10282852109308356 -0.12648365113579235 -0.11874927088692928
leaf_weight=322.79836832731962 278.19644774496555 15.570453107357023 169.65508538484573 31541.709118261933 1864.8536064624786 13530.927593939006 17632.887710854411 1173.3488423526287 14.726180858910082 79.869959987699986 457.19264540821314 14.080919101834299 433.34697146713734 334.98765424638987 1686.1625590398908 305.87971606105566 11271.409541063011 3683.3941095769405 453.87290261685848 7663.6673841550946 12.431407406926157 22.819826908409595 878.0638612061739 365.0464950799942 2151.7585893124342 279.35442607849836 325.64635615795851 794.30224341154099 166.7395476475358 579.43433424830437 13.081389740109442 10.203449606895449 278.20881451666355 101.9231343343854 14.103510722517965 6.1160409301519385 40.869683757424355 533.50372770428658 38.990124970674515 1236.5243213921785 13.249895066022871 53.922252133488655 16.756745636463165 6.8451358675956717 40.500833958387375 168.41573063284159 8.1043893694877607 8.5917903631925565 209.31783067435026 22.575315348803997 6.8062009215354911 8.3722095414996129 311.56686828657985 24.905786275863647 277.0045710504055 45.17640046775341 34.948053237050772 46.227587506175041 10.467564567923544 89.69861888885498 81.713905826210976 42.039116717875004
leaf_count=664 1573 47 255 58232 5573 31327 42252 929 62 362 2138 22 1526 492 6223 751 29737 14247 1004 28350 45 152 4373 1512 2680 1172 1910 4004 952 2237 21 20 1016 536 57 28 266 2797 185 7537 31 112 38 15 217 639 41 36 1133 116 10 39 5580 88 1209 50 173 260 68 699 501 323
internal_value=0 0.0476663 0.0518057 0.0531079 0.0505031 0.0576001 0.034097 0.0959265 0.0212857 0.0257827 0.00988817 -0.0197568 -0.00678716 0.0153642 0.0251913 0.0590782 0.0301313 0.00839244 0.0337326 0.031724 -0.0922854 -0.043797 -0.0151286 0.001423 0.114553 -0.0241629 -0.00933232 -0.0275919 -0.0334411 -0.0197518 0.0605967 0.0585235 0.0762156 0.0472783 0.115006 -0.053857 -0.040339 -0.0341635 -0.00211254 -0.0367008 -0.134992 0.236452 0.068619 -0.115192 -0.0750776 -0.0477604 0.12931 0.0264569 -0.0522428 -0.0835373 -0.0838104 0.165858 -0.100766 -0.0365292 -0.144835 0.115967 -0.109613 -0.117922 -0.100803 -0.0838832 -0.12911 -0.121244
internal_weight=0 77039.2 69431.5 68498.5 64570.4 45072.6 19497.7 3928.11 25265.7 22770.7 7607.63 2494.99 603.002 7220.64 6010.42 1992.04 20946.9 4018.38 19403.1 18935.1 386.996 933.037 1543.88 1243.11 3325.11 1823.79 1412.38 1119.95 1210.21 1036.63 292.436 519.432 448.78 380.132 467.976 70.6515 1975.56 1792.48 538.796 1770.03 305.825 68.6484 81.1708 173.585 411.403 207.406 18.3078 331.39 289.188 300.772 19.2376 22.4531 394.241 47.7256 292.575 61.9331 346.515 52.3436 183.075 100.166 122.215 82.9088
internal_count=268644 178776 150291 142774 137384 89559 47825 5390 89868 76042 28485 13826 1781 27055 21713 6974 66722 14739 59148 58087 1430 7517 7574 5885 3609 9320 7107 5914 5342 4375 1193 2075 1726 1552 1061 349 11751 10395 1524 10334 1287 174 143 967 2213 824 61 700 1495 1689 55 61 5993 240 1256 88 5753 288 1356 767 718 589
is_linear=0
shrinkage=0.1


Tree=14
num_leaves=54
num_cat=0
split_feature=106 129 30 128 73 30 105 48 32 116 31 134 114 97 123 72 105 30 73 124 71 97 135 52 45 69 111 102 110 74 30 2 116 19 57 38 36 109 71 32 37 107 107 43 93 30 91 72 53 79 72 121 115
split_gain=1107.8 821.531 790.561 768.645 721.741 820.875 737.646 637.039 445.828 486.182 308.17 333.748 409.129 320.774 374.71 343.489 301.666 262.541 249.305 240.023 222.674 199.268 177.709 176.87 161.831 211.002 161.727 141.211 133.919 135.299 94.3614 70.9422 68.3522 62.3852 59.9323 55.0522 39.4997 41.0068 38.0027 36.9289 36.3253 26.695 24.144 22.0722 10.3892 7.39521 6.11215 11.6866 4.68798 2.94912 1.86192 6.79938 0.713412
threshold=-0.86440786719322193 1.0000000180025095e-35 1.0853607654571535 1.0000000180025095e-35 -0.84016877412796009 1.0726432204246523 -0.92350164055824269 1.2392253875732424 0.82211589813232433 -1.4908566474914549 0.98617747426033031 1.0000000180025095e-35 -0.98748522996902455 -0.86444908380508412 -1.3602936863899229 -0.56110095977783192 -0.95549342036247242 1.0979841947555544 -0.33974108099937433 -2.5057657957077022 -0.42826819419860834 -0.87929797172546376 1.0000000180025095e-35 1.0522426366806032 1.212319076061249 0.087220430374145522 -0.83359572291374195 -0.91067111492156971 -0.96544694900512684 -0.93035829067230214 1.0876144170761111 0.51515957713127147 -1.4684211611747739 1.5827599763870241 0.86617749929428112 0.98347657918930065 0.80410441756248485 -1.0812575817108152 -0.2197054326534271 0.96622803807258617 0.96830600500106823 -0.93967705965042103 -0.92516040802001942 1.1845915317535403 -1.0047364234924314 1.0979841947555544 -0.23126585781574246 -0.32018256187438959 1.1450961232185366 -1.1097102761268614 -0.28798827528953547 -1.8761211037635801 -1.4482234716415403
decision_type=2 2 2 2 2 2 2 2 2 2 2 2 2 2 2 2 2 2 2 2 2 2 2 2 2 2 2 2 2 2 2 2 2 2 2 2 2 2 2 2 2 2 2 2 2 2 2 2 2 2 2 2 2
left_child=1 2 3 4 5 -1 -6 8 9 24 11 12 -10 14 -12 -15 22 21 28 35 -13 -18 27 34 25 -2 -21 -4 41 31 -31 -30 46 -19 -5 -11 43 38 -38 -25 -39 49 -43 44 -34 -24 47 -9 -26 -3 52 -52 -48
right_child=7 18 16 23 6 -7 -8 32 10 19 13 20 -14 15 -16 -17 17 33 -20 26 -22 -23 45 39 48 -27 -28 -29 29 30 -32 -33 36 -35 -36 -37 37 40 -40 -41 -42 42 -44 -45 -46 -47 50 -49 -50 -51 51 -53 -54
leaf_value=0.089987550505830571 -0.11785721790788942 -0.085067173903077553 0.084548993965534974 -0.0029402283025237973 0.070973468162298145 0.043663383176806923 0.038005337125917388 0.14518163274211526 -0.0033887890651920754 -0.14788752303574645 0.059940947901534126 0.14378305673976929 0.063350105405644702 -0.029536273887966247 0.018486156133012504 0.022305118583852399 0.019221366724077437 -0.029796863924990553 0.20391966069779249 -0.0042991893824979111 0.021163477109607386 -0.08593165106277445 -0.050972984892499212 -0.103060034047499 0.1684523851510924 0.11705840786759791 -0.10766711388529704 -0.080656920193826462 -0.098816891966590922 0.046844393444526754 0.33561685606310077 -0.021277937204947205 0.0053546442800350268 -0.10113243932332568 0.19245789048525361 0.12098638282653802 0.077156999857944275 0.10423429944307704 -0.19106380379326493 -0.014050029488387784 0.020315733026555784 -0.029079830997278913 -0.097033220783895743 0.095764843272745176 -0.17472623961405229 -0.1424818622260253 0.13721335096823151 0.038730264246898148 0.13052603865796281 -0.13009258587752054 0.14117459545485203 0.08562478027898629 0.14822709514146448
leaf_weight=8530.608702391386 72.91242778301239 16.161922484636307 898.70243276655674 270.6118405610323 8342.7911224737763 6935.0703334659338 36386.425088211894 23.553177610039711 1626.7795865759254 314.66681325435638 2469.8563016876578 515.03303088247776 2109.8703532703221 2653.1729746833444 18608.44078938663 2466.0124802961946 5087.7656942233443 892.64423875510693 41.096855878829956 477.21443258970976 207.87140665948391 186.83457674086094 11.585011839866636 389.02847260981798 87.138128235936165 80.393529146909714 221.66661366820335 54.89962163567543 154.4015394076705 95.699190482497215 12.833157300949095 500.4264111071825 4.6201588511466989 142.11117850989103 16.663714542984962 7.8039966523647299 11.131523057818415 366.34856127202511 10.052933380007742 52.955831289291382 60.03406735509634 82.03031400591135 144.19834388047457 6.9631147533655158 10.449393257498741 37.15360077470541 96.496066331863403 18.345885545015335 52.06473508477211 145.59666379541159 101.65538556873798 28.132449731230736 150.6014638543129
leaf_count=12417 261 96 1346 1066 12632 14933 77759 17 5779 1327 8052 444 5615 11240 67410 10535 15383 4291 36 1545 429 690 38 1923 67 103 5110 164 806 357 9 2233 18 850 43 9 17 438 41 251 225 414 785 14 48 181 72 30 46 838 74 34 103
internal_value=0 0.04419 0.045628 0.0493569 0.0505932 0.069215 0.0441545 0.0219034 0.0195824 -0.0374599 0.022027 0.0463275 0.0342948 0.0178904 0.0233436 -0.00456325 0.0145576 0.00646164 -0.0380969 -0.070014 0.108524 0.0154967 0.0655188 -0.0526917 0.0762094 0.00533236 -0.0370848 0.075038 -0.0467356 -0.0224213 0.0809896 -0.0395608 0.105431 -0.0395939 0.00839404 -0.141381 0.0792369 0.0856717 -0.0501253 -0.0923954 0.0924187 -0.0945736 -0.0723934 -0.0514791 -0.119515 -0.12073 0.134804 0.0985709 0.154267 -0.125594 0.138832 0.129134 0.143926
internal_weight=0 69428.3 68235.9 60924.2 60194.9 15465.7 44729.2 32859.3 31970.9 1313.86 30657 4459.55 3736.65 26197.5 21078.3 5119.19 7311.7 6309.36 1192.44 1021.35 722.904 5274.6 1002.34 729.26 292.509 153.306 698.881 953.602 1151.35 763.36 108.532 654.828 888.384 1034.76 287.276 322.471 469.6 447.567 21.1845 441.984 426.383 387.987 226.229 22.0327 15.0696 48.7386 418.784 41.8991 139.203 161.759 376.885 129.788 247.098
internal_count=268644 149541 143967 121024 117741 27350 90391 119103 117972 8468 109504 12267 11394 97237 75462 21775 22943 21214 5574 7991 873 16073 1729 3283 477 364 6655 1510 5538 3405 366 3039 1131 5141 1109 1336 801 721 58 2174 663 2133 1199 80 66 219 330 47 113 934 283 108 175
is_linear=0
shrinkage=0.1


Tree=15
num_leaves=63
num_cat=0
split_feature=31 37 117 109 125 77 47 130 130 129 109 36 95 106 109 79 70 38 28 79 106 135 73 128 129 14 54 7 107 114 127 120 51 53 72 129 30 109 72 127 94 52 30 31 38 108 32 106 60 127 41 27 106 33 56 42 50 60 107 106 17 90
split_gain=1009.19 861.531 687.501 698.3 639.847 537.884 734.167 445.383 400.013 393.101 364.402 362.988 314.117 287.546 318.35 567.173 258.221 378.705 306.027 245.415 226.481 220.858 218.115 212.167 304.286 198.427 171.133 503.984 170.96 168.181 135.314 259.181 171.627 134.642 102.006 101.351 94.1431 93.7551 91.5102 141.748 103.616 84.8909 78.138 72.638 71.1922 118.238 67.572 90.9131 78.8408 66.5242 60.8483 53.7973 53.2682 44.1354 33.9841 13.4217 11.5935 10.8045 10.1984 53.1251 6.44812 0.0370618
threshold=0.99896618723869335 0.96287274360656749 -1.5378677248954771 -1.1356124877929685 -1.111170709133148 -0.41090214252471918 1.2357416749000552 1.0000000180025095e-35 1.0000000180025095e-35 1.0000000180025095e-35 -1.124786853790283 0.90260139107704174 -1.0365767478942869 -0.95085808634757985 -0.91902232170104969 -1.2553183436393736 -0.18249709159135816 1.0149891376495364 1.0894814133644106 -1.2476709485054014 -0.96020498871803273 1.0000000180025095e-35 -0.39557810127735132 1.0000000180025095e-35 1.0000000180025095e-35 0.83803367614746105 1.0559205412864687 0.54270493984222423 -0.88825920224189747 -0.91495221853256214 -3.1595464944839473 -1.737058103084564 1.1585564613342287 1.0967794060707095 -0.66786393523216236 1.0000000180025095e-35 1.095778286457062 -1.148207366466522 -0.66786393523216236 -1.5504682660102842 -1.093822121620178 1.1214163899421694 1.0676879286766054 1.0103816986083987 1.0031866431236269 -1.0662890672683714 0.97034651041030895 -0.84609669446945179 0.76643940806388866 -1.5765266418457029 1.0006000399589541 1.188811242580414 -0.95221176743507374 0.90770342946052562 0.70252418518066417 1.1187721490859988 1.1284003853797915 0.75441971421241771 -0.88470643758773793 -0.87321087718009938 0.72658178210258495 -1.1586015820503233
decision_type=2 2 2 2 2 2 2 2 2 2 2 2 2 2 2 2 2 2 2 2 2 2 2 2 2 2 2 2 2 2 2 2 2 2 2 2 2 2 2 2 2 2 2 2 2 2 2 2 2 2 2 2 2 2 2 2 2 2 2 2 2 2
left_child=1 2 3 11 5 7 -7 -4 9 13 20 41 38 21 19 -16 23 25 -19 -15 35 36 -13 24 -12 -18 27 28 -11 42 31 -5 -32 -25 -29 37 -2 -3 39 50 -41 -1 -6 46 45 -22 48 -48 -14 51 -10 -40 -23 -46 -31 56 -28 -51 59 -45 -37 -60
right_child=8 10 4 30 29 6 -8 -9 12 26 16 22 43 14 15 -17 17 18 -20 -21 44 52 -24 33 -26 -27 55 34 -30 54 32 -33 -34 -35 -36 60 -38 -39 49 40 -42 -43 -44 58 53 -47 47 -49 -50 57 -52 -53 -54 -55 -56 -57 -58 -59 61 -61 -62 -63
leaf_value=-0.028627185490033361 0.079765378213577168 -0.11349097058981694 0.044719101869746272 0.11231487959580677 0.01283789435109137 -0.12593042780857211 0.085803912475697408 0.0040022633120329453 0.052290156717384698 -0.060854795250452523 0.031387031114765679 0.011880528874182056 -0.028478948273805149 -0.05876713757889504 0.023855784437461999 0.09143071395442387 0.054416754827524276 0.024956375902852341 -0.09751377252257025 0.010249083356736167 -0.12079807318072432 -0.11453133380383095 -0.11439083719808539 -0.023383958548331859 -0.039799796882418671 0.18526918212344604 0.060999883266048986 -0.065330751201144774 0.38805969487740066 -0.11127168377421337 -0.12522955130765526 0.032460270214147463 0.14496091214230264 -0.11113104464034217 -0.0079030158460631165 0.19659880719998463 0.0078269694466776372 0.075522391050081406 0.20139938163553089 0.08636620679276201 -0.013002738284318567 0.1366137389984074 -0.05504379764864438 -0.10334619063379338 -0.15872413916307204 0.069268553065290478 0.1725086219230233 -0.05834833979027905 -0.10249148132093217 -0.11807096113398091 0.270196021088358 -0.076343709928352765 0.074206915388474556 0.012952167285020928 -0.030421585872874253 0.089004805885681798 -0.11854378641061269 0.062172590408536482 -0.12212476996605669 0.092388035015235181 0.11821738554619077 -0.11802477551059587
leaf_weight=37.509523332118988 1524.3395820558071 53.255087859928608 58527.612818926573 1590.005657106638 511.65699085593224 431.58824902772903 263.89309464395046 2815.7394326329231 18.244268089532852 10.689967654645441 2045.7657023668289 311.08631351590157 1706.672934256494 554.94598500430584 12333.239192448556 1381.1608819589019 1666.0063726380467 620.97762312740088 303.87590552121401 7198.6424054056406 100.59495413303375 83.231649816036224 244.16611418128014 815.52305340766907 849.92024641484022 124.55147852003574 3.6680405586957923 402.18243043869734 41.097918823361397 262.83056702651083 24.145952671766281 546.02410739660263 892.08549296855927 222.60169521719217 1339.3107161298394 24.062406778335571 206.56580161303282 51.738011501729488 15.792504519224169 238.8817707374692 187.14465339481831 181.67317661643028 253.63159719109535 93.638403117656708 221.45491693913937 48.515048637986183 37.074098587036133 31.596712172031403 157.18170230835676 56.220845073461533 43.060346245765686 12.488901168107985 18.228729426860809 16.061028480529785 64.808846468105912 3.2799922674894324 184.27942722290754 3.5348311215639105 42.452277570962906 16.276839934289455 18.615198329091072 45.870122849941254
leaf_count=111 2262 221 117538 1678 1363 1728 348 11411 71 63 6646 801 9757 2330 40726 3288 4839 2314 1885 22756 416 351 1029 3732 3793 217 18 2237 74 5541 76 934 651 1274 6623 15 532 99 29 809 852 190 1064 754 994 80 168 198 996 317 59 65 39 38 275 19 1143 14 290 104 37 362
internal_value=0 0.0394864 0.0430172 0.0841744 0.0405225 0.0418587 -0.0455901 0.0428501 0.0172007 0.0211115 0.00657569 -0.000631733 -0.0193406 0.0247504 0.0215049 0.0306612 0.0129602 0.0366793 -0.0152832 0.0053094 -0.0728783 0.0627748 -0.0436459 -0.00341253 0.0104928 0.0635189 -0.0216129 -0.0120235 0.295396 -0.0353266 0.105692 0.091902 0.13784 -0.0421993 -0.0211654 0.0324688 0.0711803 -0.0203498 0.0462235 0.063174 0.0427155 0.108335 -0.00965943 -0.0370448 -0.113115 -0.0589572 -0.0311313 0.0662871 -0.0347205 -0.0476064 0.205347 0.0787497 -0.080622 -0.147115 -0.0952791 -0.11154 -0.11504 -0.107409 -0.0946928 -0.0743608 0.16241 -0.119995
internal_weight=0 74142 66958.5 3826.7 63131.8 62038.8 695.481 61343.4 27991 25284.9 7183.52 774.435 2706.13 23300.4 21468 13714.4 6649.22 2715.41 924.854 7753.59 534.297 1832.37 555.252 3933.81 2895.69 1790.56 1984.51 1793.28 51.7879 1092.93 3052.26 2136.03 916.231 1038.12 1741.49 147.671 1730.91 104.993 575.368 487.331 426.026 219.183 765.289 2130.76 386.626 149.11 1932.53 68.6708 1863.85 88.0371 61.3046 28.2814 101.46 237.516 327.639 191.227 187.947 59.7557 198.238 109.915 42.6776 88.3224
internal_count=268644 171338 144738 5470 139268 131025 2076 128949 97306 82461 26600 2131 14845 72284 69100 44014 24700 9255 4199 25086 1900 3184 1830 15445 10439 5056 10177 8997 137 8243 3339 2612 727 5006 8860 372 2794 320 2216 1791 1661 301 2427 12629 1528 496 11119 366 10753 425 130 94 390 1032 5816 1180 1161 331 1510 858 52 652
is_linear=0
shrinkage=0.1


Tree=16
num_leaves=63
num_cat=0
split_feature=129 31 81 128 103 43 30 110 5 113 106 52 31 103 68 110 74 40 43 70 128 52 70 104 37 0 42 52 98 123 0 77 126 34 0 128 78 24 46 123 41 71 0 20 75 69 0 92 78 74 63 8 92 94 27 134 15 67 34 9 71 104
split_gain=841.566 740.791 663.341 632.376 546.385 1654.23 1158.94 448.565 370.101 384.052 317.708 271.677 211.896 199.672 173.998 188.882 219.727 283.18 204.74 172.12 167.606 166.769 222.937 207.843 162.77 149.479 138.284 136.477 101.024 125.251 96.7735 155.286 128.002 95.3296 137.175 98.9479 74.3581 68.9108 101.867 104.507 58.4835 55.3334 79.4715 54.6405 54.1511 52.9614 92.7262 40.8555 64.545 48.3926 38.2867 47.3127 37.1129 27.3112 23.7866 18.4581 15.4063 40.0019 1.68719 0.731494 0.199053 0.0150366
threshold=1.0000000180025095e-35 1.0052565336227419 -1.3665438294410703 1.0000000180025095e-35 -0.84350430965423573 1.0396391153335574 1.068275034427643 -0.88620048761367787 0.67078232765197765 -0.92592182755470265 -0.85063132643699635 1.0964741706848147 0.98894119262695324 -0.83500406146049488 0.17812019586563113 -0.97063434123992909 -0.89950668811798085 1.0566241145133974 1.0904086232185366 -0.29301057755947107 1.0000000180025095e-35 1.1102313399314883 -0.22796132415533063 -0.78016427159309376 0.92729806900024425 0.41878296434879309 1.1448611021041872 1.0474662184715273 -0.94729194045066822 -1.2094697952270506 0.43068920075893408 -1.2586109042167661 -1.6598319411277769 0.8547148108482362 0.51577287912368786 1.0000000180025095e-35 -1.3252893090248106 1.1939971446990969 1.1522062420845034 -1.2737247347831724 1.0917384624481203 -0.3613473773002624 0.32915215194225317 1.2122051119804385 -1.0750950574874876 -0.12154361233115195 0.45199123024940496 -0.93630868196487416 -1.2753056287765501 -0.79933121800422657 0.44699572026729589 0.7221486270427705 -1.2286583781242368 -0.97563004493713368 1.1096464395523074 1.0000000180025095e-35 0.90702593326568615 0.18629319965839389 0.94399216771125805 0.26026278734207159 -0.3701964914798736 -0.74405622482299794
decision_type=2 2 2 2 2 2 2 2 2 2 2 2 2 2 2 2 2 2 2 2 2 2 2 2 2 2 2 2 2 2 2 2 2 2 2 2 2 2 2 2 2 2 2 2 2 2 2 2 2 2 2 2 2 2 2 2 2 2 2 2 2 2
left_child=1 2 8 4 6 -6 -4 14 9 36 27 -12 37 19 15 56 18 -18 -17 33 -11 22 25 -24 45 -14 47 -5 43 -30 32 -32 -26 35 -35 -3 -1 40 39 -39 52 60 -43 -21 -40 53 -47 48 -16 -49 55 -52 -9 -15 -42 -10 58 -58 -2 -28 -23 -61
right_child=7 13 3 10 5 -7 -8 12 50 20 11 -13 21 24 26 16 17 -19 -20 28 -22 41 23 -25 30 -27 59 -29 29 -31 31 -33 -34 34 -36 -37 -38 38 44 -41 54 42 -44 -45 -46 46 -48 49 -50 -51 51 -53 -54 -55 -56 -57 57 -59 -60 61 -62 -63
leaf_value=-0.11355154924636175 -0.12945434250242768 -0.037674677928353134 0.064152962829948271 -0.0067442220909348666 -0.04150293561854429 0.036323914358592779 0.030441335230247932 -0.11204819676609085 -0.098551887731877882 0.003900390490466114 0.058280049121482505 -0.020818861592025988 -0.08612601159190629 -0.10327755001256388 0.26045695120616363 -0.023007295555729404 0.063157897874427854 -0.040744308470729004 -0.092488654654349051 0.39664805611531739 0.043227800951986632 -0.13225099058688028 0.15359970867973766 0.025655904508345446 -0.0014804587400980599 0.013924930540459818 -0.18331372755387987 -0.09015379150469631 0.058429103264397445 -0.11390113104389239 -0.0269969174326153 0.10409163635084513 -0.068528391367042973 0.0035438405225978152 0.047663888083181088 0.11663232290303571 -0.038990408080438479 0.18989978885135417 -0.12697508505915947 0.05696256190745666 0.088711460471080111 -0.11026279309533844 0.086406795303369296 0.14055597120568819 0.027334644668670961 -0.078534413589048196 0.19378485135930917 0.35443789245572721 -0.088254672069384338 0.14799082590980386 -0.13318473632579717 0.059038760977831999 0.17364247917705289 -0.038263515191759773 -0.14335140134781027 0.046903023142956274 -0.087095579313514776 0.24814907504811537 -0.10317652114104686 -0.12909146892502496 -0.14323863447549076 -0.1352933066275252
leaf_weight=172.13863471150398 109.33584984391928 650.83211464434862 20005.213019065559 302.67833768576384 2956.3781001437455 35841.135667577386 20801.117311131209 4.7174837477505198 391.30057772807777 2517.5413307622075 763.24545647203922 1007.2737832814455 203.65230725705624 304.03406416624784 8.5067662745714205 1541.0439532995224 551.63722262531519 500.12008044868708 585.12351711839437 10.300729036331175 1902.6856356039643 70.642657324671745 195.19378274679184 363.26262938976288 1013.9119336828589 559.79069792479277 3.3451479226350811 557.45833316445351 663.48412035405636 45.038097485899925 183.14397636055946 178.38055147230625 395.92681407183409 3713.0118303224444 869.77195400744677 44.390509940683842 599.80702863633633 76.920167416334152 35.404320225119591 255.78027632087469 8.6004916429519671 45.931402370333672 37.1766457259655 43.580161482095718 63.584112152457237 36.377728328108788 19.052825972437859 15.243134826421736 14.115966230630873 44.505965404212475 19.573863260447979 37.02519590780139 125.88666108250618 82.05195876210928 9.0802991688251478 8.9232613891363126 249.20338550209999 3.6108060330152503 31.465111881494522 8.7960807681083679 21.507372319698334 7.036892265081403
leaf_count=946 650 3048 32650 1141 10495 84161 45671 78 5116 8909 3164 5026 1049 1943 13 7077 1984 2666 3174 9 7025 400 489 1212 4893 2412 15 2805 1842 188 920 634 2041 14473 2988 172 2569 111 163 656 22 226 92 63 184 142 25 13 67 54 114 125 203 453 44 21 1414 9 201 52 105 37
internal_value=0 0.0323288 0.0350189 0.0372959 0.0388901 0.0303935 0.0469684 -0.00705487 0.00187097 0.00946328 -0.0109428 0.0132795 0.0300862 0.00368419 -0.0280581 -0.0317281 -0.0236347 0.0137515 -0.0421286 0.0130986 0.0208289 0.0102069 0.0223594 0.0703753 -0.0220138 -0.0127642 0.101017 -0.0608023 0.057513 0.0474747 -0.00847352 0.0376838 -0.0203096 0.00668292 0.0119174 -0.0278221 -0.055617 0.081403 0.0612006 0.0876976 0.140216 -0.0814539 -0.0222868 0.189515 -0.027856 -0.0763374 0.0150683 0.157324 0.0428704 0.200659 -0.084422 -0.00743861 0.163323 -0.0894606 -0.0304687 -0.0953089 -0.0970719 -0.0823075 -0.123582 -0.140825 -0.134815 -0.131848
internal_weight=0 96136.8 87883.5 82234.5 79603.8 38797.5 40806.3 5750.22 5649 5192.17 2630.66 1770.52 2077.13 8253.29 3673.09 3571.54 3177.92 1051.76 2126.17 6040.41 4420.23 1497.16 1321.9 558.456 2212.88 763.443 101.55 860.137 762.403 708.522 1771.36 361.525 1409.84 5278.01 4582.78 695.223 771.946 579.974 431.689 332.7 148.285 175.258 83.108 53.8809 98.9884 441.517 55.4306 82.3718 22.6227 59.7491 456.823 56.5991 130.604 386.086 17.6808 400.224 393.615 252.814 140.801 19.1781 92.15 15.833
