tree
version=v4
num_class=1
num_tree_per_iteration=1
label_index=0
max_feature_idx=136
objective=binary sigmoid:1
feature_names=Column_0 Column_1 Column_2 Column_3 Column_4 Column_5 Column_6 Column_7 Column_8 Column_9 Column_10 Column_11 Column_12 Column_13 Column_14 Column_15 Column_16 Column_17 Column_18 Column_19 Column_20 Column_21 Column_22 Column_23 Column_24 Column_25 Column_26 Column_27 Column_28 Column_29 Column_30 Column_31 Column_32 Column_33 Column_34 Column_35 Column_36 Column_37 Column_38 Column_39 Column_40 Column_41 Column_42 Column_43 Column_44 Column_45 Column_46 Column_47 Column_48 Column_49 Column_50 Column_51 Column_52 Column_53 Column_54 Column_55 Column_56 Column_57 Column_58 Column_59 Column_60 Column_61 Column_62 Column_63 Column_64 Column_65 Column_66 Column_67 Column_68 Column_69 Column_70 Column_71 Column_72 Column_73 Column_74 Column_75 Column_76 Column_77 Column_78 Column_79 Column_80 Column_81 Column_82 Column_83 Column_84 Column_85 Column_86 Column_87 Column_88 Column_89 Column_90 Column_91 Column_92 Column_93 Column_94 Column_95 Column_96 Column_97 Column_98 Column_99 Column_100 Column_101 Column_102 Column_103 Column_104 Column_105 Column_106 Column_107 Column_108 Column_109 Column_110 Column_111 Column_112 Column_113 Column_114 Column_115 Column_116 Column_117 Column_118 Column_119 Column_120 Column_121 Column_122 Column_123 Column_124 Column_125 Column_126 Column_127 Column_128 Column_129 Column_130 Column_131 Column_132 Column_133 Column_134 Column_135 Column_136
feature_infos=[-1.8014661073684692:1.9731968641281128] [-1.7160434722900391:1.9330692291259766] [-1.6382262706756592:1.893924355506897] [-1.5680137872695923:1.8557635545730591] [-1.5054070949554443:1.8185858726501465] [-1.4504051208496094:1.7823913097381592] [-1.4123568534851074:1.7519460916519165] [-1.3844102621078491:1.7939627170562744] [-1.3517893552780151:2.0758624076843262] [-1.3099035024642944:2.0974209308624268] [-1.2559221982955933:2.0165181159973145] [-1.1870334148406982:2.064321756362915] [-1.1039742231369019:2.1106562614440918] [-1.0067610740661621:2.1771299839019775] [-0.90047705173492432:2.2825961112976074] [-0.78966546058654785:2.3805651664733887] [-0.67814630270004272:2.4481546878814697] [-0.65591526031494141:2.4998569488525391] [-0.65910369157791138:2.5653238296508789] [-0.66488730907440186:2.5221147537231445] [-0.66619455814361572:2.4413206577301025] [-0.67410272359848022:2.3840618133544922] [-0.67701548337936401:2.2409591674804688] [-0.7797551155090332:2.1797337532043457] [-1.0841877460479736:2.1696581840515137] [-1.4308524131774902:2.0883691310882568] [-1.6366665363311768:1.9448176622390747] [-1.8254417181015015:1.7314887046813965] [-1.9454965591430664:1.5598906278610229] [-2.2033448219299316:1.3473584651947021] [-2.6534385681152344:1.1459542512893677] [-2.9375624656677246:1.0652625560760498] [-2.8964071273803711:1.0182701349258423] [-2.6209216117858887:1.0153312683105469] [-1.9672813415527344:1.0222163200378418] [-1.2877312898635864:1.0987448692321777] [-0.66328972578048706:1.3781088590621948] [-0.67050886154174805:1.4357191324234009] [-0.67336314916610718:1.5244829654693604] [-0.67729061841964722:1.427788257598877] [-0.67375040054321289:1.3506048917770386] [-0.67713803052902222:1.3033223152160645] [-0.67526406049728394:1.4334096908569336] [-0.67815649509429932:1.6771683692932129] [-0.67593681812286377:1.8418123722076416] [-0.67998087406158447:1.9795904159545898] [-0.67735743522644043:1.8671952486038208] [-0.68056988716125488:1.7601110935211182] [-0.67851173877716064:1.6395943164825439] [-0.68057990074157715:1.6658937931060791] [-0.67868822813034058:1.8198304176330566] [-0.68411111831665039:2.1010029315948486] [-0.68785721063613892:2.3278176784515381] [-0.69603323936462402:2.41339111328125] [-0.68564701080322266:2.0181429386138916] [-0.66462117433547974:1.663224458694458] [-0.63047897815704346:1.3776267766952515] [-0.79989981651306152:1.3641012907028198] [-0.9627259373664856:1.3483799695968628] [-0.83332031965255737:1.3266682624816895] [-0.62303602695465088:1.2987289428710938] [-0.62908732891082764:1.6912268400192261] [-0.65896600484848022:1.8743280172348022] [-0.67422842979431152:1.7138135433197021] [-0.80786275863647461:1.3433690071105957] [-1.0305129289627075:1.0728911161422729] [-1.2195744514465332:0.99044626951217651] [-1.6538451910018921:0.88485002517700195] [-1.8910553455352783:0.75389385223388672] [-2.0949718952178955:0.60495084524154663] [-1.9126988649368286:0.45876148343086243] [-1.723555326461792:0.33052113652229309] [-1.5550380945205688:0.23037496209144592] [-1.4402464628219604:0.15855956077575684] [-1.4517455101013184:0.2961885929107666] [-1.6804615259170532:0.9557119607925415] [-1.8599822521209717:1.4404212236404419] [-2.0371255874633789:1.2026444673538208] [-2.1728529930114746:1.1271375417709351] [-2.2573421001434326:0.52897804975509644] [-2.3058340549468994:0.2406151294708252] [-2.3315773010253906:0.28676301240921021] [-2.3403120040893555:0.33890664577484131] [-2.3343968391418457:0.39074629545211792] [-2.3124566078186035:0.43792322278022766] [-2.2730567455291748:0.47703936696052551] [-2.2140905857086182:0.50853937864303589] [-2.1362462043762207:0.53271615505218506] [-2.0426793098449707:0.67684948444366455] [-1.9374580383300781:0.56802195310592651] [-1.8240519762039185:0.65060514211654663] [-1.8478662967681885:1.0689502954483032] [-1.6520191431045532:1.4172115325927734] [-1.5958865880966187:1.6287872791290283] [-1.5394163131713867:1.664950966835022] [-1.4922878742218018:1.6182941198348999] [-1.4547033309936523:1.5608183145523071] [-1.4384253025054932:1.5595740079879761] [-1.4264529943466187:1.5645072460174561] [-1.5819015502929688:1.5648646354675293] [-1.8966314792633057:1.5687597990036011] [-2.4619696140289307:1.5680602788925171] [-2.648137092590332:1.5700795650482178] [-2.5047333240509033:1.5662518739700317] [-2.1062953472137451:1.5674868822097778] [-1.4165751934051514:1.5623446702957153] [-1.2213733196258545:1.563502311706543] [-1.117332935333252:1.5619508028030396] [-1.168958306312561:1.5697338581085205] [-1.2179133892059326:1.5736351013183594] [-1.3164699077606201:1.5835809707641602] [-1.5990560054779053:1.5861003398895264] [-2.1418814659118652:1.5904537439346313] [-2.4733853340148926:1.5896482467651367] [-2.5047738552093506:1.5896980762481689] [-2.0072333812713623:1.5865405797958374] [-1.577265739440918:1.5868538618087769] [-1.6321159601211548:1.611059308052063] [-1.6862318515777588:2.4495923519134521] [-1.7458088397979736:2.6529664993286133] [-1.820858359336853:2.5047237873077393] [-1.9280952215194702:1.7488086223602295] [-2.15055251121521:1.6308574676513672] [-2.3790585994720459:1.6220458745956421] [-2.6463632583618164:1.8138364553451538] [-2.951240062713623:2.1341862678527832] [-3.3559722900390625:2.598928689956665] [-3.8531808853149414:3.4483489990234375] [0:1] [0:1] [0:1] [0:1] [0:1] [0:1] [0:1] [0:1] [0:1]
tree_sizes=6356 6621 6541 6760 5401 6657 6557 6941 6661 6902 6102 6849 6802 6391 6405 6826 5986 6983 6850 6942 6968 6900 6842 6955 6711 6802 5502 6559 5374 5426 6901 5955 6002 5632 6805 6574 6723 5358 6044 6485 6310 5422 6833 5495 5706 6622 5537 6919 6885 5951 4853 4812 6102 6950 6707 5132 6168 6290 6703 6285 6085 5244 6836 6927 5980 6959 7000 6295 6732 5724 6978 5144 4850 6639 6530 6957 5169 6878 5674 6595 6719 5124 5096 4406 6932 5204 6930 6674 5638 6765 5432 5330 6604 5370 6608 6853 6373 6953 6296 5322 6793 6405 6056 6739 6465 5867 6375 6819 6637 5396 5534 6848 5243 6871 6917 6188 6468 5948 6454 6914 6286 6619 6970 6600 6915 6589 6798 5560 4469 6383 5401 6810 6918 6597 6337 6945 5827 6775 5476 6816 6288 6496 5370 6951 6187 4488 6289 6071 6816 6606 6411 5073 6825 5795 6927 5258 6150 6733 6067 6476 6329 6448 4807 6739 6722 6574 6278 6029 5571 4475 6677 5138 6023 6961 6798 6798 5804 5684 6952 5957 6672 5949 5948 6579 6957 6273 6405 6260 5293 5031 6601 5238 6900 6509 5028 6829 6501 5447 6932 6279

Tree=0
num_leaves=59
num_cat=0
split_feature=32 130 131 128 30 129 136 83 105 113 133 31 32 70 104 109 69 36 112 0 108 76 123 56 39 73 61 118 53 0 76 31 72 31 104 71 55 59 73 117 121 113 75 58 78 28 118 125 61 16 37 53 51 31 44 106 31 0
split_gain=57259.9 20820.4 21783.4 15269.9 15585.4 12277.2 7324.92 5346.48 2518.4 1398.83 1194.3 1105.94 1054.81 1208.56 1534.78 1198.23 1062.54 962.549 678.615 664.585 796.983 651.96 628.384 581.275 860.188 732.565 547.209 516.335 493.187 479.505 465.238 357.28 299.052 294.92 252.407 250.096 212.489 204.24 179.724 181.985 176.781 172.955 146.476 136.534 128.732 127.31 117.141 109.939 85.0091 191.99 64.3642 59.7573 28.829 26.1896 22.6889 10.1418 8.38595 2.84217e-14
threshold=0.95204859972000133 1.0000000180025095e-35 1.0000000180025095e-35 1.0000000180025095e-35 1.0869984030723574 1.0000000180025095e-35 1.0000000180025095e-35 -0.99005413055419911 -0.95527511835098255 -0.8649495244026183 1.0000000180025095e-35 1.0075026750564577 0.95678636431694042 -0.31584334373474116 -0.82419365644454945 -0.89188253879547108 -0.060310389846563332 0.95524954795837413 -0.96769946813583363 0.59761887788772594 -0.86923056840896595 -1.311123192310333 -1.2718420028686521 0.94846364855766307 0.96285998821258556 -0.78474226593971241 0.67736640572547924 -0.90287059545516957 1.0928238034248354 0.47014556825160986 -1.1243924498558042 1.0009094476699831 -0.75778433680534352 1.0127828717231753 -0.82829096913337696 -0.44058452546596522 0.99244317412376415 0.78063255548477184 -0.8007504642009734 -0.9507608413696288 -1.3983844518661497 -1.1848208308219907 -1.1016374230384824 0.82015985250473034 -0.89628005027770985 1.1893665790557864 -1.2550394535064695 -1.1557710766792295 0.73943158984184276 0.93833678960800182 0.99635565280914318 1.0822980403900149 1.0668861269950869 1.0035355091094973 0.99098137021064769 -0.84698399901390065 1.0027567744255068 1.0713622570037844
decision_type=2 2 2 2 2 2 2 2 2 2 2 2 2 2 2 2 2 2 2 2 2 2 2 2 2 2 2 2 2 2 2 2 2 2 2 2 2 2 2 2 2 2 2 2 2 2 2 2 2 2 2 2 2 2 2 2 2 2
left_child=1 2 3 4 5 -1 7 12 -6 31 41 17 13 34 -15 30 -17 23 51 20 28 -20 36 24 -8 -25 40 -24 35 33 -14 42 -33 43 -2 -3 -22 -35 39 -31 -12 56 -4 -13 -43 53 -28 -47 55 -50 -30 -5 -40 -11 57 -19 -9 -21
right_child=6 19 9 18 8 -7 11 10 -10 45 26 29 15 14 -16 16 -18 48 21 54 22 -23 27 25 -26 -27 46 -29 50 38 -32 32 -34 37 -36 -37 -38 -39 52 -41 -42 44 -44 -45 -46 47 -48 -49 49 -51 -52 -53 -54 -55 -56 -57 -58 -59
leaf_value=-1.4594710996356901 -1.868069871495154 -1.8726593559782367 -1.8180612393739239 -1.9585643339732686 -1.4830080175154767 -1.8141816908823769 -1.5621724691753045 -2.0719404298563258 -1.7569557527942399 -2.0694367034801622 -1.2389089609479043 -1.5374619580576736 -1.9232917052892713 -1.6504615348203791 -1.8152269056230979 -1.8524320290640197 -1.7486721362890119 -2.0719404298563258 -2.0647440288111301 -2.0719404298563258 -1.9301352315773681 -1.7896458525967627 -1.8910343820748499 -1.4506322749017386 -1.7800245205791638 -1.607214615972548 -1.5627469383460777 -1.6896066756430175 -2.0305617566211405 -1.886555132389635 -1.8551233063667114 -2.0019504627750493 -1.836558704834492 -2.0719404298563258 -2.0719404298563258 -1.6873259189264733 -1.5333071041909212 -1.5210117438292179 -1.4157495794223793 -1.5295956525252135 -1.5046065729048574 -1.7430494213930321 -1.7397604703052236 -1.9291493442720149 -1.2993884878579482 -1.7311319500034421 -2.0719404298563258 -2.0719404298563258 -1.9377084447358917 -1.1987406131710179 -1.7582719661163719 -2.0467948320961602 -1.1494344167649295 -1.8773550234030276 -1.7465585337473288 -1.9128772284492508 -1.916656897625707 -2.0719404298563258
leaf_weight=27736.717152178288 705.36456790566444 902.90025669336319 454.81273248791695 168.69972744584084 389.71907961368561 1011.361774533987 336.29076755046844 14.634050577878954 2415.3883581757545 282.93407210707664 195.58635041117668 9.277691721916197 1763.2449616491795 1030.2835279107094 1252.7927133142948 2288.0589217245579 1735.538233757019 40.108138620853424 98.436634451150894 118.15640836954117 14.986534506082533 690.08450013399124 297.59979054331779 380.81279119849205 393.12382504343987 1387.128549516201 61.212757974863052 222.33647683262825 222.55579426884651 22.927044659852982 2316.4598198831081 141.6982090473175 478.51603746414185 8.3468288481235486 66.449429661035538 79.198125898838043 135.46157455444336 34.716864377260208 8.6363837420940417 37.878663778305054 28.718466699123383 60.308447062969208 503.28117927908897 218.28490084409714 7.3355792462825766 22.864115625619888 4.8780168592929831 16.151655822992325 26.386762380599979 4.0562852025032035 9.0336081683635694 140.85755801200867 7.678968906402587 7.2810136377811423 2.1771017611026755 4.4535096287727347 4.5619100034236899 18.75326481461525
leaf_count=109975 5272 6784 3204 1392 1624 7091 1630 135 15748 2604 405 43 14015 5775 8795 16794 11192 370 902 1090 120 4693 2283 1481 2641 7260 297 1321 1974 175 17056 1222 3447 77 613 469 623 156 31 173 125 386 3207 1746 19 144 45 149 213 7 59 1269 10 55 14 35 36 173
internal_value=-1.95782 -1.5441 -1.52585 -1.50666 -1.4939 -1.47195 -1.77919 -1.815 -1.7189 -1.85432 -1.44474 -1.6377 -1.82752 -1.77744 -1.74087 -1.8464 -1.80768 -1.61508 -1.87324 -1.8559 -1.84033 -1.82399 -1.75282 -1.60448 -1.67959 -1.57349 -1.34744 -1.8049 -1.88867 -1.80508 -1.88459 -1.81521 -1.87435 -1.86777 -1.88562 -1.85771 -1.57284 -1.6278 -1.58511 -1.66419 -1.27293 -1.77012 -1.77693 -1.91318 -1.69494 -2.04182 -1.60033 -1.87222 -1.96805 -1.83925 -2.01994 -1.99871 -1.29041 -2.06462 -2.06685 -2.05604 -2.03504 -2.07194
internal_weight=0 36582 34558.8 32651.3 31553.2 28748.1 14455.5 11535.4 2805.11 1907.54 377.236 2920.11 11158.2 3054.89 2283.08 8103.3 4023.6 2572.36 1098.08 2023.16 1884.07 788.521 670.384 2497.36 729.415 1767.94 290.396 519.936 1213.69 347.747 4079.7 1578.31 620.214 270.626 771.814 982.098 150.448 43.0637 77.1211 60.8057 224.305 86.84 958.094 227.563 67.644 329.231 66.0908 39.0158 75.0047 30.443 231.589 309.557 16.3154 290.215 139.087 44.5616 19.196 136.91
internal_count=268644 171636 156726 142694 134438 117066 97008 80960 17372 14032 1448 16048 79512 20455 14570 59057 27986 13637 8256 14910 13633 5595 4347 13012 4271 8741 872 3604 9286 2411 31071 11080 4669 2022 5885 7253 743 233 389 348 530 576 6411 1789 405 2952 342 293 625 220 2033 2661 41 2659 1277 405 171 1263
is_linear=0
shrinkage=1


Tree=1
num_leaves=61
num_cat=0
split_feature=106 31 130 29 136 49 110 32 77 115 31 134 80 108 0 29 78 103 62 28 86 31 130 107 103 89 48 69 34 57 106 122 73 79 74 110 110 57 18 2 4 34 70 29 133 105 91 84 102 27 52 126 29 105 100 106 129 32 32 0
split_gain=22131.9 10492.4 5269.91 4636.85 4521.14 5666.15 4241.07 4252.07 2618.67 2096.27 2550.36 1885.53 1087.77 781.535 766.999 765.438 581.05 578.815 410.239 394.971 392.33 367.503 346.818 318.6 306.818 297.293 263.59 245.311 239.48 245.744 227.241 197.918 190.79 189.434 156.805 152.537 148.545 138.024 225.622 132.034 91.1422 100.366 88.3015 83.1865 74.1498 73.7112 69.0043 64.9036 64.2518 44.766 30.0793 133.485 21.5328 16.0687 9.74269 8.16625 0.0172219 0.00166468 0.000927757 5.68434e-14
threshold=-0.86196333169937123 1.0052643418312075 1.0000000180025095e-35 1.2197609543800356 1.0000000180025095e-35 1.2241969108581545 -1.2106165885925291 0.87471452355384838 -1.3036831021308897 -0.82437205314636219 0.99291646480560314 1.0000000180025095e-35 -1.0448958277702329 -0.88908571004867543 0.34836743772029882 1.2357016205787661 -1.242847681045532 -0.86148607730865467 0.28209455311298376 1.1280190348625185 -1.3153354525566099 1.0081272721290591 1.0000000180025095e-35 -0.89337423443794239 -0.83492472767829884 -1.0166686773300169 1.2392786741256716 -0.0034381084842607375 0.93661433458328258 0.91191381216049205 -0.88179430365562428 -1.0080710053443906 -0.91054174304008473 -0.96410119533538807 -1.0398702621459959 -1.0523760318756101 -0.8763003647327422 0.93995472788810741 1.0866902470588686 0.81123194098472606 0.32761849462985998 0.8622264862060548 -0.45252424478530878 1.0154426693916323 1.0000000180025095e-35 -0.79208061099052418 -1.0407757163047788 -1.3431561589241026 -0.90609052777290333 1.0486073493957522 1.0502967238426211 -1.3686811327934263 1.0769161581993105 -0.88400575518608082 -0.76530334353446949 -0.84698399901390065 1.0000000180025095e-35 0.95204859972000133 0.95204859972000133 0.56473374366760265
decision_type=2 2 2 2 2 2 2 2 2 2 2 2 2 2 2 2 2 2 2 2 2 2 2 2 2 2 2 2 2 2 2 2 2 2 2 2 2 2 2 2 2 2 2 2 2 2 2 2 2 2 2 2 2 2 2 2 2 2 2 2
left_child=1 2 3 6 5 9 27 -8 50 10 11 -2 20 28 -12 18 17 -15 -5 -18 34 24 25 37 -22 45 -27 -1 29 -10 46 -11 -23 35 47 44 -32 38 -4 -17 54 -42 -37 49 -14 -7 -25 -3 -36 -24 57 58 -45 -39 -35 -30 -33 59 -52 -6
right_child=4 12 23 15 8 22 7 -9 13 31 14 -13 33 16 -16 39 19 -19 -20 -21 21 32 43 30 -26 26 -28 -29 55 -31 36 56 -34 40 48 42 -38 53 -40 -41 41 -43 -44 52 -46 -47 -48 -49 -50 -51 51 -53 -54 -55 -56 -57 -58 -59 -60 -61
leaf_value=0.093349186141762935 0.1536580827314728 -0.11599185240331947 0.44051914899546785 0.19487859398578139 -0.12323592053690147 -0.071499327043239164 0.36491010564277337 0.28787087882726542 0.087827836569103257 0.59588439662725767 0.030058127497244638 0.33184665097232319 -0.027785253572001369 0.37197953747653539 0.10344353974590643 0.0059224991377413742 0.055267100715871979 0.2491285571450888 -0.031236441506155406 0.48767261472721635 0.15835851331214279 -0.053644358410448179 0.05707931705194326 -0.079992724374954471 0.032875665804636578 0.32601516790695856 0.4542929165463121 -0.090230534739961149 -0.11486401128859342 0.21095162959999045 0.1311952997869108 -0.11274139232119128 0.072861312571635556 -0.12161175250420052 0.67101784793347163 -0.12053851602027135 0.40021463822524539 0.014012910005998011 0.011510534999702136 0.33736616657750007 -0.016275799052843182 0.37732488001063141 0.32142698744837134 -0.11350508646873728 0.171341430972557 0.40385499848911821 0.46045010239649459 0.31754441640219666 0.35349650552274831 0.37315372401450281 -0.12323592053690141 0.46779362118406209 0.23075796935384618 -0.11450504222891125 0.12189134914613312 0.022329164559817139 -0.1162831741211641 -0.12096801248498212 -0.12136094464226049 -0.12323592053690147
leaf_weight=101.40691876411438 3928.2293434664607 5.9778378233313552 12.688777923583983 772.40188907086849 17.13575267791748 16.164447650313381 9483.9264700785279 29292.499368235469 212.00074268877506 3.9773614555597296 1722.5716034471989 699.60927031934261 23.185847520828247 440.72691667079926 8222.7371470630169 472.70246589928865 23.88259245455265 2954.3805472552776 89.538994118571281 182.90528499335051 1006.772289969027 127.55873031914234 8.0564920008182543 60.192508712410927 241.61904591321945 236.666607812047 495.69605865329504 257.92907185852528 27.604718841612339 688.78556998074055 330.01795691996813 406.10921092331409 1822.7937415316701 3.7482389658689499 16.204404033720497 4.7470942288637152 21.886678017675877 10.797556445002554 361.81123101711273 12.332538872957228 6.744234472513198 164.42251501977444 94.726298794150352 15.394463300704958 96.664847262203693 4.0868717655539504 2.4590413495898238 8.1763124763965589 10.503988370299338 10.096547752618788 15.758772552013403 4.7942747473716727 2.0599655508995047 98.272781513631344 2.9256420582532874 5.1477628946304312 14.209291085600851 3.2956713289022437 3.1698579564690581 163.24864381551743
leaf_count=475 22063 51 39 3439 112 136 23189 95382 1208 9 12202 1921 155 1021 51823 2949 123 11221 626 353 5332 1083 49 511 1689 651 805 1616 252 2989 2131 4059 12306 26 28 34 76 78 2702 35 41 292 343 148 423 16 9 40 39 37 103 7 14 899 15 39 118 23 22 1067
internal_value=0 0.277638 0.29195 0.297265 0.152349 0.126625 0.303544 0.306713 0.237965 0.11289 0.11927 0.180596 0.114788 0.253855 0.0907329 0.114841 0.274988 0.265076 0.17139 0.437733 0.0956388 0.0917056 0.38796 0.0523605 0.134072 0.402388 0.412839 -0.0384232 0.172317 0.181974 0.116687 -0.106217 0.0645875 0.270985 0.403537 0.208795 0.147927 -0.00278581 0.0260462 0.0143498 0.34768 0.361816 0.300335 0.0830002 0.132819 0.0244308 -0.0587806 0.134446 0.546142 0.232877 -0.109509 -0.00354142 -0.0728753 -0.101782 -0.0148668 -0.0933011 -0.112861 -0.123195 -0.122922 -0.123236
internal_weight=0 45017.6 41380.9 40482.7 20528.5 15785.7 39135.8 38776.4 4742.84 14997.4 14573.1 4627.84 3636.77 4535.43 9945.31 1346.98 3601.9 3395.11 861.941 206.788 3239.61 3198.74 788.221 898.127 1248.39 752.614 732.363 359.336 933.539 900.786 414.556 424.296 1950.35 397.165 40.8625 219.324 351.905 483.57 374.5 485.035 177.841 171.167 99.4734 35.6075 119.851 20.2513 62.6516 14.1542 26.7084 18.153 207.403 23.7229 17.4544 109.07 6.67388 32.7525 420.319 183.68 18.9286 180.384
internal_count=268644 156053 134156 127711 112591 94051 120662 118571 18540 92195 88009 23984 21897 17206 64025 7049 12718 12242 4065 476 20568 20410 1856 6445 7021 1608 1456 2091 4488 4197 2727 4186 13389 1329 158 955 2207 3718 2741 2984 374 333 377 248 578 152 520 91 67 86 1334 132 162 977 41 291 4177 1202 125 1179
is_linear=0
shrinkage=0.1


Tree=2
num_leaves=60
num_cat=0
split_feature=32 52 131 130 30 128 136 85 105 33 69 102 38 114 34 108 58 70 36 103 17 48 56 53 55 74 133 116 75 31 99 82 62 41 127 104 95 87 73 133 104 116 127 121 30 119 56 38 122 9 30 127 136 108 106 108 30 109 105
split_gain=12843.5 6106.21 4328.14 4680.11 3719.35 3767.34 2030.3 1285.67 1001.04 636.784 1166.95 1041.75 872.156 450.666 449.503 413.191 383.005 525.285 444.708 476.327 437.358 342.215 325.18 287.212 223.013 197.119 196.383 195.81 235.901 173.091 169.356 163.867 144.891 109.82 266.152 113.421 88.0011 87.0494 82.7875 77.9252 76.0901 73.0159 40.4371 39.8073 48.0137 35.8543 44.7446 24.4592 15.9656 12.996 4.7189 51.2871 1.03615 0.470283 0.224103 0.0509628 0.0408949 0.00894629 0.00566896
threshold=0.95335495471954357 0.77956891059875499 1.0000000180025095e-35 1.0000000180025095e-35 1.0894346833229067 1.0000000180025095e-35 1.0000000180025095e-35 -0.96098035573959339 -0.94656643271446217 0.95112350583076488 -0.055719289928674691 -0.78005662560462941 0.99446284770965587 -0.94213530421257008 0.93661433458328258 -0.87106814980506886 0.86236003041267406 -0.24435614794492719 0.9369313418865205 -0.81215903162956227 1.096757769584656 1.1188105940818789 0.94368979334831249 1.094356417655945 1.0216935276985171 -1.0184905529022215 1.0000000180025095e-35 -0.94268697500228871 -1.1032024025917051 1.0099953413009646 -0.94478118419647206 -1.3590037226676939 0.60209229588508617 1.0865797996520998 -1.9711505174636839 -0.75486457347869862 -0.73721930384635914 -0.96640595793724049 -0.86849436163902272 1.0000000180025095e-35 -0.80156642198562611 -1.3503209352493284 -1.164575397968292 -0.95471990108489979 1.0773304700851443 -1.2537454366683958 1.0134682059288027 0.95764169096946727 -1.1293976902961729 0.94524896144866954 1.0386413931846621 -2.0444974899291988 1.0000000180025095e-35 -0.80828899145126332 -0.86196333169937123 -0.88908571004867543 1.0656770467758181 -1.0496345758438108 -0.95527511835098255
decision_type=2 2 2 2 2 2 2 2 2 2 2 2 2 2 2 2 2 2 2 2 2 2 2 2 2 2 2 2 2 2 2 2 2 2 2 2 2 2 2 2 2 2 2 2 2 2 2 2 2 2 2 2 2 2 2 2 2 2 2
left_child=1 13 3 4 5 -3 7 9 -6 10 11 -2 -12 37 16 23 17 20 24 -20 -8 -19 -17 -5 -18 29 36 28 -27 30 -4 -29 47 34 -11 -35 40 38 39 -1 -9 -34 43 49 -45 46 -16 -28 -31 -15 51 -47 53 -44 -54 -52 -39 -38 -58
right_child=6 2 25 15 8 -7 14 26 -10 33 12 -13 -14 42 45 22 18 21 19 -21 -22 -23 -24 -25 -26 27 32 31 -30 48 -32 -33 41 35 -36 -37 57 56 -40 -41 -42 -43 52 44 -46 50 -48 -49 -50 -51 55 -53 54 -55 -56 -57 58 -59 -60
leaf_value=0.05640904335767697 0.077917931015510422 0.23209618017147438 0.076791264598366826 0.064308605519911272 0.21564069859341448 0.058965254230770564 -0.005055061470570635 0.12075914154515024 0.081892647815745373 0.13092642258628226 0.2258445521914284 -0.072495484581618849 0.10365805561930137 0.10598682834309898 -0.11762601111607736 0.076369518682200252 0.21637465070734418 0.37630503012073885 -0.050091154954996255 0.17310420545848565 0.14344208440497633 -0.017376545083048704 0.19195985173149085 -0.056935602654549292 0.32184246629932006 -0.021994245602670003 0.23923742934903164 0.075485841813222793 0.10264878835084912 0.15965629111274082 -0.031094917852254534 0.2630435861116604 0.41033420458311165 -0.076803609579819951 -0.051869557832589175 0.047417304007505282 -0.11690213146304525 -0.13061103613599964 0.3254499294538476 0.32127229785851957 0.42874274381074501 0.13061538136878828 -0.12327866700401245 0.19633979248375599 -0.069870530498649511 -0.11573794803174067 0.3267976306527432 0.31590998719311242 -0.092779527052723063 -0.10742501437561765 -0.11618807453889116 0.30823290413716387 -0.13336779529160755 -0.111437297386157 -0.12069787912538242 -0.12827291135417196 -0.12299921798567195 -0.12233313316444283 -0.11827726786258319
leaf_weight=91.914732806384563 8589.4170941337943 49099.563673734665 655.60822170227766 1198.125696785748 737.20941518992186 1289.8750573918223 232.73331099003553 75.159188665449619 2322.6949262693524 148.54541001468897 895.1952346265316 486.54223024100065 1681.4549525901675 3.0584491044282904 4.3186632096767408 536.96863021701574 1211.7172414287925 133.99918618053198 114.00019216537476 592.95082833617926 1341.9378713443875 26.436761647462845 445.12898407876492 233.44936602562666 240.23855158686638 182.49357311427593 49.063182979822159 76.117792241275311 904.05164044350386 2.5715565681457511 187.00518176704645 120.05151982605457 10.528178319334982 295.90415099263191 171.74268853664398 97.795801512897015 9.3214485943317396 5.3455841988325146 17.152467682957649 12.634904757142065 8.9802978336811048 82.134809441864491 36.88935012370348 13.214721336960794 13.903124675154684 22.938793525099758 4.7648904025554657 273.7662411481142 97.45260201394558 42.576929986476898 37.210514634847641 3.258536107838153 15.371811822056769 369.33686771243811 152.05010758340359 3.850680097937583 3.9522795677185067 4.4960187301039687 7.1277986913919422
leaf_count=397 52293 122076 3727 7782 2376 7736 1296 339 11858 884 3998 3662 9490 13 34 3179 3766 255 656 2171 5688 145 1914 2032 536 1215 99 427 4549 16 1312 466 13 2245 1244 586 76 30 33 28 16 307 247 46 93 200 17 284 872 272 326 11 82 4022 1072 23 26 31 55
internal_value=0 0.205822 0.209565 0.215013 0.221164 0.227664 0.106809 0.0875368 0.114116 0.0810991 0.0867161 0.0698546 0.146109 -0.071298 0.169329 0.0788065 0.17404 0.139057 0.202156 0.137113 0.121494 0.311434 0.12876 0.0445371 0.233825 0.0728018 0.242591 0.0983154 0.081714 0.0380836 0.0528476 0.190267 0.27262 -0.010573 0.0329088 -0.0459469 0.115221 0.0926603 0.121825 0.088418 0.153631 0.162396 -0.106334 -0.0361017 0.0598557 -0.0709791 0.115502 0.304257 -0.0862896 -0.0931223 -0.0961641 -0.0630026 -0.115241 -0.112513 -0.121861 -0.117321 -0.123427 -0.118669 -0.119962
internal_weight=0 58872.9 58088.4 55863 53449.3 50389.4 16850.4 12880 3059.9 12366.6 11652.6 9075.96 2576.65 784.529 3970.36 2413.67 3894.01 1735.11 2158.91 706.951 1574.67 160.436 982.098 1431.58 1451.96 2225.35 513.449 1282.71 1086.55 942.638 842.613 196.169 415.492 713.988 320.288 393.7 97.957 138.128 121.702 104.55 84.1395 92.663 646.401 72.7532 27.1178 76.3421 9.08355 322.829 100.024 45.6354 67.2585 26.1973 573.648 406.226 167.422 41.0612 16.4257 13.8175 11.0801
internal_count=268644 177953 171537 158953 144046 129812 90691 75567 14234 74402 69443 55955 13488 6416 15124 14907 14513 7384 7129 2827 6984 400 5093 9814 4302 12584 1165 6657 5764 5927 5039 893 703 4959 2128 2831 462 569 458 425 355 320 5847 424 139 611 51 383 888 285 560 211 5423 4269 1154 349 111 107 81
is_linear=0
shrinkage=0.1


Tree=3
num_leaves=62
num_cat=0
split_feature=32 52 30 14 110 117 136 82 105 131 30 30 133 0 32 57 105 38 103 114 87 38 71 133 35 31 100 53 70 41 26 69 78 122 132 107 96 104 120 74 108 78 74 112 133 127 121 30 61 127 117 104 107 116 127 136 108 106 30 34 105
split_gain=8558.82 4255.26 2970.41 2558.94 1985.37 3494.56 1355 1321.05 1277.18 1126.18 1138.84 1002.19 767.202 731.213 722.009 757.735 735.952 649.524 599.114 389.946 349.213 341.005 717.1 327.519 327.036 266.199 352.556 265.887 492.352 267.656 210.078 157.521 155.056 148.237 114.217 107.122 85.2352 78.0963 77.8861 76.1616 70.3557 68.5799 56.4488 68.5519 43.2043 39.9278 33.6182 34.8134 29.0657 79.067 20.2881 17.0804 13.9349 48.6038 13.7251 0.728623 0.333103 0.153265 0.0455447 0.024117 0.00402656
threshold=0.94919568300247203 0.77956891059875499 1.0838338136672976 1.0254277586936953 -1.2051163315773008 -1.5377558469772337 1.0000000180025095e-35 -0.99937704205512989 -0.94409829378128041 1.0000000180025095e-35 1.0749268531799319 1.0967758297920229 1.0000000180025095e-35 0.57116577029228222 0.9616011679172517 0.86542582511901867 -0.84074255824089039 0.98762789368629467 -0.83670684695243824 -0.94213530421257008 -0.9179931879043578 1.015100955963135 -0.37637601792812342 1.0000000180025095e-35 0.94022053480148327 1.00611287355423 -0.89969879388809193 1.044214189052582 -0.2796116024255752 1.001412630081177 1.1504972577095034 -0.064907714724540697 -1.0042183399200437 -1.1660131216049192 1.0000000180025095e-35 -0.96532031893730152 -1.0491576194763181 -0.9590734839439391 -1.2989575266838072 -0.99635478854179371 -1.0298922657966612 -0.96658620238304127 -0.94223254919052113 -1.002554655075073 1.0000000180025095e-35 -1.164575397968292 -0.95471990108489979 1.0773304700851443 0.73943158984184276 -2.1860007047653194 -1.2386038303375242 -0.82691752910614003 -0.87804451584815968 -1.0828341245651243 -1.2867199182510374 1.0000000180025095e-35 -0.80828899145126332 -0.86196333169937123 1.0616957545280459 0.93661433458328258 -0.95527511835098255
decision_type=2 2 2 2 2 2 2 2 2 2 2 2 2 2 2 2 2 2 2 2 2 2 2 2 2 2 2 2 2 2 2 2 2 2 2 2 2 2 2 2 2 2 2 2 2 2 2 2 2 2 2 2 2 2 2 2 2 2 2 2 2
left_child=1 19 3 4 17 -6 7 14 12 10 -5 13 37 -10 15 18 -17 -3 -2 41 -14 22 -16 32 25 27 39 29 -29 -8 -23 38 50 -28 -13 -33 -11 -4 -25 -27 -34 42 44 -44 -1 46 54 -48 52 51 -9 -50 59 -54 -21 56 -47 -57 -43 -26 -60
right_child=6 2 8 9 5 -7 24 23 11 36 -12 34 20 -15 21 16 -18 -19 -20 45 -22 30 -24 31 48 26 33 28 -30 -31 -32 35 40 -35 -36 -37 -38 -39 -40 -41 -42 58 43 -45 -46 55 47 -49 49 -51 -52 -53 53 -55 -56 57 -58 -59 60 -61 -62
leaf_value=0.038166578564687775 0.068232691674511139 0.10787467122379352 -0.096257029983046319 0.24084561099083535 0.27167305137175818 0.16037704184605034 0.14739248157763457 0.37396702844812424 0.065500513957307133 0.16580321791452055 0.18165986138170284 -0.011331731873409917 0.2446331299073754 0.14798253846048076 0.037498590297026811 0.13564430141790601 0.079935832907226223 -0.078640632547406497 -0.075782287006058338 0.12571473167987846 0.080165570459558785 0.06122164269879124 0.12264788710045843 0.24761744413360334 -0.11987515551777346 -0.0071459416683651873 0.096903016350143534 0.2503564468122218 0.15083807854716319 0.026352803624225676 -0.074931723275091372 -0.13336064113181531 -0.084955992021535573 -0.0017321987855710768 0.39988994281880891 0.15417152018262226 0.067512487531846924 0.047819073200094868 0.031628929276710925 0.26679536137122167 0.07789442173682129 -0.12907579947906614 0.02797251182566407 0.31966093108825844 0.24858941520780214 -0.12060556906718452 0.15714638157998495 -0.066046539723205358 0.16128140451920558 0.23963116051034128 0.20856997114652998 -0.11883108793437787 0.3569186954970589 -0.11708610642716469 -0.10406895762157103 -0.12920297404157971 -0.11023225661988803 -0.1183467025053086 -0.12035638852221744 -0.11427579686969901 -0.11614451047235907
leaf_weight=84.161931484937668 927.83323299884796 341.02007699012756 65.433573007583618 9604.0429557338357 3079.8477612584829 33592.487396664917 502.82544311881065 15.253100439906122 2139.1433354467154 106.14596709609032 4914.7852003052831 908.91334821283817 1028.2124481797218 2160.1366394609213 4154.4351373016834 4099.2146027013659 5626.1875325962901 412.62016023695469 419.45364607125521 2.7788370549678794 147.63816054165363 172.40604255348444 1298.0835343897343 683.96988365799189 9.8103889599442464 11.038217425346373 577.21350495517254 597.50787872076035 2959.1805692389607 286.95180852711201 330.69223725795746 16.795597344636917 33.130028143525124 207.01220005750656 6.804857373237609 56.692371562123299 522.57356002926826 88.517381884157658 17.113198891282082 125.97513473033905 133.14782743155956 5.3574157208204261 12.78760017454624 21.780470579862595 11.03718228638172 34.080397449433804 14.762689694762232 13.270827040076254 2.461462900042533 11.427875265479086 14.434575930237768 18.82849428802729 2.9539223164319983 8.0816686078906042 40.262486025691032 14.33395306766033 337.65576886385679 140.17272952198982 3.512903004884719 35.62484672665596 6.4140583276748648
leaf_count=361 4767 1033 370 16694 3887 89142 1442 12 9230 492 11175 5411 2147 7504 25813 16684 30200 2121 2483 10 499 1003 6503 887 72 46 2643 1171 9049 1369 2501 91 201 1012 18 167 2445 399 67 264 563 31 47 30 21 247 46 93 9 33 35 154 9 71 275 82 4022 1072 25 340 54
internal_value=0 0.169561 0.172549 0.180458 0.166422 0.169724 0.0981867 0.0850463 0.109018 0.215136 0.220811 0.0867113 0.196499 0.106943 0.0785785 0.0936801 0.103417 0.00575702 0.0233962 -0.0683655 0.223983 0.0505016 0.0577701 0.198526 0.142337 0.145552 0.0967239 0.155902 0.167557 0.103415 -0.0282735 0.227745 0.0830332 0.0708663 -0.00827587 0.0884563 0.0841068 -0.0134174 0.242345 0.244726 0.0454473 0.0787078 0.102306 0.211758 0.0625626 -0.104081 -0.0337296 0.0514888 -0.0475505 0.0274484 0.293549 -0.0864456 -0.0910031 0.00979186 -0.0892336 -0.113582 -0.111183 -0.119354 -0.121645 -0.115485 -0.117635
internal_weight=0 59860.7 59118.3 52573.5 37426 36672.3 23355.7 17998.8 6544.8 15147.5 14518.8 5215 1329.8 4299.28 17028.3 11072.7 9725.4 753.64 1347.29 742.369 1175.85 5955.62 5452.52 970.537 5356.89 5267.7 921.239 4346.47 3556.69 789.777 503.098 774.571 195.966 784.226 915.718 73.488 628.72 153.951 701.083 137.013 166.278 145.052 129.767 34.5681 95.1991 597.318 71.0748 28.0335 89.1887 32.7178 29.6877 21.29 56.4708 11.0356 43.0413 526.243 371.736 154.507 15.2844 45.4352 9.92696
internal_count=268644 158983 152567 126989 96183 93029 109661 91977 25578 30806 27869 22163 3415 16734 89954 54134 46884 3154 7250 6416 2646 35820 32316 2023 17684 16996 3965 13031 10220 2811 3504 1212 811 3655 5429 258 2937 769 954 310 764 569 459 77 382 5847 424 139 688 196 47 163 492 80 285 5423 4269 1154 110 412 79
is_linear=0
shrinkage=0.1


Tree=4
num_leaves=49
num_cat=0
split_feature=106 129 130 131 128 30 115 136 56 31 38 22 99 108 30 79 87 0 114 109 70 70 11 34 57 24 33 40 104 103 80 53 56 107 122 23 105 36 38 62 105 32 136 0 52 85 78 129
split_gain=6281.59 3200.85 2837.85 2235.66 2123.65 1973.38 1717.95 1481.33 1900.6 1060.9 667.139 497.575 488.983 286.296 377.139 330.94 274.349 236.896 225.649 216.513 202.166 184.209 550.478 233.116 143.074 169.904 143.048 177.105 134.874 122.229 201.631 103.576 116.095 102.992 101.414 98.5317 93.1212 23.4429 41.1742 17.871 13.9579 11.7175 0.490558 0.170172 0.138798 0.0174321 0.00944901 0.00558064
threshold=-0.86196333169937123 1.0000000180025095e-35 1.0000000180025095e-35 1.0000000180025095e-35 1.0000000180025095e-35 1.0814147591590884 -0.82437205314636219 1.0000000180025095e-35 1.0390605330467226 0.99839907884597789 1.0074294209480288 1.0144231319427492 -0.87736043334007252 -0.88864648342132557 1.0691310763359072 -1.3684995174407957 -1.0480981469154356 0.51784816384315502 -0.9242163598537444 -0.95436581969261158 -0.21810328960418698 -0.37688310444355005 0.82481887936592113 0.86281257867813121 0.94135692715644848 1.2382470965385439 0.93681716918945324 1.0202751755714419 -0.86048138141632069 -0.78546109795570362 -1.265269339084625 0.97809454798698436 0.91089612245559703 -0.8390621244907378 -1.0080710053443906 1.2984101772308352 -0.80786204338073719 0.97048678994178783 1.0265793800354006 0.39896979928016668 -0.88400575518608082 0.97286635637283336 1.0000000180025095e-35 0.038846332579851157 0.77956891059875499 -1.4175531864166258 -1.3488078117370603 1.0000000180025095e-35
decision_type=2 2 2 2 2 2 2 2 2 2 2 2 2 2 2 2 2 2 2 2 2 2 2 2 2 2 2 2 2 2 2 2 2 2 2 2 2 2 2 2 2 2 2 2 2 2 2 2
left_child=1 2 3 4 5 -1 7 8 9 10 -2 -3 -11 29 15 -15 35 -6 24 37 -18 23 -23 -5 25 -4 33 -28 -16 30 -9 39 -33 -21 -8 -10 -31 41 -39 -20 -26 -13 44 -44 47 -46 -45 -36
right_child=6 11 18 21 17 -7 34 13 16 12 -12 19 -14 14 28 -17 20 -19 31 26 -22 22 -24 -25 40 -27 27 -29 -30 36 -32 32 -34 -35 42 -37 -38 38 -40 -41 -42 -43 43 46 45 -47 -48 -49
leaf_value=0.16280592930330584 0.096701338543812604 0.43078630066063206 0.27205539562789843 0.057389343860168064 -0.044525430578202276 0.10856480021712828 0.27608007661925987 0.052234685353517024 -0.12324082302753588 0.066429884261097139 0.019515001608174574 -0.10504746359620142 0.016099504607440248 -0.00621472499133048 0.13615278991903332 0.15024396223712944 0.26588845381299869 0.093214458086245802 -0.11785951755153959 -0.01616480311974337 0.17515950232127989 0.06918203728562862 0.34570453487619945 -0.037816875991523571 -0.00095846108220356196 0.00681587073859009 0.36869432228893811 -0.12058468714338354 -0.04549196853828142 -0.048016193869809078 0.13507931207748952 0.25191661119350972 -0.12237056690082733 0.19703346010152309 -0.10907438252866131 0.40697194936446124 0.26551247051357441 0.1519742487182196 -0.12728319123646817 0.056062072576853618 -0.11508144024891234 0.075316044773255097 -0.13888382618402648 -0.11617421918320406 -0.11564539254550024 -0.12189716813878795 -0.12209147501858948 -0.11162093264228297
leaf_weight=49026.433601379395 8762.3481805473566 24.018580511212349 24.601881243288517 991.23192886263132 582.22459954023361 7770.4564976096153 6.8428224623203269 549.9777812436223 34.895580500364304 3394.1969691887498 1283.8585790768266 315.16151683032513 4475.8084802255034 139.18823274970055 57.060680583119392 4708.2032864019275 338.73484126478434 158.95359618961811 11.631281569600107 772.5122734606266 893.16425108164549 1196.2599194720387 76.600973010063171 347.28885596990585 11.930091314017771 1316.3542733043432 21.791425436735153 11.20057577639818 144.12966623902321 93.891661204397678 630.67432738095522 71.400423064827919 9.3752994909882528 23.343471944332123 298.78757282346487 3.896236538887023 10.536180734634398 10.079107820987703 11.088117212057112 12.006810650229452 105.39490439742804 3.6435945481061927 3.4253705739974967 126.19210430234671 13.200756162405016 6.7359306812286368 2.7576152533292762 8.8607750907540304
leaf_count=98558 36402 23 56 4767 3433 24749 11 2152 243 17261 7421 1744 26574 552 120 11591 377 716 95 3828 1580 6034 181 2212 80 7929 72 80 570 520 1929 235 65 52 3921 3 17 38 68 67 950 21 17 1053 115 48 19 95
internal_value=0 0.142491 0.145627 0.149083 0.15319 0.155385 0.0840463 0.0875236 0.0736813 0.0652995 0.0868373 -0.0197592 0.0378061 0.129457 0.140183 0.145751 0.191862 -0.0149856 0.0125851 -0.0290176 0.200107 0.0585873 0.0858232 0.0326874 0.00241705 0.0116821 -0.00145299 0.202587 0.00602528 0.0873161 0.0964882 0.154596 0.208475 -0.00991142 -0.106063 -0.0699864 -0.0163829 -0.0962198 0.00568964 -0.0295172 -0.103477 -0.102986 -0.111748 -0.116885 -0.109672 -0.117758 -0.116301 -0.109148
internal_weight=0 62905 61712.1 60149.4 57538.1 56796.9 25987.4 25520.6 19186.9 17916.2 10046.2 1192.84 7870.01 6333.66 5048.58 4847.39 1270.69 741.178 1562.69 1168.82 1231.9 2611.38 1272.86 1338.52 1458.28 1340.96 828.848 32.992 201.19 1285.08 1180.65 104.414 80.7757 795.856 466.803 38.7918 104.428 339.972 21.1672 23.6381 117.325 318.805 459.96 132.375 327.585 19.9367 128.95 307.648
internal_count=268644 156053 150127 140650 127456 123307 112591 107312 89861 87658 43823 5926 43835 17451 12833 12143 2203 4149 9477 5903 1957 13194 6215 6979 9015 7985 4032 152 690 4618 4081 462 300 3880 5279 246 537 1871 106 162 1030 1765 5268 1089 4179 163 1072 4016
is_linear=0
shrinkage=0.1


Tree=5
num_leaves=61
num_cat=0
split_feature=32 52 130 129 131 109 107 136 81 31 103 68 103 67 69 68 76 114 37 56 70 43 72 103 0 55 95 30 53 127 98 110 77 123 28 21 46 133 108 54 7 66 107 87 74 110 31 32 46 111 57 113 103 44 127 119 106 30 30 105
split_gain=4803.16 2411.27 2003.42 1915.01 1826.88 1817.21 759.707 688.76 688.58 410.682 640.839 921.121 538.294 467.682 464.477 387.723 332.808 279.467 235.143 255.368 438.533 539.15 353.904 218.297 212.052 287.459 242.007 184.678 165.458 131.254 131.135 129.222 128.323 112.362 103.996 140.895 67.0864 60.8815 63.321 56.0547 104.911 62.6429 54.4244 49.9107 41.2917 37.2322 31.1256 35.7796 30.503 37.4019 30.1196 24.2313 20.1628 12.9825 10.8946 31.4601 0.765986 0.0492555 0.0205675 0.00404087
threshold=0.95093324780464183 0.77956891059875499 1.0000000180025095e-35 1.0000000180025095e-35 1.0000000180025095e-35 -1.1389911174774168 -0.8390621244907378 1.0000000180025095e-35 -0.95686861872673024 1.00286340713501 -0.81583103537559498 0.019590027630329136 -0.83613482117652882 0.10991889238357545 -0.16040445864200589 -0.011401918716728686 -0.39176133275032038 -0.94213530421257008 0.96611738204956066 0.96806442737579357 -0.22523823380470273 1.0711582303047182 -0.57257825136184681 -0.80435988306999195 0.31190028786659246 0.99195644259452831 -1.0566978454589842 1.0448961257934573 1.0782542228698733 -2.4814997911453243 -0.81198099255561818 -0.88151761889457692 -1.3036831021308897 -1.2696664333343504 1.1350551247596743 1.2209807038307192 1.2312330007553103 1.0000000180025095e-35 -1.0255032777786253 1.0625632405281069 0.50876319408416759 0.42108036577701574 -0.85935702919960011 -0.96640595793724049 -0.92457193136215199 -0.91193577647209156 0.99569246172904979 0.96074029803276073 0.75480434298515331 -0.90838772058486927 0.923955798149109 -1.007404565811157 -0.83262550830841053 1.1184755563735964 -1.164575397968292 -0.90830278396606434 -0.86196333169937123 1.0656770467758181 1.0761001706123354 -0.95527511835098255
decision_type=2 2 2 2 2 2 2 2 2 2 2 2 2 2 2 2 2 2 2 2 2 2 2 2 2 2 2 2 2 2 2 2 2 2 2 2 2 2 2 2 2 2 2 2 2 2 2 2 2 2 2 2 2 2 2 2 2 2 2 2
left_child=1 17 3 4 5 -3 16 8 9 10 13 -12 14 -2 -11 -14 -5 43 19 20 21 -9 30 46 39 26 -26 -22 -24 36 -21 -8 -6 -27 35 -25 52 38 -31 40 -4 -41 -36 44 45 -1 47 -20 54 58 -39 -46 -10 -48 55 -19 -56 -45 -50 -59
right_child=7 2 24 6 32 -7 31 18 29 12 11 -13 15 -15 -16 -17 -18 48 23 22 27 -23 28 34 25 33 -28 -29 -30 37 -32 -33 -34 -35 42 -37 -38 50 -40 41 -42 -43 -44 57 51 -47 53 -49 49 -51 -52 -53 -54 -55 56 -57 -58 59 -60 -61
leaf_value=0.0098937193559473589 0.034365502250596265 0.0097644584177645072 0.14410209081526046 -0.026905667861901617 -0.034461713854774111 0.13411170549179027 0.050393126847792249 0.10333327607283765 0.064006547978233796 0.036868762915412134 -0.05712687257428533 0.063426299386089874 -0.059836858473993518 0.13869035574257835 0.12117441534722276 0.024151501177751587 0.31411768569445409 -0.096239003655001543 -0.13845583717613338 0.17787441344309871 0.032221606851662879 0.011383283755134251 0.14029204768450981 0.058078202170849302 0.12059893800162901 0.13468385045738226 0.0077602257472585978 0.25670993897873423 0.013674353376949442 -0.044364883179102962 -0.14274300929542499 0.16394762507923941 0.0490136314207835 0.046879568361282903 -0.11446318448357323 0.23910799936554827 0.15133844575966443 0.1931428292878605 0.15323025281959013 -0.070046694444631449 -0.066722199623010292 0.13406257680142245 0.20618513942332709 -0.12985036666312313 0.081052425650400106 0.13744966366284905 0.075219844052013055 0.15787489211717212 -0.13233827076332796 0.16255694715634578 0.11435917945325212 0.27644987047971448 -0.13355185829849078 -0.1238946415716638 -0.12350209368343851 0.10985032426751794 -0.11008969236391222 -0.12054604791639706 -0.12242661532965585 -0.11640293113008532
leaf_weight=88.917487129569054 570.2676359936595 1198.2330798059702 44.084973156452179 1225.0151681900024 201.45432058721781 61289.849999308586 143.7123905569315 2726.7136681377888 6.6235563084483173 1926.941689401865 690.20764819532633 7756.7443415075541 694.952063113451 1743.4028835743666 988.88011854887009 2628.8024901002645 29.301580622792244 49.954894877970219 7.0904890447855022 972.13634234666824 44.371805891394615 832.34055034071207 173.13132090866566 240.34408216923475 221.88556054979563 413.02119369804859 1325.5247628763318 210.47212560474873 255.52316209673882 24.312989637255669 12.926487758755682 331.09243975579739 2144.8408970236778 225.21472346782684 39.647796213626862 52.358654126524925 18.637460544705391 466.33070513606071 48.709530085325241 255.81312761455774 50.805701933801174 15.975524246692656 6.1090326458215705 5.1881921738386145 12.1621041148901 30.813123494386673 3.3992189913988105 9.5793874561786634 3.9818660318851489 9.4994200244545919 54.162348464131355 13.27268075942993 23.477164782583714 89.293559655547142 47.660266406834126 8.696617588400839 399.47953211516142 3.6709233224391928 4.4147855490446091 6.5623773932456961
leaf_count=332 2380 4091 169 5920 1221 124042 565 7981 24 10084 3861 38537 4340 5873 4109 15300 23 321 36 1902 146 3169 420 976 857 1433 7454 252 902 127 62 999 9931 968 234 93 37 422 134 1925 321 61 12 30 31 83 13 27 22 28 133 12 143 519 325 31 5090 26 30 55
internal_value=0 0.120521 0.122371 0.125705 0.128475 0.131727 0.0218424 0.0681001 0.0583522 0.0545123 0.0663477 0.0535758 0.0341011 0.112977 0.0654604 0.00659067 -0.0189392 -0.0662751 0.0984019 0.104359 0.0909031 0.0818293 0.140662 0.028857 0.0354251 0.0472312 0.0239403 0.217623 0.0648146 0.159994 0.173667 0.129577 0.0418464 0.1037 0.0685444 0.0904608 0.00223842 0.172948 0.0874406 -0.0349468 0.031224 -0.0580493 -0.0716532 0.0491316 0.0673024 0.0427207 -0.0939688 0.0318314 -0.101664 0.0266403 0.184945 0.183017 -0.0900798 -0.116593 -0.106204 -0.0656809 -0.111519 -0.121913 -0.127127 -0.117889
internal_weight=0 69800.1 69115.8 66563.5 64834.4 62488.1 1729.12 23317.9 17642.5 17000.2 10760.6 8446.95 6239.58 2313.67 2915.82 3323.75 1254.32 684.274 5675.44 5227.62 3813.9 3559.05 1413.72 447.822 2552.33 2185.65 1547.41 254.844 428.654 642.254 985.063 474.805 2346.3 638.236 338.46 292.703 48.7382 593.516 73.0225 366.679 94.8907 271.789 45.7568 160.587 145.165 119.731 109.363 16.6699 523.687 17.8961 520.493 25.4348 30.1007 92.6928 505.791 58.6515 447.14 15.4215 8.39665 10.2333
internal_count=268644 166396 159980 146792 139285 128133 7507 102248 85504 84484 50651 42398 33833 8253 14193 19640 5943 6416 16744 14834 11548 11150 3286 1910 13188 10712 8311 398 1322 1020 1964 1564 11152 2401 1315 1069 204 816 261 2476 490 1986 246 569 458 415 595 63 5847 80 555 43 167 532 5767 352 5415 111 52 81
is_linear=0
shrinkage=0.1


Tree=6
num_leaves=60
num_cat=0
split_feature=106 31 36 30 129 128 48 33 136 31 133 134 69 75 100 57 23 119 23 122 30 78 108 110 104 134 32 30 66 36 106 15 39 129 59 131 104 105 112 47 67 103 32 117 79 47 74 89 24 89 95 106 116 56 37 106 109 130 80
split_gain=3838.7 2530.82 1848.34 1597.84 1333.67 1125.37 1106.91 1104.47 956.553 902.961 653.898 559.933 499.478 464.69 528.159 387.902 575.146 382.776 312.046 290.533 260.094 200.398 239.435 153.911 153.749 198.127 248.892 166.2 151.097 121.577 117.067 105.05 167.239 103.147 91.7245 88.4909 85.3559 81.6906 61.0363 59.1794 129.677 58.1013 51.2346 46.6222 53.1584 50.5899 45.0603 43.7571 39.2501 35.9979 42.3855 31.094 27.8231 13.611 11.8124 6.38383 2.71639 0.204495 0.00943297
threshold=-0.85935163497924794 1.0052643418312075 0.92928731441497814 1.0914722681045534 1.0000000180025095e-35 1.0000000180025095e-35 1.2343617677688601 0.81064537167549144 1.0000000180025095e-35 0.99045532941818248 1.0000000180025095e-35 1.0000000180025095e-35 -0.12343045696616171 -1.0347931981086729 -0.92288699746131886 0.93433567881584179 1.2599570751190188 -1.6671420931816099 1.4415185451507571 -1.4228862524032591 1.0979906916618349 -1.3435689210891721 -0.86798462271690358 -0.97027635574340809 -0.84100264310836781 1.0000000180025095e-35 0.95713958144187938 1.0697939395904543 0.29707400500774389 0.93637973070144664 -0.83289155364036549 0.97089290618896495 0.99774733185768139 1.0000000180025095e-35 0.89000803232193004 1.0000000180025095e-35 -0.83996742963790882 -0.89159807562828053 -0.90114662051200856 1.2404615283012392 0.33532807230949407 -0.80565643310546864 0.9340968430042268 -1.1791077852249143 -0.96410119533538807 1.1609622240066531 -0.96287578344345082 -1.1346985697746275 1.2799469828605654 -0.80526238679885853 -0.65026372671127308 -0.7722971737384795 -1.4684992432594297 1.0352033972740176 0.95835962891578685 -0.84543499350547779 -1.0901209115982053 1.0000000180025095e-35 -1.0448958277702329
decision_type=2 2 2 2 2 2 2 2 2 2 2 2 2 2 2 2 2 2 2 2 2 2 2 2 2 2 2 2 2 2 2 2 2 2 2 2 2 2 2 2 2 2 2 2 2 2 2 2 2 2 2 2 2 2 2 2 2 2 2
left_child=1 2 3 4 5 -1 7 17 9 11 15 -9 -11 20 -15 35 -17 30 33 36 -5 42 -23 -6 25 27 -27 -21 41 34 55 32 -26 -19 46 -4 43 -30 -20 40 -36 -12 -10 44 -3 -45 48 -33 -8 51 -51 57 -41 58 -48 -2 -32 -31 -38
right_child=6 19 10 13 23 -7 29 8 21 12 28 -13 -14 14 -16 16 -18 18 38 24 -22 22 -24 -25 31 26 -28 -29 37 49 56 47 -34 -35 39 -37 53 -39 -40 52 -42 -43 -44 45 -46 -47 54 -49 -50 50 -52 -53 -54 -55 -56 -57 -58 -59 -60
leaf_value=0.12126886413593166 -0.15821451211672083 0.065827439558022269 -0.037257093717414778 0.039566135057504261 -0.09793271930076565 -0.034878537126390753 -0.0064851410066588573 0.070632663420849423 0.21279582808156403 0.01046380864154486 0.18152090574037261 0.1637880243683425 0.050665183714799715 0.1564078432963121 0.0057418530552001985 0.021266822183077572 0.14507390562552513 -0.10003482047061932 0.093951467115460874 0.068895212451855134 -0.039063918550448745 0.081516534566886928 0.12281039287527501 0.0087536555821958236 0.095321616848791826 0.14681316957353069 -0.069750459129963277 0.019524975061721194 -0.11842154656271497 -0.1389085209906317 0.21858241061325226 -0.097410869144019849 -0.050758394197359114 0.046367120124389156 0.19939630490271676 0.054041856809714364 -0.11926517593739211 0.091183704585137915 -0.11572896132976479 0.20802992572209986 0.029640178292123578 0.035239037733308928 -0.055050417132163715 0.15865585541692018 0.14116058275715382 0.41559108196486205 -0.14354007369558217 -0.022130437437976002 0.28377105903158067 0.23724390053241937 -0.062786507637982811 0.14699990271907529 0.16915270001052574 0.11301096964817157 0.057736639006171375 -0.010823798142234451 0.26250494684429793 -0.11855049490259642 -0.125632760836209
leaf_weight=57551.366416998208 7.4251373559236509 148.81787611544132 892.7881858125329 1174.055788718164 184.43544110655785 465.28952215611935 10.530994243919851 3770.0538190379739 7.653471738100051 5111.0311277285218 376.2331720739603 778.47359305620193 7817.8307920992374 589.12581828981638 384.5323760509491 1710.7950726598501 480.63712945580482 719.36784172058105 126.63678666949272 892.72023949027061 655.5864712074399 3884.0197313800454 2199.2313749194145 506.7814714089036 164.16421627998352 299.47311396896839 64.498417094349861 2886.9188462942839 19.926928997039795 12.190418429672722 27.865480124950409 141.66026102751493 149.96270098537207 51.574215456843376 104.01129785180092 120.48876683413982 14.556156411767009 277.92764668166637 15.591924764215944 384.911062464118 79.314814686775208 29.264154553413391 106.76757895946503 28.462086647748947 252.76887804269791 10.486868590116499 13.768050581216814 169.71518076211214 8.3550640940666181 10.724646493792536 8.3937212526798231 5.0218947976827613 352.82033090293407 2.922697737812995 3.6991335600614539 4.8633357584476471 28.462693557143211 8.289269395172596 2.7690504938364038
leaf_count=111032 32 482 3892 4518 1021 2319 42 14646 9 25298 477 1135 39613 1187 1451 5838 1148 6503 405 3964 3365 10714 4526 2159 692 717 379 13964 84 66 27 953 973 243 113 520 110 674 150 298 197 82 449 78 348 18 71 1021 12 12 38 15 419 11 15 15 18 68 18
internal_value=0 0.105261 0.110613 0.11485 0.118371 0.120017 0.0601016 0.0559145 0.0602245 0.0482547 0.0439266 0.0865761 0.0347728 0.0410926 0.0969045 0.0247635 0.0484209 -0.0480166 -0.0651326 0.0383216 0.0113919 0.093979 0.0964452 -0.0197132 0.0309954 0.0379715 0.108437 0.0311858 0.13124 0.163132 0.179768 -0.0152175 0.0255837 -0.0902409 0.170652 -0.0264007 0.114148 0.0771608 0.0709651 0.176801 0.125952 0.170964 -0.0371345 0.123375 0.113244 0.227835 0.0148526 -0.0563793 0.121922 0.001782 0.105519 -0.0759887 0.189437 -0.0866079 -0.100914 -0.0998826 0.240777 -0.130668 -0.120283
internal_weight=0 70649.1 65419.2 61511.2 58707.9 58016.7 25658.9 24656.8 23675.1 17477.4 3908.06 4548.53 12928.9 2803.3 973.658 3204.71 2191.43 981.787 913.171 5229.9 1829.64 6197.67 6083.25 691.217 4769.11 4143.61 363.972 3779.64 703.352 1002.03 68.6166 625.502 314.127 770.942 957.411 1013.28 460.784 297.855 142.229 921.058 183.326 405.497 114.421 440.536 401.587 38.949 36.3532 311.375 18.8861 44.62 19.1184 25.5016 737.731 20.2479 17.4672 12.2885 56.3282 20.4797 17.3252
internal_count=268644 163495 139767 127052 116531 113351 105149 103783 96390 80692 12715 15781 64911 10521 2638 11398 6986 7393 7301 23728 7883 15698 15240 3180 22663 19024 1096 17928 1317 1366 92 3639 1665 6746 1167 4412 1065 758 555 1027 310 559 458 926 830 96 140 1974 54 199 50 149 717 139 86 47 45 134 128
is_linear=0
shrinkage=0.1


Tree=7
num_leaves=63
num_cat=0
split_feature=32 134 122 32 106 133 133 108 104 103 54 136 72 53 115 26 32 6 99 103 68 31 50 72 56 130 51 69 69 37 101 100 130 67 34 102 126 41 28 29 101 106 103 70 125 122 41 71 41 114 128 72 30 44 65 100 69 84 30 106 51 136
split_gain=3078.2 1864.92 1634.18 1707.5 2323.52 2537.06 1504.89 1775.69 1309.18 1282.71 1549.89 932.603 690.985 816.157 528.403 492.816 482.277 593.613 905.255 455.105 1256.87 583.796 419.036 430.757 369.042 342.69 339.796 339.162 331.62 282.865 276.52 237.261 243.274 232.622 225.174 218.527 214.042 271.902 295.61 203.524 214.651 200.988 182.526 213.518 187.956 178.212 143.234 132.312 134.11 107.365 101.97 67.8142 65.6007 64.7512 57.6902 57.5124 52.2326 29.1597 1.55818 0.577135 0.287101 0.0675885
threshold=0.94919568300247203 1.0000000180025095e-35 -1.0080710053443906 0.89660996198654186 -0.95464009046554554 1.0000000180025095e-35 1.0000000180025095e-35 -1.0661385059356687 -0.93881806731224049 -0.85449877381324757 0.97736024856567394 1.0000000180025095e-35 -0.57257825136184681 1.1012423038482668 -0.82437205314636219 1.4059014320373537 0.96399071812629711 0.64092445373535167 -0.90211403369903553 -0.81690803170204151 0.019590027630329136 1.0056759715080263 1.1266608238220217 -0.56529352068901051 0.99563723802566539 1.0000000180025095e-35 1.1263164877891543 -0.01551129389554262 -0.14143911749124524 0.93861663341522228 -0.8658928871154784 -0.81079936027526844 1.0000000180025095e-35 0.047914465889334686 0.94193515181541454 -0.8461293876171111 -1.737920820713043 1.0865797996520998 1.115711033344269 1.2416940927505495 -0.94229391217231739 -0.90619283914566029 -0.83492472767829884 -0.26677206158637995 -1.4492753148078916 -1.0037053227424619 0.94960021972656261 -0.35652740299701685 1.0713616013526919 -1.2064942121505735 1.0000000180025095e-35 -0.63205993175506581 1.0312822461128237 1.1231572031974795 0.2325217202305794 -0.86340340971946705 -0.018063638359308239 -1.0549801588058469 1.0869984030723574 -0.86196333169937123 0.8388638198375703 1.0000000180025095e-35
decision_type=2 2 2 2 2 2 2 2 2 2 2 2 2 2 2 2 2 2 2 2 2 2 2 2 2 2 2 2 2 2 2 2 2 2 2 2 2 2 2 2 2 2 2 2 2 2 2 2 2 2 2 2 2 2 2 2 2 2 2 2 2 2
left_child=1 2 3 6 5 -5 7 -1 -8 15 30 -6 13 -12 39 41 17 19 28 21 26 29 23 31 -14 -23 -21 -22 35 -2 33 32 -18 -11 52 -19 37 38 -24 40 -4 54 44 -44 -20 58 -43 53 -49 -39 -30 -33 -25 -38 -3 -32 -36 -41 -17 61 -61 -16
right_child=16 9 14 4 11 -7 8 -9 -10 10 12 -13 24 -15 59 45 22 18 42 20 27 25 36 34 -26 -27 -28 -29 50 -31 55 51 -34 -35 56 -37 47 49 -40 57 -42 46 43 -45 -46 -47 -48 48 -50 -51 -52 -53 -54 -55 -56 -57 -58 -59 -60 60 -62 -63
leaf_value=0.02468053341056136 0.11234791827583115 -0.16684007186043859 0.058447304051477855 -0.025019317970993323 0.04881226456759194 0.14153275547488095 0.13495567001539832 0.12245327825287192 -0.029766460705080534 -0.060341198260686457 0.11000906334122507 0.096596334139611245 -0.10281542298733255 0.20575935994202516 -0.11533933125318059 -0.17391483722932866 0.059029188462557142 0.054262406201719231 0.037639522170241899 -0.060489306341896337 0.05999327731548855 0.054293501640136049 0.090520689814468633 0.29319358006822399 0.07409478875583185 -0.063130891690832802 0.11347702330207834 0.12921111434086816 0.1270994614672189 0.066295247179645009 -0.075703845035167514 0.30221911132316137 -0.048921563297941895 0.17434855947567562 -0.05401721793319976 -0.095288250714600509 -0.036487883958060713 0.14445677171143723 0.0038530441238018333 -0.092731660198481447 -0.026500563808364019 0.17318732522811009 -0.084583198512988872 0.1393773369491835 -0.074715915239486605 0.23983548748575212 0.21564064719096676 0.16965767128438486 -0.064788867499488201 -0.053427820596897352 0.27239458753528834 -0.07248416743906963 0.15356386149540155 -0.10345567420625018 0.090196514731380406 -0.15855701022865823 0.15021107860065705 0.093875099232120729 -0.13725077123842522 -0.10828722909517341 -0.12282408066170686 -0.13022324597524318
leaf_weight=2017.4137657433748 4611.3775600939989 18.749925866723061 1042.7842227518559 1048.4850398674607 19463.408242173493 7162.4453673660755 737.85884164273739 23435.317882411182 1394.1724891960621 94.030195474624634 3267.0859814435244 5169.1820722073317 176.02460703253746 1223.6239606142044 3.8685708567500123 37.504256770014763 1837.4169467613101 1799.6428833678365 443.89551375806332 1086.5306843072176 7438.9603470414877 1700.2961631715298 629.14059783518314 36.693790063261986 357.18801437318325 291.08051816374063 125.21551728993654 782.34745910763741 314.78846210986376 1876.4535892680287 198.64300987124443 4.9442016780376425 235.5169674679637 76.670993760228157 66.351021699607372 103.31686268001795 329.94375121593475 28.872750125825405 1051.0061610788107 156.76616290211678 416.17628725618124 1661.290761500597 726.13662786781788 45.219711005687714 224.03730762004852 13.803182750940321 1523.600983440876 52.043613106012344 45.933653876185417 544.25690247863531 57.057972379028797 209.07348810881376 405.29988510161638 256.7258183285594 16.343040257692337 144.8899996727705 15.436511926352976 8.8464462310075742 16.776510372757912 340.03895740956068 14.151471883058546 14.436071366071701
leaf_count=5573 11663 80 3322 3285 58324 10785 1243 40591 4177 330 5968 9886 636 1044 36 154 8583 7836 1665 5977 28980 6998 2749 68 732 1874 347 2773 980 5676 708 13 1500 115 386 682 1751 49 5437 918 1791 1914 4204 175 1148 9 1293 163 258 3628 165 1285 1013 1574 31 611 61 28 86 5129 103 81
internal_value=0 0.0927435 0.0866602 0.0896015 0.0741962 0.120265 0.107944 0.114704 0.027241 0.135769 0.106395 0.0588398 0.12332 0.136099 -0.00234035 0.185244 0.0532913 0.0601345 0.0237507 0.0676787 0.0525663 0.0844911 0.0275471 0.0551499 0.015693 0.0371295 -0.0425125 0.0665801 0.0630207 0.0990283 -0.0589571 0.0364149 0.0467643 0.0450705 0.136951 0.0461429 0.00113929 0.0160177 0.0363062 0.0222903 0.0342155 0.190874 -0.0383158 -0.0714538 -4.66176e-05 -0.0809977 0.193496 -0.0478277 0.0597446 -0.0434589 0.149394 -0.0638278 0.165156 -0.0657929 -0.0471363 -0.110648 -0.0154713 -0.0827638 -0.162583 -0.109763 -0.108868 -0.127078
internal_weight=0 71251.6 62425.4 60428.3 32843.5 8210.93 27584.8 25452.7 2132.03 8826.23 5538.16 24632.6 5023.92 4490.71 1997.07 3288.07 27375 21626.4 3714.1 17912.3 9433.05 8479.21 5748.66 2810.73 533.213 1991.38 1211.75 8221.31 2274.81 6487.83 514.234 2286.95 2072.93 170.701 523.781 1902.96 2937.92 2253.28 1680.15 1624.57 1458.96 3219.98 1439.29 771.356 667.933 68.0839 3184.89 684.647 97.9773 573.13 371.846 214.018 441.994 586.67 35.093 343.533 81.7875 165.613 54.2808 372.495 354.19 18.3046
internal_count=268644 158983 145272 133864 82280 14070 51584 46164 5420 13711 10144 68210 8380 7012 11408 3567 109661 81143 16855 64288 38077 26211 28518 12909 1368 8872 6324 31753 9663 17339 1764 11381 10083 445 1528 8518 15609 11863 8186 6059 5113 3318 7192 4379 2813 249 3207 3746 421 3677 1145 1298 1081 3325 111 1319 447 946 240 5349 5232 117
is_linear=0
shrinkage=0.1


Tree=8
num_leaves=61
num_cat=0
split_feature=106 30 12 110 119 105 105 47 32 136 30 28 31 109 133 131 128 119 38 54 5 30 29 101 39 21 98 103 30 6 134 70 1 109 69 59 30 104 65 36 77 108 8 9 73 82 67 81 63 67 116 110 106 121 44 72 119 30 93 63
split_gain=2618.1 1680.74 1728.25 1064.71 1649.67 879.995 791.664 775.086 751.444 643.074 635.937 601.907 573.235 531.802 502.781 422.456 417.972 415.944 391.281 376.049 424.056 371.474 303.053 389.415 260.349 305.379 219.647 210.186 372.331 269.322 191.71 190.416 178.769 154.629 145.672 140.458 104.032 111.114 96.8996 98.2017 83.3709 81.0359 56.5107 125.716 56.4781 48.6297 40.5584 37.3247 28.0984 25.2735 24.4475 123.329 11.4478 10.1945 7.07843 6.87986 6.15492 0.315512 0.132986 0.0480045
threshold=-0.86312633752822865 1.0795974731445315 0.86968868970870983 -1.2106165885925291 -1.6479188799858091 -0.91707369685173024 -0.94409829378128041 1.2404615283012392 0.81382721662521373 1.0000000180025095e-35 1.0957416892051699 1.3447570204734804 0.99045532941818248 -1.1354829668998716 1.0000000180025095e-35 1.0000000180025095e-35 1.0000000180025095e-35 -1.6671420931816099 1.0074294209480288 0.93817308545112621 0.76315590739250194 1.0726235508918764 1.2073701620101931 -0.93650588393211354 1.0216348171234133 1.4083123207092287 -0.86390492320060719 -0.83910885453224171 1.0691310763359072 0.64199006557464611 1.0000000180025095e-35 -0.3657934963703155 0.65948972105979931 -1.1100310087203977 -0.0066450289450585833 0.8161858618259431 1.1032907366752627 -0.8978058099746703 0.39787197113037115 0.93637973070144664 -1.0804895758628843 -1.0583420395851133 0.87146720290184032 0.90144538879394542 -0.90025788545608509 -1.4079176187515257 -0.18874830752611158 -1.5002313852310178 0.57165345549583446 0.26331950724124914 -1.4684992432594297 -1.1526870131492613 -0.81207108497619618 -1.8442248106002805 1.1827136278152468 -0.71111157536506642 -1.6783136725425718 1.085350573062897 -0.67515119910240162 0.62583458423614513
decision_type=2 2 2 2 2 2 2 2 2 2 2 2 2 2 2 2 2 2 2 2 2 2 2 2 2 2 2 2 2 2 2 2 2 2 2 2 2 2 2 2 2 2 2 2 2 2 2 2 2 2 2 2 2 2 2 2 2 2 2 2
left_child=1 2 3 34 13 -6 14 8 17 12 19 15 16 -5 42 21 -10 33 -14 20 -8 -4 26 -24 25 -19 -16 28 -11 -29 -21 -17 40 54 35 -1 37 -12 47 50 -13 -36 43 -3 -34 -26 -38 48 -9 -41 53 -52 -51 -40 -2 -50 -35 -44 59 -49
right_child=7 6 11 4 5 -7 10 38 9 27 36 32 18 -15 22 31 -18 24 -20 30 -22 -23 23 -25 45 -27 -28 29 -30 -31 -32 -33 44 56 41 -37 46 -39 39 49 -42 -43 57 -45 -46 -47 -48 58 55 52 51 -53 -54 -55 -56 -57 -58 -59 -60 -61
leaf_value=-0.1315043406324071 -0.022856476799971215 -0.045067325799358141 0.1364088373007428 0.015996815278576063 0.10702192038997126 0.068399214222471347 0.071509458775981624 0.20770387000714574 0.080517546956920302 0.10812688431233458 0.00042097474484628487 0.08968146270809009 0.032778775942172093 0.17040763276970111 0.1536519154722224 0.029000935497159194 0.0099746853434108263 -0.095011769077702979 -0.043358855759484061 0.012569530140666113 -0.011197348746673687 0.10193934023631926 0.11179997765713311 -0.086551006253906826 -0.065096001198400352 0.042785430490022258 0.021416152545733907 0.06529940060913858 -0.020180902463734492 -0.066439491827527244 0.16160133641287744 0.22955524256875812 -0.042421226512398234 0.23490341173942611 -0.11304763104874327 0.086750657429268505 -0.037561888941809167 -0.11301589606992102 0.17527905814402941 0.087983664020366725 -0.068674494048785423 0.30135606568952494 -0.15979311676469887 0.24730220482057697 0.060617506607096354 0.16471277272685034 -0.10638390270151432 -0.14179499925624947 -0.13043226884732445 -0.13950076842272899 -0.14784452432189094 0.14710424749919898 0.057357583171491144 0.12054972545090457 -0.16357744072341895 0.055163689264027461 0.18137593301963795 -0.13479150131560766 -0.15777000966141114 -0.12721797361695067
leaf_weight=43.537387952208519 5.0035734623670605 142.43923683464527 10088.502276748419 245.26527769863605 7267.124696649611 31340.174500085413 5157.0742418691516 8.0112899541854912 4399.8179726861417 2391.043604388833 881.14554075151682 367.99453212320805 14661.366195298731 2462.098885178566 1360.2304087430239 616.61283854395151 1038.1002453491092 780.05670762807131 707.55318900942802 2752.9106354042888 704.63046050071716 4530.5538151413202 308.7663306593895 145.67841329425573 10.835170373320578 202.59699786826968 138.39046005904675 4720.4519835188985 249.79109919071198 160.45757962763309 89.109200313687325 51.278079524636269 277.98259641975164 33.00054557621479 325.12860642373562 91.362864643335342 159.09087213873863 95.730908796191216 389.82587888836861 11.358741715550424 36.548461109399796 4.7882792651653281 5.7134918123483649 16.400452345609665 65.784960895776749 61.318442821502686 185.44467440992594 7.4521787315607089 4.9141231924295425 15.101576678454878 14.754320859909056 362.06055597215891 3.6723752319812766 37.290673598647118 12.515708282589911 3.3649436160922033 61.543369188904762 43.304739154875278 4.5611252784728959 3.2419496029615402
leaf_count=194 15 601 13379 612 12019 74216 12514 14 12837 4312 3918 649 67086 2137 1809 2349 4498 6502 4443 10489 2515 7758 547 584 57 927 334 12376 762 662 104 90 1007 20 1649 245 861 578 285 36 133 5 25 26 146 83 1178 37 29 91 53 392 15 46 53 12 54 235 21 20
internal_value=0 0.0828648 0.0899788 0.0792676 0.0809608 0.0756692 0.0491138 0.0477034 0.0449662 0.0482056 0.0372803 0.117887 0.0391468 0.156419 0.104013 0.122173 0.0670509 -0.033679 0.0292736 0.0470939 0.0615673 0.125726 0.119749 0.0482159 -0.0531393 -0.0666017 0.141441 0.0732645 0.0959905 0.0609685 0.0172423 0.0443987 0.0303186 0.149494 -0.0712358 0.0163116 -0.0273588 -0.0106955 0.140971 0.147478 0.0753748 -0.107033 -0.0438452 -0.0148797 -0.0227033 0.130203 -0.074605 -0.0310689 0.0741935 -0.029757 0.154121 0.135555 -0.100993 0.170501 -0.123387 -0.0549987 0.20006 -0.137706 -0.143474 -0.137376
internal_weight=0 70000.8 57814.7 41779.5 41314.7 38607.3 12186.1 30361.1 29495.5 28328.6 10025.1 16035.3 20806.8 2707.36 2160.92 15286.9 5437.92 1166.87 15368.9 8703.72 5861.7 14619.1 1953.07 454.445 1054.81 982.654 1498.62 7521.74 2640.83 4880.91 2842.02 667.891 748.311 112.063 464.817 134.9 1321.41 976.876 865.61 834.064 404.543 329.917 207.858 158.84 343.768 72.1536 344.536 31.5456 16.2904 30.1327 803.931 376.815 18.774 427.117 17.5193 8.27907 94.5439 49.0182 15.2553 10.6941
internal_count=268644 152906 116588 91077 88984 86235 36318 115738 114687 106976 32157 25511 88864 2749 4161 23576 17335 7711 71529 25622 15029 21137 3274 1131 7569 7429 2143 18112 5074 13038 10593 2439 1935 142 2093 439 6535 4496 1051 918 782 1654 887 627 1153 140 2039 133 55 142 776 445 106 331 68 41 74 260 78 57
is_linear=0
shrinkage=0.1


Tree=9
num_leaves=63
num_cat=0
split_feature=32 134 31 103 54 106 49 36 136 110 53 105 25 133 71 101 72 102 38 69 72 26 5 111 113 0 73 31 103 125 31 100 6 78 99 112 71 131 106 69 38 30 101 122 6 4 72 0 29 42 28 106 32 70 32 101 32 32 7 49 106 30
split_gain=2190.46 1245.25 1384.72 1240.27 1858.12 1213.55 1135.6 1048.9 883.171 750.156 596.033 1120.81 567.167 497.186 398.398 613.287 747.813 597.448 431.336 555.492 554.935 366.114 355.885 300.234 294.834 270.03 262.413 260.604 236.03 227.604 295.689 206.208 230.935 200.39 192.624 188.998 171.81 170.79 162.435 156.149 214.71 152.251 150.435 147.623 144.876 137.607 126.496 116.637 115.367 112.761 87.3144 75.7195 52.751 51.6199 37.9894 37.3953 70.6279 34.197 16.7866 5.74544 1.8014 1.35304
threshold=0.95335495471954357 1.0000000180025095e-35 0.99398469924926769 -0.85222595930099476 0.98108267784118663 -0.95072233676910389 0.82029050588607799 0.92928731441497814 1.0000000180025095e-35 -1.2106165885925291 1.1012423038482668 -0.83996438980102528 1.2386303544044497 1.0000000180025095e-35 -0.45228718221187586 -0.81729716062545765 -0.60571327805519093 -0.81965935230255116 0.99446284770965587 -0.063405487686395631 -0.55700373649597157 1.4059014320373537 0.5363479256629945 -1.2455181479454038 -0.91116300225257862 0.46583177149295812 -0.76549461483955372 1.0033110976219179 -0.83613482117652882 -1.5731893777847288 1.002645790576935 -0.86340340971946705 0.6920023262500764 -1.0525415539741514 -0.82492259144783009 -0.95300814509391774 -0.47928075492382044 1.0000000180025095e-35 -0.90619283914566029 -0.1423864811658859 0.95917451381683361 1.1061975955963137 -0.80816224217414845 -1.0037053227424619 0.63247954845428478 0.6047557294368745 -0.62110501527786244 0.29304011166095739 1.1121206879615786 0.98336488008499157 1.3926850557327273 -0.95334702730178822 0.94402340054512035 -0.28765013813972468 0.95250177383422863 -0.82575982809066761 0.96195438504219066 0.95643338561058056 0.59215515851974498 1.0860910415649416 -0.86196333169937123 1.0869984030723574
decision_type=2 2 2 2 2 2 2 2 2 2 2 2 2 2 2 2 2 2 2 2 2 2 2 2 2 2 2 2 2 2 2 2 2 2 2 2 2 2 2 2 2 2 2 2 2 2 2 2 2 2 2 2 2 2 2 2 2 2 2 2 2 2
left_child=1 2 6 21 31 13 24 9 33 -8 11 -6 -12 51 17 25 42 27 19 -18 -20 38 34 -9 50 29 -10 39 36 35 -31 32 -5 -7 57 -16 -29 45 52 48 -41 -15 46 61 -30 -27 -17 -44 -2 -40 -1 -4 -3 -36 -33 56 -24 -19 -57 -39 -26 -23
right_child=14 3 5 4 10 8 7 23 26 -11 12 -13 -14 41 15 16 18 22 20 -21 -22 43 55 -25 60 37 -28 28 44 30 -32 54 -34 -35 53 -37 -38 59 49 40 -42 -43 47 -45 -46 -47 -48 -49 -50 -51 -52 -53 -54 -55 -56 58 -58 -59 -60 -61 -62 -63
leaf_value=0.029855837352515308 -0.071184667155091211 -0.12022524622634148 -0.10518954386388409 0.028291046897373093 0.10057730967058216 0.00068598010568828786 -0.065751876318590086 -0.077450700794382696 0.068947020898847369 0.080732285702021025 0.053757324465927958 -0.015698112053124887 0.17859311878493656 0.11157211568868129 0.087001999064910684 -0.10797000826890951 0.033080848906806119 0.25963455019867987 -0.046227442751450673 0.099472388976257667 0.037589937906494307 -0.1686428393157558 -0.08995199433092832 0.028673838356162853 -0.12930990662871536 0.23333985765415927 -0.14422725025631386 0.013103028028445179 0.0071509487521562182 0.081535847550740656 0.023642754931481477 -0.14183525551367085 -0.11767711809259498 0.047741913090744367 -0.032326574432082582 0.21993071993993182 0.063986468538521482 0.44656941817324197 0.14417839590657053 0.12048179639919084 -0.020922209287159245 -0.033079716614077985 0.12324982352498703 0.20538923967446082 -0.06058988470897228 0.071614042518143753 0.012482985062863139 -0.10134025991866408 0.05483181195879247 0.18204457908023769 -0.054500171767976391 0.051003387217691688 0.13528638667026877 0.23892816198061997 -0.028500161619338285 -0.07473547475792533 0.066345080704660817 0.10713636386071781 -0.11813230021694612 0.35465987172879965 -0.10706317194515128 -0.13380997708938755
leaf_weight=449.85505416244268 107.99085181951523 28.262855306267738 130.44592747092247 298.09866712987423 4506.9579214155674 7042.0213835388422 352.12460412085056 296.96199554204941 3666.1273285746574 48742.200697340071 498.80961269140244 1015.8590987473726 1346.0525991916656 2671.6561601907015 1709.758848875761 111.09069691598415 3473.5620640963316 40.006565541028976 1109.3317509442568 1977.8018338680267 2743.2199799716473 36.978107482194901 124.14284531027079 2605.6433420553803 41.589928403496742 95.713707596063614 58.669379234313965 1764.8280106261373 825.47550620138645 1718.529267154634 1812.9116918295622 278.21739453822374 170.3084224909544 1038.4506158083677 105.62118311226368 114.09737394750118 1063.4387850910425 16.089325398206714 2411.2746619135141 622.69046100974083 129.75794772803783 74.800680100917816 24.306126825511456 14.157811090350149 511.24938266724348 116.83160980790854 405.14412412047386 475.28481061011553 221.98356027156115 1167.0507652014494 168.72384885698557 40.727882832288742 11.314676016569136 7.5147090703248969 33.093561239540577 114.23375333845615 37.689258009195328 23.250838525593281 405.67903389781713 11.782134622335432 291.57081886380911 15.966411292552946
leaf_count=1242 599 107 572 808 8037 29404 1591 1201 7419 94666 992 3312 1151 4148 5028 666 14016 53 6132 6306 12246 154 781 8109 266 137 236 8518 4069 5439 7236 1237 712 2327 512 158 3530 20 2674 1780 591 239 75 9 3145 441 1970 2848 790 983 860 118 16 15 152 640 199 76 2652 23 5125 86
internal_value=0 0.071937 0.0667038 0.101867 0.0800929 0.0395764 0.0742468 0.0762282 0.0253035 0.0796816 0.0956286 0.0791898 0.14484 0.0973268 0.0362967 0.0446276 0.0301727 0.0145803 0.0390675 0.0571683 0.013455 0.150007 -0.0627735 0.0178164 -0.034 0.0712857 0.0655893 0.0272304 0.0158696 0.0666312 0.0518157 -0.0667063 -0.0247816 0.00673331 0.0638301 0.0953178 0.0322354 0.174964 0.1543 0.070945 0.096097 0.107632 -0.051295 -0.0814382 -0.0187575 0.144443 -0.0134378 -0.0904135 0.0135904 0.156528 0.00684686 -0.0680261 -0.047178 -0.0143093 -0.129787 -0.0955306 -0.0535518 0.203582 -0.108597 0.407716 -0.10984 -0.158138
internal_weight=0 79504 67671.6 11832.4 8147.4 14722.9 52948.7 51996.9 11805.3 49094.3 7367.68 5522.82 1844.86 2917.63 22021 15915.5 10319.7 6105.55 9303.92 5451.36 3852.55 3685.01 858.138 2902.61 951.74 5595.71 3724.8 5247.41 4164.99 5355.3 3531.44 779.718 468.407 8080.47 176.393 1823.86 2828.27 240.417 3617.9 1082.42 752.448 2746.46 1015.83 67.1023 1336.72 212.545 516.235 499.591 329.974 3578.33 618.579 171.174 39.5775 113.136 311.311 681.745 161.832 63.2574 519.913 27.8715 333.161 52.9445
internal_count=268644 177953 157523 20430 16401 44463 113060 105567 39386 96257 13492 11349 2143 5077 90691 62741 44259 27950 38700 20322 18378 4029 4928 9310 7493 18482 7655 23022 19262 17861 12675 2909 1520 31731 656 5186 12048 621 3780 3760 2371 4387 5559 249 7214 578 2636 2923 1389 3657 2102 690 123 527 1389 4272 980 129 3292 43 5391 240
is_linear=0
shrinkage=0.1


Tree=10
num_leaves=56
num_cat=0
split_feature=106 31 129 128 130 29 48 32 119 136 84 111 134 63 72 122 111 38 77 99 106 74 86 108 47 71 102 58 116 109 71 32 111 40 75 91 78 23 32 58 105 32 59 33 51 48 112 121 93 36 11 73 115 77 39
split_gain=1812.34 1339.24 1061.61 1061.74 1018.63 988.453 619.784 663.151 482.197 425.801 453.994 509.674 313.57 254.4 215.164 188.468 184.465 169.76 163.347 161.501 149.018 136.814 125.734 113.423 104.026 145.728 102.796 107.033 82.7481 164.47 82.6547 75.1056 71.6194 69.5743 70.9957 63.7819 66.0335 59.5975 46.234 45.411 81.2925 44.2222 22.9195 18.2624 13.7738 47.8614 58.4218 9.02232 8.11931 7.78133 6.90152 1.44026 0.128966 0.0165276 0.0118311
threshold=-0.85935163497924794 1.0052643418312075 1.0000000180025095e-35 1.0000000180025095e-35 1.0000000180025095e-35 1.2073701620101931 1.2343617677688601 0.82563138008117687 -1.6671420931816099 1.0000000180025095e-35 -1.1216173171997068 -0.92170852422714222 1.0000000180025095e-35 0.7223012149333955 -0.83996087312698353 -1.4282949566841123 -0.96960428357124318 0.98098644614219677 -1.3036831021308897 -0.92169278860092152 -0.87208583950996388 -0.91569948196411122 -1.318961441516876 -1.0270097255706785 1.0336150527000429 -0.60982599854469288 -0.8207898437976836 0.85874661803245556 -1.4730029106140134 -1.0877323746681211 -0.48787520825862879 0.96596851944923412 -0.83324378728866566 0.94860571622848522 -1.174615144729614 -1.2063071727752683 -0.34126822650432581 1.2646498680114748 0.8013916313648225 0.88271751999855053 -0.88820305466651905 0.93564447760581981 0.88674342632293712 0.94267931580543529 1.1986282467842104 1.2392786741256716 -1.2838306427001951 -1.8759548068046568 -0.98362264037132252 0.8877089023590089 0.16236025840044024 -0.37056718766689295 -1.188695967197418 -1.0071831345558164 1.0203776955604555
decision_type=2 2 2 2 2 2 2 2 2 2 2 2 2 2 2 2 2 2 2 2 2 2 2 2 2 2 2 2 2 2 2 2 2 2 2 2 2 2 2 2 2 2 2 2 2 2 2 2 2 2 2 2 2 2 2
left_child=1 2 3 4 5 -1 7 8 23 10 11 -9 -12 16 32 37 38 -16 41 -20 -6 -18 33 42 25 -5 27 -24 44 50 -28 -26 -10 34 -17 48 -37 52 -4 40 -39 -11 -2 -41 51 46 -46 -47 -31 -25 54 -8 -3 -54 -30
right_child=6 15 13 24 20 -7 28 9 14 18 12 -13 -14 -15 17 22 21 -19 19 -21 -22 -23 26 49 31 -27 30 -29 29 35 -32 -33 -34 -35 -36 36 -38 39 -40 43 -42 -43 -44 -45 45 47 -48 -49 -50 -51 -52 -53 53 -55 -56
leaf_value=0.076870037107044653 0.086600344473647756 -0.14308311633571025 0.027422949133711801 -0.075180772173369534 -0.03871516505959148 0.025721040405727331 0.19168257743070571 0.0037335643950097298 0.098337392447680402 0.15116441446244189 0.02366030743193763 0.038353837520740897 0.13998431765691774 0.2184163368584757 -0.095393435506114357 -0.054581952650299338 -0.011786817319351774 0.040072978998361299 0.10519112914969078 0.053730335479041574 0.026340780840816865 0.27430930288459432 0.010086379108889819 0.15628019697421217 -0.085373020451582807 0.12483452460882594 0.24067809095440393 0.065444607581620545 -0.18581036442278873 -0.13302665480528844 -0.061390318333667773 0.071508998611904157 -0.091855364831110217 -0.14289786800383508 0.23591026842078855 0.11631716706752129 0.0001728708151916531 0.087278352437722292 -0.098661193314788453 0.09375869040578072 -0.12718378026514374 -0.13017011579104421 -0.15887914826752478 0.26508774880026054 0.14435954855012861 0.16661313030302138 -0.18174329116245128 0.13132225578393841 0.034465533742648762 0.20985809916139797 -0.061031499657642832 0.16597330854604134 -0.11897680629457347 -0.12806781651790916 -0.19146202054721367
leaf_weight=62011.238736927509 5.3783594369888332 4.2590491622686377 31.249736338853836 76.651556916534901 832.22778338938951 4023.2992004826665 54.978266045451164 7117.4581720903516 99.081799104809761 6.1947845667600623 380.2188733369112 10563.756161600351 593.41331444680691 38.62396052479744 817.41626093536615 10.167037181556223 491.04781510680914 104.3112914711237 679.48691713809967 5950.4641063287854 610.31071976944804 17.304090470075607 4449.126745402813 57.17978523671627 489.67644033581018 69.412862181663513 9.4013350307941419 379.01836087554693 4.9525712728500428 12.65913847088814 248.41906206309795 32.54395530372858 24.743292450904846 7.2293749600648871 48.772609435021877 513.2339908182621 54.113009572029114 398.39493046700954 419.47137738764286 9.2615758925676364 18.495111346244812 56.96578773856163 12.988499671220778 18.953974947333336 12.042206615209581 138.1281350851059 10.102543935179709 152.33705119788647 3.7520167976617804 51.540919661521912 5.2565590590238562 36.096996009349823 6.0573889985680571 2.9853915348649016 14.692373305559157
leaf_count=113541 10 21 91 347 4424 11589 33 33983 285 7 1241 44128 675 39 7031 63 1973 295 1023 14406 2656 31 19629 48 2537 187 21 1384 20 73 1536 156 294 39 65 718 125 729 2196 31 120 270 56 24 12 87 41 141 12 31 15 30 48 18 59
internal_value=0 0.0653834 0.0691962 0.0706955 0.0719377 0.0737537 0.035372 0.0324406 -0.041079 0.0358418 0.0280784 0.0244177 0.0945579 -0.0332102 -0.0634358 0.0183957 -0.0433437 -0.0800628 0.0574796 0.0590044 -0.0111912 -0.00204822 0.0129287 0.14285 -0.0547305 0.0198707 0.0111468 0.0144321 0.112165 0.0888814 -0.0503755 -0.0755964 0.0603322 0.149888 0.185801 0.0996176 0.105239 0.0798403 -0.0899194 0.0860735 0.0777639 -0.102577 -0.0869955 0.20885 0.147271 0.137301 -0.00441017 0.148105 -0.0947336 0.18168 -0.162805 0.181493 -0.128736 -0.121978 -0.190037
internal_weight=0 74753.6 69143.1 68145.4 67477.1 66034.5 27532.9 26520.6 1172.64 25348 18654.8 17681.2 973.632 997.697 1045.55 5610.54 959.073 921.728 6693.11 6629.95 1442.54 508.352 5152.13 127.088 668.285 146.064 5085.97 4828.15 1012.34 608.66 257.82 522.22 123.825 66.169 58.9396 583.758 567.347 458.407 450.721 445.106 416.89 63.1606 18.3669 28.2156 403.685 312.61 22.1448 290.465 16.4112 108.721 24.9015 91.0753 13.3018 9.04278 19.6449
internal_count=268644 163495 139767 135437 132210 125130 105149 103783 8050 95733 80027 78111 1916 4330 7905 23728 4291 7326 15706 15429 7080 2004 22737 145 3227 534 22570 21013 1366 1022 1557 2693 579 167 128 928 843 991 2287 904 849 277 66 55 344 281 53 228 85 79 94 63 87 66 79
is_linear=0
shrinkage=0.1


Tree=11
num_leaves=62
num_cat=0
split_feature=31 36 49 30 135 107 117 103 134 40 103 53 72 74 99 107 100 124 43 38 72 110 69 31 130 113 69 43 100 135 33 74 95 39 79 105 25 108 0 36 53 31 71 74 1 6 17 38 28 128 53 3 94 135 40 57 100 69 106 45 136
split_gain=1612.84 1275.6 863.119 752.015 1076.56 783.597 770.53 648.507 1267.3 873.6 546.74 747.329 488.242 465.566 606.863 404.695 378.894 474.1 378.523 345.929 416.589 377.19 456.29 329.153 288.856 240.479 239.342 268.579 231.152 254.335 219.473 217.658 207.919 206.624 195.908 161.773 132.125 126.843 126.207 103.797 101.391 90.1065 82.3377 80.3921 78.1927 78.001 77.8447 74.0773 67.5814 63.9791 62.2806 53.2059 50.3005 35.5731 34.2869 33.0599 25.0639 18.6933 1.54806 0.239037 0.0656189
threshold=0.99895730614662182 0.92839595675468456 0.82029050588607799 1.0805099606513979 1.0000000180025095e-35 -0.96097534894943226 -1.5330514907836912 -0.83492472767829884 1.0000000180025095e-35 0.97583976387977611 -0.85298982262611378 1.0067334175109866 -0.67404040694236744 -0.99462455511093129 -0.87201550602912892 -0.89840096235275257 -0.83195975422859181 -1.450378894805908 1.0608934760093691 1.0074294209480288 -0.61068809032440174 -1.1937902569770811 -0.018063638359308239 1.0030866861343386 1.0000000180025095e-35 -0.91116300225257862 1.0000000180025095e-35 1.1623107790946963 -0.88700369000434864 1.0000000180025095e-35 0.9520813822746278 -0.95164346694946278 -0.94943466782569874 0.932478427886963 -0.98433575034141529 -0.84919071197509755 1.2874928712844851 -1.0487297177314756 0.23384956270456317 0.93169623613357555 0.98459571599960338 1.007309138774872 -0.26485146582126612 -0.98038950562477101 0.24820549786090854 0.64430516958236705 1.1446708440780642 1.015100955963135 1.3926850557327273 1.0000000180025095e-35 0.98147085309028637 0.84207904338836681 -0.94231677055358876 1.0000000180025095e-35 0.9744086265563966 0.82909801602363598 -0.82840764522552479 -0.13569712638854978 -0.86196333169937123 0.73929357528686535 1.0000000180025095e-35
decision_type=2 2 2 2 2 2 2 2 2 2 2 2 2 2 2 2 2 2 2 2 2 2 2 2 2 2 2 2 2 2 2 2 2 2 2 2 2 2 2 2 2 2 2 2 2 2 2 2 2 2 2 2 2 2 2 2 2 2 2 2 2
left_child=1 2 25 4 6 -6 -4 8 12 36 41 40 28 15 -15 -5 17 32 56 20 38 42 -23 -19 34 48 35 30 29 -2 -28 -20 -11 -13 -14 44 46 -29 57 -40 -12 50 -22 -26 -21 -30 49 -37 52 -9 -10 -50 -1 54 -38 -43 -18 -3 59 -27 -60
right_child=7 19 3 13 5 -7 -8 9 10 16 11 33 24 14 -16 -17 18 23 31 26 21 22 -24 -25 43 58 27 37 45 -31 -32 -33 -34 -35 -36 47 53 -39 39 -41 -42 55 -44 -45 -46 -47 -48 -49 51 -51 -52 -53 -54 -55 -56 -57 -58 -59 60 -61 -62
leaf_value=0.030287767783577932 0.022489100411476552 0.018320168397582635 0.1019506897045017 -0.017964973068451729 0.015998424924332375 0.11046370882975975 0.059114338008761008 -0.064590099821825273 0.10160017710558189 0.16194058402325032 -0.15150721179227852 -0.067823007833799506 0.044019699354200387 0.073629943801708286 -0.084049994502677472 0.043895253808169291 -0.068909278047998998 0.048445778630789471 -0.087647646826000819 0.056971971649483158 0.026006355530407615 0.035660281959915711 0.10463143340379673 -0.0027726341720938855 0.058945916492678066 -0.12308114891969185 0.096127355942275491 -0.12671733717944988 -0.018156572258597767 -0.047242295564437681 -0.033521452414056553 0.011795421574196479 0.067822028348357141 0.10274551230569262 0.093171258541416502 -0.032555216250606665 -0.11806086370903157 0.0040500933131352394 0.0027425506676618107 -0.087052449398952486 -0.032158826681705548 -0.16222373613949653 -0.13540084197845798 -0.058048285098336795 -0.095982945861359914 -0.088516462727633471 0.24684205710080054 -0.08774463117503957 -0.067116318749028112 0.082276546419211977 0.14911188031794903 0.16441942644007035 -0.11248965852224971 0.1013503000880121 -0.045827541131148515 0.045085389837021039 -0.12747743668840547 0.16904272073238602 -0.10474499687547617 -0.14198707647176287 -0.10829524520428105
leaf_weight=429.81812400370836 4099.3476518988609 11.45166429132223 4673.6379375308752 2032.2723386585712 980.41138480603695 8415.2589104026556 41364.269977577031 110.62016662210226 345.51154796779156 302.32181330770254 89.99755597114563 75.051155105233192 5686.2332834303379 3488.7272681221366 262.444619782269 2205.0124166682363 113.85614343732595 2444.3513673394918 232.42338800430298 221.37625699490309 40.653615117073059 6422.9177864268422 1127.586196295917 2578.0753881707788 71.714538633823395 31.004142582416534 518.208541251719 124.43293556571007 340.13979291170835 599.55695822834969 174.55114119499922 4152.2116772904992 1049.6157176941633 1322.3451777026057 945.80234185606241 614.11177150160074 568.53061641007662 183.65881712734699 197.75922377407551 368.79957411438227 340.45778491348028 11.417695418000219 141.99039131402969 324.47241643071175 39.365854911506176 293.53336884081364 11.304455310106276 402.6774961873889 155.78480349481106 40.52864883095026 1369.4028828293085 10.600172862410544 26.17753778398037 8.0859358757734281 74.301302455365658 23.576919987797737 203.95891328901052 29.237485706806183 169.88409095257521 8.5268285572528821 75.064262039959431
leaf_count=1139 16704 34 6642 7024 2188 10912 85663 594 465 537 428 236 16019 7268 900 5300 559 8228 1453 562 109 21488 2616 12061 303 221 1670 545 1457 2427 1055 18228 3177 2379 1391 3072 2914 646 822 1908 1182 54 679 1846 219 1540 32 2547 845 178 1267 15 106 17 322 67 1177 37 4053 45 1072
internal_value=0 0.0589393 0.0642398 0.0656249 0.0697586 0.100607 0.063463 0.0307479 0.0439329 0.0130737 0.0963451 0.058096 0.0287625 0.0369403 0.0625981 0.0142261 0.0204188 0.0363041 -0.00111435 0.0268291 0.0362627 0.0425255 0.0459604 0.0221547 0.0460743 -0.0326287 -0.00770402 0.0289142 0.00594607 0.0135917 0.0634604 0.00652408 0.0888689 0.0935846 0.0510293 -0.0363917 -0.0869551 -0.0487646 -0.0434919 -0.0557092 -0.0571116 0.136298 -0.0994742 -0.0368709 0.0338794 -0.050749 -0.0062787 -0.0544118 0.00218628 -0.0252097 0.139539 -0.0523655 0.0220913 -0.10709 -0.109712 -0.0225534 -0.106496 0.126623 -0.108796 -0.127159 -0.105833
internal_weight=0 74947.7 64328.9 63422 55433.6 9395.67 46037.9 27828.7 15938.6 11890.2 3577.76 1827.85 12360.8 7988.46 3751.17 4237.28 11076.8 6374.36 4702.45 10618.8 8340.4 7733.15 7550.5 5022.43 7028.22 906.86 2278.38 1000.85 5332.58 4698.9 692.76 4384.64 1351.94 1397.4 6632.04 1277.53 813.371 308.092 607.248 566.559 430.455 1749.91 182.644 396.187 260.742 633.673 162.453 1016.79 622.381 151.149 1714.91 166.385 455.996 650.918 642.832 34.9946 317.815 40.6891 284.479 39.531 244.948
internal_count=268644 171402 133393 125897 105405 13100 92305 97242 47765 49477 6078 4225 41687 20492 8168 12324 45420 24003 21417 38009 27693 24892 24104 20289 19559 7496 10316 3916 22128 19131 2725 19681 3714 2615 17410 6400 4057 1191 2801 2730 1610 1853 788 2149 781 2997 804 5619 2105 772 1732 860 1245 3253 3236 121 1736 71 5391 266 5125
is_linear=0
shrinkage=0.1


Tree=12
num_leaves=62
num_cat=0
split_feature=31 37 117 110 102 30 42 106 102 134 40 102 43 77 125 130 72 135 111 99 125 73 38 68 68 37 100 72 118 112 60 30 31 72 38 6 69 53 102 29 32 61 123 75 31 0 53 30 127 109 38 127 39 103 37 38 67 55 11 107 136
split_gain=1309.85 1081.57 702.774 1121.38 929.457 986.365 944.205 835.267 531.562 909.019 829.725 632.026 939.387 511.07 511.017 422.025 421.976 381.44 332.582 276.355 439.929 273.57 289.377 377.604 280.396 255.532 255.037 335.928 234.537 317.083 227.556 381.874 221.442 204.655 199.772 175.913 153.751 146.404 126.267 102.382 107.786 101.302 96.3209 96.1663 95.1545 84.9986 76.9478 74.3749 70.0624 66.7117 67.683 64.6431 62.3093 79.9136 52.8637 35.964 28.5058 24.9134 23.6477 18.8176 0.4106
threshold=0.99895730614662182 0.96287167072296154 -1.5330514907836912 -1.2051163315773008 -0.79650238156318653 1.0726235508918764 1.0146441459655764 -0.85677009820938099 -0.83081799745559681 1.0000000180025095e-35 0.98684567213058483 -0.85567384958267201 1.0234205126762392 -0.41065007448196406 -1.1972834467887876 1.0000000180025095e-35 -0.68115198612213124 1.0000000180025095e-35 -1.248461842536926 -0.83798930048942555 -1.6210091710090635 -0.7749381661415099 1.0074294209480288 0.11550511419773103 0.14110206812620166 0.94731730222702037 -0.91494691371917714 -0.72691860795021046 -1.6114765405654905 -1.3107025623321531 0.60939955711364757 1.0685133337974551 1.0065986514091494 -0.59531611204147328 1.0335975885391238 0.67369133234024059 -0.11563387885689734 1.0860263109207156 -0.85122084617614735 1.0744964480400088 0.96177101135253917 0.66075277328491222 -1.3390107750892637 -0.49167339503765101 1.007309138774872 0.43197575211524969 0.98916885256767284 1.0208213329315188 -3.2037359476089473 -1.1298547983169553 1.0041494965553286 -1.7486351728439329 0.95468562841415416 -0.82725992798805226 0.96349319815635692 0.99886825680732738 0.24142529070377353 0.92369759082794201 0.6432102918624879 -0.8800850212574004 1.0000000180025095e-35
decision_type=2 2 2 2 2 2 2 2 2 2 2 2 2 2 2 2 2 2 2 2 2 2 2 2 2 2 2 2 2 2 2 2 2 2 2 2 2 2 2 2 2 2 2 2 2 2 2 2 2 2 2 2 2 2 2 2 2 2 2 2 2
left_child=1 2 3 25 5 7 17 -4 9 16 36 44 38 -8 -7 19 26 -6 34 20 -12 47 23 -23 -24 37 27 -2 48 -30 42 -32 -14 -21 49 -28 52 -1 -13 58 -41 45 -18 -27 46 -38 -11 51 -5 55 -51 -20 59 -54 -49 -3 -36 -46 -17 -10 -43
right_child=8 18 4 28 6 14 13 -9 10 11 15 12 32 -15 -16 39 30 -19 21 33 -22 22 24 -25 -26 43 35 -29 29 -31 31 -33 -34 -35 56 -37 41 -39 -40 40 -42 60 -44 -45 57 -47 -48 54 -50 50 -52 -53 53 -55 -56 -57 -58 -59 -60 -61 -62
leaf_value=-0.1592484210785573 -0.01455990545627178 0.006799037264843948 0.077252697227006853 0.11524397453627595 -0.14150896439440136 0.047429987718887741 0.040961689313883706 0.036279488364215455 -0.15577532459060678 0.095126327255660934 0.12277033405286997 0.0057668422639674637 0.091447000331306927 -0.054905124112454129 -0.002495769570468914 0.094675585189620368 0.11415598746678768 0.10766548721366807 0.11996377409674719 -0.038794645074497876 0.030615899343169984 0.020031792308722991 -0.037335408876209418 0.084200955878306408 0.035716692130614645 0.034182557582117502 -0.0031948794492833894 0.056465949647056458 0.03468580936510593 0.115371746008367 0.049855115709449081 0.0061313937220249387 -0.064329392330059396 0.020048853074440934 -0.01122236557832041 -0.063587823295731691 -0.14295020696310903 0.062593017533118633 -0.097729541054777533 -0.0070330604501797206 -0.068232177408940414 -0.13328875378391536 -0.072941828157175384 -0.12410887690371429 -0.15357743832691023 0.1867706929937536 0.1397531323520762 0.041148680996266333 0.16684730937431924 0.089623665367477207 -0.20331591227219886 -0.034785574227218112 -0.0033874509144166225 -0.0880491623126579 -0.094988067987400782 -0.13931347553879661 0.19959679842490519 0.022676606984226529 0.35989828062104451 -0.10453608844917486 -0.16430080322903609
leaf_weight=34.113163590431213 1284.8443768024445 18.154105722904205 28207.612260621041 388.82279442250729 412.8358237221837 11029.972358733416 14598.775392249227 6040.8808143846691 117.50569155067205 559.81405204534531 590.63091922551394 166.88294363021851 1521.4194557517767 578.10936544835567 2518.2143526822329 6.2829812690615636 477.31746845692396 72.176276624202728 36.926069483160973 841.30628181248903 4213.9778128936887 2778.7645129561424 1158.6551597565413 1368.73091802001 961.37957810610533 45.175969913601875 1388.7476778775454 1382.3451899439096 626.64036762714386 2186.5138263255358 5662.3518411815166 3086.206031806767 97.07782356441021 1986.9956379085779 8.5785066634416562 738.94319709390402 9.4319671839475614 232.51991008222103 401.44404721260071 530.00241313874722 629.72272921353579 8.8613780438899994 29.199097394943237 255.14095935225487 12.587158501148222 45.702311381697655 1247.0744720548391 31.706533253192902 813.74026770889759 29.131975769996643 10.815377265214918 100.35767836123705 142.68746245652437 509.97781705111265 284.1508132070303 233.76731818914413 25.416554875671864 22.10047635436058 7.2305030077695847 183.75940340012312 8.2385434359312057
leaf_count=151 6322 64 48006 414 2903 23783 32331 21537 550 757 1329 462 2919 1750 7916 28 725 95 87 4049 15838 10009 6059 3455 3644 113 6107 4420 1123 2487 16916 10143 537 8074 28 3566 48 487 1756 2832 4015 48 128 1186 62 79 1189 118 492 40 44 432 491 2720 1463 1146 39 65 12 1020 35
internal_value=0 0.0529315 0.0567938 0.0946126 0.0540627 0.0609904 0.0329207 0.0700257 0.0275593 0.0377368 0.00884635 0.0796141 0.0432654 0.03731 0.0381502 0.0187628 0.0257298 -0.104428 0.0156372 0.0273455 0.0419445 0.020421 0.025846 0.0412085 -0.00420822 -0.0370392 0.0016525 0.0222512 0.1132 0.0973987 0.0382038 0.0344308 0.0821035 0.00254527 -0.0830247 -0.0241692 -0.0762525 0.0342105 -0.067339 -0.037075 -0.0402638 0.0644131 0.10337 -0.100297 0.122777 0.130364 0.125927 -0.0546132 0.150162 -0.109746 0.010313 0.00683833 -0.0869041 -0.0695402 -0.0813223 -0.128784 0.146397 -0.041281 0.236585 -0.124521 -0.14823
internal_weight=0 75087.8 68041.2 4582.67 63458.6 47796.7 15661.9 34248.5 27910.7 18078.4 9832.31 4028.4 2186.82 15176.9 13548.2 8806.15 14050 485.012 7046.54 7632.91 4804.61 6720.67 6267.53 4147.5 2120.03 566.95 4794.88 2667.19 4015.72 2813.15 9255.07 8748.56 1618.5 2828.3 325.864 2127.69 1026.16 266.633 568.327 1173.24 1159.73 72.2342 506.517 300.317 1841.58 55.1343 1806.89 453.141 1202.56 291.869 39.9474 137.284 953.93 652.665 315.857 251.921 33.9951 34.6876 13.5135 301.265 17.0999
internal_count=268644 171402 144774 6453 138321 101242 37079 69543 97242 56074 41168 7747 5674 34081 31699 36177 48327 2998 26628 29290 17167 25267 23167 13464 9703 1937 20415 10742 4516 3610 27912 27059 3456 12123 1361 9673 4991 638 2218 6887 6847 210 853 1299 2073 127 1946 2100 906 1294 84 519 4781 3211 1581 1210 67 127 40 1570 83
is_linear=0
shrinkage=0.1


Tree=13
num_leaves=58
num_cat=0
split_feature=129 103 30 53 131 117 109 128 110 105 134 134 53 69 72 135 30 133 68 135 103 103 31 115 30 79 103 29 110 74 46 45 132 70 48 68 100 123 49 82 62 127 12 107 30 0 6 116 30 49 5 38 29 106 38 30 32
split_gain=1214.77 1079.51 1683.98 1659.05 921.297 882.77 1329.44 735.443 661.714 586.195 725.588 558.308 747.525 528.842 505.795 462.715 436.645 423.942 419.186 363.974 383.808 317.812 297.292 278.711 271.408 210.355 196.59 183.918 226.811 223.141 235.918 183.532 180.232 142.138 221.448 236.376 112.999 92.0086 160.737 152.021 93.833 91.726 100.119 89.7478 89.6046 85.4942 120.655 74.0681 55.885 143.893 53.5347 52.0678 21.0109 11.0283 21.9495 7.22202 0.410228
threshold=1.0000000180025095e-35 -0.84670516848564137 1.0704689025878908 1.0269626379013064 1.0000000180025095e-35 -1.5330514907836912 -1.1354829668998716 1.0000000180025095e-35 -0.88151761889457692 -0.94409829378128041 1.0000000180025095e-35 1.0000000180025095e-35 1.102232098579407 0.010056186001747848 -0.68367943167686451 1.0000000180025095e-35 1.0957416892051699 1.0000000180025095e-35 0.0078446757979691046 1.0000000180025095e-35 -0.83790823817253102 -0.85757115483283985 0.98839357495307933 -0.92959657311439503 1.0948086977005007 -0.26678553223609919 -0.80308955907821644 0.94230517745018016 -0.97168442606925953 -0.89986997842788685 1.1622807383537295 1.1273856759071352 1.0000000180025095e-35 -0.26585756242275232 1.1302680373191836 0.098394319415092482 -0.81079936027526844 -1.2739691734313963 1.1376022100448611 -1.4692440032958982 0.48917481303215032 -1.4829222559928892 0.8792286515235902 -0.8445807397365569 1.0418226122856142 0.44177097082138067 0.62643602490425121 -0.89088693261146534 1.018428683280945 1.1624318361282351 0.79378965497016918 1.0115463733673098 0.92282319068908703 -0.87160143256187428 1.0226768851280215 1.0428155660629275 0.95936599373817455
decision_type=2 2 2 2 2 2 2 2 2 2 2 2 2 2 2 2 2 2 2 2 2 2 2 2 2 2 2 2 2 2 2 2 2 2 2 2 2 2 2 2 2 2 2 2 2 2 2 2 2 2 2 2 2 2 2 2 2
left_child=1 2 4 18 7 6 13 14 27 17 16 15 -13 -5 -1 -7 -11 50 19 20 -3 -12 37 -9 -19 -8 43 52 53 31 -31 -30 -28 45 36 -36 -35 48 40 -40 -39 47 -43 -20 -21 55 -47 -6 51 -50 -4 -10 -2 54 -29 -24 -55
right_child=8 3 9 5 41 11 25 23 22 10 21 12 -14 -15 -16 -17 -18 24 26 44 -22 -23 33 -25 -26 -27 32 28 29 30 -32 -33 -34 34 35 -37 -38 38 39 -41 -42 42 -44 -45 -46 46 -48 -49 49 -51 -52 -53 -54 56 -56 -57 -58
leaf_value=0.099115603523898199 0.071325110971896102 -0.008081317537982231 -0.02422958013076279 0.049660863964390838 0.020402395318362819 0.025662417664542261 0.11169487234077501 -0.062632388976316636 0.24327071468479231 0.027150010002090403 0.10420561079843865 0.041804498742875167 0.11268680381116292 -0.10198511264290347 0.0685264383962228 0.07444934635553925 -0.033169080747367567 0.10573506837064597 0.084151125812496008 -0.13118790245473588 -0.076236269665083733 -0.065194404296346847 -0.012052021923779665 0.098756000231548902 0.031379147802092985 0.0072678054617339284 -0.1459941885726552 -0.09708212339682451 -0.021746783690104337 0.073224173676120122 -0.022118869254860014 -0.086051650263237633 0.12121287557372339 0.10851591520645537 -0.091783338487357508 0.044559202221754336 -0.13695893809681073 -0.075071054865102405 0.13038475516954315 -0.13631901132543467 0.14538673504355079 -0.073576550688756015 0.0029130341007615125 0.23304576138525529 0.078310325083443488 0.2373103238748645 -0.023276805075493567 0.29371298297953002 0.15878526639501711 -0.14361889540870448 -0.13666826260676013 0.10541075851894861 0.20669878272090983 -0.13810003303514617 0.014366796892081556 -0.1340222366679644 -0.12336251102667553
leaf_weight=9385.5571791417897 17.281056851148605 1436.6694850474596 192.08013635128736 450.67516525089741 962.48759907484055 30885.25218115747 3625.7075488418341 496.36016180366278 88.349498599767685 16227.286848396063 1534.5369413942099 6899.3595430701971 1896.8702278882265 469.57749792933464 12747.196084268391 2074.6326345577836 1295.9474796652794 2058.1970954909921 272.83099761605263 21.90813671797514 1944.7281050644815 119.36457547545433 5.2114405632019034 136.415163513273 644.65372024476528 203.7367350012064 69.621172405779362 321.16472834348679 1732.3639590963721 439.17719290405512 634.44862851500511 596.7176219150424 39.600897401571274 393.22595518827438 186.43694297224283 399.91198481619358 19.691714659333229 21.613585002720356 33.90777400135994 57.808472231030464 180.87450063228607 259.37290247529745 502.9618698656559 47.535607673227787 299.7437149733305 18.919797077775002 291.88546746224165 10.018795743584631 82.921731993556023 19.419888332486153 54.320397190749645 39.710055232048035 34.066244468092918 48.399939194321632 18.700404733419418 70.893172442913055 30.975372590124607
leaf_count=14106 38 4586 672 983 3471 93770 3867 2245 103 42641 1859 18158 2371 2131 21512 3439 6149 2656 607 77 10311 360 18 542 1464 452 995 1749 7766 1670 3207 3177 51 1280 952 1301 106 153 65 260 323 1267 2135 101 504 37 1355 20 159 93 277 103 26 249 76 387 212
internal_value=0 0.0440669 0.0550458 0.0339578 0.0731058 0.0393535 0.080204 0.0784589 -0.00310395 0.035048 0.0286649 0.0347068 0.05709 -0.0277196 0.081498 0.0287333 0.0226891 0.0765531 -0.0267619 -0.0376096 -0.047279 0.0919798 0.0450523 -0.0278399 0.0880005 0.106139 0.0667449 -0.0268605 -0.0293862 -0.0208354 0.0168821 -0.0382219 -0.0491123 0.0207866 0.0407121 0.00120739 0.0968094 0.10917 0.0721093 -0.0377178 0.121855 0.00285968 -0.0231114 0.106244 0.0640411 -0.0306748 -0.00741396 0.0232181 0.156494 0.101402 -0.0490173 0.200522 0.161138 -0.098788 -0.0909499 -0.12567 -0.132349
internal_weight=0 97265.2 46626.8 50638.4 24500.4 46505.8 4749.7 22765.5 5784.08 22126.4 19177.1 41756.1 8796.23 920.253 22132.8 32959.9 17523.2 2949.25 4132.64 3703.05 3381.4 1653.9 1910.78 632.775 2702.85 3829.44 429.589 3873.3 3821.95 3402.71 1073.63 2329.08 109.222 1386.18 999.267 586.349 412.918 524.606 294.204 91.7162 202.488 1734.84 762.335 320.367 321.652 386.91 310.805 972.506 230.401 102.342 246.401 128.06 51.3473 419.24 339.865 76.1046 79.3753
internal_count=268644 243779 101376 142403 45298 125171 7433 38405 24865 56078 51009 117738 20529 3114 35618 97209 48790 5069 17232 15478 14897 2219 6695 2787 4120 4319 1754 18170 18106 15820 4877 10943 1046 5436 3639 2253 1386 1259 801 325 476 6893 3402 708 581 1797 1392 3491 458 252 949 206 64 2286 1825 405 461
is_linear=0
shrinkage=0.1


Tree=14
num_leaves=58
num_cat=0
split_feature=129 103 30 53 118 110 131 128 109 54 105 134 134 33 70 132 30 133 135 68 98 52 30 127 36 24 31 108 30 110 75 115 45 30 0 80 94 74 127 12 118 36 58 50 127 32 69 92 116 57 81 106 69 73 51 32 70
split_gain=988.446 893.437 1393.09 1353.53 786.34 1239.62 758.612 600.136 536.739 517.643 484.319 608.102 405.161 700.817 391.299 370.675 354.007 345.78 297.606 363.121 263.905 230.837 227.122 207.37 203.919 185.149 162.878 171.491 162.754 183.551 213.151 181.982 161.377 153.962 181.407 112.498 90.9615 76.6578 74.3085 85.2275 67.8974 65.5612 61.9617 56.7546 52.6278 51.2572 72.1868 51.7296 48.5426 32.0817 15.037 10.5972 21.7466 7.44282 3.15755 0.264108 0.0425535
threshold=1.0000000180025095e-35 -0.84670516848564137 1.0704689025878908 1.0249269604682925 -1.5892557501792905 -1.2051163315773008 1.0000000180025095e-35 1.0000000180025095e-35 -0.86774596571922291 0.72776585817337047 -0.94409829378128041 1.0000000180025095e-35 1.0000000180025095e-35 0.92362934350967418 -0.32624903321266169 1.0000000180025095e-35 1.0957416892051699 1.0000000180025095e-35 1.0000000180025095e-35 -0.037946261465549462 -0.94331634044647206 1.0620493888854983 1.1061975955963137 -3.1610327959060665 0.91377374529838573 1.1912466287612917 0.96366465091705333 -1.0707013010978697 0.93075165152549755 -0.97168442606925953 -1.0758142471313474 -0.98503023386001576 1.1472898125648501 1.029136121273041 0.35860407352447515 -1.3319077491760252 -0.70541584491729725 -0.91569948196411122 -1.4829222559928892 0.8792286515235902 -1.0024697184562681 0.91223615407943737 0.93594446778297435 1.0661216974258425 -1.8718150258064268 0.9591885805130006 0.010056186001747848 -1.2291006445884702 -0.97628471255302418 0.77129012346267711 -1.2932150959968565 -0.87160143256187428 -0.15742764621973035 -0.68865451216697682 1.1889291405677798 0.95936599373817455 -0.14512572437524793
decision_type=2 2 2 2 2 2 2 2 2 2 2 2 2 2 2 2 2 2 2 2 2 2 2 2 2 2 2 2 2 2 2 2 2 2 2 2 2 2 2 2 2 2 2 2 2 2 2 2 2 2 2 2 2 2 2 2 2
left_child=1 2 6 15 5 24 7 9 28 -1 17 16 14 -14 -6 18 -12 44 19 -3 -13 -9 -19 -7 -5 42 27 -17 50 51 40 -32 33 35 -35 -27 -20 49 41 -40 -31 -8 45 -28 -4 47 -47 -10 -39 -34 -2 52 -30 56 -52 -53 -44
right_child=8 3 10 4 12 23 38 21 25 -11 11 20 13 -15 -16 26 -18 22 36 -21 -22 -23 -24 -25 -26 32 43 -29 29 30 31 -33 37 34 -36 -37 -38 48 39 -41 -42 -43 53 -45 -46 46 -48 -49 -50 -51 54 55 -54 -55 -56 -57 -58
leaf_value=-0.057028155433140992 0.03471093436424174 -0.089553706270725827 -0.15861817410698642 0.0059770901578496353 -0.014477181431488795 0.087231065502040017 0.033712673838452202 0.041165928893716827 -0.11043063971132738 0.075680768750983896 0.024342760911832607 0.11419964117260453 0.06658701659645018 0.0022080380626145345 0.029309640898813133 -0.15613290732398918 -0.030388740016834632 0.087552955289620149 0.068590711206298269 -0.018461287594880992 0.030012899711833886 -0.080895842445964344 -0.029202180548239223 0.14349896111946647 -0.120733134848097 0.11012558699495603 0.020498703395246176 0.11331023527052655 -0.1129637093117508 -0.1231280243294362 -0.01816901910490424 0.059788412115107194 0.083777611857991693 -0.090521581796617567 0.032669974653935438 -0.060248118857493232 -0.18310206571932741 -0.026453167987698301 -0.068792423901137031 0.0026186692896520967 -0.051396636451306821 -0.030479801382204422 -0.13543414055283942 -0.13879622333577962 -0.025849112489378451 -0.074611412525819182 0.13508213240566924 0.21258085616528422 0.14880300672749566 -0.12178359247739978 0.18976535431684524 -0.13302023271697991 -0.060876631245437213 0.017907479428511237 0.13768243043076242 -0.12070202679373572 -0.14979817975911403
leaf_weight=297.95929524302483 10.991849482059477 1273.2788065355271 34.877541370689869 235.56141011416912 2177.8314274996519 1910.6585032790899 782.43778178095818 283.72297490760684 5.2551050782203665 21683.414608612657 16285.492000602186 1048.3441860228777 6721.5602202489972 2259.2327304705977 32459.909965842962 25.602534294128418 1274.2482572868466 2505.618462793529 281.17999025434256 1648.8466422818601 577.46426922082901 341.31951054930687 178.48024132102728 996.61813844740391 275.61154226958752 353.77120316028595 44.472327247262001 305.28387451171875 154.81476403772831 169.77683615684509 2009.8582404628396 351.86663245409727 8.1402268260717374 132.35859856754541 1233.7261816263199 43.524127244949341 15.131434693932531 67.124525249004364 250.16097870469093 503.51877143606544 592.37975667417049 199.71349972486496 3.8857583180069915 44.996529266238213 207.33331186324358 20.812231816351414 77.732373788952827 87.683689117431641 20.671400368213654 112.80315208435059 24.215523988008499 44.435584500432014 166.21001224964857 4.3982480168342581 22.414679616689682 28.61350541561842 4.3953721523284903
leaf_count=2074 30 6904 146 662 6900 2380 2670 1103 75 33544 42641 1127 12476 8565 93334 100 6149 3596 477 7634 1092 1684 524 739 1529 778 93 391 933 1035 9726 1364 16 636 4611 156 63 267 1267 2135 2832 821 21 156 803 92 177 102 37 554 23 245 881 15 27 212 20
internal_value=0 0.0397207 0.0497379 0.0305381 0.0350837 0.0812693 0.0662426 0.0711344 -0.00294363 0.0738819 0.0315683 0.0257883 0.0314641 0.0503917 0.0265566 -0.028221 0.0203711 0.0694632 -0.0397556 -0.0494389 0.0842977 -0.0254888 0.0797893 0.10652 -0.0623419 0.0362119 0.0600936 0.0924619 -0.0267757 -0.0295062 -0.0213933 -0.00655436 0.0268271 0.0366691 0.0207341 0.091461 0.0557378 -0.0563157 0.00253493 -0.0210841 -0.0673754 0.0206596 0.126865 -0.0596154 -0.0449674 0.141041 0.0907957 0.194317 0.0148106 -0.107948 0.139928 -0.0938182 -0.0859957 -0.0872221 0.16473 -0.128195 -0.143058
internal_weight=0 97129.9 46454.1 50675.8 47037 3418.45 24342.2 22606.4 5751.86 21981.4 22111.9 19185.5 43618.5 8980.79 34637.7 3638.79 17559.7 2926.31 3218.44 2922.13 1625.81 625.042 2684.1 2907.28 511.173 2176.28 420.355 330.886 3575.58 3517.96 3123.88 2361.72 1972.12 1763.38 1366.08 397.295 296.311 208.739 1735.83 753.68 762.157 982.151 204.163 89.4689 242.211 191.483 98.5446 92.9388 87.7959 120.943 57.6221 394.074 321.025 12.6794 46.6302 73.0491 8.28113
internal_count=268644 243779 101376 142403 126585 5310 45298 38405 24865 35618 56078 51009 121275 21041 100234 15818 48790 5069 15078 14538 2219 2787 4120 3119 2191 7557 740 491 17308 17228 14957 11090 7055 6181 5247 934 540 874 6893 3402 3867 3491 502 249 949 446 269 177 304 570 80 2271 1814 56 50 457 41
is_linear=0
shrinkage=0.1


Tree=15
num_leaves=62
num_cat=0
split_feature=104 30 133 33 72 134 106 34 51 19 73 127 110 118 2 78 6 134 52 110 133 108 105 38 30 97 5 133 75 58 126 30 97 0 67 127 101 70 31 104 112 107 36 31 29 97 24 61 105 104 5 77 120 132 106 102 105 7 116 51 106
split_gain=865.923 1067.24 988.307 986.155 937.209 713.997 683.687 671.106 616.963 566.095 594.745 701.163 560.802 633.32 677.769 535.868 513.917 524.355 800.032 578.427 440.988 421.11 387.607 328.515 297.187 289.312 292.017 265.304 234.333 353.22 208.889 196.405 282.667 182.735 152.43 149.862 124.165 152.906 119.754 116.516 106.784 93.5224 70.8151 64.695 63.3088 102.692 59.7627 148.98 59.438 55.0989 49.9332 44.9944 65.6721 43.3803 41.5499 35.7786 33.7493 28.1433 25.8356 8.35499 0.264046
threshold=-0.85628598928451527 1.075692415237427 1.0000000180025095e-35 0.8745953142642976 -0.59255859255790699 1.0000000180025095e-35 -0.9142305552959441 0.91339802742004406 1.0856055021286013 1.3808348178863528 -0.71326699852943409 -2.195349812507629 -1.2051163315773008 -1.5951622724533079 -0.053543891757726662 -0.96658620238304127 0.6793639361858369 1.0000000180025095e-35 1.1315015554428103 -0.91874578595161427 1.0000000180025095e-35 -0.89232757687568653 -0.94409829378128041 0.98762789368629467 1.0979906916618349 -0.85820251703262318 0.76315590739250194 1.0000000180025095e-35 -1.0818323493003843 0.77484235167503368 -2.034991860389709 1.0948086977005007 -0.91389799118041981 0.48349782824516302 -0.010089874267578123 -3.1610327959060665 -0.86670491099357594 -0.36011345684528345 0.98555201292037975 -0.82374915480613697 -1.3364470601081846 -0.95049387216567982 0.91377374529838573 0.98141479492187511 1.1626791357994082 -1.0044518113136289 1.6086164712905886 0.33182735741138464 -0.83723837137222279 -0.83655181527137745 0.62482291460037243 -1.1726736426353452 -0.92216047644615162 1.0000000180025095e-35 -0.88179430365562428 -0.81566390395164479 -0.80312365293502797 0.84016254544258129 -1.3309767842292783 1.1070791482925417 -0.86234354972839344
decision_type=2 2 2 2 2 2 2 2 2 2 2 2 2 2 2 2 2 2 2 2 2 2 2 2 2 2 2 2 2 2 2 2 2 2 2 2 2 2 2 2 2 2 2 2 2 2 2 2 2 2 2 2 2 2 2 2 2 2 2 2 2
left_child=1 5 3 12 42 9 8 41 43 10 11 -1 23 35 -15 21 17 19 -19 -5 -12 -11 27 40 25 26 -24 51 44 54 -17 33 -33 -29 -27 -14 37 -18 -31 -10 -2 -8 58 -6 50 -46 47 -26 -9 -44 -7 52 -3 -48 -30 -38 -25 -53 -4 -60 -51
right_child=2 22 4 16 6 28 7 48 39 15 20 -13 13 14 -16 30 36 18 -20 -21 -22 -23 24 56 46 34 -28 31 29 38 -32 32 -34 -35 -36 -37 55 -39 -40 -41 -42 -43 49 -45 45 -47 53 -49 -50 60 -52 57 -54 -55 -56 -57 -58 -59 59 -61 -62
leaf_value=-0.052744155762579563 -0.12571786192874826 0.32356933199553728 0.015619778087210798 -0.0004794188390651758 -0.1702134647423133 -0.022293284799222365 -0.082635679174641472 0.07944881689099674 0.068089559597115309 0.094597161688702205 0.025067408897902339 0.034419795013370821 0.087781832233326695 0.0036291957109832098 0.065272761919074218 -0.17332533012415471 -0.072396697306112867 0.030433956166380782 0.10723736761676868 0.028147536366937939 0.078301921808855562 0.044700404252602272 0.027370871757511146 -0.11447916094278217 0.18320797250865983 -0.12087420756517508 -0.030245930162137353 0.04333650211505044 -0.1525967111205826 -0.21188034481458701 -7.169501212089871e-05 0.054101232964180616 -0.11641573492276579 0.11272657979933468 0.00032528466266288681 0.14179819777504044 -0.092260938672037995 0.017325737789137995 0.0904886207691184 -0.0094758579316552363 0.048769414383449915 -0.16149003467869061 0.12641618439345781 0.02792165921669218 0.13329519427251493 -0.23064823223824599 -0.11423265613353156 -0.038296478395586704 -0.054995201450725943 -0.14949775035230614 0.12574980285993764 -0.036480412640564189 -0.1243531756790909 0.23214169457273273 4.0096935597586557e-05 0.11136301900490504 0.0069057211809005724 -0.1248705803405368 -0.16608151022037421 -0.19490576428983589 -0.12449655006099947
leaf_weight=1004.0296251326799 39.057725220918655 7.7039682120084763 6.9875596016645423 12297.577893733978 148.83752903342247 23.057523638010025 242.14522543549538 219.82192657887936 1148.9399606138468 5213.6258880123496 2188.1372519657016 11418.333133477718 1434.1657878607512 2510.8465144205838 6158.363064698875 84.571862414479256 326.19486109912395 9116.8249508216977 1593.2998525798321 16567.010315410793 5387.40915325284 2503.6616979278624 11709.954821772873 303.82232486456633 31.686907961964607 212.81349069625139 951.09780131280422 593.59956081211567 78.675859719514847 13.400801032781599 392.85789778828621 526.83962300419807 119.21508628129959 1052.2844996750355 202.51885303109884 800.19002671539783 404.71415340155363 454.73497295379639 580.37619012594223 232.92499196529388 343.83830541372299 396.9937050640583 14.083751961588858 18.531497552990913 18.649805545806888 13.269170537590979 120.59148749709129 727.51102600991726 38.668248206377029 6.0947245806455603 1914.4847718477249 165.37839602679014 5.6913090497255308 3.7275375276803961 23.061699479818344 8.8170932754874212 24.772948816418648 46.052892699837685 237.42494270950556 174.44838446378708 13.765009626746179
leaf_count=2672 183 12 16 44204 577 50 721 471 1928 6507 4630 26639 1720 6570 12633 308 1428 24486 1888 58241 7828 5235 31170 1720 100 757 3298 1024 293 55 858 1007 457 1180 501 566 2079 1589 798 553 738 1479 25 38 15 55 753 3854 140 29 1691 663 37 5 48 33 76 252 966 703 92
internal_value=0 0.0436174 0.02519 0.0283357 -0.0316393 0.0545897 -0.00718283 -0.0766267 0.0330531 0.049913 0.040842 0.0273748 0.0540413 0.0596543 0.0474191 0.0720491 0.0210123 0.0229628 0.0418597 0.0159512 0.0629255 0.0784095 0.0230685 -0.0319775 0.0165561 0.0203487 0.0230427 0.0591912 0.104065 0.0541661 -0.0307618 0.0693601 0.0226361 0.0877006 -0.0617765 0.107127 -0.0436132 -0.0201514 0.0836645 0.0550153 0.0309707 -0.131615 -0.163797 -0.148275 0.121687 -0.0180012 -0.0395759 -0.0290515 0.059337 -0.0248775 0.123988 -0.0444729 0.133259 -0.103847 -0.117997 -0.0879194 -0.105328 -0.0557331 -0.175055 -0.17829 -0.132169
internal_weight=0 47334.3 55283.9 52384.2 2899.67 30857.6 2446.86 897.629 1549.23 28192.6 19997.9 12422.4 11615.1 10903.6 8669.21 8194.72 40769.2 39574.7 10710.1 28864.6 7575.55 7717.29 16476.7 711.491 13959.9 13076.4 12661.1 2516.77 2664.98 695.515 477.43 2291.94 646.055 1645.88 415.332 2234.36 1194.46 780.93 593.777 1381.86 382.896 639.139 452.804 167.369 1969.46 31.919 883.517 759.198 258.49 33.9435 1937.54 224.827 13.3953 124.319 101.738 413.531 328.595 211.431 418.861 411.873 19.8597
internal_count=268644 102752 165892 158154 7738 57682 5907 2811 3096 54677 41769 29311 24206 21489 19203 12908 133948 128819 26374 102445 12458 11742 45070 2717 40438 35726 34468 4632 3005 1194 1166 3668 1464 2204 1258 2286 5129 3017 853 2481 921 2200 1831 615 1811 70 4712 3954 611 146 1741 964 49 758 341 2112 1796 915 1685 1669 121
is_linear=0
shrinkage=0.1


Tree=16
num_leaves=54
num_cat=0
split_feature=31 37 130 131 129 101 80 73 111 113 72 30 130 102 69 103 13 108 8 18 121 101 28 38 30 125 104 130 122 67 82 112 135 85 29 32 125 106 67 95 34 56 38 70 126 61 44 19 125 100 133 112 40
split_gain=795.794 839.203 801.494 550.214 505.971 510.066 335.992 268.99 278.083 248.027 307.696 223.265 286.629 200.144 184.72 340.331 193.243 148.913 140.637 140.378 129.06 131.051 180.95 171.013 121.518 206.281 137.584 120.989 99.6574 75.1547 69.9263 104.627 66.6347 66.501 62.2991 59.9401 72.7118 67.192 57.7915 49.4087 39.8372 37.1935 28.5744 67.0934 34.5038 24.4066 24.1958 19.5085 16.9858 6.13388 6.09565 21.543 8.32957
threshold=1.005123019218445 0.96230062842369091 1.0000000180025095e-35 1.0000000180025095e-35 1.0000000180025095e-35 -0.85024011135101307 -1.3472416400909422 -0.77576917409896839 -1.2455181479454038 -0.97205924987792958 -0.6065455675125121 1.0386413931846621 1.0000000180025095e-35 -0.79939126968383778 -0.12439556792378424 -0.81532758474349964 0.83590260148048412 -1.0565662384033201 0.61467748880386364 1.1014977693557741 -1.4050152301788328 -0.8517460525035857 1.1481106877326968 0.94826093316078197 1.0685133337974551 -1.4079877138137815 -0.85161289572715748 1.0000000180025095e-35 -1.1751343607902525 0.14754065871238711 -1.2645795941352842 -1.002554655075073 1.0000000180025095e-35 -0.3064159601926803 1.0896095037460329 0.95228445529937755 -1.531328499317169 -0.79003846645355214 0.28937353193759924 -1.0464699268341062 0.89106717705726635 0.98861172795295726 0.98493981361389171 -0.21172950416803357 -1.6359440088272093 0.67815545201301586 1.0410592555999758 1.1723946332931521 -1.9189276099205015 -0.76721048355102528 1.0000000180025095e-35 -1.1456528306007383 1.0060638189315798
decision_type=2 2 2 2 2 2 2 2 2 2 2 2 2 2 2 2 2 2 2 2 2 2 2 2 2 2 2 2 2 2 2 2 2 2 2 2 2 2 2 2 2 2 2 2 2 2 2 2 2 2 2 2 2
left_child=1 2 3 4 5 -1 -6 35 17 30 13 12 -10 -11 16 -16 -5 38 -12 -13 40 22 47 29 25 -24 -26 28 -25 32 39 -32 -23 -19 -29 36 41 -38 -9 -4 46 -3 43 -37 -44 50 -2 -22 49 -47 51 -42 -52
right_child=20 7 9 14 6 -7 -8 8 11 10 18 19 -14 -15 15 -17 -18 33 -20 -21 21 23 24 27 26 -27 -28 34 -30 -31 31 -33 -34 -35 -36 42 37 -39 -40 -41 45 -43 44 -45 -46 48 -48 -49 -50 -51 52 -53 -54
leaf_value=0.05089179491574123 0.017717678273772606 -0.069175382513254655 0.2192892251951411 -0.11041367771116191 0.037391344612293091 0.034198449693841358 -0.032744041041643114 -0.063492238101197862 0.011432590201770593 0.0085819886351880589 0.11782591950604085 -0.059353808683428988 0.071621571568043579 -0.089658983950929957 0.13567277016561824 -0.027386708373873733 -0.004310341682538887 0.095935384448821465 -0.10776312038482268 0.0070815265673839448 0.13944945719483121 -0.068981809050780579 0.063818847781278748 0.013306311015469635 0.0050146511825611174 -0.0039513005600771796 -0.056942203544478348 0.20622383009695097 -0.055552703106122259 0.16391831813056745 -0.059800545028165564 -6.0060135004698553e-05 0.052302492600346064 -0.13944662892255397 -0.065524876904880167 -0.086198591618564871 -0.093527201168579654 0.047338330039109602 -0.1522467400873489 -0.08331305578550173 -0.045400241312692352 0.15874610071290443 -0.060755597930581634 0.18666294544926934 -0.12462172535561129 -0.16662381541282448 -0.23799699281260511 0.30799009368638602 0.10354515474985666 -0.012835255873892303 0.070000649031141601 0.1379820300395295 0.12776976532788659
leaf_weight=33938.686627447605 11.308462515473368 9.4002704769372922 5.4863571673631659 183.59391102381051 1226.6967159472406 39731.851098394021 1541.2621596306562 144.37221971899271 5651.2883290424943 2344.0222101360559 328.00823056697845 631.76048114150763 920.00418831408024 227.50303313322365 255.78285633400083 256.2170043848455 2638.6471761707217 60.282052561640739 30.177800595760345 640.51506201922894 10.330448701977732 698.46198261529207 904.48831671476364 1961.8922630250454 3620.0343803390861 892.16042803227901 397.80318487435579 8.6594992727041227 235.39652047306299 15.141731098294256 525.04794520884752 663.79003582894802 48.440921351313591 14.986797600984572 327.16023948043585 32.183754116296768 104.14123276621103 50.176681995391846 149.16221763938665 327.03254477679729 10.902185648679735 30.038767024874687 158.47968589514494 12.515923798084257 181.43641775846481 5.8183651566505441 5.4998061805963507 20.488926336169243 6.9416355788707724 4.6792657151818284 32.294937834143639 15.533490523695944 109.88098710775375
leaf_count=65087 24 40 5 1890 4214 85647 6880 610 20259 10018 984 3253 3527 1248 666 1227 10674 88 170 2508 31 3922 2715 8199 14733 3521 1994 37 1161 23 2685 2867 121 48 2114 174 499 163 847 1512 37 49 888 20 1010 25 23 24 11 16 43 23 90
internal_value=0 0.0332042 0.0362729 0.0385772 0.0403117 0.0418888 -0.00166163 0.0038032 0.0084454 -0.00502497 0.0119857 0.0124356 0.0198593 -0.000109398 -0.00118735 0.0540739 -0.0112126 -0.0764165 0.0988196 -0.0259076 0.00258917 0.000838284 0.0098285 -0.0151096 0.00854755 0.0301663 -0.00111965 -0.00261446 0.00592941 -0.0566444 -0.0377827 -0.0264443 -0.0611158 0.0490684 -0.0585175 -0.062112 -0.0167555 -0.0477246 -0.108594 -0.0783203 0.081481 0.104421 -0.0849611 -0.00979728 -0.0948453 0.0948007 -0.0659543 0.251496 -0.0178198 -0.0980733 0.106449 0.0623544 0.114648
internal_weight=0 93014.5 84223.8 79772.7 76438.5 73670.5 2767.96 8790.74 8212.37 4451.07 2929.71 7843.57 6571.29 2571.53 3334.24 512 2822.24 368.803 358.186 1272.28 9343.32 9140.46 5845.31 3295.15 5814.49 1796.65 4017.84 2533.11 2197.29 762.045 1521.36 1188.84 746.903 75.2689 335.82 578.373 193.757 154.318 293.534 332.519 202.859 39.439 384.616 44.6997 339.916 186.051 16.8083 30.8194 17.4393 10.4976 168.612 26.4357 142.176
internal_count=268644 229757 195774 176285 161828 150734 11094 33983 31140 19489 12420 29547 23786 11266 14457 1893 12564 1593 1154 5761 38887 38595 23018 15577 22963 6236 16727 11511 9360 4066 7069 5552 4043 136 2151 2843 751 662 1457 1517 292 89 2092 194 1898 245 47 55 52 41 193 60 133
is_linear=0
shrinkage=0.1


Tree=17
num_leaves=63
num_cat=0
split_feature=31 128 49 114 129 109 118 69 110 101 134 42 106 74 130 71 99 100 43 105 75 0 72 51 13 29 30 98 26 113 68 101 31 112 94 73 123 127 128 97 127 62 97 55 31 112 114 52 61 72 38 38 45 105 127 31 126 106 28 45 118 136
split_gain=690.133 650.762 517.817 478.832 440.248 469.112 907.187 459.838 404.385 329.695 620.638 620.574 364.324 351.26 353.888 295.114 267.304 232.139 460.647 222.711 186.593 242.214 178.86 229.395 215.68 170.479 164.008 271.328 156.912 143.309 142.193 141.808 128.499 127.652 125.098 147.628 125.017 123.924 116.642 95.9609 134.973 92.4063 76.9077 75.6699 68.3036 57.7598 63.1115 55.6706 55.1895 55.1687 51.5277 47.165 43.3322 42.8177 39.0412 33.5667 31.2669 1.62828 1.60689 0.226612 0.138076 0.102811
