tree
version=v4
num_class=1
num_tree_per_iteration=1
label_index=0
max_feature_idx=136
objective=binary sigmoid:1
feature_names=Column_0 Column_1 Column_2 Column_3 Column_4 Column_5 Column_6 Column_7 Column_8 Column_9 Column_10 Column_11 Column_12 Column_13 Column_14 Column_15 Column_16 Column_17 Column_18 Column_19 Column_20 Column_21 Column_22 Column_23 Column_24 Column_25 Column_26 Column_27 Column_28 Column_29 Column_30 Column_31 Column_32 Column_33 Column_34 Column_35 Column_36 Column_37 Column_38 Column_39 Column_40 Column_41 Column_42 Column_43 Column_44 Column_45 Column_46 Column_47 Column_48 Column_49 Column_50 Column_51 Column_52 Column_53 Column_54 Column_55 Column_56 Column_57 Column_58 Column_59 Column_60 Column_61 Column_62 Column_63 Column_64 Column_65 Column_66 Column_67 Column_68 Column_69 Column_70 Column_71 Column_72 Column_73 Column_74 Column_75 Column_76 Column_77 Column_78 Column_79 Column_80 Column_81 Column_82 Column_83 Column_84 Column_85 Column_86 Column_87 Column_88 Column_89 Column_90 Column_91 Column_92 Column_93 Column_94 Column_95 Column_96 Column_97 Column_98 Column_99 Column_100 Column_101 Column_102 Column_103 Column_104 Column_105 Column_106 Column_107 Column_108 Column_109 Column_110 Column_111 Column_112 Column_113 Column_114 Column_115 Column_116 Column_117 Column_118 Column_119 Column_120 Column_121 Column_122 Column_123 Column_124 Column_125 Column_126 Column_127 Column_128 Column_129 Column_130 Column_131 Column_132 Column_133 Column_134 Column_135 Column_136
feature_infos=[-1.7391834259033203:2.1873281002044678] [-1.6478695869445801:2.0962586402893066] [-1.5647803544998169:2.0136351585388184] [-1.4899148941040039:1.9394575357437134] [-1.4232741594314575:1.8737261295318604] [-1.3648576736450195:1.8164401054382324] [-1.3241651058197021:1.7937201261520386] [-1.2945797443389893:1.9274762868881226] [-1.2603650093078613:2.0758624076843262] [-1.2166562080383301:2.0974209308624268] [-1.160443902015686:2.0118343830108643] [-1.0890326499938965:2.073509693145752] [-1.0032846927642822:2.1457490921020508] [-0.90335136651992798:2.2142360210418701] [-0.79458039999008179:2.2825961112976074] [-0.68207132816314697:2.3805651664733887] [-0.63881856203079224:2.4481546878814697] [-0.65620064735412598:2.4658794403076172] [-0.66012513637542725:2.4605560302734375] [-0.66667592525482178:2.4363620281219482] [-0.8555336594581604:2.3619022369384766] [-0.86833834648132324:2.2960772514343262] [-0.86565589904785156:2.1994528770446777] [-0.6943366527557373:2.1787192821502686] [-0.6794590950012207:2.1696581840515137] [-0.84136444330215454:2.0883691310882568] [-1.1103739738464355:1.9448176622390747] [-1.6305375099182129:1.7314887046813965] [-1.9454965591430664:1.5598906278610229] [-2.1252865791320801:1.3462176322937012] [-2.4022552967071533:1.1459542512893677] [-2.6850478649139404:1.0691677331924438] [-2.6397361755371094:1.0156075954437256] [-2.3245775699615479:0.99214470386505127] [-1.6179424524307251:0.99480384588241577] [-0.83407443761825562:1.0987448692321777] [-0.66409575939178467:1.3781088590621948] [-0.67049169540405273:1.4357191324234009] [-0.67192721366882324:1.5244829654693604] [-0.67710685729980469:1.427788257598877] [-0.67358070611953735:1.3506048917770386] [-0.77278417348861694:1.3033223152160645] [-0.78214722871780396:1.4334096908569336] [-0.67822211980819702:1.6771683692932129] [-0.67593681812286377:1.8418123722076416] [-0.67998087406158447:1.9795904159545898] [-0.67735743522644043:1.8671952486038208] [-0.68056988716125488:1.7601110935211182] [-0.67851173877716064:1.8138210773468018] [-0.68057990074157715:2.0951991081237793] [-0.67868822813034058:2.3221406936645508] [-0.68411111831665039:2.3866791725158691] [-0.6882440447807312:2.3278176784515381] [-0.69760811328887939:2.41339111328125] [-0.68820065259933472:2.0181429386138916] [-0.66555494070053101:1.5453798770904541] [-0.62813276052474976:1.3776267766952515] [-0.60256755352020264:1.3641012907028198] [-0.88048118352890015:1.3483799695968628] [-0.69688475131988525:1.3266682624816895] [-0.58480948209762573:1.3006186485290527] [-0.60407185554504395:1.6912268400192261] [-0.62945538759231567:1.8743280172348022] [-0.65896445512771606:1.7138135433197021] [-0.93073725700378418:1.3433690071105957] [-1.1305865049362183:1.0574370622634888] [-1.2290370464324951:0.96944224834442139] [-1.5110090970993042:0.85952615737915039] [-1.6584281921386719:0.72384035587310791] [-1.8893227577209473:0.56993401050567627] [-1.6504355669021606:0.41874155402183533] [-1.7446892261505127:0.28619131445884705] [-1.674402117729187:0.18248416483402252] [-1.5101885795593262:0.10744565725326538] [-1.4517455101013184:0.2961885929107666] [-1.6804615259170532:0.9557119607925415] [-1.8599822521209717:1.4404212236404419] [-2.0371255874633789:1.2026444673538208] [-2.1728529930114746:1.1285310983657837] [-2.2573421001434326:0.92254304885864258] [-2.3058340549468994:0.73609095811843872] [-2.3315773010253906:0.27998179197311401] [-2.3403120040893555:0.3133491575717926] [-2.3343968391418457:0.36238053441047668] [-2.3124566078186035:0.5232703685760498] [-2.2730567455291748:0.45226269960403442] [-2.2140905857086182:0.47906926274299622] [-2.1362462043762207:0.50354379415512085] [-2.0426793098449707:0.67684948444366455] [-1.9374580383300781:0.53568804264068604] [-1.8240519762039185:0.64831268787384033] [-1.8478662967681885:1.0678037405014038] [-1.6520191431045532:1.4168777465820312] [-1.5958865880966187:1.6290324926376343] [-1.5394163131713867:1.6652539968490601] [-1.4922878742218018:1.6182962656021118] [-1.4526540040969849:1.5607637166976929] [-1.4226374626159668:1.5597559213638306] [-1.4104764461517334:1.5643377304077148] [-1.5819015502929688:1.563044548034668] [-1.8387991189956665:1.5685317516326904] [-2.1858587265014648:1.5680602788925171] [-2.4072320461273193:1.5700795650482178] [-2.3072562217712402:1.5650482177734375] [-1.9470208883285522:1.5674868822097778] [-1.4475361108779907:1.5623446702957153] [-1.2213733196258545:1.563502311706543] [-1.117332935333252:1.561995267868042] [-1.168958306312561:1.5723429918289185] [-1.225186824798584:1.5757462978363037] [-1.369315505027771:1.5835809707641602] [-1.6010570526123047:1.5861003398895264] [-2.1400496959686279:1.5904537439346313] [-2.4733853340148926:1.5886306762695312] [-2.4289262294769287:1.5883719921112061] [-1.8389110565185547:1.5826603174209595] [-1.6131480932235718:1.5835590362548828] [-1.6321159601211548:1.5943964719772339] [-1.6862318515777588:2.4495923519134521] [-1.7458088397979736:2.6529664993286133] [-1.820858359336853:2.5047237873077393] [-1.9280952215194702:1.7488086223602295] [-2.15055251121521:1.5763181447982788] [-2.3786196708679199:1.5743108987808228] [-2.6580204963684082:1.8138364553451538] [-2.9761693477630615:2.1341862678527832] [-3.3559722900390625:2.598928689956665] [-3.8531808853149414:3.4483489990234375] [0:1] [0:1] [0:1] [0:1] [0:1] [0:1] [0:1] [0:1] [0:1]
tree_sizes=6383 6317 6870 6037 6328 6336 6899 6261 6315 6908 5822 6839 6904 6824 6011 6937 6693 6951 6932 6329 6698 6914 6674 6690 6936 6881 6591 5931 6730 6195 5951 6974 6389 6691 6384 5942 5847 6786 5709 6943 6185 6702 5235 6952 6318 5745 5579 6060 6510 5905 6956 6919 6804 5855 4326 6309 6472 4802 6266 6858 5669 5029 6937 6099 6002 4591 5168 6609 5150 6835 6597 6967 4404 4586 6815 6624 6952 4780 6862 5361 5002 5895 6153 6607 6710 6599 5088 6852 5119 4568 5833 5514 4516 4231 6948 6504 6190 6762 5191 6938 6637 6848 6570 6924 4121 5116 5401 6832 6977 6816 6533 6573 6754 5906 6941 6951 6816 5359 5026 4460 5299 6625 4838 6936 6171 6809 5754 6471 6629 6843 6822 6116 5555 6777 6377 4783 6641 6926 6392 6707 6913 5694 4863 6711 6292 6926 6819 6730 5891 4934 5776 4817 5281 6950 6279 5563 5421 6848 5382 6207 6808 6860 5163 6914 6931 6768 6257 6924 6832 6812 5530 5832 6550 5862 6940 5516 6331 6285 6682 6314 6335 6974 6866 5219 4851 5648 6151 6456 6944 5950 6177 6928 6813 4081 6556 6520 6146 6521 6496 6678

Tree=0
num_leaves=59
num_cat=0
split_feature=32 130 131 128 30 129 136 109 105 113 32 72 102 133 31 35 0 110 90 0 69 114 76 37 71 119 94 56 69 31 54 119 70 71 55 80 108 76 85 29 74 23 107 125 101 106 112 78 104 76 94 111 106 125 74 17 0 0
split_gain=57623.5 20374.7 20503.2 15491.5 15256.4 11899.8 7538.69 5452.73 2657.31 1530.52 1297.62 1221.78 1070.26 991.924 950.799 786.771 648.793 1009.2 748.555 582.654 569.121 547.071 679.866 541.962 1239.28 541.909 496.304 668.025 443.428 438.351 359.952 302.996 261.198 258.277 217.91 206.658 228.942 202.115 253.469 191.538 172.776 150.824 144.851 130.936 130.771 120.19 112.776 200.566 107.524 104.218 54.3989 53.6026 52.8896 48.417 5.70788 1.13687e-13 5.68434e-14 7.10543e-15
threshold=0.9517374336719514 1.0000000180025095e-35 1.0000000180025095e-35 1.0000000180025095e-35 1.0865094065666201 1.0000000180025095e-35 1.0000000180025095e-35 -1.0299425125122068 -0.9495008885860442 -0.86472383141517628 0.96284466981887828 -0.63262301683425892 -0.81911844015121449 1.0000000180025095e-35 1.0073238015174868 0.94016218185424816 0.60151159763336193 -0.90903171896934498 -1.1434047818183897 0.46876963973045355 -0.057171471416950219 -0.98662880063056935 -1.3109723329544065 0.98585984110832225 -0.36854697763919825 -0.91681787371635426 -1.0850082039833067 0.94731882214546215 -0.064761381596326814 1.0053947567939761 1.0633946061134341 -1.2598908543586729 -0.27334238588809961 -0.60364526510238636 0.98881277441978466 -1.3391454219818113 -0.86797121167182911 -1.173864960670471 -1.299156069755554 1.0568636655807497 -1.0044781565666197 1.3206532001495364 -0.96010336279869068 -1.1565731763839719 -0.91482385993003834 -0.82421475648879994 -1.1576979160308836 -0.89436575770378102 -0.80244114995002735 -1.2181877493858335 -0.98277312517166127 -1.0867185592651365 -0.84703892469406117 -2.1373980045318599 -0.95154103636741627 1.2491360902786257 0.65976959466934215 0.63129442930221569
decision_type=2 2 2 2 2 2 2 2 2 2 2 2 2 2 2 2 2 2 2 2 2 2 2 2 2 2 2 2 2 2 2 2 2 2 2 2 2 2 2 2 2 2 2 2 2 2 2 2 2 2 2 2 2 2 2 2 2 2
left_child=1 2 3 4 5 -1 7 13 -6 29 11 12 -9 46 15 26 17 30 25 37 -13 48 -23 24 -12 -19 49 -28 31 40 32 -15 -3 -31 -20 36 -21 54 -39 -25 -4 -37 -30 44 -11 -32 53 -48 -5 -8 56 -17 -53 -2 -16 -45 57 -18
right_child=6 16 9 21 8 -7 14 10 -10 43 23 20 -14 28 19 51 50 18 34 35 -22 22 -24 39 -26 -27 27 -29 42 33 45 -33 -34 -35 -36 41 -38 38 -40 -41 -42 -43 -44 55 -46 -47 47 -49 -50 -51 -52 52 -54 -55 -56 -57 -58 -59
leaf_value=-1.4587349828001199 -1.7410670123960923 -1.8896559243345246 -1.8110029972474431 -1.9972517435665427 -1.5105057907386188 -1.8098925832957682 -1.5496664369724715 -1.8270364155061976 -1.755574509840989 -1.6276558105226062 -1.8811317570052373 -1.7884689355290115 -2.0012727171558424 -1.2939426635179663 -2.0719404298563258 -1.5078006655308185 -2.0719404298563258 -1.8575969624090498 -1.7640772299005365 -2.0719404298563258 -1.705203476679384 -2.0719404298563258 -1.7872914900558396 -1.8720447916828671 -1.7091339756801542 -1.6635212781911739 -1.6967615954064716 -1.5789744758615503 -2.0146585858021284 -2.047774307274342 -2.0311184853045789 -1.7936673476244422 -1.6932988176795492 -1.8512597366906414 -1.4651650094996169 -1.2701630773693773 -1.5311432945545096 -1.4446204196488641 -1.845541679021736 -1.9946903331386234 -1.7356090142117624 -1.5978410689162947 -1.4746537853081056 -2.0719404298563258 -1.9826979646949991 -1.7888454043578033 -1.7849603900756392 -1.2534256884297863 -1.8430819420625342 -1.1716745164583657 -1.6778872942969243 -2.0082991365318841 -1.6818080895051999 -2.0719404298563258 -1.9745260522984946 -2.0719404298563258 -2.0719404298563258 -2.0719404298563258
leaf_weight=27421.546269148588 6.4229049086570766 715.05621090531349 613.54181799292564 322.47511857748032 542.55199691653252 1000.2147244811058 9.4944924712181074 2478.8887282907963 2398.125415802002 12.755597978830336 2884.6625917851925 3423.6021367907524 410.99348416924477 259.50075432658195 34.796520262956619 2.5113971531391135 13.658447206020357 465.99469792842865 32.213830649852753 13.658447206020357 1079.7650101482868 97.235136061906815 612.20609810948372 180.73363071680069 490.08434721827507 208.13602775335312 655.18396455049515 1816.3613927960396 12.366736978292467 87.939986646175385 225.59100475907326 12.728315174579619 74.834828108549118 279.27176380157471 100.40205135941505 26.50571870803833 18.338582694530487 16.938472092151642 228.41306871175766 430.99371871352196 602.38023361563683 29.883588016033173 8.3020883500576002 239.89002910256386 55.564651697874069 22.520725965499878 39.494844287633896 8.6545722782611829 52.620383888483047 31.474678248167038 3.5954008996486655 55.65486353635788 5.4473015367984763 14.200449079275129 7.2719193696975699 20.704471558332443 114.03719413280487 9.105631470680235
leaf_count=108552 41 5477 4285 2768 2389 6976 45 17654 15607 69 21884 23248 3542 660 321 11 126 3441 212 126 6560 897 4151 1357 2994 1190 3933 9066 108 793 2002 87 447 2047 403 62 84 65 1663 3690 3817 154 34 2213 470 153 267 19 382 47 21 483 32 131 61 191 1052 84
internal_value=-1.95782 -1.54313 -1.52513 -1.50638 -1.49353 -1.47109 -1.7778 -1.81372 -1.71036 -1.84335 -1.82587 -1.80107 -1.85182 -1.43146 -1.63495 -1.61327 -1.85462 -1.83885 -1.75495 -1.78354 -1.7685 -1.87795 -1.82631 -1.87185 -1.85615 -1.79768 -1.60448 -1.6102 -1.35121 -1.80257 -1.90406 -1.31731 -1.87105 -1.89832 -1.53777 -1.559 -1.76199 -1.85259 -1.81786 -1.95845 -1.77365 -1.44382 -1.79775 -2.03963 -1.91641 -2.00913 -1.77323 -1.68942 -1.97562 -1.25927 -2.06185 -1.96058 -1.97919 -1.96889 -2.0551 -2.07194 -2.07194 -2.07194
internal_weight=0 36344.2 34359 32447 31362.4 28421.8 14693.3 11741.4 2940.68 1912.05 11379.7 7393.25 2889.88 361.671 2951.93 2576.13 1985.15 1844.75 806.747 375.806 4503.37 1084.54 709.441 3986.47 3374.75 674.131 2512.51 2471.55 292.898 1583.13 1038 272.229 789.891 367.212 132.616 88.3863 31.997 287.42 245.352 611.727 1215.92 56.3893 20.6688 328.915 68.3202 248.112 68.7728 48.1494 375.096 40.9692 140.397 63.6136 61.1022 20.6234 42.0684 260.595 136.801 22.7641
internal_count=268644 170215 155607 141722 133524 115528 98429 82276 17996 13885 80929 51004 21196 1347 16153 13617 14608 13325 5246 2536 29808 8198 5048 29925 24878 4631 13091 12999 889 10942 8079 747 5924 2840 615 426 210 2110 1728 5047 8102 216 142 2943 539 2155 458 286 3150 92 1283 526 515 172 382 2404 1262 210
is_linear=0
shrinkage=1


Tree=1
num_leaves=58
num_cat=0
split_feature=106 31 130 56 136 30 110 129 77 115 31 134 80 104 108 130 98 71 30 30 34 134 32 133 136 87 108 40 71 48 100 95 121 121 29 6 110 52 27 111 71 34 7 114 125 31 53 46 73 74 34 76 61 129 32 32 107
split_gain=22198.3 10967.8 5503.99 4760.83 5624 4601.35 4357.3 3845.43 2547.89 2111.41 2152.67 1600.72 1286.1 969.814 911.779 860.021 701.531 625.037 580.338 459.649 446.116 382.157 614.978 374.948 330.299 333.562 323.871 288.83 224.091 224.02 222.752 201.087 158.794 158.556 132.61 131.554 115.842 102.442 172.609 93.4098 81.3799 79.4465 73.9525 60.245 136.747 58.8884 28.8288 28.1735 20.1462 15.8594 13.1937 7.32677 6.88518 0.0177015 0.00252797 0.00132144 1.10166e-05
threshold=-0.86207905411720265 1.0052526593208315 1.0000000180025095e-35 1.0395473241806032 1.0000000180025095e-35 1.0930925011634829 -1.2107251286506651 1.0000000180025095e-35 -1.3035578131675718 -0.82357311248779286 0.99252620339393627 1.0000000180025095e-35 -1.0295331478118894 -0.94282910227775563 -0.8890680968761443 1.0000000180025095e-35 -0.82340690493583668 -0.67752668261528004 1.0688300132751467 1.0981279611587527 0.92464628815650951 1.0000000180025095e-35 0.95672655105590831 1.0000000180025095e-35 1.0000000180025095e-35 -1.2963731884956358 -0.91942811012268055 1.0202881693840029 -0.25032411515712732 1.2396256327629092 -0.77368119359016407 -0.99977958202362049 -0.94201055169105519 -1.4067894816398618 1.192101836204529 0.56819561123847973 -0.87847325205802906 1.1182410120964053 1.1543530821800234 -1.0726664662361143 -0.42818225920200342 0.8634488880634309 0.41945052146911627 -0.88945916295051564 -1.2729786634445188 1.0135497450828554 1.1166814565658572 1.0402911901474001 -0.6107896864414214 -0.73504856228828419 0.9482889473438264 -1.1359038352966306 0.75636547803878795 1.0000000180025095e-35 0.96284466981887828 0.9517374336719514 -0.8773139715194701
decision_type=2 2 2 2 2 2 2 2 2 2 2 2 2 2 2 2 2 2 2 2 2 2 2 2 2 2 2 2 2 2 2 2 2 2 2 2 2 2 2 2 2 2 2 2 2 2 2 2 2 2 2 2 2 2 2 2 2
left_child=1 2 5 4 9 6 28 -8 43 10 11 -2 21 17 30 20 -12 -7 -16 -15 23 24 31 29 25 -3 37 -26 -1 -5 -10 -23 -11 42 36 -24 -28 38 -4 40 -35 -17 46 44 -6 -41 -14 -44 52 54 -39 -36 -43 -34 -22 -45 -25
right_child=3 12 26 15 8 13 7 -9 14 32 16 -13 33 19 18 41 -18 -19 -20 -21 49 22 35 56 27 -27 34 -29 -30 -31 -32 -33 53 39 51 -37 -38 50 -40 45 -42 48 47 55 -46 -47 -48 -49 -50 -51 -52 -53 -54 -55 -56 -57 -58
leaf_value=0.078972301258714669 0.15261333981302869 0.34162161822248005 0.44754829110927519 0.35383600943209298 -0.087507094067847319 0.084819277631160095 0.31169111262448268 0.045565807115684878 0.17575675695380094 0.64377846051782084 0.10157113754886973 0.3258350063312152 -0.12522647010627522 0.13908631550869568 0.28469523522289703 0.36428655158241302 0.0095218693277622779 0.35224728809325723 0.084176405753254108 0.011523014488005698 -0.11763635031770059 0.43619830084809874 0.21628878499812859 -0.12325302317893012 0.18013029889545978 0.061753079597912201 0.099704563967497412 -0.09987182465098117 -0.094952396350491852 0.46018705293303985 -0.065231701289843708 0.22721512287752527 -0.11270195031407873 0.21900255058892487 -0.026462597755671294 -0.021544466670348775 0.30196709053885284 -0.10298072064724402 -0.0037685645849787823 0.40303369301703462 -0.12326671016636429 -6.5228712709827549e-05 -0.12236368935414742 -0.12325302317893012 0.45008067891663739 0.088558900925112011 0.2707134287321587 0.40044759597296509 0.21939266238181088 0.14608691088005452 0.10429110680862566 -0.1143262078791708 -0.11435156033754167 -0.11636230258501234 -0.11501064765698432 -0.12114570084806041 -0.12303546800032804
leaf_weight=105.12366831302643 3803.2011389657855 43.339207299053669 8.7755983844399434 326.82165027409792 20.208850175142292 130.90377232432365 37941.287383653224 550.84915055334568 897.32948599755764 2.7923821657896033 9243.901693969965 620.50979486107826 3.7247350290417662 624.07704672217369 3426.9192457273602 4.4177892953157416 909.40762367844582 262.95325124263763 150.6811421662569 516.04646307975054 10.793238215148454 76.052338011562824 29.885746896266937 9.9494174867868406 443.81044035404921 2450.689595721662 418.12247634679079 40.174874387681484 250.85896880924702 502.73335014283657 40.068286493420601 116.68524454534054 406.98285654932261 155.61077488958836 16.08289247751236 104.86108420044184 30.37316832691431 124.81133533269167 246.78365340828896 43.27765966206789 7.2713490501046172 6.2253953367471686 1.039126694202422 180.77326233685017 6.1783208549022666 6.9047156646847716 3.6321996375918388 127.78946822136641 2.119692236185073 2.6709017679095259 3.1485243141651145 23.153883270919323 34.39946560561657 13.655157975852488 5.5533874183893195 3.025482863187789 3.0384277403354636
leaf_count=506 21069 195 27 816 129 695 113106 3776 4158 4 58358 1727 24 3569 11975 18 6791 717 741 3508 85 143 172 65 2126 16556 2848 315 1582 776 298 548 4078 606 134 793 130 1139 1873 114 50 53 7 1181 10 45 17 211 13 14 18 213 319 113 49 21 20
internal_value=0 0.27788 0.292589 0.152576 0.142266 0.297954 0.304662 0.307883 0.237403 0.112298 0.118692 0.176911 0.111845 0.128082 0.253247 0.376369 0.0933265 0.263364 0.27625 0.0813482 0.39913 0.0925627 0.195097 0.409941 0.0812873 0.0666164 0.0439143 0.156888 -0.0435915 0.418288 0.165456 0.309678 -0.107831 0.294343 0.0979794 0.031205 0.113402 -0.0248418 0.0117291 0.240475 0.203723 -0.0394309 0.378621 -0.102933 0.0383643 0.359764 0.0702534 0.396231 -0.0811564 -0.0798312 -0.0978807 -0.0783115 -0.0968382 -0.112821 -0.116744 -0.123218 -0.123202
internal_weight=0 44908.1 41253.4 20634.4 19725.6 40382.1 38848.1 38492.1 4725.18 15000.5 14577 4423.71 3654.75 1533.98 4515 908.723 10153.3 393.857 3577.6 1140.12 861.56 3305.5 327.484 842.543 2978.01 2494.03 871.252 483.985 355.983 829.555 937.398 192.738 423.43 349.25 487.732 134.747 448.496 383.519 255.559 213.064 162.882 47.1623 136.186 210.186 26.3872 50.1824 7.35693 128.829 42.7446 19.0175 127.96 39.2368 40.6249 420.638 16.3466 183.799 12.9878
internal_count=268644 155763 133841 112881 110653 127459 118970 116882 18513 92140 87945 22796 21922 8489 17172 2228 65149 1412 12716 7077 1825 20848 1656 1677 19192 16751 6382 2441 2088 1592 4456 691 4195 1074 3325 965 2978 3057 1900 815 656 403 259 1341 139 159 41 218 385 148 1157 347 372 4191 134 1202 85
is_linear=0
shrinkage=0.1


Tree=2
num_leaves=63
num_cat=0
split_feature=32 51 130 131 128 30 136 84 115 114 109 84 130 104 110 72 122 129 106 37 57 69 95 70 101 6 64 102 41 76 54 123 117 30 102 27 70 0 133 3 71 71 42 106 94 53 77 53 118 23 105 62 107 37 114 117 97 109 112 136 23 106
split_gain=13333.1 5997.07 4132.53 4385.8 3854.9 3339.07 1998.52 1326.37 702.577 625.315 623.467 750.905 748.817 632.4 555.927 499.147 387.183 372.716 356.322 369.491 521.352 426.378 322.673 309.254 281.043 264.649 250.924 224.075 214.298 203.889 200.564 190.815 169.968 164.348 161.226 151.767 139.884 124.022 112.769 107.842 103.454 102.245 95.7758 94.728 89.3737 82.9057 76.6461 76.3888 63.3284 52.1907 50.0995 41.7542 38.4431 31.8517 31.3401 46.1942 34.6782 15.7398 9.63462 1.02416 0.690886 0.161503
threshold=0.95345813035964977 0.79195857048034679 1.0000000180025095e-35 1.0000000180025095e-35 1.0000000180025095e-35 1.089479446411133 1.0000000180025095e-35 -0.96960848569869984 -0.94635695219039906 -0.93210721015930165 -0.89233770966529835 -1.2873581647872923 1.0000000180025095e-35 -0.82068783044815052 -0.90903171896934498 -0.61120438575744618 -1.1999223232269285 1.0000000180025095e-35 -0.8405134081840514 0.96481192111969005 0.91646003723144542 -0.075949050486087785 -1.0567637681961057 -0.21001853048801419 -0.78141748905181874 0.62411978840827953 0.43916946649551397 -0.80205997824668873 1.0059939622879031 -1.2583971023559568 1.06415730714798 -1.2029533386230467 -0.95291486382484425 1.0939417481422427 -0.77466794848442067 1.5138677954673769 -0.27334238588809961 0.44442750513553625 1.0000000180025095e-35 0.84290879964828502 -0.45305605232715601 -0.68819510936737049 1.1145128607749941 -0.82219168543815602 -0.94317844510078419 1.054898262023926 -1.0613340735435484 1.0628905296325686 -0.87572407722473133 1.233176112174988 -0.83141219615936268 0.60210278630256664 -0.97818520665168751 0.93647614121437084 -0.91469347476959217 -0.90377181768417347 -0.99399408698081959 -0.88869905471801747 -0.95575767755508412 1.0000000180025095e-35 1.6935310959815981 -0.86207905411720265
decision_type=2 2 2 2 2 2 2 2 2 2 2 2 2 2 2 2 2 2 2 2 2 2 2 2 2 2 2 2 2 2 2 2 2 2 2 2 2 2 2 2 2 2 2 2 2 2 2 2 2 2 2 2 2 2 2 2 2 2 2 2 2 2
left_child=1 9 3 4 5 -3 7 10 -6 35 12 15 13 -2 30 -12 45 -13 19 20 21 -8 -18 -14 -22 32 38 51 31 48 36 -27 37 -31 -29 44 -4 -20 47 41 -34 -37 52 -32 46 -16 -1 -9 -5 -44 -30 -21 -28 -40 55 56 -11 -57 -46 60 -56 -61
right_child=6 2 14 29 8 -7 18 26 -10 54 11 17 23 -15 16 -17 22 -19 25 27 24 -23 -24 -25 -26 28 42 34 50 33 43 -33 40 -35 -36 39 -38 -39 53 -41 -42 -43 49 -45 58 -47 -48 -49 -50 -51 -52 -53 -54 -55 59 57 -58 -59 -60 61 -62 -63
leaf_value=0.091353040440686331 0.10283400340329492 0.23196944680528919 0.042224919529600675 -0.080305873042445658 0.00048798686214445868 0.12173980129393627 0.1176289718519304 0.20438255967315083 0.14968696620626237 0.17933775773300284 0.062491582073396459 0.31733328121736637 -0.033565627836477097 0.032517087164696937 0.064120288113206053 0.12292468938919304 0.20907141817688563 0.045644762211750012 0.25513121154778412 0.20193761231151264 0.22484553087780848 0.36068945429385435 0.073453898705254747 0.11074226130889678 -0.050931685209326422 0.35913364236025824 -0.13021203997549802 0.13348622627635429 0.18170772523874834 0.094966779599701817 -0.062581671644019107 0.018216021541888512 0.38082667546821097 -0.026228107114048823 -0.063869939219075272 -0.064626768195484963 0.16023827417521619 0.49185596133517451 0.24109287394862569 0.33821411005952062 -0.050106935737318961 0.26538608243603373 0.11059322158944923 0.14592274055232388 -0.13018782493346034 0.28260156068625542 0.29309703575350066 -0.12032940379197508 0.051236496701514415 0.27446849235798315 -0.10805875000696606 -0.11433396928980132 0.067717006598942392 0.32282593811607585 -0.11145223499032592 0.029972853550428454 -0.10528720811066 0.24337836352367115 0.066220411983426458 -0.13175741314103115 -0.12942637996233722 -0.12082459607430321
leaf_weight=28.59225969016552 3170.239982932806 49100.427469350398 871.37648472934961 96.428042471408844 860.72179411351681 2911.0017921477556 1594.6969246715307 51.558717407286167 498.36366160959005 4.6182893067598334 2538.1328735128045 232.39318576455116 1032.6708664223552 2143.9730942472816 19.296312674880028 2961.299915201962 230.16051486134529 64.5098966807127 609.84104620665312 4.4325166493654242 1126.311673797667 75.592641651630402 737.93827028572559 173.44497935473919 38.207133457064629 36.608638435602188 13.501699581742285 228.34221440553665 6.9265674650669089 2018.8771478831768 234.20680436491966 29.767444677650928 6.97098484635353 118.45594245195389 50.558779999613762 76.457662396132946 113.52539248019457 22.965032547712326 58.180011615157127 9.0698231160640699 27.73766502737999 10.70227003097534 39.273906588554382 24.024682678282261 8.1664509028196317 173.82359523326159 55.164805829524994 8.4293939471244794 58.987071268260479 38.471169851720333 43.058916322886944 71.645684383809566 35.917628571391106 264.1972814053297 374.75469209998846 8.848215237259863 58.551874384284019 5.6713288575410834 3.5979078561067572 14.817674607038496 22.679204761981964 153.32778322696686
leaf_count=102 17691 122594 6069 751 5628 13727 6857 190 2599 16 16144 906 7517 13936 112 16364 1013 394 1646 23 3502 140 4435 1027 217 79 81 987 25 10611 2109 153 11 921 363 400 538 22 113 15 149 22 185 124 46 496 109 61 402 94 267 466 156 277 4081 38 326 13 14 81 131 1078
internal_value=0 0.206267 0.210093 0.215638 0.221456 0.2258 0.105272 0.0860743 0.0551978 -0.0598182 0.0795336 0.103396 0.0583206 0.0744653 0.0817343 0.0950332 0.131486 0.258302 0.167238 0.152394 0.164437 0.128629 0.105696 -0.0128135 0.215797 0.227645 0.244179 0.0562143 0.0884773 0.0802085 0.0352606 0.206244 0.251904 0.0882499 0.0977098 0.0986814 0.0558278 0.263722 0.284649 0.0100443 0.036443 -0.0241049 0.122493 -0.0431834 0.187976 0.260771 0.224227 0.158755 -0.0303796 0.191685 -0.0679054 -0.0959072 0.0136414 0.308075 -0.107065 -0.0475101 -0.0844786 0.113329 -0.0701201 -0.115246 -0.112478 -0.121788
internal_weight=0 58902.6 58067.6 55663.3 53370.5 52011.4 16799.9 12826.2 1359.09 835.02 12316.7 5796.34 6520.33 5314.21 2404.35 5499.43 1161.22 296.903 3973.66 3189.79 2834.81 1670.29 968.099 1206.12 1164.52 783.876 509.53 354.979 116.362 2292.75 1243.13 66.3761 667.515 2137.33 278.901 191.751 984.902 632.806 382.365 96.2298 34.7086 87.1599 127.164 258.231 95.5214 193.12 83.7571 59.9881 155.415 77.7451 49.9855 76.0782 49.4193 322.377 643.269 77.6897 63.1702 14.5195 11.7644 565.579 397.434 168.145
internal_count=268644 178601 172129 157233 144548 136321 90043 75136 8227 6472 73979 33808 40171 31627 14896 32508 6056 1300 14907 12555 10716 6997 5448 8544 3719 2352 1157 1839 524 12685 8840 232 1828 11532 1350 708 6607 1668 641 437 160 422 516 2233 271 608 211 251 1153 279 292 489 237 390 5764 393 342 51 60 5371 4212 1159
is_linear=0
shrinkage=0.1


Tree=3
num_leaves=55
num_cat=0
split_feature=32 115 30 15 118 109 134 105 136 83 29 133 30 53 131 32 6 105 72 101 0 100 30 127 31 99 133 53 23 31 70 40 115 25 30 77 70 53 103 48 118 104 106 80 136 75 106 50 51 51 106 22 79 106
split_gain=8942.88 4179.83 2821.14 3037.23 2026.13 4009.04 2016.76 1377.94 1281.88 1376.27 1014.42 997.046 930.734 917.832 882.667 819.378 1019.88 1059.95 715.155 870.071 752.284 549.542 378.347 316.135 322.465 376.872 299.83 262.295 317.971 188.054 181.096 156.817 154.42 128.505 118.542 115.291 92.3577 174.012 144.163 84.8714 77.1334 59.1731 50.5192 50.3921 0.935887 0.157323 0.0876504 0.0638702 0.0307931 0.0301446 0.0131664 0.00258009 0.000334042 3.41709e-05
threshold=0.94912350177764904 -0.82357311248779286 1.0809424519538882 1.0900488495826723 -1.5840118527412412 -1.1387561559677122 1.0000000180025095e-35 -0.94184306263923634 1.0000000180025095e-35 -0.98836669325828541 1.219655513763428 1.0000000180025095e-35 1.096921503543854 0.96866989135742199 1.0000000180025095e-35 0.95708128809928905 0.64874127507209789 -0.83924216032028187 -0.61120438575744618 -0.82574018836021412 0.36377093195915228 -0.8719610571861266 1.1062164306640627 -2.0644983053207393 1.0061107873916628 -0.9226112663745879 1.0000000180025095e-35 1.0986074209213259 1.2495649456977846 0.99791204929351818 -0.56521266698837269 1.0202881693840029 -1.0426849722862241 1.2422012090682986 1.1062164306640627 -0.99428436160087574 -0.20253936201333997 1.0986074209213259 -0.79070365428924549 1.1414669752120974 -1.3035522103309629 -0.95945981144905079 -0.91370326280593861 -1.3592681884765623 1.0000000180025095e-35 -1.1589112281799314 -0.86207905411720265 1.1820168495178225 0.89674872159957897 0.79195857048034679 -0.86207905411720265 1.2639631628990176 -1.4205151200294492 -0.85609024763107289
decision_type=2 2 2 2 2 2 2 2 2 2 2 2 2 2 2 2 2 2 2 2 2 2 2 2 2 2 2 2 2 2 2 2 2 2 2 2 2 2 2 2 2 2 2 2 2 2 2 2 2 2 2 2 2 2
left_child=1 2 3 4 5 -1 -6 11 9 15 14 41 13 -9 -5 16 17 -2 19 -17 -20 -18 -13 32 27 43 35 28 -25 -29 -12 -27 36 42 -14 -11 38 -38 -10 -37 -35 -4 -28 -26 47 46 -46 49 53 50 -3 -51 -48 -47
right_child=8 44 7 10 6 -7 -8 12 23 26 30 22 34 -15 -16 18 21 -19 20 -21 -22 -23 -24 24 25 31 33 29 -30 -31 -32 -33 -34 40 -36 39 37 -39 -40 -41 -42 -43 -44 -45 45 48 52 -49 -50 51 -52 -53 -54 -55
leaf_value=-0.025676802059219624 0.16031589066882079 -0.11579943448257871 -0.095466539590177701 0.22989365641212048 0.14649480543441815 0.27993802943800683 0.21137840236324981 0.13758720579077741 0.060710154249261364 0.31940677892884017 0.033144629278266065 0.24337418198466709 0.01874226927558937 0.050952326075198943 0.10318992270201816 0.0527145598806181 0.068846264379175709 0.073273394201203143 0.052870264634859415 -0.059716712849937882 0.12439897990005851 -0.064637108974035004 0.068289209387525862 0.02479117683710794 0.097923195657196149 0.082704559432081562 0.013513452874388468 0.32252488299497434 0.15861603480925238 0.090026901108871488 0.18537077140487598 -0.0624744651226809 0.36272772820280852 0.2716513762133515 -0.077825061365087295 0.13487548749944631 0.26833838327182985 -0.018686022591495394 -0.1075043932169745 0.00086680071323120352 0.20535369082079777 0.022969042468197646 0.17639180933207269 0.27689162977737264 -0.12783707044672413 -0.1278370704467241 -0.11821704376255678 -0.13001680145138581 -0.13898199961102747 -0.11334751922470272 -0.11017659759335988 -0.1163130331989837 -0.11931780237579304 -0.12739350688136958
leaf_weight=498.64775294065475 3239.4033839330077 4.2163111120462409 66.147974230349064 13546.532618798316 26670.154526181519 3083.3518840372562 5839.4260597079992 4376.6555388271809 122.05360919982195 20.251826614141464 329.76821782439947 1365.1611417084932 674.23129267245531 1697.0189968422055 573.07664604485035 2626.0848365873098 1055.3174045309424 2462.5211253613234 3978.4054063633084 932.79129511117935 2332.3450435623527 435.78316834568977 135.68939785659313 186.33886270970106 18.325603872537613 730.22074584662914 33.889194212853909 153.96627314388752 3763.2000852301717 44.944555811583996 102.42277613282204 82.842892326414585 14.293451160192488 377.20586812496185 156.65541283786297 95.206821203231812 39.306904330849648 45.657084755599499 87.452666506171227 93.843804381787777 328.15464475750923 116.44978942722082 43.46786292642355 111.20382929593325 10.220243632793425 3.5770852714776993 135.17502956092358 1.6714022308588017 3.6326159834861755 4.639959089457987 338.39620922505856 7.9787702858448029 2.8142729848623267 3.3758488297462446
leaf_count=2305 11609 36 383 25232 74907 4008 11316 14339 498 28 1233 2735 4099 7692 2551 15906 5722 12802 23145 6572 11971 2532 547 798 64 3187 154 233 11039 171 221 539 17 361 1153 313 102 248 592 496 586 546 123 188 60 21 1037 10 18 45 4045 68 21 20
internal_value=0 0.170109 0.172577 0.181564 0.166014 0.237394 0.158149 0.11958 0.0972417 0.0844565 0.220132 0.200702 0.0998012 0.113381 0.224751 0.0777993 0.103469 0.122724 0.0590914 0.023246 0.0793061 0.0298349 0.227545 0.13999 0.145949 0.0931504 0.19896 0.157945 0.152302 0.269991 0.0692199 0.0679123 0.0417386 0.227389 0.000535461 0.0926457 0.026158 0.1141 -0.00950641 0.0683542 0.240808 -0.0199355 0.105037 0.251571 -0.113356 -0.119743 -0.118901 -0.110514 -0.13152 -0.110423 -0.110246 -0.115223 -0.118239 -0.127622
internal_weight=0 59747.1 59231.4 50643.4 36091.6 3582 32509.6 8588.01 23454.5 18054.7 14551.8 1683.45 6904.56 6073.67 14119.6 17062.7 7193.03 5701.92 9869.63 3558.88 6310.75 1491.1 1500.85 5399.81 5091.04 942.593 992.02 4148.45 3949.54 198.911 432.191 813.064 308.764 782.718 830.887 209.302 294.47 84.964 209.506 189.051 705.361 182.598 77.3571 129.529 515.698 158.795 148.21 356.903 10.5856 355.231 342.613 12.6187 137.989 6.95293
internal_count=268644 158648 153267 121773 92536 6313 86223 31494 109996 92320 29237 4211 27283 22031 27783 90259 32665 24411 57594 22478 35116 8254 3282 17676 16219 3978 2061 12241 11837 404 1454 3726 1457 1224 5252 837 1440 350 1090 809 947 929 277 252 5381 1177 1118 4204 59 4194 4081 113 1058 41
is_linear=0
shrinkage=0.1


Tree=4
num_leaves=58
num_cat=0
split_feature=32 115 130 30 103 117 128 105 136 82 30 133 32 68 105 107 103 108 32 108 79 38 32 70 53 133 126 53 45 101 54 73 110 80 91 95 71 106 64 98 29 43 109 99 31 76 75 118 58 68 41 91 32 109 31 8 112
split_gain=6276.61 3104.68 2115.52 2038.34 2070.49 1554.96 1405.51 966.849 879.844 1003.98 705.754 626.137 622.491 755.102 826.155 496.155 390.298 271.523 268.012 237.507 454.221 228.136 223.301 234.992 218.479 217.867 216.623 211.122 484.72 201.478 300.553 193.11 151.476 155.956 147.157 185.116 144.495 106.291 100.118 99.661 95.9851 92.6687 87.3923 68.6244 67.2389 57.8446 52.9645 57.9775 49.425 39.9102 33.2519 31.9332 16.3762 14.7911 9.06986 8.35643 0.579708
threshold=0.94885745644569408 -0.86165508627891529 1.0000000180025095e-35 1.079606354236603 -0.85527896881103505 -1.5328428149223325 1.0000000180025095e-35 -0.94428163766860951 1.0000000180025095e-35 -0.99793443083763111 1.0981279611587527 1.0000000180025095e-35 0.95881554484367382 -0.040751030668616288 -0.84307685494422901 -0.84007480740547169 -0.8467978537082671 -0.86797121167182911 0.96548336744308483 -0.8890680968761443 -1.2697989344596861 1.0149520039558413 0.96340587735176098 -0.30195118486881251 1.0929210782051089 1.0000000180025095e-35 -1.2379754185676572 1.0706022381782534 1.1057780385017397 -0.77433618903160084 1.0444854497909548 -0.72600620985031117 -0.92536470293998707 -1.2685208916664121 -1.1074106097221372 -1.0567637681961057 -0.38911595940589899 -0.95625457167625416 0.4401382207870484 -0.99521559476852406 1.1042760610580447 1.0830289721488955 -0.83947190642356861 -0.85582217574119557 0.71388286352157604 -1.173864960670471 -1.1900283694267271 -0.87572407722473133 0.85925617814064037 0.085610277950763716 1.0896422266960146 -1.2408289313316343 0.94745430350303661 -0.90560230612754811 1.0086154341697695 0.75762543082237255 -0.6176452338695525
decision_type=2 2 2 2 2 2 2 2 2 2 2 2 2 2 2 2 2 2 2 2 2 2 2 2 2 2 2 2 2 2 2 2 2 2 2 2 2 2 2 2 2 2 2 2 2 2 2 2 2 2 2 2 2 2 2 2 2
left_child=1 2 3 4 6 -6 -1 11 9 12 -9 -5 13 16 -15 21 -2 24 -17 22 27 -14 29 -24 40 37 39 28 -21 30 -10 -25 33 -22 35 -19 -29 50 43 42 -4 -39 55 -27 -26 -36 51 -48 -40 -31 -11 -41 54 -34 56 -3 -28
right_child=8 26 17 7 5 -7 -8 10 19 25 -12 -13 15 14 -16 18 -18 34 -20 20 32 -23 23 31 44 38 52 36 -30 49 -32 -33 53 -35 45 -37 -38 41 48 46 -42 -43 -44 -45 -46 -47 47 -49 -50 -51 -52 -53 -54 -55 -56 -57 -58
leaf_value=0.18068426177928665 0.049616636485197596 -0.12336534285440802 0.11806039398766498 -0.014049345314773674 0.19107176918372371 0.12654851708953049 -0.0040473548289533829 0.10003749596897743 0.076873004505479708 -0.13168387277562701 -0.0075745969436623109 0.1892329960845722 0.034246249295026537 0.13596771155096873 0.070458633183244995 0.096650550843572297 -0.067199213140226782 0.16593079655817833 0.035825377933197754 0.12798979177781197 0.048810324926247955 -0.048725811212412838 0.42149547061856141 -0.01591161354254457 0.44267855850766769 0.013624322181664223 -0.11794785497611314 0.19842778442014222 -0.0017844190294493409 -0.1245522082108044 0.16203890335341942 0.10645699387643309 0.26186596532119083 0.28330784537886422 0.02440065464737955 0.039743136237225585 -0.014008318179984087 0.216388720674626 -0.14832925661349525 0.029464061208620197 0.027832509342018055 0.063720904086000868 0.42524557992964102 0.21199984764552438 -0.074830286335916027 0.19794603425285606 -0.071131030393911235 0.19784981001683982 0.13347365336203729 0.017715044450891101 0.14643917281644181 -0.1250741406684355 0.1321060744901959 0.3449951206124342 0.029268550516145287 0.095662341901375791 -0.11038644903623576
leaf_weight=23287.33232191205 1140.416195563972 3.7650023698806789 133.27515381574631 166.37298112362623 4461.4422027766705 22936.963128194213 419.27798070013523 7367.3333690464497 865.93918177485466 27.466908603906631 664.40083386003971 1697.217673048377 4935.6088166609406 3251.5863552764058 4719.09905397892 2328.1122580841184 381.76517826318741 155.04387728869915 1051.6467930600047 2428.6701344177127 52.524055123329163 355.23433539271355 15.579074233770369 361.28143000602722 2.5390254110097876 17.911728546023369 142.23958984017372 459.32157546281815 326.50960214436054 35.175517305731773 794.6076308041811 200.55118475854397 26.18751585483551 61.650741398334503 22.018898859620094 464.67662616074085 34.417344018816948 55.466685265302658 6.4496940374374381 23.384466350078583 1022.1585535407066 140.39949498325586 11.601380705833433 659.65556494891644 224.58926478773355 150.34000716358423 12.644185267388819 21.880279004573822 177.70696392655373 44.873407617211342 5.096363276243209 31.226356409490108 2.7802158966660491 117.17629151046276 4.5504863858222953 3.2416740357875824 353.06889821588993
leaf_count=42972 5890 25 549 832 7397 54828 2298 23966 3095 161 4279 3215 29245 10683 23157 11387 2242 473 5969 6949 174 2538 27 1796 10 62 1193 898 1261 233 1967 788 33 75 85 2304 138 107 30 137 6038 581 20 729 1889 363 71 75 446 263 18 199 13 102 22 16 4331
internal_value=0 0.142111 0.144279 0.147735 0.155778 0.137055 0.177417 0.106192 0.0830614 0.0727592 0.0911356 0.171085 0.0671649 0.0848575 0.0971826 0.0477944 0.0203191 0.0473606 0.0777242 0.117117 0.133535 0.0286754 0.0922803 0.038392 0.0206151 0.165969 -0.0823391 0.123402 0.112611 0.110157 0.117627 0.027769 0.261369 0.175431 0.0940445 0.0713132 0.183619 0.0791409 0.188986 0.0463331 0.03824 0.106954 0.256828 0.206756 -0.0690452 0.175776 0.0023897 0.0993387 0.123604 -0.0448008 -0.0881558 -0.0589006 -0.109921 0.32981 -0.111267 -0.0220311 -0.112558
internal_weight=0 63785.4 63175 61000.3 51105 27398.4 23706.6 9895.32 25078.1 19253.6 8031.73 1863.59 18163.5 9492.87 7970.69 8670.6 1522.18 2174.64 3379.76 5824.46 3506.46 5290.84 2318.01 577.412 1382.56 1090.15 610.383 3248.92 2755.18 1740.6 1660.55 561.833 257.539 114.175 792.079 619.721 493.739 228.429 861.724 107.743 1155.43 195.866 18.6081 677.567 227.128 172.359 89.1353 34.5245 184.157 80.0489 32.5633 54.6108 502.639 143.364 499.859 7.00668 495.308
internal_count=268644 157600 151498 139787 107495 62225 45270 32292 111044 93245 28245 4047 91111 41972 33840 49139 8132 11711 17356 17799 9630 31783 8169 2611 8486 2134 6102 9246 8210 5558 5062 2584 384 249 3225 2777 1036 867 1267 543 6587 688 61 791 1899 448 482 146 476 496 179 336 5559 135 5546 41 5524
is_linear=0
shrinkage=0.1


Tree=5
num_leaves=58
num_cat=0
split_feature=106 31 36 29 129 48 111 136 33 83 77 133 73 111 108 29 76 122 59 102 5 118 105 107 30 14 117 82 71 102 66 123 97 134 36 103 2 130 65 104 101 33 116 76 116 109 106 121 109 45 0 47 114 81 30 130 81
split_gain=4866.23 2692.04 1914.45 1664.14 1595.68 1488.6 1424.76 1374.56 823.029 1006.36 772.368 666.537 624.646 612.636 446.157 400.469 368.236 364.752 345.658 343.191 311.57 267.766 364.743 221.829 219.96 216.442 208.295 174.931 206.383 193.943 163.229 152.201 285.665 180.344 129.182 103.466 99.4718 89.8207 88.6019 76.4359 66.9632 65.3568 64.5611 81.356 48.9554 324.118 44.5436 40.0347 42.7577 35.2866 29.3661 25.2665 22.2142 17.1753 15.5363 0.136683 0.00830749
threshold=-0.8616943061351775 1.0052526593208315 0.92982521653175365 1.219655513763428 1.0000000180025095e-35 1.234204173088074 -1.2699831724166868 1.0000000180025095e-35 0.81793472170829784 -1.1431864500045774 -1.301009953022003 1.0000000180025095e-35 -0.7503114342689513 -0.91887515783309925 -1.0660281777381895 1.2414839267730715 -0.39137668907642359 -1.4301933646202085 0.82938516139984142 -0.85875496268272389 0.6282995641231538 -1.5953949093818662 -0.76609298586845387 -0.93128439784049977 1.0691317319869997 1.1900129318237307 -1.0326889753341673 -1.2893141508102415 -0.57034140825271595 -0.9083280861377715 0.29584477841854101 -1.3585646152496336 -0.89664766192436207 1.0000000180025095e-35 0.93637764453887951 -0.81641572713851918 0.81271213293075573 1.0000000180025095e-35 0.37016354501247412 -0.84008213877677906 -0.7661398947238921 0.92074969410896312 -1.1730324625968931 -0.94000479578971852 -1.4723693728446958 -1.0834363102912901 -0.78742474317550648 -1.5003716945648191 -0.97750860452651966 1.1502838134765627 0.37053796648979193 1.1609476804733279 -0.88945916295051564 -0.31540758907794947 1.0685270428657534 1.0000000180025095e-35 -1.0411865115165708
decision_type=2 2 2 2 2 2 2 2 2 2 2 2 2 2 2 2 2 2 2 2 2 2 2 2 2 2 2 2 2 2 2 2 2 2 2 2 2 2 2 2 2 2 2 2 2 2 2 2 2 2 2 2 2 2 2 2 2
left_child=1 2 3 4 6 7 -1 8 21 13 41 14 -11 -10 16 25 -4 39 -16 24 -21 23 -23 -2 -12 -5 -6 28 37 -30 40 32 -29 -33 38 -32 -17 -19 49 42 -13 52 43 -3 53 -46 47 48 -36 -7 -51 -44 -9 -40 56 -49 -41
right_child=5 17 11 15 26 34 -8 10 9 12 19 30 -14 -15 18 36 -18 27 -20 20 -22 22 -24 -25 -26 -27 -28 31 29 -31 35 33 -34 -35 46 -37 -38 -39 44 54 -42 -43 51 -45 45 -47 -48 55 -50 50 -52 -53 -54 -55 -56 -57 -58
leaf_value=-0.056296368011970847 -0.10606577289698163 0.024007337194355761 -0.10188019754451171 -0.12913531770823247 -0.089448800707563295 0.24070877616403782 0.13812131355985732 -0.039630927492871698 0.030715356518677552 0.22743251476625961 0.17049053623221841 0.20730230913420319 0.084918039272388821 0.068988847129175496 -0.0045700743339483355 -0.058426480983529844 0.2774989648473995 -0.051885195473447478 0.075689424214161069 0.10656884966913796 0.007257733295641014 0.022898297421656395 -0.10492565989054473 0.2260940859227405 0.039448081029100183 0.071245325040535254 0.025238449529029591 0.11941524845706258 0.25934695736293145 0.08305528831893827 -0.1081909049028244 0.00096121575268170209 0.019873202897996028 0.09031042374695003 -0.058960393403326233 0.10719173909215585 0.19270393117945409 0.13958142329997 0.15593204442777517 -0.1178934603835872 0.085749755872116834 0.17686979553607834 0.21331977917656411 0.1519709975086625 -0.10050715632159642 0.20135183994124942 0.20422297635725323 -0.13219342177313584 0.2867769906707881 -0.137061182789147 0.09693596918565453 0.38261398529440921 -0.11865613263262886 0.22829877763018278 0.1434590525591101 -0.11561994187969521 -0.12350183601614378
leaf_weight=379.53186582028866 28.885105133056641 59.582549676299095 324.31991449743509 56.071093298494816 253.92148611694574 5.6905542165040996 55169.004848763347 47.100434109568596 7662.351440705359 525.40068448334932 1210.5442945957184 314.67341794073582 741.73308343440294 9208.1447591856122 810.11979596316814 393.98309783637524 27.775826402008533 150.64851036667824 1589.3574472442269 4786.7394601106644 338.22924630343914 385.06447747349739 531.17748737335205 66.151829287409782 143.24863247573376 1395.465841345489 420.79608283936977 458.64487493783236 67.853299610316753 777.01337148994207 24.456261068582535 1774.5530838295817 776.23205307126045 258.85385406017303 8.1025859937071782 253.41006577014923 16.430297926068306 29.260213881731033 35.408119335770607 9.9055590704083443 52.947846993803978 8.9677295684814435 40.658708728849888 299.06179247796535 38.500800430774689 467.4299458488822 10.291389867663382 10.735504105687145 6.4043060839176134 12.752593502402307 9.255831763148306 11.256471633911131 145.31938605755568 444.64728491008282 2.6979063004255286 9.2753140032291412 3.6014312803745279
leaf_count=1684 114 226 1445 352 1392 13 111140 185 39371 655 2000 386 2297 42890 3613 2035 62 946 5033 13137 1240 2132 4545 65 458 4770 1846 1731 191 3212 124 9973 4107 945 39 653 26 115 52 78 125 22 107 468 150 583 23 64 5 70 33 31 1206 355 14 86 24
internal_value=0 0.122001 0.127589 0.131856 0.134936 0.0715544 0.136793 0.0667912 0.0531658 0.0580611 0.105849 0.0546212 0.14401 0.0516055 0.0331669 0.0388446 -0.0719521 0.0492206 0.0485919 0.111844 0.100015 -0.0346334 -0.0512057 0.125139 0.156625 0.0635049 -0.0179227 0.0404557 0.0765049 0.0972137 0.146076 0.0291524 0.0568441 0.0123354 0.187786 0.0882349 -0.0483728 -0.0207452 0.195131 0.137391 0.189795 -0.0870141 0.145799 0.130712 0.200086 0.178381 0.021626 -0.032815 0.0936711 0.0187409 -0.0386517 0.250027 -0.0993124 0.222961 -0.0756281 -0.124511 -0.119389
internal_weight=0 66202.1 61482.3 58085.2 56223.3 26887.6 55548.5 25829.1 19148.9 18137.6 6680.15 3397.06 1267.13 16870.5 2751.57 1861.95 352.096 4719.82 2399.48 6478.76 5124.97 1011.28 916.242 95.0369 1353.79 1451.54 674.718 4293.06 1024.78 844.867 645.488 3268.28 1234.88 2033.41 1058.49 277.866 410.413 179.909 1013.69 426.764 367.621 201.388 410.56 358.644 985.986 505.931 44.8091 34.5177 14.5069 27.699 22.0084 51.9152 192.42 480.055 16.2049 20.0108 13.507
internal_count=268644 156854 134686 123245 116062 111790 112824 110317 92069 85213 18248 11441 2952 82261 10153 7183 1507 22168 8646 16835 14377 6856 6677 179 2458 5122 3238 21220 4464 3403 1288 16756 5838 10918 1473 777 2061 1061 1256 948 511 1413 832 694 1140 733 217 194 44 116 103 138 1391 407 116 150 102
is_linear=0
shrinkage=0.1


Tree=6
num_leaves=63
num_cat=0
split_feature=32 51 131 130 128 129 38 72 37 70 0 72 36 114 68 114 33 133 48 29 49 111 56 101 103 52 35 67 29 74 97 117 77 115 38 127 98 68 20 128 98 126 86 75 135 20 104 82 97 48 114 117 97 65 101 11 106 136 32 30 97 104
split_gain=3755.31 1971.55 1552.64 1586.56 1488.99 1468.2 530.143 746.401 720.345 821.386 634.056 610.75 513.276 394.984 355.898 308.921 264.467 262.786 254.284 240.032 345.816 205.088 175.657 171.714 168.583 168.058 158.682 156.426 125.332 109.579 249.788 164.741 110.42 110.303 95.7844 91.4909 145.113 90.9376 89.836 87.9246 125.872 87.678 74.5686 76.3958 70.3623 69.4712 59.8427 54.6881 48.0288 42.736 18.0537 32.7575 26.1434 17.3727 14.4859 8.70081 1.24896 0.247386 0.203313 0.1163 0.0876263 0.0292463
threshold=0.94912350177764904 0.79195857048034679 1.0000000180025095e-35 1.0000000180025095e-35 1.0000000180025095e-35 1.0000000180025095e-35 1.0074087381362917 -0.55975803732871998 0.95485445857048046 -0.22817678749561307 0.30889810621738439 -0.59853252768516529 0.95415204763412487 -0.97281935811042775 0.14094645529985431 -0.93210721015930165 0.9511200785636903 1.0000000180025095e-35 1.1345119476318362 1.0662047266960146 1.1389753222465517 -0.98326164484024037 0.94191816449165355 -0.74972027540206898 -0.7976262867450713 1.1473715901374819 0.94409778714180004 0.28477455675601965 1.0743816494941714 -1.0044781565666197 -0.97214531898498524 -0.93984705209732045 -1.2837656736373899 -0.93434932827949513 0.84973457455635082 -1.9398584961891172 -0.80210205912590016 0.14094645529985431 1.349036753177643 1.0000000180025095e-35 -0.72953370213508595 -1.7624250650405882 -0.97591769695281971 -1.0101872682571409 1.0000000180025095e-35 1.1361191272735598 -0.77442476153373707 -1.1396150588989256 -0.98248678445816029 1.168342709541321 -0.91469347476959217 -0.90377181768417347 -0.99399408698081959 0.4330290704965592 -0.94433802366256703 0.49281769990921026 -0.86207905411720265 1.0000000180025095e-35 0.96303778886795055 1.0631425976753237 -0.99531066417694081 -0.94282910227775563
decision_type=2 2 2 2 2 2 2 2 2 2 2 2 2 2 2 2 2 2 2 2 2 2 2 2 2 2 2 2 2 2 2 2 2 2 2 2 2 2 2 2 2 2 2 2 2 2 2 2 2 2 2 2 2 2 2 2 2 2 2 2 2 2
left_child=1 15 3 4 5 -3 7 8 9 10 -2 24 -13 -6 17 42 25 35 -11 23 26 38 -23 41 -10 27 -21 -16 -22 31 34 48 -33 -32 -31 36 -8 -25 -5 49 -41 -9 43 47 -45 55 -27 -1 -4 -18 51 52 -17 -47 -53 -19 60 -58 -37 -44 -52 -61
right_child=6 2 29 21 13 -7 14 19 11 18 -12 12 -14 -15 16 50 39 45 -20 20 28 22 -24 37 -26 46 -28 -29 -30 30 33 32 -34 -35 -36 58 -38 -39 -40 40 -42 -43 59 44 -46 53 -48 -49 -50 -51 56 54 -54 -55 -56 -57 57 -59 -60 61 -62 -63
leaf_value=0.062638719865020245 0.14178392503554288 0.11779007660005239 -0.0094067711750681227 -0.053199418156411396 -0.051993458317318345 0.021446109695114735 0.01895829432506559 0.25719248917314896 -0.010108595818455673 0.21723419581256442 0.059185892322710931 0.056813763010138352 -0.058962263282445318 0.058342783664751097 0.10728246040220746 0.11729932668479169 0.11256145695468417 -0.13831414429773456 0.057452245886440934 0.16723563235379615 0.11213138439560871 0.023467216596387327 0.087410524236726156 -0.10580907163661811 -0.094595387379675808 0.10143658641222437 0.0079371458470570127 0.27043800285333747 0.051631322836317418 0.31824318204693225 0.030623317687676545 -0.019569618845501725 0.048510287031893196 0.19839359512857108 0.11735649065930392 -0.12878033300582056 -0.069590654954344078 0.15630691935716634 0.067664950873735044 0.019097420745140061 0.40360189016519477 0.15872310194165659 -0.14790137805713591 0.13664625152503493 -0.10197505374608595 0.12864107846582012 -0.094991165693866217 -0.092367866471711968 -0.099415161679247716 -0.083437747279658289 -0.12266666052971426 0.14053621228520449 -0.11022882799069858 0.22647419554156256 -0.047414129837125008 0.038823743555455453 -0.10759067615242633 -0.11323766565936018 -0.12051408751677151 -0.13601655167957435 -0.13206589849781844 -0.12687292201595238
leaf_weight=46.50184477865696 985.56875229626894 61100.514382466674 97.837656490504742 355.32856670022011 602.83383618295193 1623.7814637795091 308.42697972804308 184.78777077049017 526.99213265627623 469.30295783281326 16298.275547511876 3051.0411221385002 437.88171013444662 702.57207500934601 235.88213653862476 5.5002455860376349 12.158935338258742 9.3673168718814832 126.43404760211706 751.13585939258337 531.26683551073074 1340.6492957621813 632.20086342841387 28.351703196763992 427.97936379909515 23.983946591615677 68.210959352552891 78.259161978960037 963.2562614902854 42.495038203895092 966.13209468871355 353.20587669312954 731.90425012260675 40.845214955508709 53.765167228877544 44.035138733685017 462.73710545897484 24.826036736369133 74.36787261068821 85.660930566489697 9.4534070342779142 177.07641030848026 7.3157645463943508 104.77045669406652 14.00962260365486 56.171594709157944 43.896420024335384 44.582763083279133 150.44342064857483 130.77708946168423 18.047290645539761 10.051753997802736 61.693020656704903 26.815833933651447 6.926440328359603 3.9389130473136893 263.3956812992692 109.96708206087351 91.747417569160461 9.0434802174568176 22.021082974970341 5.7047643139958355
leaf_count=128 2245 116531 564 2485 3476 6932 1859 418 2970 992 66348 13432 2657 2951 962 16 63 51 455 1667 2080 6639 2508 156 2679 87 349 195 3778 83 3721 1817 2993 111 184 255 3146 83 377 496 24 574 34 193 59 109 254 211 804 891 125 25 326 49 26 14 4046 1078 658 47 122 36
internal_value=0 0.105495 0.107227 0.110102 0.113096 0.115296 0.061366 0.0649545 0.0589195 0.0678751 0.0638958 0.0228877 0.0422831 0.00738973 0.00598484 -0.0580339 0.0655433 -0.0308264 0.183323 0.114323 0.101762 0.0303225 0.0439579 0.184349 -0.0479721 0.117096 0.153974 0.147928 0.0731376 0.0288264 0.0521402 0.00953665 0.0263501 0.0374284 0.20604 -0.047503 -0.0341755 0.0165598 -0.0322813 -0.0171888 0.0573133 0.209007 0.0372822 0.0556676 0.108502 0.126243 -0.025588 -0.0132316 -0.0639464 -0.066765 -0.10246 -0.0602455 -0.091604 0.160254 0.0638598 -0.0858777 -0.111054 -0.109254 -0.123195 -0.137593 -0.127832 -0.13248
internal_weight=0 69598.4 68868.9 66432.2 64029.7 62724.3 26675.7 25052.4 22323.5 17879.6 17283.8 4443.89 3488.92 1305.41 1623.31 729.531 620.072 1003.24 595.737 2728.91 2313.87 2402.55 1972.85 415.042 954.971 382.022 819.347 314.141 1494.52 2436.63 1103.24 1333.39 1085.11 1006.98 96.2602 906.947 771.164 53.1777 429.696 238.05 95.1143 361.864 231.929 209.865 118.78 96.2937 67.8804 91.0846 248.281 142.936 497.603 84.1715 67.1933 82.9874 16.9782 13.3062 413.431 373.363 135.783 22.064 40.0684 14.7482
internal_count=268644 158648 152176 141899 129890 123463 109996 100883 91778 70040 68593 21738 16089 6427 9113 6472 2972 6141 1447 9105 7874 12009 9147 1231 5649 1498 2016 1157 5858 10277 4099 6178 4810 3832 267 5918 5005 239 2862 1474 520 992 708 591 252 223 341 339 1368 954 5764 393 342 158 51 65 5371 5124 913 117 247 83
is_linear=0
shrinkage=0.1


Tree=7
num_leaves=57
num_cat=0
split_feature=32 131 130 30 102 42 134 104 136 133 81 69 102 71 0 103 31 48 111 56 103 35 57 72 47 70 22 33 0 112 94 75 105 51 21 40 117 72 29 13 122 124 133 112 115 118 116 104 7 30 34 21 112 31 30 105
split_gain=3062.31 1626.52 1428.87 1364.52 1549.61 1775.07 1204.06 545.751 491.342 455.584 444.227 443.989 602.935 620.351 389.079 356.369 340.337 243.62 225.266 241.16 171.513 157.179 157.634 306.601 295.54 408.273 231.998 174.254 148.682 132.564 111.707 109.871 103.385 93.9111 85.2701 87.4224 83.7301 82.6892 79.1482 66.5155 63.8497 47.1139 32.3623 58.9512 32.2597 48.4783 27.3477 19.102 22.421 18.3936 14.6419 6.56447 0.864284 0.0584635 0.0480894 0.00213138
threshold=0.95219209790229808 1.0000000180025095e-35 1.0000000180025095e-35 1.0838137269020083 -0.85405826568603505 1.0052117705345156 1.0000000180025095e-35 -0.93050286173820485 1.0000000180025095e-35 1.0000000180025095e-35 -0.95533275604248036 -0.15872316062450406 -0.82556763291358937 -0.44974647462368006 0.57045027613639843 -0.84293910861015309 1.0052526593208315 0.88568270206451427 -0.98326164484024037 0.94410055875778209 -0.83385148644447316 0.94016218185424816 0.91413006186485302 -0.60631015896797169 1.1212901473045351 -0.24436124414205548 1.2915617823600771 0.92537295818328869 0.530887931585312 -0.9564649462699889 -0.97355604171752919 -1.1753202080726621 -0.84846225380897511 0.92517375946044933 1.3779893517494204 0.96068570017814647 -0.85832056403160084 -0.80766093730926503 1.2072756290435793 0.7214624583721162 -0.97126215696334828 -1.6082881689071653 1.0000000180025095e-35 -1.1275497674942014 -1.198872923851013 -1.3035522103309629 -1.2264695763587949 -0.81829634308814991 0.49362231791019445 1.0665109753608706 0.90634164214134227 1.7872577309608462 -0.83043053746223439 1.0049677491188052 1.0888496637344363 -0.76609298586845387
decision_type=2 2 2 2 2 2 2 2 2 2 2 2 2 2 2 2 2 2 2 2 2 2 2 2 2 2 2 2 2 2 2 2 2 2 2 2 2 2 2 2 2 2 2 2 2 2 2 2 2 2 2 2 2 2 2 2
left_child=1 2 3 4 6 -6 -1 9 10 -5 11 15 16 -14 -9 28 -13 51 34 20 -20 22 24 30 25 -10 -26 -25 -2 -21 -24 36 -17 37 41 -36 49 -33 -35 44 -38 -4 43 -41 45 -12 -23 53 -49 -19 -44 52 54 -48 -3 -54
right_child=8 17 18 7 5 -7 -8 14 21 -11 39 12 13 -15 -16 32 -18 31 19 29 -22 46 23 27 26 -27 -28 -29 -30 -31 -32 33 -34 38 35 -37 40 -39 -40 42 -42 -43 50 -45 -46 -47 47 48 -50 -51 -52 -53 55 -55 -56 -57
leaf_value=0.1114770749384002 0.015504151972845534 -0.13636658691163414 -0.034178766242398434 -0.0014643227028675425 0.023653649117528791 0.095941428892213465 0.17239911899547078 0.01174257725464427 0.057568364985171677 0.12868957703308478 0.067964804059027273 0.1166102129592235 -0.024646944359064171 0.043668815684998523 0.064874013825341831 -0.013735701314968913 0.047875449360830075 -0.12218227505880788 0.03046120607342372 0.024607646477258674 -0.055317935450006121 0.21261079674076921 0.17965459571589582 -0.091949424972606025 -0.070757513886434212 0.18696409222497221 0.2055956412467507 0.082815630386386341 0.12430888930281173 0.11021005911176679 0.038937257549268099 0.0012054135325047779 -0.088607019456327485 0.030466061397308165 0.025116071117910945 0.40226122018336802 0.16651938949634482 0.36428453951880357 -0.11828595283532917 0.021014890411986689 -0.118477386900395 -0.1100245923742303 0.11114984497744824 0.25448307701296091 0.26468427431721592 -0.1460350247329609 -0.12588180311539685 -0.093194571298219064 0.023798867380505954 -0.049111972301680004 0.16329164335929017 0.0076313317188641998 -0.10757897131787207 -0.11613047229224323 -0.12316304944054707 -0.10653867934588868
leaf_weight=23621.086856428534 1410.1634876877069 10.276861429214476 273.11883573234081 329.98824981600046 3807.7026689760387 31488.278366491199 3760.6304226070642 2498.0509876012802 2224.4638844281435 1453.6878767237067 85.025796644389629 1590.1967738941312 1536.6361590176821 9847.2641360834241 3074.7076222002506 310.29250612854958 1316.9706147611141 72.380493618547916 1340.8956200964749 269.4350618943572 282.14167934656143 3.8686344474554053 468.7028044462204 58.620619595050812 245.49372683465481 273.86370360851288 34.667554818093777 2132.666787751019 137.87095478177071 550.58600593358278 64.132716692984104 10.460710346698763 454.66384215652943 2545.8558040037751 71.088278740644455 6.7278702408075324 26.243181198835373 15.667036466300486 36.279435679316521 45.775010585784912 11.222735606133936 116.97890357673168 64.100775837898254 14.161110751330851 6.927274450659751 12.091061577200888 22.605927139520649 29.484885893762112 36.856972090899944 65.7374631986022 336.93518604338169 4.9695422798395148 24.105951942503452 8.4452596455812436 3.770545966923236 107.62641222402453
leaf_count=43221 7159 53 1990 1531 10412 62682 4278 8816 6877 2617 258 5704 8418 46917 9666 1525 6558 499 6698 1321 1949 6 761 233 1115 402 67 5557 536 1799 197 45 2785 10366 367 13 89 19 310 168 88 802 87 20 11 63 141 247 175 392 274 21 371 73 26 1869
internal_value=0 0.0914202 0.0943568 0.0972102 0.101992 0.0881431 0.119844 0.0564667 0.0496076 0.104611 0.0412158 0.0382486 0.0448272 0.0344473 0.0410573 -0.00239799 0.0854728 0.0184255 0.0257077 0.0378821 0.0155497 0.0753182 0.0775901 0.0946836 0.0608311 0.0717526 -0.0365612 0.0781404 0.0251945 0.0820836 0.162718 0.0251303 -0.0582366 0.0302848 -0.0378565 0.0577235 -0.0514384 0.218919 0.0283761 0.128414 0.08115 -0.0569227 0.144714 0.0761764 0.0561933 0.0413218 -0.0481386 -0.058496 -0.0281975 -0.0874043 0.154957 -0.105391 -0.109243 -0.12323 -0.132823 -0.106729
internal_weight=0 75879.7 72945.1 70034.1 62677.7 35296 27381.7 7356.43 22772.9 1783.68 17169.1 16604.1 14291.1 11383.9 5572.76 2312.99 2907.17 2934.6 2910.97 2443.06 1623.04 5603.87 5502.61 2724.12 2778.49 2498.33 280.161 2191.29 1548.03 820.021 532.836 2783.85 764.956 2608.26 467.914 77.8161 175.584 26.1277 2582.14 565.016 37.4659 390.098 460.972 59.9361 104.044 97.1169 101.262 97.393 66.3419 138.118 401.036 150.749 145.78 31.0512 14.0474 131.732
internal_count=268644 172310 158162 143223 120593 73094 47499 22630 96334 4148 80483 79602 67597 55335 18482 12005 12262 14148 14939 11767 8647 15851 15209 6748 8461 7279 1182 5790 7695 3120 958 11808 4310 10740 3172 380 1068 64 10676 881 177 2792 549 188 332 321 642 636 422 891 361 2340 2319 214 79 2240
is_linear=0
shrinkage=0.1


Tree=8
num_leaves=58
num_cat=0
split_feature=106 31 110 119 103 30 44 48 33 136 31 38 38 23 21 45 127 116 122 129 102 5 30 53 115 127 72 36 0 130 130 128 135 102 76 108 116 109 94 51 35 79 91 95 1 114 34 41 81 70 78 38 106 45 4 118 48
split_gain=2630.47 1559.17 1380.53 1818.06 1169.78 1866.55 1081.6 1011.47 849.5 712.66 717.512 467.39 427.674 314.862 261.394 324.021 244.289 231.56 230.764 216.922 205.744 325.774 303.954 201.532 178.482 163.031 139.241 135.974 202.624 213.725 200.724 124.501 120.089 114.144 109.877 102.673 83.052 213.556 76.8458 75.246 71.4407 67.3422 65.1755 36.9111 34.8583 27.4222 26.482 24.0554 13.6602 34.6682 12.0534 9.49849 21.6752 4.37324 0.32815 0.0999152 0.0572538
threshold=-0.8616943061351775 1.0052526593208315 -1.205137252807617 -1.6429610252380369 -0.82894745469093312 1.0722023248672488 1.0703644156455996 1.234204173088074 0.81572178006172191 1.0000000180025095e-35 0.9989534616470338 1.0074087381362917 0.98762440681457531 1.3107122182846072 1.3494881987571719 1.2149034738540652 -3.4176119565963741 -1.4860328435897825 -1.440787076950073 1.0000000180025095e-35 -0.84757366776466359 0.62945443391799938 1.0682366490364077 1.081890940666199 -0.91372415423393238 -3.1609995365142818 -0.32706078886985773 0.84833240509033214 0.51572832465171825 1.0000000180025095e-35 1.0000000180025095e-35 1.0000000180025095e-35 1.0000000180025095e-35 -0.94097638130187977 -1.0306054353713987 -1.0534271597862241 -1.4723693728446958 -1.0834363102912901 -0.87374562025070179 1.1070913076400759 0.91290676593780529 -0.96257191896438588 -1.2182431221008299 -0.83829668164253224 0.18260090798139575 -1.3752152323722837 0.91136822104454052 1.0396823883056643 -0.31540758907794947 -0.085359483957290636 -1.0024109482765196 0.98149260878562938 -0.84499317407608021 1.2315063476562502 0.87758585810661327 -1.5840118527412412 1.2396256327629092
decision_type=2 2 2 2 2 2 2 2 2 2 2 2 2 2 2 2 2 2 2 2 2 2 2 2 2 2 2 2 2 2 2 2 2 2 2 2 2 2 2 2 2 2 2 2 2 2 2 2 2 2 2 2 2 2 2 2 2
left_child=1 2 12 16 5 -5 -6 8 14 10 11 -10 23 -12 15 32 55 -17 38 35 22 -22 -11 47 39 -18 -25 31 29 -29 -30 34 -2 -33 -20 -14 48 45 50 -16 42 43 -39 -40 -43 -38 -42 -1 49 -9 -3 52 -50 -53 -26 -4 -47
right_child=7 18 3 4 6 -7 -8 36 9 20 13 -13 19 -15 24 17 25 -19 27 -21 21 -23 -24 26 54 -27 -28 28 30 -31 -32 33 -34 -35 -36 -37 37 40 41 -41 46 44 -44 -45 -46 56 -48 -49 51 -51 -52 53 -54 -55 -56 -57 -58
leaf_value=-0.026239371477671605 -0.10498810294951127 0.29067351298559702 -0.19096304370803643 0.1092566112460211 -0.035165126494340768 0.066996116745322479 0.069251241809511005 0.20229574019816346 0.060491386518534765 0.11209310400251166 0.026287887368792492 -0.0015221651037994877 -0.11901777327024982 -0.017743945628612326 0.11696438020231344 0.20100130472013059 0.15014668816105198 -0.089501858712795687 -0.045379287239970534 0.26500676662177647 0.066246641284385635 -0.10958826063745566 -0.0054062360399886262 0.10934401974965141 -0.13777917440658718 0.19963233920935944 -0.060152537492436264 0.02987957797672532 0.064713297945046391 -0.04929162896407361 0.25624368828080168 0.33601322118493987 0.15860205572736963 0.0011136294247142294 0.062774743239007405 0.21036334406328061 0.020409276039779198 -0.081325326301373665 0.069592070673837256 -0.0023411506252546811 0.058487548817988767 -0.077276997664545488 0.14535021621917116 -0.042989791068486494 0.12644175249578885 -0.15871186620226724 -0.12757375318858569 -0.14444898240484175 0.083775662403415399 0.0086647939709341409 0.17871376426817961 0.20238703269185199 0.17306854796371837 0.17461805206734946 -0.11249264266679829 -0.17472256172544964 -0.16799296786366666
leaf_weight=26.031026840209961 673.41767524927855 19.785214200615883 14.465845182538034 27819.230245761573 1054.3174710571766 16740.490927368402 16796.077719151974 19.886074125766754 10136.378626339138 1981.4575269967318 6023.403479963541 1380.9402445703745 463.86058795452118 2223.4930282607675 156.4851151406765 67.981253236532211 1895.2104477286339 46.008629865944386 564.2185699865222 15.744330033659933 4758.9172792211175 107.75332248210907 247.67919947206974 249.91413806378841 5.6534427851438513 1026.2510104179382 60.127574354410172 3002.4674504324794 511.06421987712383 384.656743966043 61.277871690690517 18.506104208528996 17.73930735886097 22.612398348748684 112.69577953219414 9.6607494056224805 11.619833901524542 12.99783134460449 79.649363197386265 79.834020189940929 19.842257633805275 8.7192344516515714 526.2816464677453 45.90667387843132 228.93063026666641 17.196563735604286 12.448873542249201 50.830580353736877 31.373787149786949 17.282633230090141 18.708142101764679 124.84292171895504 203.61122404038906 103.92242130637169 55.651598747819662 5.1321832537651053 10.834256425499918
leaf_count=82 6181 29 58 47655 3305 39980 37783 13 37008 3530 30617 7554 2094 10186 417 52 2062 192 3159 23 12305 494 773 480 29 681 228 13208 1852 2462 188 52 27 129 328 16 31 67 209 343 80 37 673 206 282 74 96 218 47 39 27 77 160 71 609 21 45
internal_value=0 0.0825687 0.0866638 0.0883355 0.0847147 0.0933799 0.063084 0.0468809 0.0431613 0.0466929 0.0369329 0.0530559 -0.0380277 0.0144162 -0.0428592 -0.0724599 0.165169 0.0837483 0.0291734 -0.100156 0.0738778 0.0623535 0.0990378 0.0405381 0.0372179 0.16753 0.0764729 0.022927 0.0301876 0.0208885 0.0852195 -0.0171105 -0.0982228 0.151841 -0.0273733 -0.112298 0.140406 0.115667 0.101908 0.0766602 0.131236 0.0876694 0.139887 0.0284291 0.118967 -0.108755 -0.0132428 -0.104414 0.170592 0.112262 0.23626 0.175268 0.161147 0.189772 -0.114825 -0.18671 -0.162299
internal_weight=0 71306.5 66227.3 65351.2 62410.1 44559.7 17850.4 29074.9 27962.8 26860 19764.2 11517.3 876.169 8246.9 1102.77 805.147 2941.06 113.99 5079.2 489.266 7095.81 4866.67 2229.14 386.903 297.624 2921.46 310.042 4677.5 3959.47 3387.12 572.342 718.033 691.157 41.1185 676.914 473.521 1112.14 611.221 401.699 236.319 571.571 363.206 539.279 125.556 237.65 39.6507 32.2911 76.8616 500.919 37.1687 38.4934 463.75 234.985 228.765 61.305 19.598 28.0308
internal_count=268644 156854 134686 131545 128723 87635 41088 111790 110317 102467 85365 44562 3141 40803 7850 6452 2822 244 22168 2133 17102 12799 4303 1008 1398 2743 708 21378 17710 15670 2040 3668 6208 181 3487 2110 1473 1066 790 760 916 734 740 415 319 150 176 300 407 52 56 355 207 148 638 79 119
is_linear=0
shrinkage=0.1


Tree=9
num_leaves=63
num_cat=0
split_feature=32 134 32 124 133 108 106 133 104 73 136 135 6 101 103 67 31 3 49 109 52 95 53 2 32 52 32 134 57 8 70 27 104 130 93 34 124 74 115 95 94 73 32 36 40 1 31 131 3 97 0 71 70 36 95 23 60 107 101 110 30 5
split_gain=2179.77 1438.35 1329.1 1642.65 1569.77 1716.95 1529.81 2500.22 1116 876.994 689.933 705.386 647.563 854.243 827.433 961.289 874.596 548.453 489.552 450.791 435.081 404.59 937.801 450.389 359.837 317.02 306.204 298.001 286.56 264.336 255.64 253.237 245.124 237.719 233.708 195.905 190.895 187.183 287.896 186.598 173.946 160.83 150.175 148.856 143.936 143.928 123.489 111.238 89.5086 75.2923 66.5121 56.9334 52.711 61.368 51.2911 233.425 47.6866 37.047 30.2507 19.721 12.9722 10.1325
threshold=0.94529765844345104 1.0000000180025095e-35 0.8967500925064088 -1.103997468948364 1.0000000180025095e-35 -1.0660281777381895 -0.95103695988655079 1.0000000180025095e-35 -0.93918922543525685 -0.72872456908226002 1.0000000180025095e-35 1.0000000180025095e-35 0.66020563244819652 -0.86251589655876149 -0.81747600436210621 0.13132917135953906 1.0061107873916628 0.70936721563339245 1.1389753222465517 -0.925785332918167 1.1422146558761599 -1.032369017601013 0.97628316283226024 0.35222730040550237 0.96461245417594921 1.1137954592704775 0.95708128809928905 1.0000000180025095e-35 0.93102946877479564 0.8024621605873109 -0.28763653337955469 0.97363677620887767 -0.91298627853393544 1.0000000180025095e-35 -0.64864844083786 0.84353086352348339 -1.4702492356300352 -0.99623370170593251 -0.99204233288764943 -1.0614361166954038 -1.0505523681640623 -0.91077253222465504 0.96461245417594921 0.92410382628440868 0.9681592881679536 0.4943449348211289 0.98359483480453502 1.0000000180025095e-35 0.33015015721321112 -0.97112897038459767 0.34635131061077123 -0.56809866428375233 -0.30576093494892115 0.89335048198699962 -1.0549422502517698 1.4249253273010256 0.74808874726295482 -0.98390227556228627 -0.84953999519348133 -1.0772580504417417 1.0838137269020083 0.65862110257148754
decision_type=2 2 2 2 2 2 2 2 2 2 2 2 2 2 2 2 2 2 2 2 2 2 2 2 2 2 2 2 2 2 2 2 2 2 2 2 2 2 2 2 2 2 2 2 2 2 2 2 2 2 2 2 2 2 2 2 2 2 2 2 2 2
left_child=1 2 3 4 5 -1 7 31 -6 21 11 -8 14 37 16 18 26 29 50 -12 46 54 40 -24 28 -26 27 -2 -17 -5 -28 -4 -19 36 48 -9 -18 39 51 41 -23 -14 52 -20 -40 -35 57 61 -22 -41 -16 -39 58 -54 60 -56 -48 -11 -15 -36 -3 -44
right_child=12 9 6 17 8 -7 10 35 -10 20 19 -13 13 42 15 24 33 32 43 -21 34 22 23 -25 25 -27 30 -29 -30 -31 -32 -33 -34 45 59 -37 -38 38 44 49 -42 -43 47 -45 -46 -47 56 -49 -50 -51 -52 -53 53 -55 55 -57 -58 -59 -60 -61 -62 -63
leaf_value=0.011205559136147025 0.072977141205059409 0.19494306595958077 0.27657176011464735 -0.079431065493032055 0.11123865485835233 0.10671746795482986 0.017934211864805323 0.088820507668971302 -0.039811113751868271 0.050860152536306928 -0.059088750384047352 0.060353567659388756 -0.073356467651496268 -0.09100252908199466 -0.010616563704745853 0.032485277613346186 0.06867529189099951 -0.0063436436576508742 0.16492107884042562 0.083801164993122138 0.12961133463827915 0.055891527515589789 0.18984201596162131 0.10977868851726413 0.028576679947141054 -0.039715009085383161 -0.014749297957441697 0.11122036928652262 0.064673604793908684 0.073491872034313732 0.064559246234021886 -0.045490737052099856 -0.097664953857990247 -0.071992966910932266 -0.18505067823864219 0.12205706911395393 0.016727607894644055 0.17344237872465731 0.097931561444776438 -0.022733053774648959 -0.1371912043305907 0.058489759866929981 -0.12584946823665874 -0.045551203565089238 -0.05250246054463821 0.056136969260224878 -0.11221248590855082 0.45436039741674183 -0.058406877365202586 -0.12841172038122417 -0.08626029130743626 -0.079044172796009518 0.18031332736884975 -0.064109724083343131 0.17419707541081775 -0.049425561959179735 0.15896526730170013 -0.15501578394514556 -0.13620816494698246 -0.0034007818978475236 0.24098217116592929 0.095046225385431671
leaf_weight=2049.3043076395988 5094.6077726483345 450.7984461337328 24.893682718276978 127.39764086902142 735.33045010268688 23067.323601029813 11704.409896627069 2691.2111545205116 1460.9013244062662 9.1921348273754102 233.04046306014061 5894.2568075954914 108.6303608044982 311.47544061392546 132.55076119303703 5584.8590893447399 1031.2221682071686 809.49889104440808 121.38101284205914 4198.6677032858133 222.25296428799629 65.23565711081028 870.08736728131771 3650.4882030040026 2965.291324198246 881.92253608256578 508.01582330465317 3395.5933208763599 5479.2956946641207 1002.598816499114 2032.5523195490241 1268.1731765270233 461.49816406145692 372.35838226228952 32.753999441862106 5200.2193316668272 2252.6721996888518 9.5218504220247251 773.78649786114693 511.3702180981636 163.84222018718719 623.81522507220507 5.8784902095794678 46.466663084924221 69.29921068251133 114.66603360325098 9.4688383489847201 8.5699154585599899 28.575518175959587 77.656012251973152 944.61758445948362 143.87729904055595 11.10717713832855 136.6209886521101 829.00807158648968 49.463503763079643 20.576007395982742 177.93982699513435 282.09867154061794 7.3106262385845175 70.814897701144218 3.2107245773077011
leaf_count=5572 13160 293 22 1497 1181 38578 37679 4671 4291 19 719 13127 652 1525 513 21596 3553 3076 192 7346 295 123 648 5340 13949 5386 2296 6813 18384 2370 6198 3876 4547 2437 132 7197 10195 40 1957 2525 602 2596 37 235 340 585 32 12 85 434 5150 706 28 702 691 140 22 676 1523 18 46 14
internal_value=0 0.0745485 0.0697262 0.0848642 0.0918354 0.0989245 0.0553161 0.0896024 0.0107626 0.11868 0.0410221 0.0321416 0.0435169 -0.000236041 0.0478655 0.0322173 0.0649458 0.00556277 -0.052199 0.0762873 -0.00758977 0.129112 0.115186 0.125189 0.0392656 0.0129217 0.0791582 0.0882722 0.0484259 0.0562511 0.0487006 -0.0392905 -0.0395023 0.0233713 0.0723685 0.110722 0.0330404 0.0299141 0.0626388 0.00523743 -0.0822061 0.0389354 -0.0923182 0.106654 0.0855663 -0.0418258 -0.114688 0.195887 0.108191 -0.0366655 -0.076952 -0.0633717 -0.0991838 -0.0457324 0.176354 0.161606 0.0735017 -0.144903 -0.112487 -0.151905 0.201193 -0.047819
internal_weight=0 67586.5 60928.7 29713.9 27312.9 25116.6 31214.9 9184.5 2196.23 6657.81 22030.4 17598.7 34035 3076.92 30958.1 16156.4 14801.7 2400.99 1245.02 4431.71 508.07 6149.74 4749.65 4520.58 14911.4 3847.21 11030.8 8490.2 11064.2 1130 2540.57 1293.07 1271 3770.92 290.893 7891.43 3283.89 2317.96 996.485 1321.47 229.078 732.446 758.961 167.848 843.086 487.024 217.177 17.6591 250.828 589.026 1077.17 153.399 741.302 147.728 1400.08 878.472 30.0448 187.132 593.574 40.0646 521.613 9.08921
internal_count=268644 144911 135749 61112 49622 44150 74637 15766 5472 9162 58871 50806 123733 13091 110642 65405 45237 11490 6090 8065 1279 7883 6713 5988 59315 19335 28467 19973 39980 3867 8494 3898 7623 16770 530 11868 13748 9250 3043 6207 725 3248 3841 427 2297 3022 749 63 380 2959 5663 746 3778 730 1170 831 54 695 3048 150 339 51
is_linear=0
shrinkage=0.1


Tree=10
num_leaves=53
num_cat=0
split_feature=106 129 30 130 110 119 48 32 118 136 84 38 104 112 35 30 105 29 12 109 78 108 109 1 115 30 46 40 77 53 32 96 132 116 108 69 69 130 78 34 36 77 105 72 81 81 69 126 109 107 70 109
split_gain=1853.82 1319.21 1162.33 1139.06 1148.42 1283.13 722.065 721.351 521.14 495.96 543.03 423.666 375.764 366.188 364.182 311.132 263.709 257.289 237.805 203.74 191.631 312.683 189.894 185.786 178.466 162.344 148.346 130.264 118.171 116.731 115.263 107.152 94.3379 79.2021 167.775 88.2607 68.1715 54.2789 56.5492 51.9874 38.7266 32.3737 31.0288 30.9937 20.2746 11.8533 30.4194 24.3683 10.8277 9.18295 9.14784 0.768843
threshold=-0.86324685811996449 1.0000000180025095e-35 1.0908202528953554 1.0000000180025095e-35 -1.205137252807617 -1.6482197642326353 1.234204173088074 0.82570350170135509 -1.5953949093818662 1.0000000180025095e-35 -1.128149628639221 0.98762440681457531 -0.95232367515563954 -0.91909086704254139 0.91613501310348522 1.1033922433853152 -0.7711580991744994 0.94283908605575573 0.8470822572708131 -1.1079214215278623 -1.3337750434875486 -0.86797121167182911 -0.95476576685905445 0.60315972566604625 -0.91372415423393238 1.1109071969985964 1.2281901240348818 0.92328736186027538 -1.189425468444824 1.0302215814590456 0.9667438566684724 -0.91700297594070423 1.0000000180025095e-35 -1.4723693728446958 -1.0077977776527403 0.044664040207862861 -0.17277478426694867 1.0000000180025095e-35 -0.34034353494644159 0.88852858543396007 0.78711447119712841 -1.1292316913604734 -0.76609298586845387 -0.28838039934635157 -0.20706709474325177 -0.31540758907794947 0.064113449305295958 -2.9552426338195796 -1.1179390549659727 -0.93968477845191944 -0.069554772228002534 -1.0834363102912901
decision_type=2 2 2 2 2 2 2 2 2 2 2 2 2 2 2 2 2 2 2 2 2 2 2 2 2 2 2 2 2 2 2 2 2 2 2 2 2 2 2 2 2 2 2 2 2 2 2 2 2 2 2 2
left_child=1 2 3 4 11 -6 7 8 19 10 13 -1 25 -9 -12 23 24 -3 39 42 29 -22 43 -14 -10 31 -18 -20 36 -11 -30 -4 -17 45 35 -35 -24 38 -36 -5 -27 -39 -2 49 -21 46 -8 -48 -47 -19 -50 -37
right_child=6 17 12 18 5 -7 33 9 16 20 14 -13 15 -15 -16 32 26 22 27 44 21 -23 28 -25 -26 40 -28 -29 30 -31 -32 -33 -34 34 37 51 -38 41 -40 -41 -42 -43 -44 -45 -46 48 47 -49 50 -51 -52 -53
leaf_value=0.033600396581353151 0.10142765884260695 0.22652467513780494 0.1426304466390548 -0.015562164955702463 0.14526032674778572 0.071865535782771522 0.1677160107699259 0.01399961939901853 0.024871807279225687 -0.11629896525481175 0.1138288704609955 -0.10867053908383006 -0.015925651510390392 0.04148511312245045 -0.032255673870215322 -0.081238381429876869 -0.12519504930615385 -0.12457703545027257 -0.01033432892336395 0.19879542232500946 0.048764028853174192 0.093415408197593017 -0.074316214514947201 0.035538692278040157 -0.1108395517772493 -0.043722192737681374 0.030896704946306294 0.075386167168982859 0.0036304575545425908 0.019356549884072195 0.20670124443117538 -0.013565888492153131 0.41185035065305353 0.13620858564425117 0.12565297161134648 -0.16107793728952124 0.038655672811579445 0.17962528699148522 0.019217164207632791 -0.067092146762497126 0.21998686862867942 -0.070603918955975606 -0.1659889731327297 0.13844238874833401 0.12165611897171846 0.091293398105383547 -0.12071078984990247 0.11528659509547606 0.16822179942842092 -0.092099474780939758 0.13906114087534011 -0.20343461036158242
leaf_weight=389.59698104858398 5.2855359017848995 36.63346441090107 351.43216747045517 304.20529793202877 2478.7309739142656 61028.438678123057 23.78195758163929 11695.429348990321 373.46164101362228 84.323458939790726 1120.3411388918757 452.31692887097597 1201.4220719784498 8278.2758507505059 201.31585088372231 429.08765560388565 547.84854615479708 169.7609281539917 381.25381845235825 91.35419325530529 5099.0229714512825 2264.9586640745401 346.76029190421104 1685.6115562841296 130.85055511817336 83.175804637372494 68.498347789049149 331.35300953686237 443.85772524774075 256.03350675106049 29.829269886016846 50.192449383437634 3.9154420197010031 13.117420285940169 483.3153765052557 30.864871010184284 63.141084983944893 6.4928316995501545 55.666617169976234 549.32682753354311 5.9683641865849486 25.383269891142845 24.228693261742592 5.1824015974998465 54.33894257247448 29.416944190859795 8.9973909109830874 8.517119422554968 220.59498535096645 178.70590133965015 209.97915975749493 4.9763697683811214
leaf_count=1004 10 37 511 1705 2240 119139 17 51855 1275 352 1838 2090 4832 33545 929 2409 4992 914 1745 63 12882 4127 1659 5636 1696 344 161 1450 1844 663 99 135 4 17 611 132 277 13 116 3536 14 183 102 15 63 37 30 10 144 939 183 20
internal_value=0 0.0661943 0.0680368 0.0711412 0.073192 0.0747302 0.0370194 0.034103 -0.0388932 0.0373649 0.0294989 -0.0428344 0.0143396 0.0253912 0.0915772 0.0022666 -0.063968 -0.0346528 -0.0131216 0.12149 0.059107 0.0624976 -0.042386 0.0141221 -0.0103403 0.0960133 -0.107848 0.0295246 -0.017601 -0.0142521 0.0164183 0.12311 -0.0767796 0.115828 0.0919249 -0.0857317 -0.0569141 0.107161 0.11466 -0.0487265 -0.0260664 -0.0196348 -0.118099 -0.104311 0.170025 0.145383 0.0940623 -0.00594778 0.149991 -0.107921 0.154001 -0.166959
internal_weight=0 70999.9 69726 65915.2 64349.1 63507.2 31416.7 30295.6 1295.87 28999.7 21295.4 841.914 3810.81 19973.7 1321.66 3320.04 1120.66 1273.87 1566.14 175.207 7704.34 7363.98 1237.24 2887.03 504.312 490.769 616.347 712.607 883.588 340.357 473.687 401.625 433.003 1121.1 619.817 48.9587 409.901 570.858 538.982 853.532 89.1442 31.8761 29.5142 353.649 145.693 501.288 41.2965 17.5145 459.991 348.467 430.574 35.8412
internal_count=268644 152578 146794 132909 124473 121379 116066 114553 8362 106191 88167 3094 13885 85400 2767 12881 8124 5784 8436 238 18024 17009 5747 10468 2971 1004 5153 3195 3879 1015 1943 646 2413 1513 1092 169 1936 923 727 5241 358 196 112 1868 126 421 57 40 364 1853 327 152
is_linear=0
shrinkage=0.1


Tree=11
num_leaves=62
num_cat=0
split_feature=31 36 49 30 12 117 103 134 40 72 99 74 103 42 135 31 100 111 73 38 72 30 61 69 69 45 70 101 135 124 114 58 108 36 7 45 102 98 103 101 29 127 80 112 70 32 109 3 6 38 107 98 4 109 40 133 135 41 53 66 33
split_gain=1730.32 1415.85 1093.31 676.798 1348.47 736.627 596.914 1212.41 789.729 598.49 587.434 544.47 540.67 822.892 458.789 410.497 631.648 379.487 380.25 376.816 322.416 303.151 466.626 298.619 293.883 491.148 291.136 265.459 281.429 262.506 261.531 205.68 191.672 172.226 169.396 150.584 149.128 148.448 146.956 140.133 138.909 128.985 84.7472 74.8941 73.1663 81.7432 68.3485 65.2419 64.9026 64.6349 59.2527 57.5173 39.2565 37.5353 64.3727 32.4023 31.4302 28.6296 21.2052 15.3885 24.449
threshold=0.99929723143577587 0.92845687270164501 0.82057425379753124 1.0729646086692812 0.87142914533615123 -1.5379366278648374 -0.83496567606925953 1.0000000180025095e-35 0.9749324917793275 -0.68105936050415028 -0.8505137264728545 -0.99100950360298146 -0.85230448842048634 0.9976969063282014 1.0000000180025095e-35 1.0030598640441897 -0.83026382327079762 -1.2481714487075803 -0.79151469469070423 1.0074087381362917 -0.60964807868003834 1.0682366490364077 0.56593215465545665 -0.028039935976266857 -0.094123765826225267 1.1114381551742556 -0.15812667459249494 -0.89987650513648976 1.0000000180025095e-35 -1.4825567603111265 -0.92687711119651783 0.79537609219551098 -1.0565664768218992 0.82246729731559765 0.69214493036270153 1.0870788693428042 -0.85555541515350331 -0.88168793916702259 -0.81851026415824879 -0.84879225492477406 1.2354062199592593 -1.6489738821983335 -1.3275319933891294 -1.0473031401634214 -0.31522063910961146 0.95406064391136181 -0.94532665610313404 0.84290879964828502 0.63959467411041271 0.99880608916282665 -1.0165020227432249 -0.96234810352325428 0.61269390583038341 -0.90004298090934742 0.6526465415954591 1.0000000180025095e-35 1.0000000180025095e-35 0.99316999316215526 0.78671687841415416 0.47348290681838995 0.86160248517990123
decision_type=2 2 2 2 2 2 2 2 2 2 2 2 2 2 2 2 2 2 2 2 2 2 2 2 2 2 2 2 2 2 2 2 2 2 2 2 2 2 2 2 2 2 2 2 2 2 2 2 2 2 2 2 2 2 2 2 2 2 2 2 2
left_child=1 2 30 4 5 -4 7 9 39 27 11 -5 42 36 -6 16 29 32 37 23 -18 35 -23 -20 38 -26 -21 28 -2 -10 40 -15 49 -12 -29 -11 -14 41 -17 44 43 -19 51 -1 52 -46 -44 -42 -39 50 -3 -9 -8 54 -32 -51 57 -41 -55 60 -34
right_child=6 17 3 10 14 -7 8 12 15 21 33 -13 13 31 -16 24 20 18 19 26 -22 22 -24 -25 25 -27 -28 34 -30 -31 53 -33 59 -35 -36 -37 -38 48 -40 56 47 -43 46 -45 45 -47 -48 -49 -50 55 -52 -53 -54 58 -56 -57 -58 -59 -60 -61 -62
leaf_value=-0.17878081881685751 0.033565471680186559 -0.14481625523360273 0.10308713423590035 0.029373679951744003 0.087513686679958694 0.05800383306891408 0.0039589547481717769 0.15748091915810356 0.14675167138318743 0.081525491468631167 -0.14618030484134956 0.070823981542362163 0.040187062298653244 -0.067755227978358659 0.13001662620085938 -0.0021327117706867716 -0.066753781268185639 0.051983135358487309 0.033734081007670225 -0.036480784918585495 0.019147856855944868 0.074749977068935367 -0.0014000403966457026 0.08208181739842936 0.11509720849155447 -0.009065179554554997 0.040254615549134135 -0.0065435398602741489 -0.061970443002931232 0.057149889495073505 -0.13591729068397909 0.10510618793860951 -0.050780439393525112 -0.013262712319920253 -0.067034827665562291 0.04115268016206982 -0.098992527464814073 -0.094721009937708767 -0.044598652829691832 -0.12758364052901569 -0.071728857082654293 -0.061106400856708411 0.035955134734949122 0.055251133767394323 0.10564048345136175 -0.077213173682395428 0.14151086353195552 0.15161748997487809 0.18012324220276166 -0.14505287237651085 0.12686577527124035 -0.17623512418175186 -0.12896302633945306 -0.10959059797259829 0.066715045442007848 0.10817007149848086 0.078265780946068023 -0.074685984433437227 0.090153116470166952 0.19273027205140003 0.14757045032370744
leaf_weight=14.254716023802755 2267.9763948693871 13.96653565764427 4036.6506223231554 6492.7601459920406 7699.8759478293359 35473.025898933411 35.717680901288986 8.0111937373876589 370.3890041410923 2240.9597047790885 181.15785576403141 6190.3344220146537 101.20681066811085 73.000853948295116 3789.5751040279865 2370.3862375915051 545.51572688668966 224.32875572144985 6014.9998344108462 1184.1976647078991 2195.1185090914369 1216.9587954431772 2375.3325075730681 1622.0068661794066 512.29342499375343 842.58572194725275 848.84167341887951 1337.8740833029151 356.86190359294415 2789.1003324910998 28.345984235405922 1205.5446847304702 10.53759925067425 211.05911719799042 707.86946416646242 1571.8625814914703 321.67793422192335 339.50414792448282 1241.8163717389107 416.54236390441656 197.47433866560459 183.23294082283974 63.7602668851614 335.68197277188301 70.084374085068703 37.545256033539772 1618.0594976246357 14.006497532129286 8.8149735406041128 214.16705441474915 18.878482848405838 14.53552609682083 58.789479941129684 382.89643792808056 35.08005303144455 5.1753457635641089 8.5818059742450696 135.63074884563684 5.3897254541516295 15.357155740261076 15.146728619933127
leaf_count=61 8678 68 5613 16874 13028 74998 155 8 657 5599 687 12015 224 334 4072 10331 2785 852 20182 6492 9015 2530 8381 4342 1180 3902 3351 5800 1615 9089 156 2217 35 531 3375 4912 1244 1812 6848 2092 789 884 160 654 199 189 1611 14 21 1014 31 61 358 5729 95 11 18 618 18 17 13
internal_value=0 0.0589989 0.064545 0.0661747 0.0713787 0.0626099 0.029563 0.0424236 0.0124434 0.0275618 0.0458773 0.0496046 0.0951181 0.0552403 0.101532 0.0193477 0.0371803 0.0253227 0.0284782 0.0338175 0.00204937 0.0452422 0.0243973 0.0440025 -0.00183475 0.0378819 -0.00444195 -0.000470077 0.0205768 0.067654 -0.0385251 0.0952364 -0.086872 -0.0746549 -0.0274748 0.0648815 -0.0656834 -0.0398287 -0.0167318 -0.0859068 0.00704887 0.00113997 0.134927 0.0457178 -0.0145224 0.0418543 0.137509 -0.0569365 -0.0877655 -0.119488 0.0113397 -0.0576607 -0.078727 -0.0951674 -0.0238442 -0.139078 -0.111639 -0.11459 -0.106818 0.113541 0.0661923
internal_weight=0 75806.7 65087.6 64074.4 50999.1 39509.7 27111.6 15481.5 11630.1 12075.7 13075.3 12683.1 3405.8 1701.43 11489.5 10867.2 5900.12 10719.2 10425.9 9670.05 2740.63 7405.11 3592.29 7637.01 4967.08 1354.88 2033.04 4670.58 2624.84 3159.49 1013.13 1278.55 293.229 392.217 2045.74 3812.82 422.885 755.881 3612.2 762.892 561.418 407.562 1704.37 349.937 202.137 107.63 1681.82 211.481 348.319 252.187 32.845 22.5467 94.5072 451.712 63.426 219.342 560.755 552.173 388.286 41.0415 25.6843
internal_count=268644 174459 135334 127818 97711 80611 94185 46749 47436 40890 30107 28889 5859 4019 17100 43807 21546 39125 37936 34367 11800 21422 10911 24524 22261 5082 9843 19468 10293 9746 7516 2551 1189 1218 9175 10511 1468 3569 17179 3629 1518 1736 1840 715 901 388 1771 803 1833 1124 99 69 513 5998 251 1025 2728 2710 5747 65 48
is_linear=0
shrinkage=0.1


Tree=12
num_leaves=63
num_cat=0
split_feature=31 37 49 117 110 103 30 53 129 130 97 108 73 76 112 103 38 69 27 46 114 114 128 37 61 118 72 55 7 104 30 127 97 74 133 29 32 35 111 87 30 112 89 112 25 0 52 54 40 109 40 69 53 73 72 127 105 70 68 31 30 30
split_gain=1402.54 1193.37 859.553 596.745 1061.83 698.351 1145.03 796.733 518.57 518 521.746 416.345 379.313 329.296 364.888 333.932 266.754 308.848 271.028 239.473 233.477 216.076 224.174 193.399 169.259 163.556 154.187 181.727 301.73 189.674 165.24 147.116 219.479 154.167 129.168 113.901 105.727 97.0424 77.6399 109.692 90.0228 71.4682 68.7922 61.9548 58.6382 52.5779 46.5395 51.9136 43.2288 35.9935 55.1167 34.4816 18.8916 15.9849 37.961 14.5999 46.9751 8.27463 5.87214 0.201888 0.195548 0.0746433
threshold=0.99929723143577587 0.96289804577827465 0.82057425379753124 -1.5379366278648374 -1.205137252807617 -0.84293910861015309 1.0707722902297976 1.0247884392738345 1.0000000180025095e-35 1.0000000180025095e-35 -0.96915343403816212 -1.0565664768218992 -0.76843219995498646 -1.2200536727905271 -0.89864712953567494 -0.83619603514671315 1.0149520039558413 -0.018021864816546437 1.1235413551330569 1.2160277366638186 -0.92687711119651783 -0.90807944536209095 1.0000000180025095e-35 0.94738250970840465 0.76491564512252819 -1.611707270145416 -0.6700536012649535 1.0211393833160403 0.54243955016136181 -0.80804207921028126 1.0876251459121706 -1.5460681319236753 -0.98920652270317067 -1.0092086791992185 1.0000000180025095e-35 1.2354062199592593 0.91899389028549205 0.93429800868034374 -0.92280200123786915 -1.2442911267280576 1.0357615351676943 -0.88689929246902455 -1.0191070437431333 -1.0473031401634214 1.6232018470764162 0.47015884518623358 1.0065531730651858 0.96370765566825878 0.96659120917320263 -0.90004298090934742 0.6526465415954591 -0.009675665292888878 0.78671687841415416 -0.70902448892593373 -0.53886994719505299 -3.0259171724319454 -0.84307685494422901 -0.14064641296863553 0.096377532929182066 1.0083742141723635 1.0838137269020083 1.0809424519538882
decision_type=2 2 2 2 2 2 2 2 2 2 2 2 2 2 2 2 2 2 2 2 2 2 2 2 2 2 2 2 2 2 2 2 2 2 2 2 2 2 2 2 2 2 2 2 2 2 2 2 2 2 2 2 2 2 2 2 2 2 2 2 2 2
left_child=1 2 20 4 23 6 -5 -7 9 13 31 19 37 21 15 -15 17 -14 -18 24 35 48 -23 -4 34 -6 45 28 29 -28 -30 33 -33 -11 -3 43 -26 42 40 -40 -12 -16 -13 -1 -37 59 60 -48 -2 50 -22 -39 -51 58 -55 57 -57 -21 -29 61 -47 -10
right_child=8 11 3 5 25 7 -8 -9 26 10 38 12 16 14 41 -17 18 -19 -20 55 49 22 -24 -25 36 -27 27 53 30 -31 -32 32 -34 -35 -36 44 -38 51 39 -41 -42 -43 -44 -45 -46 46 47 -49 -50 52 -52 -53 -54 54 -56 56 -58 -59 -60 -61 -62 -63
leaf_value=-0.16667367769440655 -0.1447927573584725 -0.098262298243590979 0.02902550024325188 0.079549758902048073 0.14654678407063146 -0.024345492389801431 0.043492793400688901 0.048167932738722101 -0.13537622819102663 0.26669080086003394 0.21864353186464208 -0.030009827321481247 0.02304565936890686 0.046917697657396305 0.089528673272421255 0.020755702022945147 0.026517574212219404 0.079349933574993314 -0.077398422485140797 -0.016771210092522981 -0.13155232076405274 -0.016779296172235069 0.070964027392055748 -0.094218604240500006 0.13799094254570696 0.10045291089744368 -0.12704535465363317 -0.12579865203686569 -0.0084775984040840521 0.38467744453779495 0.34315056424718149 0.087832050272925261 -0.060050498030082604 0.06284172627864705 0.089831478187125627 0.18140245982889402 -0.070115178136820153 -0.10628406118238581 -0.031064364555682109 0.060964022565127576 -0.053795174964257009 0.16276950006079335 0.172874590986409 0.049628402505097029 -0.064629047411004295 -0.13819429600058428 0.095367057449156356 -0.050106957531908795 -0.05966736745713605 -0.10736827086495285 0.058827163655347826 0.17436546262977576 0.079593107946253489 0.27746424154502614 -0.12130757830554853 -0.12442685056349181 0.17931385123832755 -0.15688264920932549 -0.075962555847486041 -0.12586938362569738 -0.12555677602019485 -0.12706329583383597
leaf_weight=13.784777089953421 78.284809723496437 190.76894990354776 233.8439679890871 21849.61078915745 1166.2492726296186 1609.6254257522523 14754.441680900753 25834.728526726365 57.715926915407181 67.879635572433472 12.246596805751322 390.41495275497437 3333.4132868200541 11751.686207525432 626.31418187171221 8342.1847349926829 605.01697622984648 1376.5424931794405 428.91909022629261 4.3144912123680106 26.455159455537796 940.89189859479666 421.67172040045261 279.53037571907043 90.726383820176125 2264.5842306315899 9.357367090880869 124.19195544719696 1333.6034529432654 32.061469972133636 13.499657228589056 319.01729989051819 146.42321738600731 81.817886844277382 45.150593310594559 10.189485520124434 33.399934805929661 238.70855759829283 582.05340577661991 166.58636289089918 1260.1301406398416 169.230429276824 17.459928303956985 336.30317966639996 196.52843934297562 16.609116017818451 28.123189315199852 192.03677592426538 250.69713542610407 353.2666237577796 35.766009584069252 4.4596208333969107 5.4886003620922557 3.5507061332464218 7.2850929945707303 61.416252601891756 5.551971808075904 182.85228876769543 29.202874630689621 58.036198556423187 46.590618133544922 13.28835019469261
leaf_count=61 411 759 579 36785 887 4596 32876 60051 302 155 38 1717 12576 30784 1458 29723 2498 3992 2873 12 156 4465 1672 1238 137 2727 58 777 6431 71 23 1129 798 359 70 15 138 1253 3046 773 7981 249 22 654 788 84 105 947 1369 5729 95 9 18 13 53 252 4 892 177 360 294 80
internal_value=0 0.0529651 0.0569603 0.0582991 0.0960509 0.0559742 0.0650158 0.043915 0.0264969 0.0303526 -0.0115945 0.0136518 0.0212049 0.0352497 0.038686 0.0360563 0.0294043 0.0395013 -0.016591 -0.064992 -0.0361322 -0.00718721 0.0103746 -0.0380804 -0.0125314 0.116122 -0.022981 -0.00854539 0.0032201 0.269069 -0.00495384 0.069044 0.0413096 0.155276 -0.0622647 0.00635694 0.0819937 -0.0511352 -0.0361386 -0.0105863 -0.051173 0.105109 -0.0213249 0.0411115 -0.0525017 -0.0773332 -0.0532377 -0.0315241 -0.0799239 -0.0923306 -0.0221183 -0.101137 -0.104508 -0.108019 0.00936313 -0.139316 -0.0992454 -0.153653 -0.116311 -0.130244 -0.128878 -0.13382
internal_weight=0 75979.5 68970.4 67992.6 3944.21 64048.4 36604.1 27444.4 27182.3 25217.1 2636.15 7009.12 6394.93 22581 20889.4 20093.9 5743.89 4709.96 1033.94 614.181 977.782 1691.55 1362.56 513.374 360.046 3430.83 1965.15 1552.75 1388.52 41.4188 1347.1 615.138 465.441 149.698 235.92 556.806 124.126 651.043 2021.02 748.64 1272.38 795.545 407.875 350.088 206.718 412.4 283.36 220.16 328.982 420.976 62.2212 243.168 358.755 164.231 10.8358 254.135 66.9682 187.167 153.395 129.04 63.1997 71.0043
internal_count=268644 174459 147255 139739 5431 134308 69661 64647 94185 84410 14279 27204 24940 70131 62214 60507 21939 16568 5371 2264 7516 7917 6137 1817 1104 3614 9775 7603 6583 129 6454 2441 1927 514 829 1518 275 3001 11838 3819 8019 1707 1739 715 803 2172 1430 1052 1780 5998 251 1262 5747 1020 66 1160 256 904 954 742 378 382
is_linear=0
shrinkage=0.1


Tree=13
num_leaves=62
num_cat=0
split_feature=31 36 123 32 133 111 134 55 106 100 2 72 103 134 70 69 45 44 101 31 102 69 111 45 77 35 74 101 42 134 123 134 123 1 128 32 37 108 7 68 33 31 64 99 127 106 44 56 15 136 28 108 76 2 103 36 25 136 29 30 60
split_gain=1203.38 1153.32 798.705 722.686 854.996 730.182 679.096 933.5 813.852 535.69 469.859 445.914 403.155 512.615 453.788 389.537 396.539 386.495 370.155 286.294 282.747 274.605 246.798 229.988 222.949 209.967 192.179 188.629 378.492 178.771 173.185 172.728 168.241 324.444 158.931 191.854 230.001 152.007 138.416 125.013 124.101 120.502 120.291 119.981 169.289 117.152 116.285 111.425 97.0951 88.7569 85.6271 84.9486 171.433 80.6116 65.9865 47.5577 44.3983 37.5383 33.5955 44.5804 13.438
threshold=1.0028365254402163 0.92845687270164501 -1.0809553265571592 0.88050204515457164 1.0000000180025095e-35 -1.2699831724166868 1.0000000180025095e-35 1.019878685474396 -0.96794182062149037 -0.94075471162796009 0.67855623364448558 -0.61044517159461964 -0.83273306488990773 1.0000000180025095e-35 -0.32667693495750422 -0.094123765826225267 1.1114381551742556 1.104702949523926 -0.9315621256828307 1.0066054463386538 -0.92741823196411122 -0.061760311946272843 -1.2481714487075803 1.0006785392761233 -1.0567579865455625 0.87462925910949718 -0.94608521461486805 -0.86651098728179921 1.0023808479309084 1.0000000180025095e-35 -1.3258873820304868 1.0000000180025095e-35 -1.3943830132484434 0.38251510262489324 1.0000000180025095e-35 0.96890982985496532 0.95392245054245006 -1.0565664768218992 0.50284475088119518 -0.010395588818937538 0.93921956419944774 1.0094126462936404 0.43097367882728582 -0.85423544049262989 -1.8105638623237608 -0.85796073079109181 1.0683113336563113 0.89027291536331188 0.93098530173301708 1.0000000180025095e-35 1.1458064317703249 -0.89645284414291371 -1.1592980623245237 0.44515353441238409 -0.84351778030395497 0.78711447119712841 1.3208530545234682 1.0000000180025095e-35 1.1050998568534853 1.045933783054352 0.6948457956314088
decision_type=2 2 2 2 2 2 2 2 2 2 2 2 2 2 2 2 2 2 2 2 2 2 2 2 2 2 2 2 2 2 2 2 2 2 2 2 2 2 2 2 2 2 2 2 2 2 2 2 2 2 2 2 2 2 2 2 2 2 2 2 2
left_child=1 2 3 4 5 -1 8 -8 -5 -6 18 38 13 14 24 34 30 21 23 27 31 40 37 -4 46 56 -24 45 -29 -20 49 -12 33 -18 35 39 -37 -19 58 -14 -13 -27 -32 44 -40 -15 -2 -26 -23 -17 -34 60 -53 -21 -55 -22 -16 -45 59 -3 -36
right_child=12 11 10 6 9 -7 7 -9 -10 -11 20 17 15 19 25 16 32 22 29 53 55 48 26 -25 47 41 -28 28 -30 -31 42 -33 50 -35 51 36 -38 -39 43 -41 -42 -43 -44 57 -46 -47 -48 -49 -50 -51 -52 52 -54 54 -56 -57 -58 -59 -60 -61 -62
leaf_value=-0.063222823793052024 -0.0058456634270738182 0.11633827076908594 0.069066162785128948 0.079466739788203067 0.10894326134641803 0.078371685132760743 0.056325301806678912 0.13494304858893655 0.036036784651525704 -0.062173531529212428 -0.017282053685791041 0.057275980891319384 -0.081477030657137406 0.13885515566938841 -0.0037975125738181244 -0.019816318486635991 -0.058883636598675605 -0.10720658122687916 -0.040069434862056955 0.31542159071087239 -0.11660419225243071 0.057560590156174089 -0.030563351104801836 -0.02808327745370905 0.067626454191791571 0.062089542511884255 0.024102507508363791 -0.063268368608299708 0.10020943296464183 0.15409134370033672 0.19264222363833253 0.17299130994700282 -0.02081798548221141 0.13122688283286973 0.079907808200777308 0.17601423107147854 -0.02582500535625672 0.10438543455086671 0.16815932069135611 -0.029418060824077188 -0.088849921256876338 0.017055514615076248 0.021996386349082873 -0.10632546694626621 -0.042820221320152535 -0.099241472078014537 -0.077305841638290629 -0.011562354515417593 0.17725122193994872 0.17896960538035389 -0.12247900559891943 0.019542449617413762 0.21018121548114049 -0.0031473693462250557 -0.12779426096251231 0.08302951659321206 -0.12209794279195629 0.084527558127824795 0.26835557704361496 -0.1387190026836673 -0.12763632358849383
leaf_weight=372.10002352297306 4252.8204039186239 36.660370133817196 1833.4615811742842 4907.4602022916079 242.37046127021313 17151.445564374328 9087.5894979536533 1811.3817980885506 35732.319823384285 746.20915539562702 1294.5597144588828 582.67115214467049 570.49031519144773 666.90430621802807 51.588186427950859 24.772522076964378 159.56784965097904 230.5320853330195 677.83242217078805 6.2477591037750235 350.03352211415768 88.106466189026833 686.11794374883175 281.03490972518921 632.51353454589844 2457.2927312403917 10255.096959292889 189.34202706813812 561.9683924689889 50.988615915179253 49.346080273389816 49.535225093364716 456.08448061347008 205.22327343374491 3.4247239828109732 93.633057162165642 142.19483914226294 39.81590773910284 41.247044041752815 2409.604671664536 64.558631166815758 783.65932593494654 253.6229896992445 356.07881715893745 487.92217494547367 21.3262008279562 240.60051660984755 247.10492683202028 293.72533884644508 240.72414417564869 101.24376117438078 330.99298964440823 55.010196447372437 113.182960242033 67.979798100888729 12.354257196187971 82.391562655568123 10.612844303250311 10.360389888286589 8.4282898455858213 35.027016185224056
leaf_count=1566 18513 72 3627 7381 347 27341 18942 1934 83636 2241 5665 1786 3377 629 137 111 886 1124 3524 7 3453 275 3007 987 1307 6949 36891 744 1159 36 64 39 2162 635 15 283 842 60 102 11260 338 3229 859 2149 2351 79 1262 707 557 222 510 1655 193 365 415 23 320 19 15 44 216
internal_value=0 0.0458562 0.050676 0.053313 0.0702606 0.075365 0.0472257 0.0693914 0.0412812 -0.0202208 0.0100754 0.0186002 0.0156378 0.0269774 0.0173914 -0.00729093 0.0357686 0.0237257 0.0349712 0.0785204 -0.0314056 0.0823776 0.0183422 0.0561542 -0.000659375 0.046129 0.0206744 0.0936561 0.0590105 -0.0264859 0.10146 -0.0102697 -0.00472837 0.0480683 -0.0249221 -0.032513 0.0543132 -0.076044 -0.0473494 -0.0393839 0.0427005 0.0512004 0.0497903 -0.0568392 -0.026375 0.131477 -0.009672 0.0453805 0.149633 0.160422 -0.0392856 0.0325911 0.0467108 -0.0377406 -0.0499201 -0.109798 -0.076547 -0.100802 0.105973 0.0686612 -0.109151
internal_weight=0 87792.6 74600.7 70050.9 18512.1 17523.5 51538.8 10899 40639.8 988.58 4549.8 13191.9 15505.9 10374.9 8747.97 5130.96 1490.59 12240.6 2843.32 1626.95 1706.48 1029.06 11211.6 2114.5 5373.04 3374.93 10941.2 1439.54 751.31 728.821 568.466 1344.09 922.119 364.791 3640.38 3215.92 235.828 270.348 951.31 2980.09 647.23 3240.95 302.969 895.861 529.169 688.231 4493.42 879.618 381.832 265.497 557.328 424.455 386.003 187.411 181.163 362.388 133.98 366.692 55.449 45.0887 38.4517
internal_count=268644 209532 160742 143388 31495 28907 111893 20876 91017 2588 17354 48790 59112 35822 32424 23290 5449 44038 8174 3398 9180 2956 41082 4614 21789 10635 39898 2611 1903 3560 1256 5704 4193 1521 17841 15762 1125 1184 4752 14637 2124 10178 923 4621 2453 708 19775 2014 832 333 2672 2079 1848 787 780 3476 457 2168 131 116 231
is_linear=0
shrinkage=0.1


Tree=14
num_leaves=55
num_cat=0
split_feature=106 129 128 130 30 72 48 103 105 75 30 97 117 58 45 75 63 110 122 51 114 2 55 31 106 71 76 119 33 110 116 109 61 35 31 126 69 79 45 51 53 107 10 35 70 30 41 39 108 108 80 110 1 108
split_gain=1037.19 939.73 928.761 868.605 856.014 1589.24 521.219 591.311 498.587 383.759 339.287 398.047 215.142 225.488 203.831 198.723 181.259 213.037 116.781 115.924 105.905 100.322 97.4453 95.1372 105.48 95.7375 86.969 173.784 82.3058 75.1766 63.2914 142.257 49.3419 50.0377 48.0067 69.4254 39.7488 38.162 28.8273 19.5192 19.4353 14.2529 33.7843 12.9816 11.4622 84.516 65.192 9.64965 9.35213 6.92125 3.24227 2.43663 2.28596 2.10991
threshold=-0.85868000984191883 1.0000000180025095e-35 1.0000000180025095e-35 1.0000000180025095e-35 1.0756869316101076 -0.68715646862983693 1.234204173088074 -0.60091760754585255 -0.94428163766860951 -1.1811993718147276 1.0682366490364077 -0.95822566747665394 -1.5328428149223325 0.94861686229705822 1.0423015952110293 -1.1157920956611631 0.72300556302070629 -0.96545323729515065 -1.2561598420143125 1.0529534816741946 -0.87688353657722462 0.49910987913608557 0.89023253321647655 1.0094126462936404 -0.90579661726951588 -0.60364526510238636 -1.3109723329544065 -0.8873034119606017 0.91851142048835765 -1.1655700802803037 -1.4723693728446958 -1.081116199493408 0.74104112386703502 0.91290676593780529 0.99754321575164806 -2.0376237630844112 0.044664040207862861 -1.290568947792053 1.2123814821243288 1.2122858762741091 1.0233414769172671 -0.93968477845191944 0.84306481480598461 0.8705117702484132 -0.069554772228002534 0.81568083167076122 1.1149339675903323 0.62896522879600536 -1.0021870136260984 -1.0329609513282774 -1.112597584724426 -1.205137252807617 0.58612444996833812 -1.0197063684463499
decision_type=2 2 2 2 2 2 2 2 2 2 2 2 2 2 2 2 2 2 2 2 2 2 2 2 2 2 2 2 2 2 2 2 2 2 2 2 2 2 2 2 2 2 2 2 2 2 2 2 2 2 2 2 2 2
left_child=1 2 3 4 5 -1 7 9 -6 26 11 -11 13 29 23 22 17 41 19 -19 -12 -20 -5 25 -25 -4 52 -28 -17 -9 44 36 37 -34 40 -36 -32 -33 -15 -38 -16 50 -43 47 49 48 -47 -14 -46 -8 -3 -18 -2 -51
right_child=6 16 14 15 8 -7 30 12 -10 10 20 -13 43 38 34 28 51 18 21 -21 -22 -23 -24 24 -26 -27 27 -29 -30 -31 31 32 33 -35 35 -37 39 -39 -40 -41 -42 42 -44 -45 45 46 -48 -49 -50 53 -52 -53 -54 -55
leaf_value=0.086449333646102938 -0.12947227196116926 -0.07933881655020994 -0.083769530560219158 -0.13697862022590798 0.068208281042538677 0.045057746372122981 0.08838565260275677 -0.15923052047143171 0.019470324305845343 0.05638536751476201 -0.05178922918328871 0.019076175312484657 -0.10333247772496212 0.002803379275713874 0.0073514399705088222 -0.017667923439157442 0.14983819954866281 0.32827844497383785 -0.10293438651043392 0.035842858618222631 0.066015362228168839 -0.01447143746128784 0.086603258526473617 0.23997337132166199 -0.0081724015643713076 0.032068299186353739 -0.097513768266430587 0.037500506446227877 -0.068014015539303627 0.10376178302562278 0.14473253901487332 0.10744502112164278 0.099250950565047069 -0.035213235965836247 0.19277622216386572 -0.063473013931819811 -0.15750050898412701 -0.16747573290219872 0.12886974735515216 0.046942700289267059 -0.11367679491116162 -0.092984758921634394 0.11380694559503945 0.059618976144115765 0.094627962265791482 -0.24723591286739746 0.11305546948902379 -0.15779039444335968 0.14292244784396221 0.12896427596990742 -0.12829569362544324 0.19993835273834956 -0.10525068378356771 0.15131008460231898
leaf_weight=11788.96979406476 51.649618737399578 14.847918413579462 117.57305646315217 21.379106733947992 2501.7281998246908 43517.655942156911 25.349529936909676 78.364332944154739 13037.733544282615 3294.8448293991387 769.14747145026922 21646.334164392203 37.595239218324423 24.282910659909248 13.842641130089758 1373.2133493721485 18.166573822498322 15.141810014843939 157.00915633141994 129.3814592808485 84.717218846082687 698.55425626784563 221.00492691993713 34.610310897231102 33.91633552312851 181.47264203429222 193.8140664100647 187.62533624842763 425.27346440032125 12.619515955448149 5.9938382506370536 8.1291470080614108 479.99386791884899 29.368035420775414 10.925733521580694 327.37562550604343 35.855170950293541 13.326201751828192 71.686563834547997 5.3693302720785132 319.82372285425663 249.82327944040298 8.1583937257528287 2.9726205617189398 61.067289054393768 11.409995317459106 8.9704803973436356 241.88044081628323 116.76868914067745 62.861232593655586 152.13300593942404 20.848001003265381 158.64202477969229 128.89710521697998
leaf_count=16925 305 87 527 123 4382 87475 29 312 34828 9687 3442 79708 1205 57 48 7042 20 14 776 520 311 2910 669 101 149 584 1116 783 2850 16 6 19 621 163 32 1597 145 61 69 10 1528 1316 21 6 67 48 9 1035 83 53 829 22 3818 85
internal_value=0 0.0432915 0.0448627 0.0462012 0.0480541 0.0538806 0.0207083 0.0180772 0.0273167 0.0200563 0.0218829 0.0240049 -0.0931745 -0.00996113 -0.0489921 -0.0181173 -0.0360432 -0.0418651 -0.0166611 0.0664816 -0.0401011 -0.0307058 0.0668826 0.0108791 0.117157 -0.0134746 -0.0595674 -0.0311019 -0.0295729 -0.122753 0.0918411 0.0704449 0.0852409 0.0914982 -0.0817421 -0.0551972 -0.0958876 -0.0633119 0.0969715 -0.130873 -0.108656 -0.101179 -0.0864452 -0.148254 0.12162 0.104233 -0.0886534 -0.150465 0.126339 0.137493 -0.123942 0.17661 -0.1112 0.143985
internal_weight=0 75390.6 73926.5 72887 70846.1 55306.6 27849.5 26856.2 15539.5 26386.8 25795 24941.2 469.402 186.953 1039.54 2040.87 1464.06 1425.05 1000.09 144.523 853.865 855.563 242.384 367.572 68.5266 299.046 591.731 381.439 1798.49 90.9838 993.36 578.036 530.817 509.362 671.968 338.301 47.2183 21.4553 95.9695 41.2245 333.666 424.963 257.982 282.448 415.324 198.216 20.3805 279.476 177.836 217.108 166.981 39.0146 210.292 191.758
internal_count=268644 165375 158860 154294 143610 104400 103269 101870 39210 99170 93148 89395 2700 454 4566 10684 6515 6473 4220 534 3753 3686 792 1361 250 1111 6022 1899 9892 328 1399 1025 864 784 3205 1629 161 80 126 155 1576 2253 1337 2246 374 207 57 2240 150 167 916 42 4123 138
is_linear=0
shrinkage=0.1


Tree=15
num_leaves=63
num_cat=0
split_feature=31 37 131 29 130 100 103 134 69 70 109 73 44 31 80 123 112 117 130 112 101 41 28 69 103 46 62 3 38 93 128 32 37 0 62 125 1 82 74 13 123 35 75 80 17 99 76 115 115 111 124 35 104 111 112 42 108 37 50 67 103 62
split_gain=904.302 864.986 665.306 686.831 565.12 559.123 311.16 395.126 347.388 318.447 303.573 321.85 280.75 229.733 226.651 200.643 204.098 199.3 224.407 197.251 172.349 319.193 165.122 164.465 346.65 162.238 139.67 134.586 129.61 123.147 122.86 137.706 207.925 124.675 122.418 119.596 224.805 117.895 182.053 105.908 102.404 90.8509 89.323 86.3061 82.3084 82.3072 80.135 175.884 141.104 64.6164 63.6852 62.9285 61.3109 56.8127 45.2367 39.4008 25.3494 18.5442 15.2222 11.5825 9.73608 1.25286
threshold=1.0028365254402163 0.96289804577827465 1.0000000180025095e-35 1.2302053570747378 1.0000000180025095e-35 -0.87639033794403065 -0.83273306488990773 1.0000000180025095e-35 -0.17630112171173093 -0.2548029869794845 -1.1245012283325193 -0.76843219995498646 1.1040676832199099 1.0066054463386538 -1.0295331478118894 -1.3278107047080991 -0.93173864483833302 -0.96733680367469776 1.0000000180025095e-35 -0.95505782961845387 -0.86575418710708607 0.98050472140312206 1.1988183259963991 -0.12725789844989774 -0.81587633490562428 1.213631331920624 0.5387396812438966 0.066755361855030074 0.92845922708511364 -1.0258857607841489 1.0000000180025095e-35 0.96853256225585949 0.95392245054245006 0.28676885366439825 0.5899132788181306 -1.6537995338439939 0.38251510262489324 -1.0199180841445921 -0.96212050318717945 0.83585610985755932 -1.2858306765556333 0.93510153889656078 -1.1039949059486387 -1.326185882091522 0.94820237159729015 -0.84181487560272206 -1.1870656013488767 -1.0084229111671446 -0.93434932827949513 -1.2597270607948301 -1.4165910482406614 0.88029557466506969 -0.84851577877998341 -1.0690693259239195 -0.97770771384239186 1.0444877743721011 -1.0565664768218992 0.96906462311744701 1.1508490443229678 0.27984277904033666 -0.84351778030395497 0.12528035789728167
decision_type=2 2 2 2 2 2 2 2 2 2 2 2 2 2 2 2 2 2 2 2 2 2 2 2 2 2 2 2 2 2 2 2 2 2 2 2 2 2 2 2 2 2 2 2 2 2 2 2 2 2 2 2 2 2 2 2 2 2 2 2 2 2
left_child=1 2 3 4 5 -1 7 8 14 30 25 41 15 20 28 29 -17 18 -13 -6 43 -22 26 39 34 27 -10 49 -2 -11 31 33 -33 -8 -25 36 -14 38 -5 58 -19 50 -26 -9 -29 -41 48 -48 -32 -3 -12 -24 55 -16 -37 -15 59 -43 -4 -27 -54 -39
right_child=6 10 23 37 19 -7 9 13 22 12 11 17 35 52 53 16 -18 40 -20 -21 21 -23 51 24 42 56 -28 44 -30 -31 46 32 -34 -35 -36 54 -38 61 -40 45 -42 57 -44 -45 -46 -47 47 -49 -50 -51 -52 -53 60 -55 -56 -57 -58 -59 -60 -61 -62 -63
leaf_value=0.057176245919035175 -0.0042841151389438155 -0.050979095794558366 -0.12259054140177471 -0.046069695910287714 -0.025172115569583771 0.038823406063481919 0.098254053293333601 -0.071629694842670386 0.093323781885065724 0.19557519627045752 0.020089005096628445 0.005899096641699437 -0.049176648900587927 -0.010076543778260193 0.040830514440065961 -0.087363633122640033 0.058678411851649286 0.14467585194100049 0.05797182370726911 0.022686726091583637 -0.07882547488487214 0.081203827565817843 -0.11420317541991834 0.25283551653980657 -0.11345138258926352 -0.091199633480227985 0.034003155838580927 -0.10016139450707395 -0.053651932110985026 0.078866991043971393 -0.10356094965420598 0.13516116967164357 -0.050606922078106457 -0.043122509785148547 0.089698743034593603 -0.11110307974124944 0.12531487939641109 -0.13708675603200315 0.086239988562021808 -0.014152185298432686 0.037820260171726523 -0.047781868418550082 0.015757586588465204 0.12285758501816367 0.086328724307193058 0.14570417325351959 -0.10736340700384138 0.1288680061203093 0.052659458258006435 0.1691078855685767 -0.054104776937941385 0.0023443624616156069 -0.03099245909167361 0.12242951545313162 -0.033283954103726275 0.19561176528200711 -0.0079924178206763688 -0.11501858120150961 -0.042246944573557509 -0.14633858552439902 -0.12557102370715323 -0.16576769526911506
leaf_weight=26014.290032856166 4070.065007545054 18.349522575736046 101.48573677241802 824.52916836738586 1334.7881467565894 45868.245479039848 63.852944642305374 23.624720886349678 459.42415195703506 126.95813457667828 183.12327924370766 5472.2903433218598 157.5757821649313 101.30665957182646 480.58844349533319 131.01299953460693 354.96281807124615 176.38931985199451 975.04969647526741 2427.1051815804094 158.9186080545187 577.82439439743757 90.987202025949955 64.819703441113234 94.428563099354506 47.833521515130997 2916.8839444071054 115.83494740724564 611.73167727142572 314.07329265028238 100.52276027202606 116.29329425096512 125.0272103920579 2698.9492654725909 158.41269005835056 91.889014407992363 138.93355421721935 20.892129138112068 119.00524094700813 2260.8324606288224 182.45630113780499 51.90014286339283 123.44864410161972 667.37917551398277 29.743325524032116 32.674561537802219 40.833429895341396 138.14451824128628 136.09880520403385 48.862797677516937 314.18480177223682 94.386021189391613 13.26456396281719 103.74393643438816 399.3196192085743 10.255718946456907 16.808552518486977 195.67010720819235 30.720005169510841 187.14995843172073 60.653968743979931 56.203644491732121
leaf_count=48973 16804 99 1543 3341 6574 96430 227 80 1082 102 757 20806 885 322 957 529 1100 374 4195 10100 656 1207 366 107 631 187 9544 488 3207 754 625 346 785 13654 460 510 419 113 232 8629 586 261 502 668 58 58 263 529 579 45 1498 321 57 143 1983 17 35 1118 104 980 391 248
internal_value=0 0.0374643 0.0406199 0.0423886 0.043488 0.0454653 0.0113131 0.0212247 0.0129087 -0.00884252 0.00615424 0.0109814 0.0263273 0.0667314 -0.00340539 0.0636271 0.0193073 0.0178113 0.0137742 0.00570554 0.0803329 0.0466848 0.0370299 -0.00667763 0.0494896 -0.0723033 0.0420751 -0.00802124 -0.0107346 0.112463 -0.0264774 -0.0335274 0.0389154 -0.0398551 0.137069 -0.0175681 0.0325838 -0.039097 -0.0293819 -0.0168915 0.0903448 -0.0514255 -0.0402419 0.116208 -0.0620593 -0.0118748 0.0244828 0.0749723 -0.0137069 0.109022 -0.0267845 -0.054861 -0.0379671 0.0553178 -0.0478414 0.00883199 -0.126628 -0.100923 -0.103921 -0.135114 -0.108599 -0.157995
internal_weight=0 87547.5 79531.9 76665.1 75644.4 71882.5 15575.5 10441 8827.81 5134.45 8015.65 7551.06 1714.73 1613.23 5266.13 927.007 485.976 6806.19 6447.34 3761.89 1427.75 736.743 3561.68 2866.82 441.11 464.583 3376.31 212.791 4681.8 441.031 3419.72 3004.12 241.321 2762.8 223.232 787.718 296.509 1020.63 943.534 2425.71 358.846 744.878 217.877 691.004 145.578 2293.51 415.6 178.978 236.622 67.2123 497.308 185.373 185.481 584.332 491.209 111.562 251.792 247.57 132.206 234.983 73.9185 77.0958
internal_count=268644 209532 178045 166011 162077 145403 59112 35822 32424 23290 31487 29595 6282 3398 21111 2485 1629 25961 25001 16674 2611 1863 11313 12034 1700 1892 10626 690 20011 856 17008 15012 1131 13881 567 3797 1304 3934 3573 10334 960 3634 1133 748 546 8687 1996 792 1204 144 2255 687 787 1100 2493 339 1202 1379 1647 1167 448 361
is_linear=0
shrinkage=0.1


Tree=16
num_leaves=61
num_cat=0
split_feature=129 81 30 103 53 30 117 128 105 132 107 113 6 104 30 72 50 71 0 100 48 31 72 0 70 39 69 50 1 72 103 30 72 42 120 115 97 115 31 92 37 89 47 78 112 74 56 124 1 62 30 126 75 103 2 44 107 113 115 53
split_gain=843.451 662.373 651.034 885.737 1636.64 1055.86 670.049 586.029 549.709 517.243 498.115 381.216 309.559 249.278 217.364 191.12 214.496 182.023 319.843 292.055 170.436 168.795 160.233 159.553 272.918 274.962 207.466 148.518 135.507 121.03 155.429 115.26 113.757 216.476 118.885 105.857 180.972 99.421 87.363 85.5314 78.1992 74.2051 74.6727 72.9952 109.402 72.4966 72.3276 64.9237 58.4656 56.1087 44.252 35.6339 32.2784 30.475 30.3519 29.167 28.9281 23.6728 14.3495 12.2577
threshold=1.0000000180025095e-35 -1.3668781518936155 1.0915491580963137 -0.85022541880607594 1.0173483490943911 1.0704371333122256 -1.5328428149223325 1.0000000180025095e-35 -0.94428163766860951 1.0000000180025095e-35 -0.8369956612586974 -0.92577689886093129 0.70388936996459972 -0.95232367515563954 1.1062164306640627 -0.57444939017295826 1.119868338108063 -0.40354771912097925 0.35943016409873968 -0.83388108015060414 1.173848092556 0.9798719882965089 -0.28838039934635157 0.3285727351903916 -0.18278965353965757 1.0147693753242495 0.013635726179927589 1.1697540283203127 0.60315972566604625 -0.61044517159461964 -0.80503860116004933 1.1109071969985964 -0.54313820600509632 1.0920606851577761 -1.2275279760360716 -0.98408871889114369 -0.82242354750633229 -1.0412314534187315 1.0079125761985781 -0.94560569524765004 0.97927162051200878 -1.2159938216209409 1.1405025124549868 -1.3255556821823118 -0.91842007637023915 -1.0870712399482725 1.0213619470596316 -1.4801350235939024 0.28990446031093603 0.72315543889999401 0.9141029715538026 -1.748699367046356 -1.1215876936912534 -0.95980682969093312 0.61467239260673534 1.1147419810295107 -0.9556944966316222 -0.93996661901473988 -0.93434932827949513 1.0327523350715639
decision_type=2 2 2 2 2 2 2 2 2 2 2 2 2 2 2 2 2 2 2 2 2 2 2 2 2 2 2 2 2 2 2 2 2 2 2 2 2 2 2 2 2 2 2 2 2 2 2 2 2 2 2 2 2 2 2 2 2 2 2 2
left_child=1 11 3 5 9 7 -6 -3 -7 -5 15 43 17 31 28 16 29 19 -19 -13 32 35 48 26 25 -25 51 -28 -15 37 -31 39 33 -17 -34 36 49 -2 52 -4 -26 42 -37 58 45 -45 -38 -46 -22 -12 -18 -23 -14 -33 -40 -52 -16 -43 59 -1
right_child=10 2 13 4 6 8 -8 -9 -10 -11 21 12 38 14 56 20 50 18 -20 -21 22 23 -24 24 40 -27 27 -29 -30 30 -32 53 34 -35 -36 41 46 -39 54 -41 -42 57 -44 44 47 -47 -48 -49 -50 -51 55 -53 -54 -55 -56 -57 -58 -59 -60 -61
leaf_value=0.054565842967037419 -0.11452610383701366 0.065079000215644556 0.10401475434813856 -0.06379461323494974 0.068256158402555056 0.080105098779118394 0.027739514139640306 -0.059582833019018705 0.023975545271076391 0.060960370616513243 -0.068070307830098556 0.01689135801782746 -0.1028919476038436 -0.035943164084093301 -0.15547109593694319 0.056419868183380101 0.11058615246957822 -0.029926557028122743 0.095714807219986792 -0.070320466406431623 -0.11603337619589311 -0.061799219535879461 0.15399194306092198 0.028110198535133465 0.14849379610586452 -0.11888863446488927 0.14021746531353071 -0.097120107935661559 0.008225792207822491 0.089557032499542957 -0.11614326680600505 -0.005076948493008885 -0.085790221306302372 -0.10018405211154907 0.11401185087312032 0.12605356628255573 0.18794144577141536 -0.028533620290154594 0.22203265711314946 -0.024992574006027106 0.0061248750949705211 0.15452044202456491 -0.04699478915132671 0.12726342524196355 0.13842964652979495 -0.07898000586844417 -0.076573600864030811 -0.010322490531615242 -0.033446402672452441 0.16919595522695954 -0.077909799709763639 -0.13770746999255681 0.088776388898405417 -0.13381292667065006 -0.037819048727389469 -0.11925733727544208 -0.082907590760384883 0.25243843461501758 0.003590705077184004 -0.12936974783500427
leaf_weight=3.7065031528472892 149.12364213168621 20576.375209487975 329.12443243712187 2431.9811426103115 4539.5723059773445 1952.5186735540628 40466.943918444216 384.13612203299999 16402.341329023242 384.9398867636919 108.45881612598896 3720.6929956674576 294.36251565255225 1155.0764842405915 80.957946598529816 255.38785923272371 10.575383648276327 294.4203063249588 649.7894511371851 428.17288886755705 146.48230962455273 205.70148828625679 35.91709691286087 1149.5411745235324 217.86842909455299 143.08499620109797 87.812931254506111 37.679336592555046 1742.2857571318746 164.69670420885086 47.278354093432426 67.605839669704437 34.303826250135899 134.88923260569572 225.82180662453175 95.647857781499624 68.170316532254219 1366.2534529939294 11.841924592852594 60.901873797178268 46.883052915334702 59.608369871973991 33.729530528187752 17.680831462144852 35.577603057026863 472.78331459313631 12.184893503785132 167.38448046892881 206.64358012378216 10.975453287363051 400.63446939736605 88.427071928977966 9.0567440465092641 25.25858137011528 7.2452698722481719 297.13757412135601 170.94601690769196 42.148428454995155 9.1261778920888883 160.98126954585314
leaf_count=14 812 33736 468 9979 7383 2733 108607 1599 39080 669 410 13254 4612 4644 387 1018 22 1170 1799 2238 862 977 36 4204 425 763 226 195 5772 581 264 253 206 818 869 256 109 5983 26 157 165 106 123 39 95 2186 59 592 1225 20 1976 472 32 105 34 1697 1132 44 29 897
internal_value=0 0.0324369 0.0346103 0.0363394 0.0271981 0.0474589 0.0318262 0.0627944 0.0299464 -0.0467465 -0.00655796 0.00103604 0.0108933 -0.00687091 -0.0171293 -0.0307793 -0.0460992 0.0169096 0.0565377 0.00789089 0.00511932 0.0283986 -0.0472374 0.0160375 0.0307837 0.0118384 -0.0386915 0.0689563 -0.00938282 -0.0270958 0.0436782 0.0600313 0.0364369 0.00229375 0.0876631 0.0851088 0.0317993 -0.0369959 -0.0841168 0.0838705 0.123283 0.131189 0.0809387 -0.0605187 -0.0459936 -0.0715451 0.147831 0.0157525 -0.0677048 -0.0462666 -0.0924401 -0.0846203 -0.0971709 -0.0400924 0.123396 -0.0955171 -0.106228 0.195079 -0.118466 -0.12523
internal_weight=0 97053.8 90771 87138.8 47823.4 39315.4 45006.5 20960.5 18354.9 2816.92 5883.07 6282.82 5415.58 3632.16 3149.27 3475.15 2435.7 5093.08 944.21 4148.87 1039.45 2407.92 389.043 1977 1557.38 1292.63 419.621 125.492 2897.36 1727.35 211.975 482.891 650.403 390.277 260.126 430.924 199.789 1515.38 322.506 390.026 264.751 231.134 129.377 867.24 693.426 490.464 80.3552 202.962 353.126 119.434 708.347 294.129 303.419 92.8644 19.0872 697.772 251.904 101.757 173.814 164.688
internal_count=268644 243721 216704 203786 126638 77148 115990 35335 41813 10648 24923 27017 23165 12918 11935 16369 11335 18461 2969 15492 5034 8554 2123 7427 5557 4967 1870 421 10416 7640 845 983 2911 1836 1075 1127 598 6795 4704 625 590 529 379 3852 2912 2225 168 687 2087 430 3695 1449 4644 358 60 3673 1519 150 940 911
is_linear=0
shrinkage=0.1


Tree=17
num_leaves=63
num_cat=0
split_feature=31 128 109 117 101 42 29 69 114 53 101 42 134 105 72 74 101 31 5 40 100 72 32 73 55 127 120 51 53 75 55 30 52 105 30 116 133 35 125 72 41 42 96 102 40 63 31 136 45 115 128 72 57 117 106 68 96 76 104 28 0 126
split_gain=701.417 718.354 624.008 1070.73 560.807 720.907 658.836 432.792 428.6 365.58 313.728 828.219 685.302 514.939 426.513 312.782 348.229 350.793 289.301 262.946 253.875 255.05 209.346 184.835 279.34 178.977 256.286 222.759 178.184 242.372 176.765 286.748 175.087 200.334 174.593 146.589 141.427 140.736 136.172 128.516 119.629 114.102 112.13 100.057 137.983 125.171 103.157 97.5548 96.3597 92.6715 92.2429 99.9954 91.4973 89.3652 88.5944 87.3207 75.1119 79.1938 51.9929 43.3528 40.8075 27.7185
