tree
version=v4
num_class=9
num_tree_per_iteration=9
label_index=0
max_feature_idx=127
objective=multiclass num_class:9
feature_names=Column_0 Column_1 Column_2 Column_3 Column_4 Column_5 Column_6 Column_7 Column_8 Column_9 Column_10 Column_11 Column_12 Column_13 Column_14 Column_15 Column_16 Column_17 Column_18 Column_19 Column_20 Column_21 Column_22 Column_23 Column_24 Column_25 Column_26 Column_27 Column_28 Column_29 Column_30 Column_31 Column_32 Column_33 Column_34 Column_35 Column_36 Column_37 Column_38 Column_39 Column_40 Column_41 Column_42 Column_43 Column_44 Column_45 Column_46 Column_47 Column_48 Column_49 Column_50 Column_51 Column_52 Column_53 Column_54 Column_55 Column_56 Column_57 Column_58 Column_59 Column_60 Column_61 Column_62 Column_63 Column_64 Column_65 Column_66 Column_67 Column_68 Column_69 Column_70 Column_71 Column_72 Column_73 Column_74 Column_75 Column_76 Column_77 Column_78 Column_79 Column_80 Column_81 Column_82 Column_83 Column_84 Column_85 Column_86 Column_87 Column_88 Column_89 Column_90 Column_91 Column_92 Column_93 Column_94 Column_95 Column_96 Column_97 Column_98 Column_99 Column_100 Column_101 Column_102 Column_103 Column_104 Column_105 Column_106 Column_107 Column_108 Column_109 Column_110 Column_111 Column_112 Column_113 Column_114 Column_115 Column_116 Column_117 Column_118 Column_119 Column_120 Column_121 Column_122 Column_123 Column_124 Column_125 Column_126 Column_127
feature_infos=[-1.7844352722167969:2.1475074291229248] [-1.6962581872940063:2.0597634315490723] [-1.6161398887634277:1.9801409244537354] [-1.5440802574157715:1.9086390733718872] [-1.4800789356231689:1.8452587127685547] [-1.4241359233856201:1.7899996042251587] [-1.3852788209915161:1.7536556720733643] [-1.3575865030288696:1.7939627170562744] [-1.3260828256607056:1.9030067920684814] [-1.2853907346725464:1.9563957452774048] [-1.2320997714996338:2.0165181159973145] [-1.1626077890396118:2.064321756362915] [-1.0779223442077637:2.1106562614440918] [-0.97803342342376709:2.1771299839019775] [-0.86829191446304321:2.2825961112976074] [-0.75375783443450928:2.355140209197998] [-0.63882678747177124:2.3999395370483398] [-0.65620064735412598:2.4409308433532715] [-0.66012513637542725:2.4605560302734375] [-0.66667592525482178:2.4363620281219482] [-0.66619455814361572:2.3612079620361328] [-0.67410272359848022:2.2960772514343262] [-0.78228282928466797:2.1994528770446777] [-0.7797551155090332:2.1787192821502686] [-1.0841877460479736:2.1696581840515137] [-1.4308524131774902:2.0883691310882568] [-1.6366665363311768:1.9448176622390747] [-1.8254417181015015:1.7314887046813965] [-1.9454965591430664:1.5598906278610229] [-2.2033448219299316:1.3473584651947021] [-2.6534385681152344:1.1459542512893677] [-2.9375624656677246:1.0652625560760498] [-2.8855924606323242:1.0182701349258423] [-2.1581358909606934:1.0153312683105469] [-1.5155016183853149:1.0222163200378418] [-0.85442560911178589:1.096311092376709] [-0.66409575939178467:1.2523990869522095] [-0.67050886154174805:1.345354437828064] [-0.67336314916610718:1.4686216115951538] [-0.67729061841964722:1.427788257598877] [-0.67358070611953735:1.3506048917770386] [-0.67623704671859741:1.3033223152160645] [-0.67480045557022095:1.4334096908569336] [-0.67821109294891357:1.6771683692932129] [-0.67593681812286377:1.8418123722076416] [-0.67998087406158447:1.9795904159545898] [-0.67735743522644043:1.8671952486038208] [-0.68056988716125488:1.7601110935211182] [-0.67851173877716064:1.8138210773468018] [-0.68057990074157715:2.0951991081237793] [-0.67868822813034058:2.3221406936645508] [-0.68411111831665039:2.3866791725158691] [-0.68785721063613892:2.2922041416168213] [-0.69603323936462402:2.324758768081665] [-0.68564701080322266:2.0119130611419678] [-0.66462117433547974:1.7058380842208862] [-0.63047897815704346:1.5109990835189819] [-0.6819922924041748:1.3641012907028198] [-0.88048118352890015:1.3483799695968628] [-0.69688475131988525:1.3266682624816895] [-0.62303602695465088:1.3006186485290527] [-0.62908732891082764:1.5017008781433105] [-0.65896600484848022:1.6471337080001831] [-0.67422842979431152:1.5433529615402222] [-0.80786275863647461:1.1429597139358521] [-0.95433753728866577:1.0751444101333618] [-1.1163531541824341:0.99085426330566406] [-1.5406250953674316:0.88367986679077148] [-1.6584281921386719:0.75060045719146729] [-1.8893227577209473:0.59843027591705322] [-1.7363165616989136:0.44751104712486267] [-1.7446892261505127:0.31280896067619324] [-1.674402117729187:0.20973041653633118] [-1.5674382448196411:0.13722024857997894] [-1.3374539613723755:0.30397361516952515] [-1.5821062326431274:0.9557119607925415] [-1.8401819467544556:1.3625956773757935] [-2.0371255874633789:1.0853415727615356] [-2.1728529930114746:0.99276179075241089] [-2.2573421001434326:0.52897804975509644] [-2.3058340549468994:0.23138503730297089] [-2.3315773010253906:0.27734678983688354] [-2.3403120040893555:0.32789856195449829] [-2.3343968391418457:0.37759476900100708] [-2.3124566078186035:0.42312100529670715] [-2.2730567455291748:0.46151745319366455] [-2.2140905857086182:0.49370381236076355] [-2.1362462043762207:0.51996833086013794] [-2.0426793098449707:0.59374678134918213] [-1.9374580383300781:0.55988889932632446] [-1.8240519762039185:0.65060514211654663] [-1.7052174806594849:1.0689502954483032] [-1.6500253677368164:1.4172115325927734] [-1.5946441888809204:1.6290324926376343] [-1.530011773109436:1.6652539968490601] [-1.4861346483230591:1.6182962656021118] [-1.4531639814376831:1.5607637166976929] [-1.4315723180770874:1.5597559213638306] [-1.414076566696167:1.5645072460174561] [-1.5388252735137939:1.5648646354675293] [-2.0638625621795654:1.5687597990036011] [-2.4619696140289307:1.5680602788925171] [-2.648137092590332:1.5700795650482178] [-2.5047333240509033:1.5662518739700317] [-2.1062953472137451:1.5674868822097778] [-1.3859066963195801:1.5623446702957153] [-1.2213733196258545:1.563502311706543] [-1.1215335130691528:1.5613243579864502] [-1.1656886339187622:1.5694600343704224] [-1.225764274597168:1.5734660625457764] [-1.369315505027771:1.5835809707641602] [-1.5506553649902344:1.5858457088470459] [-2.1400496959686279:1.5904537439346313] [-2.4733853340148926:1.5896482467651367] [-2.4821960926055908:1.5896980762481689] [-1.9469403028488159:1.5865405797958374] [-1.577265739440918:1.5868538618087769] [-1.6321159601211548:1.611059308052063] [-1.6864286661148071:2.2395215034484863] [-1.7459897994995117:2.2202906608581543] [-1.820858359336853:1.9499853849411011] [-1.9268163442611694:1.6493175029754639] [-2.1567583084106445:1.6308574676513672] [-2.3918964862823486:1.6220458745956421] [-2.6616356372833252:1.6080794334411621] [-2.9659750461578369:2.1645474433898926] [-3.3559722900390625:3.0688047409057617] [-3.8750591278076172:4.2020993232727051]
tree_sizes=6094 6560 6642 6427 6655 6779 5291 6761 6768 6738 6513 6479 6812 6933 6777 6235 6737 6914 6751 6448 6931 6824 6616 6689 5622 5704 6801 6573 6650 6604 6938 6935 6897 6045 6760 6805 6655 6868 6596 6287 6729 6594 6936 6887 6943 6349 6540 6370 6595 6635 6577 6838 6898 6825 6440 6546 6595 6700 6856 6594 6957 6718 6685 6679 6801 6676 6806 6734 6689 6715 6904 6942 6689 6586 6494 6621 6747 6913 6602 6630 6908 6686 6482 6925 6713 6855 6813 6517 6621 6612 6787 6037 6393 6295 6208 6952 6760 6583 6508 6494 6361 6741 6813 6309 6946 6508 6930 6374 6686 6299 6166 6593 5674 6631 6281 6707 6689 6692 6718 6890 6639 6529 6088 6044 6696 6518 6199 6934 6690 6479 5984 6295 6722 6818 6607 6338 6185 6850 5881 5563 6478 6317 6603 6833 5426 6291 6591 6414 6005 6010 6426 6888 6710 6495 6606 6724 6393 6118 6203 5876 6607 6307 6493 6515 6097 6506 6649 6380 6866 6897 6624 5961 6940 5821 6629 6424 6612 5567 6804 6642 6305 6926 6780 6177 5976 6797 6377 6515 6946 6838 6723 6821 6839 5881 6078 5974 6189 6410 6610 6612 6373 6738 6420 6506 6275 6827 6157 6503 6297 5543 6508 6425 6276 6084 6413 6730 5740 6707 5853 6846 6524 6308 5867 6598 6813 5540 6183 6597 6612 6945 6617 5649 5984 6285 5645 6396 6147 6108 5892 5633 6093 6362 6134 5867 6607 6284 6256 6783 6296 6309 6523 6949 5525 6293 6928 6131 5662 5976 6504 6793 5583 5641 6856 6931 6962 6725 5738 5742 6211 6724 4805 6508 5856 6987 5868 6779 6933 5218 6973 6607 6816 6481 5627 6225 5768 6852 6262 5645 6488 6632 6513 6622 6959 6318 6832 5546 6597 6526 6596 5586 6554 6126 5657 5868 6269 6529 6425 6953 5531 6514 6974 6312 6720 6066 6081 5422 6891 6011 6068 6950 5772 6377 6566 6334 5358 6969 6557 6257 6414 5672 6765 5644 6298 5675 6730 6945 5628 6639 5664 6735 6525 6726 5790 6922 6171 6933 6745 5246 6760 5997 6952 5238 6981 6835 6403 6098 6082 6481 5500 6073 6025 5920 5293 6509 6404 5647 6166 6134 6961 6699 6371 5186 6542 6960 5539 6718 6153 6605 5326 6441 5204 6931 6700 5425 6190 5700 6807 6399 6651 5606 5849 6926 5557 6218 6941 6946 5412 6006 6265 6272 6276 6218 6257 5751 6836 6386 5995 5840 6773 6522 6003 5419 4528 6950 6437 6688 4755 6902 6993 6117 6725 6336 6694 5867 6961 6234 6163 6730 5616 6287 4975 6244 5464 6659 6653 5725 6950 5870 6183 5956 6162 6564 6466 4780 6951 6951 6428 6717 5930 6942 5734 7001 6028 6052 6788 6638 6464 6664 6940 6344 6919 5199 5151 6376 6386 6591 5456 6437 5978 6452 4304 6412 6817 5595 6237 6925 6669 6541 6292 6591 6847 6945 5238 6807 6241 6963 6322 6630 6953 5599 6607 5504 6142 6387 6478 6437 6542 5401 5058 6936 6181 6920 5685 6969 6126 5854 5850 6707 5016 6326 6244 5607 6946 6415 6893 5823 6495 6822 6202 5765 5672 6933 6570 6498 4523 6950 6074 6597 6018 6154 6915 6329 6937 4866 6488 6914 5881 5830 6371 6459 6388 6311 5815 6555 6619 5789 6849 6562 6424 6127 6830 6911 6947 5832 6656 5615 5978 6946 6368 5673 5406 5595 5185 5340 6595 5033 6937 6488 6792 6713 6177 6918 5737 6218 6704 6949 6745 6693 6811 6469 6174 6840 6508 6087 6921 6765 6505 5415 6566 6832 5047 6180 6686 6923 5558 6574 6129 5961 6186 6724 6619 6249 6696 5068 6269 6657 6967 6933 5193 5436 6924 6721 5802 6932 6370 6324 6727 6608 6953 6272 6925 6233 6915 6594 6299 6523 6307 6694 6470 6689 6136 6701 6793 6183 6937 6489 6484 5932 6836 6559 5173 6154 6103 6485 6709 4956 5525 6746 6979 6149 4257 6701 6071 5371 5909 4217 6608 6769 6298 6507 6108 6713 6522 6935 5233 6951 5959 6946 6144 6895 6838 6485 5322 5261 6952 6558 5559 6280 6840 6863 6366 6267 6903 6840 6011 6710 5924 6794 6828 6686 6457 6937 6933 6516 5408 5944 6643 5649 6920 4940 5779 6940 6240 6745 6251 6073 6928 6590 6183 6347 6920 6787 5938 4123 6746 6910 6270 6834 5626 6584 6042 6526 6693 4540 6857 6406 6177 6943 6914 5849 6402 6031 4734 6933 6917 6599 5744 6956 6166 6503 4941 6905 6266 6541 6914 6933 6850 5656 6063 6374 5554 6857 5558 6793 6920 6944 5391 6813 6872 6892 5025 6280 6801 6244 6929 6617 6947 6476 5603 5328 5893 5436 5902 6719 5104 6911 6602 6316 6837 4030 6473 6260 6930 5843 6499 4957 6500 5135 6504 6947 6787 6950 6278 6711 6799 6448 6923 6491 5916 6691 6929 6504 6154 3976 6951 6844 6533 5164 6481 6942 4782 6348 6387 6932 6712 6596 6495 6618 6957 6825 5964 6877 6035 6536 4568 6367 5635 6082 5337 6105 6194 6030 6963 6652 6267 6944 6953 6604 5529 6279 6829 6302 6699 6602 4764 6808 6277 6924 5992 5869 6932 6934 6079 6387 6084 4693 6474 5478 6140 6697 5847 5958 6600 6842 4696 6461 6267 6078 6083 6634 5851 4440 6895 6263 6735 6022 6136 6280 5790 5171 6459 6838 5783 6559 5701 6295 6902 6527 6244 6377 6610 6466 5855 6391 6529 6946 5147 5947 5431 6845 6151 6700 5853 6256 6940 4339 6920 4901 6622 6078 6800 6697 6838 6574 5046 6088 6111 6167 6539 6820 4527 6371 6629 3912 6129 5958 6814 6475 6748 5527 5098 6930 6304 6821 6112 6935 4808 6021 5822 6255 6821 6846 6067 5641 6902 6150 5501 4614 5773 6284 4465 6935 6816 6924 4263 5788 6505 6962 6621 5878 6112 6116 6070 5999 6512 6070 6144 6859 6348 6406 5607 6699 5536 6954 4873 5923 6829 5685 5821 6372 6605 6235 6841 6383 6836 6823 6775 6364 5214 6927 4998 6396 6066 6379 6700 5570 6500 6693 6926 6257 6936 6322 5861 6938 6667 6943 5090 6710 6599 6156 6351 6955 6808 6447 6595 4501 6736 6550 6830 6487 5943 6105 6023 6165 6048 6778 6691 5530 6152 6022 6195 6670 6779 5209 6728 6243 6832 5604 6926 6968 6539 6691 5568 6960 4389 6493 5938 6263 6837 5940 6928 6612 6601 6847 5217 6707 6705 6003 6039 6862 6719 6937 6508 6985 5718 6942 6844 6384 5476 6571 6931 6269 6477 6281 6733 6042 6858 5447 6213 6925 6594 6423 6344 5377 6206 6214 6720 5827 6951 5394 5194 6740 5192 6602 6284 5710 5226 6786 5572 6898 4556 5946 6909 6690 6609 5336 6266 4620 6915 6268 5967 6932 6941 6626 6634 5539 6790 6255 5426 6572 6953 6922 6615 4313 6936 6602 4995 5301 5704 6438 5735 6707 6696 6964 6121 6840 6296 6299 6516 6497 4836 6369 4537 6423 6260 5940 6064 6940 6452 6150 5985 6704 6266 6716 6698 6932 6617 6184 6465 6816 5630 6412 6481 5152 6487 6747 6937 6222 5179 6481 6866 6906 6257 5947 6927 6890 6703 6815 6929 6267 6821 6287 6472 5995 6096 5987 5902 5537 5818 6293 5902 6343 6683 6171 5813 5428 6971 4868 6376 4838 6132 6966 6569 6925 6712 5404 5594 6482 4852 6482 6926 6943 6373 5954 6954 6956 6949 5935 6265 6928 6379 6203 6924 6727 6032 6804 5400 5286 6745 5984 6622 5092 6139 4813 6494 5551 5282 6404 5128 4953 6980 6964 6813 4671 6060 5806 6220 6163 6132 5833 6952 5751 6160 4530 6388 6479 6506 5599 6016 4812 6149 6388 6943 6948 6757 6934 4437 5753 6526 6705 5331 6287 6726 6162 6126 6699 6175 6507 5242 6041 6909 5415 6481 6841 5475 6168 6959 6982 6951 5071 6486 5147 4812 5933 6478 6908 6300 6592 6557 5598 6834 6635 6864 6184 6392 5499 5547 6720 6152 6945 6913 5055 6400 6928 6931 6570 4945 5507 5889 5840 6387 6720 6542 5133 6695 6015 5632 6320 5386 6542 6672 6745 6166 6259 5384 6345 6904 5170 6930 6187 6867 6243 6500 6238 6605 6913 4422 6693 5556 5863 6829 6269 6375 6270 6697 6869 5284 5754 6502 6703 6802 5721 5890 6610 5426 5772 5404 6595 6325 6509 5715 5838 6874 5153 5840 5718 6845 6868 4611 6279 4876 6959 5113 4940 5349 5415 6048 6460 5383 6956 6851 6041 6430 6408 6518 5822 6709 4275 6914 6944 5287 5967 5652 5949 5435 6944 6293 4756 6716 6452 5229 5719 6948 6844 6152 6898 6380 6396 6695 6835 4502 6620 5585 6705 5510 4206 6643 6929 6597 4322 6501 6361 6853 4996 6831 6933 6536 5958 6703 6045 6074 5961 6795 6298 6923 5139 6158 5651 6916 6728 6517 6274 6452 6710 6834 6468 5644 6707 5680 6612 6170 5386 6813 6180 5142 5533 6747 6271 6730 5838 6262 6570 6934 6486 6581 5810 6100 4950 4629 6689 6943 6536 6046 6085 4053 5305 6161 6508 6138 6922 6620 6164 6039 6508 6532 5426 6644 6587 6800 6610 6678 5687 6735 6239 6641 6033 4580 6530 5554 5356 6718 5531 6576 5966 4714 6640 6973 6749 5790 5762 5870 6161 6969 5646 6498 5116 6827 6578 6567 6648 6257 6070 5493 5624 5891 6504 5144 6605 6708 5959 6696 5111 6406 6940 6259 6540 5866 6950 6513 4821 6347 6457 6705 5363 6580 6201 6716 6474 5058 4387 6846 6732 5874 6282 3794 6463 5900 6106 5722 6875 6801 4199 6882 6140 6923 5772 6751 6591 4293 6616 5940 6671 6496 6887 5590 6719 5152 6671 6554 6618 6017 6749 5950 5845 6151 6913 6620 6607 5663 5494 5978 6921 6511 6580 6072 6597 6600 5635 6499 4784 6717 6396 5431 6783 6593 6731 6881 5531 6068 6843 5554 6486 5926 5966 6937 6710 6722 5643 5534 6249 6637 5500 6822 6950 6198 5587 6302 6384 6280 5966 6156 6762 6954 6137 5763 6581 5854 5448 6961 4750 5706 6552 6397 6138 6770 4645 6158 6802 5028 6426 5756 6941 5298 5283 6958 6044 6544 5953 6035 6952 6281 5196 6893 6606 5163 6972 5457 5394 6770 6619 6222 6088 6586 6297 6416 6591 6918 6415 5460 6694 6464 6627 6765 6939 5680 4118 6816 6230 6155 6590 6809 6880 6288 4510 6717 6806 6333 5473 4604 6402 6155 6083 4221 6461 6944 6958 5949 6405 6469 4235 6916 6788 5986 6248 5890 3661 4975 6845 6071 5613 6047 6386 6940 6178 5837 6900 5865 6737 6509 5761 6729 6708 6820 5303 6398 4831 6372 5772 5607 5740 6217 6400 5619 6809 6854 6420 6556 6830 6904 6340 6448 6066 6195 6720 6593 4478 6355 5831 6229 6563 6511 4951 4497 5613 6843 6462 6596 6868 6402 6865 6743 6719 6129 6690 6649 6610 6785 4964 6478 6168 6953 6502 6902 6042 5597 5750 5957 6256 6152 4574 5936 5838 6715 6093 6944 5232 6192 6446 6916 6453 6305 5838 5408 6515 5606 4830 6517 6954 4006 6465 4732 6504 6820 5760 3683 6646 6391 6848 6917 4877 6154 5043 4941 5888 5939 6933 6750 6826 3911 6539 5583 5105 6711 5860 6969 6279 6163 5337 6828 6945 6617 5788 6464 6962 6905 6749 3903 6443 6502 6637 6629 5519 6820 6538 5633 5171 5839 6824 5414 4957 5295 6591 6008 6446 5398 6699 6729 6956 5878 6256 6593 4001 6518 5095 4799 5917 6753 5840 5578 6569 6252 4630 5166 5938 6831 6002 6593 5178 6814 6595 6201 6598 6361 6833 6392 6479 6621 6070 6305 6206 6181 4642 6541 6148 5982 6071 6200 6544 4965 6896 5373 6942 6690 6195 6834 6943 5643 6945 5369 5425 6980 6441 5925 5601 6835 6068 6798 5655 6182 4700 6386 6294 6841 4359 5708 6274 6579 5840 6309 4914 5929 6060 6525 6099 6725 6616 5715 6425 5960 6826 6595 6602 6521 5920 6802 5396 6427 6445 6851 6931 5529 6052 6733 6356 6813 6963 4782 6824 5996 6862 5514 6848 6464 6363 6504 5961 6350 6493 6737 6508 5069 4749 6183 6728 6765 6563 5930 6860 6846 6184 5642 6364 6951 4729 6825 5334 6979 5564 6631 5740 5723 5828 6467 6562 6230 6833 6975 6670 6400 5243 6055 6612 5392 5023 6733 6674 6164 5586 4544 6637 4749 6370 6239 6597 4348 6400 6180 6304 6401 6514 6449 6310 6605 6666 5934 6254 6325 6092 5619 5214 6157 5513 6512 5537 6495 6860 6394 6786 4961 5764 6598 6409 5641 4822 6691 6960 5391 5844 6829 6826 6650 6582 5311 6807 6761 3726 6488 6007 6962 6383 5078 6789 6807 6976 6122 5911 5935 6938 6265 6295 5494 5509 6630 6935 4748 6378 6961 5002 6942 4516 5590 6935 6488 6465 5516 6643 5236 6164 6637 5815 6748 6338 5813 5216 6928 6228 6945 5935 5945 6957 6484 6917 5809 6840 6253 6806 5833 5929 5417 6626 5852 5142 6818 6619 5964 5078 3819 6695 6370 5680 5297 6957 6866 6293 6275 6330 6939 5136 6162 6589 6937 5475 5527 6396 5891 6933 5705 6516 6344 6920 6706 6500 6362 6220 6603 6560 6949 5484 6606 6596 6871 6482 6256 6650 6617 6573 6458 5306 6082 6950 6926 4882 6729 6370 5968 6272 6475 5656 5638 5395 6736 6733 5755 6890 6725 6829 6631 5855 4555 5952 5199 5558 6300 6518 6511 6469 6389 6598 6788 6940 5498 6813 5903 6837 6775 6739 3908 4326 6960 6844 5554 5368 6195 4875 6710 6384 6516 6503 6211 5481 6261 5409 6709 6926 5593 6610 6968 4963 6458 5357 6405 6320 6713 5315 6811 6679 6592 6810 4644 6813 6937 6933 6167 6159 6816 6720 5094 6960 6720 6781 6288 5290 5821 6631 6182 5732 4698 6737 5651 6874 3829 4333 6704 4831 5841 6601 6280 6426 6825 5332 6902 6971 6387 4714 5468 6931 6100 6585 5850 6288 6341 3736 4398 6826 6398 6817 6510 6492 6661 6197 6075 5210 5665 6638 6984 6721 5839 6261 6470 6237 6704 5710 5607 6608 5648 5479 6181 6850 6694 4513 6822 6605 5867 6926 6476 6919 6388 6919 6969 6266 5973 4291 6942 5872 6469 6742 6610 6511 5349 6622 4899 6525 5206 5922 6801 4234 6391 6449 6614 6740 6248 6231 5042 6967 6974 6358 6708 6249 6952 5861 6476 6292 6042 6110 5508 6491 6943 5862 5805 5590 5604 6084 6570 6937 5515 6892 5423 6621 6378 5522 5923 4722 4880 5764 6429 5875 6408 6019 6630 6322 4218 6202 4335 5757 6766 6959 5303 6414 6827 6216 6832 5005 5214 6944 5545 5068 6728 6663 6541 6686 6492 6723 5852 5598 5145 6908 6195 6519 5950 5031 6895 6578 6833 6033 5883 6715 6047 6437 6089 6275 6429 6974 5860 6139 6968 4530 6528 6084 6327 6491 6624 4652 6054 6514 3865 6382 5609 6934 6542 6749 6067 6622 6985 5305 6374 6960 6520 6691 6196 6271 4909 6661 6756 6787 6218 6725 6651 6516 5091 6701 6623 5184 6599 4821 6302 5935 6921 6150 6601 6943 6391 6253 6572 6900 6472 6374 6291 6159 6610 6257 6947 6913 6271 6339 6115 6142 5288 6409 5900 6423 5180 6952 6312 5874 6915 3991 6737 6575 5725 6357 6895 6667 6978 5324 5533 5928 5326 6704 5289 5306 6281 5744 6134 5841 6137 4795 6382 6260 6807 6946 6503 5694 5739 6856 6949 6579 4934 6727 6533 6276 6483 6800 6927 5126 6175 5073 6697 6868 5763 6474 6275 6736 6913 6386 5388 6913 6213 6624 4746 6367 5219 5528 5734 6408 6624 6150 6068 6148 6800 5987 6492 3776 5743 6881 5336 5831 6625 6553 6856 6674 5734 5952 6625 5005 6846 5811 6508 6662 6204 6064 6392 6859 6571 6732 5530 3783 6849 6513 4295 6928 5225 6766 6833 6217 4674 5433 6837 6382 6065 6488 5876 5996 6479 5985 6940 6067 6615 6146 6841 6563 6417 5529 5770 6808 6490 6252 5931 6639 6846 4643 6012 5526 6799 6474 5475 4432 6476 5860 6162 5762 6722 6992 6085 6825 6862 5991 6902 6059 4731 6349 6950 6781 5794 6721 6380 3954 6499 5281 6655 6722 5635 6214 6279 2988 6617 5665 6807 6859 5270 6287 6808 6075 6693 6890 5334 5930 6891 6611 6793 6725 5819 6813 6434 6550 6143 6504 6233 4818 6592 6709 6730 5721 5961 5066 5589 5682 5738 6877 6536 6510

Tree=0
num_leaves=57
num_cat=0
split_feature=116 31 109 3 32 30 114 3 116 54 81 81 34 71 3 114 31 109 3 30 114 127 109 50 38 56 77 38 31 71 109 109 3 114 55 109 73 3 45 111 1 32 31 109 25 32 75 111 3 112 45 70 109 73 1 111
split_gain=149484 6820.95 7628.2 3543.88 3311.46 2865.57 2300.06 1734.41 1466.07 1274.2 1006.74 815.147 428.18 399.553 818.567 708.183 314.587 311.915 984.622 1002.03 253.729 233.643 188.068 190.727 187.886 241.376 175.812 159.135 150.167 133.964 119.473 117.587 691.295 78.8839 74.125 63.0493 183.462 51.1581 50.8299 32.5152 35.5925 25.0083 23.8828 23.4327 23.1899 15.648 33.7613 15.2962 14.7628 66.0733 6.2257 4.5491 4.12711 3.76413 0.98283 0.828655
threshold=-1.3724190592765806 0.97534102201461803 -0.92575323581695546 0.40960554778575903 0.91757017374038707 1.0457602739334109 -1.2719263434410093 0.70115900039672863 -1.4086086153984068 1.0252079963684084 -0.74314689636230458 -0.62557584047317494 0.90375086665153515 -0.72900965809822071 0.77335602045059215 -0.93814438581466664 0.98659223318099987 -0.94529929757118214 0.52734389901161205 1.0667689442634585 -1.2474135160446165 -2.644930243492126 -1.1245852112770078 1.2132555246353152 0.95716753602027904 1.0515631437301638 -0.7384987175464629 0.9333048164844514 0.95915910601615917 -0.26539723575115198 -1.1386396884918211 -0.91430035233497609 0.72800981998443615 -1.3335890173912046 1.0088174939155581 -1.117892265319824 -0.72609749436378468 0.27383127808570867 0.63695666193962108 -1.2018340826034544 0.1121799945831299 0.93360280990600597 0.96623995900154125 -0.93829080462455738 1.1266293525695803 0.92296901345253002 -0.66252917051315297 -0.93749436736106861 0.70518425107002269 -0.95429158210754383 1.2054349184036257 -0.2238698527216911 -0.92641490697860707 -0.5356926918029784 0.22266698628664019 -1.2066285610198972
decision_type=2 2 2 2 2 2 2 2 2 2 2 2 2 2 2 2 2 2 2 2 2 2 2 2 2 2 2 2 2 2 2 2 2 2 2 2 2 2 2 2 2 2 2 2 2 2 2 2 2 2 2 2 2 2 2 2
left_child=4 2 3 6 8 9 10 -7 12 -5 -2 22 21 14 38 -16 17 18 30 -20 -8 27 37 -24 33 -26 28 -1 51 44 -3 32 -15 -13 -23 36 -18 -10 -4 45 -41 43 -30 -37 -14 46 -28 -33 52 -50 -31 -6 -19 -43 -44 -47
right_child=1 16 13 5 26 7 20 -9 11 -11 -12 24 29 31 15 -17 35 48 19 -21 -22 34 23 -25 25 -27 39 -29 42 50 -32 47 -34 -35 -36 41 -38 -39 -40 40 -42 53 54 -45 -46 55 -48 -49 49 -51 -52 -53 -54 -55 -56 -57
leaf_value=-1.7297593996818488 -1.7662965358025675 -1.5257854746365911 -1.9052096332840545 -1.676670308561742 -1.3931034068887054 -2.1203112200637935 -2.1342207344095132 -1.7565130328996796 -2.1379851907364862 -2.2171508402285629 -2.0785944672851353 -1.8263509750450677 -1.3931034068887052 -2.2572319723896004 -1.4684537169677516 -2.2287805186709706 -1.3931034068887052 -2.2614754211634449 -1.8004108940634833 -2.1764661684998399 -2.2493688933722238 -1.6765019981948694 -1.5204209705497493 -2.1270893135791384 -1.6414737800128267 -2.2658565636303551 -1.9358936840391479 -1.4045502231876854 -1.884518472621616 -2.2776505252079451 -2.2534596920573189 -2.256166356494524 -1.73923054014406 -2.2469979022958921 -2.1947242328655161 -2.257989257983795 -2.2776505252079451 -1.759286891354197 -2.2547743066307233 -2.2355292338594097 -1.6879524463284521 -2.2772124351007945 -2.2776505252079451 -2.2756366150132656 -1.7985208361183569 -2.2746520604000833 -2.2568376518357276 -2.2768315447051712 -1.835376966048325 -2.2514901668103335 -2.0933698755581034 -1.5700128305525531 -2.2764817040983205 -2.1512866511623394 -2.189195813376021 -2.2256183417774014
leaf_weight=15.148995369672773 188.91023330390453 2.2610440850257865 4.2959837615489951 484.54174742102623 4.0698793530464172 539.59817089140415 262.84637488424778 173.08292470872402 4.2959837615489986 47.934134602546692 227.5740871578455 5.5395580083131817 2.9393573105335227 259.56786096096039 30.524095147848129 20.462448969483376 3.1654617190361014 216.38191893696785 105.81686317920685 214.46003146469593 703.63691926002502 11.644377037882803 209.71183888614178 5.3134535998105994 22.949597463011745 8.4789153188467008 4.9742969870567313 2227.693684771657 3.0524095147848112 5.6526102125644666 1074.787305817008 432.87689007818699 28.60220767557621 22.836545258760452 3.6176705360412589 1429.2059661448002 9.0441763401031476 21.027709990739822 131.14055693149567 2.3740962892770758 2.3740962892770767 16206.711792647839 2.8263051062822342 1588.9487307518721 2.7132529020309448 33.350400254130356 9.6094373613595945 2075.7515222579241 4.0698793530464163 61.161242499947548 2.7132529020309448 2.2610440850257865 1197.7881040424109 2.3740962892770758 2.2610440850257874 3.8437749445438447
leaf_count=134 1671 20 38 4286 36 4773 2325 1531 38 424 2013 49 26 2296 270 181 28 1914 936 1897 6224 103 1855 47 203 75 44 19705 27 50 9507 3829 253 202 32 12642 80 186 1160 21 21 143356 25 14055 24 295 85 18361 36 541 24 20 10595 21 20 34
internal_value=-2.1774 -2.2459 -2.14743 -2.02321 -1.45886 -1.90083 -2.1334 -2.03196 -1.44026 -1.72533 -1.93694 -1.64797 -1.41282 -2.25687 -2.11512 -1.7736 -2.27088 -2.24004 -2.20616 -2.05222 -2.21805 -1.4094 -1.56577 -1.53541 -1.97834 -1.80992 -2.13257 -1.40675 -1.82156 -1.96378 -2.25193 -2.26632 -2.20582 -2.16488 -1.79934 -2.27549 -2.04832 -1.82353 -2.24369 -2.21219 -1.96174 -2.27564 -2.10566 -2.26728 -1.5877 -2.23516 -2.14737 -2.27327 -2.27204 -2.22553 -2.21788 -1.45629 -2.27419 -2.27719 -2.23834 -2.26958
internal_weight=0 27727.5 5611.35 2628.12 2643.27 1245.16 1382.97 712.681 2572.28 532.476 416.484 300.154 2272.12 2983.22 186.423 50.9865 22116.2 2876.73 1397.33 320.277 966.483 2258.1 240.349 215.025 59.8046 31.4285 70.9968 2242.84 14.4707 14.0185 1077.05 2796.8 288.17 28.3761 15.262 19239.5 12.2096 25.3237 135.437 56.5261 4.74819 19227.2 8.13976 3018.15 5.65261 51.7779 14.5837 2508.63 1479.4 65.2311 8.36586 6.33092 1414.17 16209.1 5.08735 37.1942
internal_count=268644 245263 49635 23247 23381 11014 12233 6304 22753 4710 3684 2655 20098 26388 1649 451 195628 25446 12360 2833 8549 19974 2126 1902 529 278 628 19839 128 124 9527 24739 2549 251 135 170182 108 224 1198 500 42 170074 72 26697 50 458 129 22190 13086 577 74 56 12509 143377 45 329
is_linear=0
shrinkage=1


Tree=1
num_leaves=61
num_cat=0
split_feature=107 26 107 30 116 107 6 60 37 107 70 114 25 30 71 37 30 60 82 81 96 107 44 75 103 126 37 86 126 36 32 30 37 71 86 72 37 36 60 114 78 126 30 75 107 86 70 0 107 103 78 32 114 107 107 114 25 124 34 37
split_gain=75918.3 45724.9 5579.79 2818.89 2414.84 2018.62 1850.82 1681.78 1084.31 843.806 831.672 830.828 682.743 567.536 581.355 539.599 527.201 502.895 448.158 392.514 378.98 350.339 312.366 262.066 259.972 259.67 254.569 219.521 206.887 201.568 151.123 139.234 235.905 317.237 110.511 162.305 130.029 108.856 88.2141 83.3805 77.232 72.7431 68.6283 61.9973 52.6964 82.3381 77.7082 46.8664 34.1419 22.381 21.3991 19.0856 11.3813 6.37594 6.33176 3.97515 2.17656 7.65178 0.363838 2.84217e-14
threshold=-0.94099357724189747 1.2226793169975283 -0.96288183331489552 1.0358778834342959 -1.4086086153984068 -0.92100840806961048 0.50362831354141246 0.64077827334404003 0.91466465592384349 -0.98481586575508107 -0.37514860928058619 -1.3147751092910764 1.1161453723907473 0.99790412187576305 -0.37455473840236658 0.88910207152366649 1.0701176524162295 0.68833813071250927 -0.80911758542060841 -0.86277401447296131 -0.95336973667144764 -1.0356375575065611 1.0122846961021426 -0.95799395442008961 -0.7580541968345641 -2.0929781198501582 0.92016190290451061 -0.81583949923515309 -2.0699211359024043 0.89900931715965282 0.9138695001602174 0.85741528868675243 0.94485658407211315 -0.40479263663291926 -1.1817115545272825 -0.73338648676872242 0.8467925786972047 0.86521694064140331 0.74968373775482189 -1.3594703078269956 -0.93163770437240589 -2.4438139200210567 0.98545929789543163 -0.89302238821983326 -0.90794116258621205 -1.250886797904968 -0.38691571354866022 -0.020611464977264401 -0.93434390425682057 -0.80698385834693898 -1.186777591705322 0.94068297743797313 -1.3240373730659483 -0.92653781175613392 -0.87170177698135365 -1.3335890173912046 1.4241968989372256 -1.1809427142143247 0.83702504634857189 0.9411674737930299
decision_type=2 2 2 2 2 2 2 2 2 2 2 2 2 2 2 2 2 2 2 2 2 2 2 2 2 2 2 2 2 2 2 2 2 2 2 2 2 2 2 2 2 2 2 2 2 2 2 2 2 2 2 2 2 2 2 2 2 2 2 2
left_child=1 4 3 6 30 10 11 16 24 21 34 -3 55 29 -15 25 28 -17 20 -8 -14 -5 -18 44 38 -9 -20 -11 -4 -10 37 56 33 -33 35 53 -37 39 -6 -1 48 -39 47 -34 45 -7 -47 -32 -36 -44 54 -52 -26 -2 -46 59 58 -58 -25 -12
right_child=5 2 7 9 8 23 19 15 13 27 12 -13 18 14 -16 17 22 -19 26 -21 -22 -23 -24 31 52 -27 -28 -29 -30 -31 42 32 43 -35 40 36 -38 41 -40 -41 -42 -43 49 -45 50 46 -48 -49 -50 -51 51 -53 -54 -55 -56 -57 57 -59 -60 -61
leaf_value=-2.1529022852218755 -2.0776139609799089 -1.9777416941283203 -1.6202328338053462 -1.8079249854749075 -1.9646078069807142 -1.6581504402032374 -2.1494388573816097 -1.4581611965047121 -1.9383928782614712 -1.6194568188453011 -2.2174351345721326 -1.6211301721773959 -1.6955607876526617 -2.0866239172734411 -1.8203393196433284 -1.9593609471439322 -1.8736338247659925 -1.7314360208446788 -1.4857681713909066 -1.8658093799588042 -2.0298065858004599 -1.4888155347984731 -2.1123816588856674 -2.2167235764368032 -1.5626628094573283 -1.6884639737733673 -1.9949923584026856 -1.455494650138395 -2.1776000423806159 -2.1428334790854673 -1.7334387644452045 -2.1232912022282413 -2.1811463109062625 -1.8064456243162019 -2.1526799115163264 -1.4344365624556792 -2.1434121603174257 -2.2146548495364149 -1.5154757732723967 -1.4120651746809236 -1.6805218279779932 -1.9076774576908981 -1.9067214154783019 -2.0834129958293559 -2.2130835204644228 -2.2146480015437162 -2.1662524751089425 -2.1728113557661035 -2.2045061073346712 -1.5598977236249181 -2.215592014012147 -2.1970268991498729 -1.3982475528200449 -2.2099447145582634 -2.2169058027573518 -2.1157470083232424 -2.0176906008689555 -2.2093685284033504 -2.1793020872287987 -2.2174351345721326
leaf_weight=3.0991968661546707 5.0063949376344707 75.095924064517021 7.0327928885817519 35.163964442908764 17.403182402253154 2.8607971072196952 108.82948995381594 77.83752129226923 55.547143831849098 1081.1429067701101 129.45106910169125 502.42749195545912 35.640763960778713 149.83424849063158 181.06461691111326 134.45746403932571 308.60848794132471 345.67965045571327 26.104773603379726 88.446310564875603 703.51768861711025 1591.9143902882934 66.63273262232542 281.07331578433514 4.8871950581669799 131.95426657050848 15.734384089708326 88.327110685408115 125.51747307926416 365.94362996518612 3.0991968661546734 95.598303332924843 396.81639874726534 47.203152269124985 172.95902510732412 7.1519927680492383 4.0527959018945694 2086.1170905604959 5.8407940939068785 2.9799969866871825 2.9799969866871825 7.7479921653866759 3.2183967456221581 77.599121533334255 7169.7535500898957 825.22076555341482 554.87543892115355 11.204788669943808 479.54111509770155 4.4103955402970305 976.60461247712374 1278.8955068066716 30.39596926420927 13.350386500358583 10957.210520289838 3.9335960224270812 2.5031974688172332 12.396787464618681 2.6223973482847205 39.81275974214077
leaf_count=26 42 630 59 295 146 24 913 653 466 9070 1086 4215 299 1257 1519 1128 2589 2900 219 742 5902 13355 559 2358 41 1107 132 741 1053 3070 26 802 3329 396 1451 60 34 17501 49 25 25 65 27 651 60149 6923 4655 94 4023 37 8193 10729 255 112 91923 33 21 104 22 334
internal_value=-2.11637 -1.84276 -1.65169 -1.58904 -2.15347 -2.20302 -1.75783 -1.83847 -2.00669 -1.54228 -2.09585 -1.6675 -2.0355 -2.03894 -1.94092 -1.73681 -1.97659 -1.79526 -1.99567 -2.02228 -2.01369 -1.49571 -1.91603 -2.21076 -1.59208 -1.60302 -1.67727 -1.60707 -2.14803 -2.11589 -2.20956 -2.15836 -2.13124 -2.01856 -2.17992 -1.99079 -1.69087 -2.21229 -1.85175 -1.78975 -2.18845 -2.21352 -1.94843 -2.16516 -2.21297 -2.19408 -2.19519 -2.07761 -2.19077 -1.70621 -2.21425 -2.20507 -1.42102 -2.17385 -2.21539 -2.21513 -2.21442 -2.17717 -2.21638 -2.21744
internal_weight=0 7701.86 4769.07 3571.35 2932.79 24320.5 774.799 1197.72 810.917 2796.55 1639.24 577.523 954.195 752.39 330.899 689.929 507.791 480.137 780.998 197.276 739.158 1627.08 375.241 22681.2 58.5271 209.792 41.8392 1169.47 132.55 421.491 2121.88 915.813 617.217 142.801 685.042 29.5616 11.2048 2099.94 23.244 6.07919 655.48 2093.87 21.9328 474.416 21765.4 1382.96 1380.1 14.304 652.5 7.62879 20382.5 2255.5 35.2832 18.3568 18127 173.197 298.596 14.9 283.696 169.264
internal_count=268644 64613 40009 29961 24604 204031 6500 10048 6803 23461 13752 4845 8005 6312 2776 5788 4260 4028 6552 1655 6201 13650 3148 190279 491 1760 351 9811 1112 3536 17801 7683 5178 1198 5747 248 94 17617 195 51 5499 17566 184 3980 182596 11602 11578 120 5474 64 170994 18922 296 154 152072 1453 2505 125 2380 1420
is_linear=0
shrinkage=1


Tree=2
num_leaves=62
num_cat=0
split_feature=34 69 82 53 109 105 56 53 71 58 3 84 38 3 53 105 71 29 109 58 58 30 120 53 71 58 53 22 30 53 3 56 27 84 56 3 76 122 38 34 120 123 60 53 52 30 34 120 81 30 22 85 95 33 42 42 52 105 111 98 79
split_gain=18371.5 5026.15 3159.1 3050.77 1525.59 1498.16 1266.71 756.414 592.598 567.492 527.832 494.076 452.743 369.613 322.943 314.29 478.213 220.182 213.091 204.015 198.764 192.613 183.195 167.684 165.177 169.117 157.738 155.76 154.421 149.572 208.193 143.103 131.214 124.591 112.184 106.109 97.4123 93.4443 93.254 90.1009 90.2603 86.985 77.8584 72.5627 70.8886 69.6374 69.3086 293.063 180.267 65.4245 55.0701 82.3203 52.7301 38.5161 23.8619 19.829 294.664 17.2366 13.9308 11.2101 9.97611
threshold=0.9216214418411256 -0.043179852887988084 -1.2693021297454832 1.0614081621170046 -0.91331878304481495 -0.82158577442169178 0.98226603865623485 1.033358156681061 -0.35125285387039179 0.88137701153755199 0.48485814034938818 -0.99984139204025257 0.99874773621559154 0.42282210290431982 0.95249947905540477 -0.82095876336097706 -0.459671139717102 1.0768963098526003 -0.93395191431045521 0.84047847986221325 0.90542843937873851 1.0636331439018252 -1.107184827327728 1.0614081621170046 -0.42539517581462855 0.8617590367794038 1.0824453234672549 1.2372929453849795 1.0322902798652651 1.0766319632530215 0.53631907701492321 0.97105026245117199 1.2589656710624697 -1.3555402755737302 0.5621626377105714 0.56473845243453991 -1.1311212778091428 -1.8521882295608518 0.98860579729080211 0.93827405571937572 -1.2735914587974546 -1.1252763271331785 0.79969298839569103 1.0952332615852358 1.0515555143356325 1.0833374261856081 0.90222349762916576 -1.6202623844146726 -0.57804468274116505 1.0486938357353213 1.2306380867958071 -1.1633508801460264 -1.0929619669914243 0.93839764595031749 1.1378212571144106 1.1532548666000368 1.1338745355606081 -0.82398131489753712 -1.2191681861877439 -0.68563005328178395 -1.2296113371849058
decision_type=2 2 2 2 2 2 2 2 2 2 2 2 2 2 2 2 2 2 2 2 2 2 2 2 2 2 2 2 2 2 2 2 2 2 2 2 2 2 2 2 2 2 2 2 2 2 2 2 2 2 2 2 2 2 2 2 2 2 2 2 2
left_child=2 4 3 7 18 37 12 19 28 24 22 14 38 -10 35 32 -17 42 50 34 -19 26 36 -23 49 -26 -16 43 -8 33 -31 -14 -9 -12 -1 45 -5 54 -7 57 -41 -24 -11 -20 -21 -4 55 48 -48 -6 51 -2 -37 -29 -3 59 -57 -39 -49 -13 -52
right_child=1 5 11 10 9 6 8 15 13 17 29 46 31 -15 21 16 -18 20 27 44 -22 23 41 -25 25 -27 -28 53 -30 30 -32 -33 -34 -35 -36 52 -38 39 -40 40 -42 -43 -44 -45 -46 -47 47 58 -50 -51 60 -53 -54 -55 -56 56 -58 -59 -60 -61 -62
leaf_value=-2.2697109334738692 -2.1155608233353673 -1.5783971274344959 -2.4336220482308075 -2.3268672362689049 -2.3798858773962617 -1.9168205825508307 -2.0498695474800606 -2.3814089328329371 -1.7852600079732515 -2.2567401412206904 -2.2353819004590094 -2.4680331920828986 -2.4101730662749246 -1.9652429977936463 -2.4462333078437681 -2.390067547898433 -2.2126976083606387 -2.1249390870481908 -2.270656148496633 -1.6424811129188428 -1.892651713052002 -2.4018100276192738 -2.0698299374801019 -2.2761306187598627 -2.3561507936069845 -2.2076638257711565 -2.395027057651602 -2.4045140968899879 -1.9262041862102781 -2.1813011095087553 -2.3428800275482846 -2.2160657398153627 -2.2729998447804567 -2.3220805787704344 -2.428442807883477 -2.2106219937245992 -2.108111351540773 -2.4128157293207462 -2.0908394862218511 -2.3369028954248119 -2.1129096964042184 -2.2930728785968886 -2.0433163729651467 -2.0996314872900967 -2.1724897271661967 -1.9982152689441874 -1.5752830718738755 -2.3534470681457718 -2.4093083872400474 -2.2782042244231855 -2.3239539295730416 -2.3810534658418581 -2.4644001592790836 -2.3280000520593505 -2.0750148451734427 -1.419580293842853 -2.4632816369609278 -2.2413191343170249 -2.4469231414818853 -2.4773733200914352 -2.4299910304743193
leaf_weight=45.051898665726185 13.50612475723028 1.8889684975147238 6.7058381661772719 60.069198220968246 130.99996530264616 46.657521888613701 373.63796880841255 1850.4335401654243 271.82256679236889 164.24581085890532 232.53202204406261 2605.0764549225569 52.796669505536556 196.64162059128284 2399.9344760924578 277.48947228491306 336.14194413274527 472.52546965330839 78.958883196115494 3.5890401452779761 39.951683722436428 2316.1587232276797 229.60412087291479 111.26024450361729 92.465007953345776 449.95229610800743 802.81161144375801 100.20977879315615 138.36694244295359 306.67403557151556 107.76565278321505 135.34459284693003 118.81611849367619 577.17432441562414 3806.3659709170461 8.2170129641890508 30.790186509490013 79.336676895618439 90.576039455831051 46.657521888613701 29.279011711478233 18.889684975147247 19.07858182489872 36.173746727406979 8.5003582388162595 8.1225645393133146 6.4224928915500641 16.81181962788105 4.3446275442838651 122.40515863895416 9.0670487880706769 86.32586033642292 2278.096008002758 191.54140564799309 1.983416922390461 2.8334527462720862 59.691404521465302 6.328044466674327 308.56300406903028 2535.8457594886422 413.49520410597324
leaf_count=477 143 20 71 636 1387 494 3956 19592 2878 1739 2462 27582 559 2082 25410 2938 3559 5003 836 38 423 24523 2431 1178 979 4764 8500 1061 1465 3247 1141 1433 1258 6111 40301 87 326 840 959 494 310 200 202 383 90 86 68 178 46 1296 96 914 24120 2028 21 30 632 67 3267 26849 4378
internal_value=-2.38041 -2.18051 -2.41663 -2.3669 -2.2691 -2.03474 -1.99882 -2.39729 -1.94209 -2.20644 -2.24158 -2.4462 -2.16979 -1.86081 -2.4302 -2.3554 -2.29291 -2.14048 -2.36967 -2.4253 -2.10683 -2.4173 -2.13123 -2.39605 -2.26412 -2.23298 -2.4334 -2.31541 -2.01645 -2.27217 -2.22332 -2.27054 -2.37487 -2.29718 -2.42659 -2.46176 -2.25274 -2.31821 -2.03168 -2.32985 -2.25054 -2.0868 -2.23453 -2.21692 -2.01514 -2.19512 -2.46912 -2.42511 -1.91182 -2.33077 -2.41193 -2.34514 -2.46349 -2.35428 -1.83276 -2.47196 -2.41598 -2.40015 -2.44209 -2.47264 -2.42772
internal_weight=0 3892.22 21480.8 8009.89 2420.9 1471.32 1305.84 6446.39 980.469 1491.62 1563.5 13470.9 325.375 468.464 7931.31 2582.88 613.631 695.802 929.278 3863.51 512.477 5630.17 339.353 2427.42 795.822 542.417 3202.75 406.884 512.005 1224.15 414.44 188.141 1969.25 809.706 3851.42 2301.14 90.8594 165.474 137.234 161.601 75.9365 248.494 183.324 115.133 12.0894 14.8284 5539.59 336.142 10.7671 253.405 522.394 99.832 2286.31 291.751 3.87239 5203.45 62.5249 85.6647 325.375 5140.92 422.562
internal_count=268644 41210 227434 84807 25632 15578 13826 68253 10381 15793 16554 142627 3445 4960 83975 27347 6497 7367 9839 40906 5426 59611 3593 25701 8426 5743 33910 4308 5421 12961 4388 1992 20850 8573 40778 24364 962 1752 1453 1711 804 2631 1941 1219 128 157 58652 3559 114 2683 5531 1057 24207 3089 41 55093 662 907 3445 54431 4474
is_linear=0
shrinkage=1


Tree=3
num_leaves=60
num_cat=0
split_feature=106 106 71 89 75 79 107 53 90 79 106 85 50 30 102 53 71 58 85 69 25 106 40 58 30 100 75 108 38 53 75 33 17 59 3 103 50 71 70 58 107 37 70 62 2 97 63 81 79 53 38 33 33 72 33 53 79 126 1
split_gain=10369.8 2702.75 2839.59 1740.53 2396.12 1536.46 793.441 789.316 737.025 650.282 630.693 627.759 526.2 504.942 1732.13 643.328 256.163 753.034 420.93 182.107 226.647 150.63 100.414 97.7643 92.5351 138.034 117.093 87.9931 80.1291 75.2167 132.842 57.0635 54.2059 45.7214 41.9634 33.87 32.7362 31.3192 31.1596 28.4718 27.782 50.1378 31.2082 26.2175 24.0373 21.3915 20.8411 21.4582 9.92359 9.15118 6.81538 6.72842 6.04624 5.40671 5.06403 4.69308 2.66248 0.409317 5.68434e-14
threshold=-0.88318270444869984 -0.84894493222236622 -0.37642492353916163 -1.1702506542205808 -1.1253301501274107 -1.022317588329315 -0.95077908039093006 0.98450693488121044 -1.2516734600067136 -0.86807873845100392 -0.84181886911392201 -1.3076558113098142 1.1884093284606936 1.070455849170685 -0.85107773542404164 1.0419853329658511 -0.34821595251560206 0.90650102496147167 -1.2948408126831052 -0.087473608553409563 1.2101445794105532 -0.90223523974418629 1.0049384236335757 0.89943784475326549 1.0888368487358095 -0.93228149414062489 -1.0663158893585203 -0.88096225261688221 1.01703417301178 1.2011703848838808 -0.80394795536994923 0.87970471382141124 1.1303433775901797 0.6734699308872224 0.53631907701492321 -0.87275037169456471 1.209766745567322 -0.32941105961799616 -0.34669904410839075 0.92244815826416027 -0.96436455845832814 0.9577893614768983 -0.25785800814628596 0.72290462255477916 0.16319371759891513 -0.66416984796524037 0.29341006278991705 -1.1759662628173826 -0.9266378879547118 1.1696524024009707 1.0098562836647036 0.92451345920562755 0.90129426121711742 -0.39313448965549463 0.9029090702533723 1.1696524024009707 -1.2417024374008176 -2.4438139200210567 0.15594090521335605
decision_type=2 2 2 2 2 2 2 2 2 2 2 2 2 2 2 2 2 2 2 2 2 2 2 2 2 2 2 2 2 2 2 2 2 2 2 2 2 2 2 2 2 2 2 2 2 2 2 2 2 2 2 2 2 2 2 2 2 2 2
left_child=6 9 3 4 8 10 28 27 -3 12 -5 -6 13 15 -15 -2 17 23 -19 39 -21 22 38 -4 26 -26 -23 31 40 37 -31 34 -24 -33 -8 36 -30 -18 -9 -14 51 54 -43 -7 49 -38 47 -29 -46 -37 57 55 -52 -53 -42 -1 -48 58 -11
right_child=1 2 16 5 11 43 7 21 -10 50 -12 -13 19 14 -16 -17 29 18 -20 20 -22 24 32 -25 25 -27 -28 46 35 30 -32 33 -34 -35 -36 44 45 -39 -40 -41 41 42 -44 -45 48 -47 56 -49 -50 -51 52 53 -54 -55 -56 -57 -58 -59 -60
leaf_value=-2.2486522388297616 -2.1836964474029301 -2.0548066097205586 -2.2292772032661645 -2.0030998723549636 -2.1524412285168659 -2.2459017341761416 -2.0691514698634954 -2.1832908097629051 -1.93551870588764 -2.250663962163967 -1.8821073641178545 -2.0518727170258391 -2.0140957369693702 -2.1216884261429292 -1.7943646297334133 -2.1228887456999037 -2.1989304785988333 -2.1550711762502393 -1.909982045718158 -2.0288168245689948 -1.74462913514447 -2.1867764442521507 -2.1209434011640846 -2.1395001067327315 -2.1705812640309432 -1.8981133085754365 -2.1238268128293791 -2.0785889458909712 -2.250663962163967 -1.5419467508475362 -2.1924336856723783 -2.0643071355153721 -1.7604279857550509 -2.1978583402509253 -2.2316177438772646 -2.2195123552321281 -1.6988242585608089 -2.2384834330265009 -2.2235340335800049 -2.1712752580011085 -2.2386614214964253 -1.9627475950666671 -2.1692186374763933 -2.0688220461025146 -2.1696874839178517 -2.0779141419055871 -2.2437539693536319 -2.220088772737705 -1.9712157235107053 -2.1067057786153169 -2.0347266868409921 -2.2274947266142915 -2.250663962163967 -2.0964230512189852 -2.2180565663722249 -2.1795316832340461 -2.1328799938059806 -2.2095330525786387 -2.250663962163967
leaf_weight=5418.2402014732361 2958.1507561504841 880.23248401284218 434.848508477211 697.19321566820145 2127.8170227110386 167.98860111832619 15.976862132549284 553.63300520181656 1258.4673288464546 492.73569011688232 1127.6422983407974 876.29615566134453 18.176575034856796 1576.2679560482502 180.14490926265717 4224.6065160632133 349.87012583017349 117.16365563869476 174.35619109869003 54.992822557687759 57.308309823274612 394.44325569272041 158.03200587630272 168.22014984488487 34.963857710361481 39.710606604814529 1177.8883720040321 59.276473999023438 2.6628103554248792 4.5152001678943625 10.303918331861494 33.806114077568054 4.2836514413356772 106.04931676387787 3223.7371455132961 35.311180800199509 4.1678770780563354 467.959976375103 294.87730327248573 31.490626811981201 691.52027186751366 8.6830772459506971 46.657068401575089 8.7988516092300397 3.7047796249389648 2.315487265586853 14.471795409917833 13.082503050565718 7.8726567029952985 9.030400335788725 2.7785847187042227 107.90170657634735 2.4312616288661957 3.2416821718215934 144.1390822827816 9.8408208787441236 2.5470359921455374 2.4312616288661948 6.8306874334812155
leaf_count=46800 25551 7603 3756 6022 18379 1451 138 4782 10870 4256 9740 7569 157 13615 1556 36490 3022 1012 1506 475 495 3407 1365 1453 302 343 10174 512 23 39 89 292 37 916 27845 305 36 4042 2547 272 5973 75 403 76 32 20 125 113 68 78 24 932 21 28 1245 85 22 21 59
internal_value=-2.15006 -2.10234 -2.06254 -2.03472 -2.06551 -1.9556 -2.21992 -2.19411 -1.98461 -2.13908 -1.92833 -2.12311 -2.13294 -2.13618 -2.08812 -2.14793 -2.1776 -2.14045 -2.00848 -1.95431 -1.88379 -2.1531 -2.18349 -2.20423 -2.13445 -2.02569 -2.13962 -2.22553 -2.24427 -2.21752 -1.99424 -2.22812 -2.11143 -2.16558 -2.23082 -2.13386 -1.95546 -2.22156 -2.19728 -2.11375 -2.24539 -2.229 -2.13682 -2.23709 -2.16304 -1.83421 -2.12759 -2.10417 -2.03473 -2.19654 -2.24928 -2.24803 -2.1355 -2.22367 -2.23511 -2.24853 -2.22716 -2.25046 -2.25066
internal_weight=0 18480 8871.67 7144.44 5142.81 2001.62 12622.1 6126.78 2138.7 9608.35 1824.84 3004.11 9101.14 8939.17 1756.41 7182.76 1727.24 894.589 291.52 161.968 112.301 2657.83 1010.83 603.069 1647.01 74.6745 1572.33 3468.95 6495.29 832.649 14.8191 3379.57 162.316 139.855 3239.71 65.0652 9.14617 817.83 848.51 49.6672 6430.22 890.999 55.3401 176.787 55.919 6.48336 89.3778 72.359 11.5774 44.3416 507.207 5539.22 5.20985 111.143 835.659 5428.08 17.0188 501.998 499.566
internal_count=268644 159621 76629 61710 44421 17289 109023 52920 18473 82992 15762 25948 78611 77212 15171 62041 14919 7727 2518 1399 970 22957 8731 5209 14226 645 13581 29963 56103 7192 128 29191 1402 1208 27983 562 79 7064 7329 429 55541 7696 478 1527 483 56 772 625 100 383 4381 47845 45 960 7218 46885 147 4336 4315
is_linear=0
shrinkage=1


Tree=4
num_leaves=62
num_cat=0
split_feature=32 106 104 32 83 72 55 104 21 29 32 116 83 38 32 106 5 29 91 86 22 106 83 73 86 55 106 29 104 18 55 55 32 72 54 72 32 73 29 104 72 55 106 33 114 97 69 106 36 106 29 32 106 55 15 42 99 73 24 60 106
split_gain=16136 23771.4 17815.3 13654 6085.98 6087.78 5128.23 1895.7 2538.01 1796.38 1731.85 1536.08 651.588 1030.26 608.588 848.333 677.184 801.178 672.542 576.358 365.173 316.112 226.083 210.709 207.48 866.368 149.922 123.42 115.612 243.368 88.8752 88.5089 98.3499 136.777 80.7041 74.5236 70.399 341.369 464.691 127.744 61.9008 50.5346 38.6898 53.0285 36.4748 26.028 25.2325 24.444 17.2854 14.1318 13.8496 13.553 23.3782 13.0208 5.70524 2.48292 3.5407 1.82315 1.62748 1.50121 0.681624
threshold=0.9345788061618806 -0.84605512022972096 -0.85096460580825795 0.95954203605651867 -1.2907840609550474 -0.56645965576171864 0.9572451412677766 -0.86769580841064442 1.3237585425376894 1.1408533453941347 0.96305382251739513 -1.0160877108573911 -1.2138714790344236 0.99498870968818676 0.92358979582786571 -0.8966383934020995 0.6775144934654237 1.1528967618942263 -1.1753240227699278 -1.0806444287300108 1.2780067920684817 -0.83739325404167164 -1.2615957260131834 -0.74645501375198353 -1.2736821770668028 0.97885078191757213 -0.83672961592674244 1.1627987027168276 -0.87716728448867787 1.2557400465011599 1.0610640645027163 1.1110468506813052 0.88544651865959179 -0.5745728313922881 0.98946014046669017 -0.59233766794204701 0.90989261865615856 -0.89013430476188649 1.171960234642029 -0.80325910449028004 -0.60785940289497364 0.956474930047989 -0.91434285044670094 0.90595287084579479 -1.0799226164817808 -0.58475759625434864 -0.052510656416416161 -0.8281087577342986 0.95230552554130565 -0.82898953557014454 1.161684036254883 0.86029943823814403 -0.90568003058433522 0.95254197716712963 1.1003018617630007 1.1342356204986574 -0.68182045221328724 -0.54994252324104298 1.1013814210891726 0.54772949218750011 -0.82720866799354542
decision_type=2 2 2 2 2 2 2 2 2 2 2 2 2 2 2 2 2 2 2 2 2 2 2 2 2 2 2 2 2 2 2 2 2 2 2 2 2 2 2 2 2 2 2 2 2 2 2 2 2 2 2 2 2 2 2 2 2 2 2 2 2
left_child=14 2 7 4 6 -6 -4 28 22 -10 11 -5 21 26 31 42 19 18 -18 34 -12 24 -9 -21 41 -26 30 -19 54 -30 -14 36 44 47 -17 -15 51 38 -38 -39 -28 -3 55 50 57 -35 -45 -34 -37 53 -44 58 -53 -23 -2 59 -57 -33 -1 -16 -51
right_child=1 12 3 10 5 -7 -8 8 9 -11 20 -13 13 35 15 16 17 27 -20 23 -22 49 -24 -25 25 -27 40 -29 29 -31 -32 32 33 45 -36 48 37 39 -40 -41 -42 -43 43 46 -46 -47 -48 -49 -50 60 -52 52 -54 -55 -56 56 -58 -59 -60 -61 -62
leaf_value=-2.1998248736245354 -2.1949973076850209 -2.1211214609808029 -1.6740009595893937 -1.8643469391820784 -1.653784007079532 -2.0148820926095596 -2.1402600919705259 -2.1912764903685278 -1.7367088585714128 -2.0413106650447812 -2.1637571383513396 -2.1320669539107837 -1.5980253896894159 -1.6215766489174095 -2.1639707632703242 -2.1056449913511854 -2.080065703368402 -1.9517153904049451 -1.5195211922627707 -1.7247810640069248 -2.0365002415936599 -2.1258619408799366 -2.0979065861419115 -2.0009453116340006 -1.78879208475421 -2.1436303053000487 -1.5614920510601329 -2.1312889751351802 -2.1717612787138258 -2.0153052231145381 -1.9532750165660684 -2.1971092089484516 -1.8281174540517975 -2.0907750062415662 -2.1739206999613763 -2.0861437932196849 -1.8851108985895311 -2.1898788167085819 -2.1812067793287366 -2.0524128933883787 -2.0935530630264862 -2.1947322682364132 -2.1394619341059053 -1.8912145351807643 -1.7868092930249198 -1.7688492230132344 -2.1605497975538124 -1.4372786997205709 -2.194817229472585 -2.194044348112973 -2.1897369419239605 -2.1948639185533456 -2.1812997281734114 -2.188853548922669 -2.1787663207137027 -2.0425264803341623 -2.1998909032936957 -2.1626763438100225 -2.1956474079705339 -2.1970282448718748 -2.1997368737329719
leaf_weight=1514.4706771373749 1287.3969087302685 109.17939184606075 364.33477766811848 626.14744348078966 3405.7434017434716 541.05530105531216 669.11715978384018 487.55497822165489 354.28833695501089 426.91320957988501 976.92557825893164 325.8435951769352 53.500322833657265 2.4208290874958029 13.91976725310087 281.17929851263762 31.71286104619503 61.246975913643837 65.846551179885864 37.88597521930933 293.16240249574184 33.770565770566463 554.00673667341471 102.03794603794813 75.65090898424387 760.74554074555635 2.6629119962453833 102.03794603794813 519.02575635910034 122.97811764478683 8.1097774431109411 35.949311949312687 2.4208290874958038 25.660788327455521 450.51629318296909 16.703720703721046 93.080878414213657 2107.452762119472 123.09915909916162 69.840919174253941 12.225186891853808 639.70408637076616 110.87397220730782 11.014772348105909 2.4208290874958029 2.7839534506201771 5.0837410837411872 4.7206167206168166 118.25750092417002 222.35315168648958 108.33210166543722 3222.6076812744141 2097.7694457694888 1159.6981743648648 260.3601683601737 2.541870541870594 3.2681192681193343 26.871202871203423 2427.2442845776677 1047.9769119769335 3895.3560846894979
leaf_count=12512 10636 902 3010 5173 28137 4470 5528 4028 2927 3527 8071 2692 442 20 115 2323 262 506 544 313 2422 279 4577 843 625 6285 22 843 4288 1016 67 297 20 212 3722 138 769 17411 1017 577 101 5285 916 91 20 23 42 39 977 1837 895 26624 17331 9581 2151 21 27 222 20053 8658 32182
internal_value=-2.09858 -2.03659 -1.9459 -1.85182 -1.75985 -1.70329 -1.97588 -2.11476 -2.03942 -1.90317 -2.05795 -1.95598 -2.17962 -2.00773 -2.17863 -2.13313 -2.06982 -1.92846 -1.70173 -2.11212 -2.13438 -2.18496 -2.14161 -1.92617 -2.14577 -2.11154 -1.7136 -2.06393 -2.17747 -2.14179 -1.64479 -2.18805 -2.09476 -1.96103 -2.14768 -2.1715 -2.18886 -2.17357 -2.05372 -2.18547 -1.99839 -2.184 -2.18815 -2.15144 -2.1677 -2.05927 -1.97627 -1.56977 -2.18137 -2.19665 -2.16431 -2.19281 -2.18952 -2.18707 -2.19227 -2.19624 -2.13104 -2.18238 -2.19725 -2.19659 -2.19943
internal_weight=0 18325.2 11214.9 7202.33 4980.25 3946.8 1033.45 4012.52 1822.76 781.202 2222.08 951.991 7110.34 213.88 14191.9 2435.48 1132.46 260.844 97.5594 871.62 1270.09 6896.46 1041.56 139.924 1585.28 836.396 76.4982 163.285 2189.76 642.004 61.6101 11756.4 100.828 35.5862 731.696 137.382 11655.6 2393.47 216.18 2177.29 14.8881 748.883 1303.01 235.305 65.2413 28.4447 16.0985 7.14145 134.961 5311.18 219.206 9262.09 5320.38 1193.47 1547.76 1067.71 5.80999 62.8205 3941.71 1061.9 4117.71
internal_count=268644 151396 92653 59503 41145 32607 8538 33150 15059 6454 18358 7865 58743 1767 117248 20121 9356 2155 806 7201 10493 56976 8605 1156 13097 6910 632 1349 18091 5304 509 97127 833 294 6045 1135 96294 19774 1786 17988 123 6187 10765 1944 539 235 133 59 1115 43879 1811 76520 43955 9860 12787 8821 48 519 32565 8773 34019
is_linear=0
shrinkage=1


Tree=5
num_leaves=63
num_cat=0
split_feature=28 105 62 24 102 62 102 110 113 110 107 75 53 116 54 3 108 76 29 20 117 105 105 39 69 12 105 68 39 102 97 107 108 62 113 37 34 108 24 75 116 0 117 62 102 108 40 108 102 28 0 29 75 101 62 105 107 40 62 53 3 102
split_gain=85273.8 18320.9 7464.17 4549.04 2853.49 1755.6 1621.35 2878.79 1560.33 1557.1 1149.17 1121.65 1104.92 1049.66 1006.09 774.607 684.964 633.832 593.598 502.44 434.631 419.631 387.707 362.783 353.305 320.001 283.904 265.482 231.629 202.934 177.903 164.123 139.046 131.037 120.42 118.443 114.921 107.309 101.378 173.53 94.6625 91.7395 74.2205 72.8767 93.516 66.8265 62.5535 61.7623 45.4579 84.9242 45.4321 41.6538 34.2354 33.165 29.4768 28.8764 17.2585 11.3791 10.6698 10.0111 5.84896 0.275527
threshold=1.2493577003479006 -0.92221948504447926 0.38183239102363592 1.3778326511383059 -0.91737106442451466 0.42973847687244421 -0.89525160193443287 -1.05915892124176 -0.98133340477943409 -0.99190804362297047 -0.89018326997756947 -1.0105746984481809 0.95509758591651928 -1.3965190649032591 0.93379846215248119 0.68664026260375988 -0.87959289550781239 -0.99867820739746083 1.1993633508682253 1.3793686628341677 -0.99015349149703968 -0.78850069642066944 -0.93435695767402638 0.94351986050605785 -0.36557202041149134 0.86104589700698864 -0.92978930473327626 -0.0071168786380439988 0.89480817317962658 -0.91969522833824147 -1.017479360103607 -0.96835073828697193 -0.89844045042991627 0.45587733387947088 -1.1686179041862486 0.94904762506484996 0.90261352062225353 -1.0162891149520872 1.3567244410514834 -1.0355892181396482 -1.1872612833976743 0.50802308320999157 -1.1082015633583067 0.39846853911876684 -0.92334014177322377 -0.90536546707153309 0.94862186908721935 -0.88563326001167286 -0.90170851349830616 1.2377511858940127 0.5498492717742921 1.1830709576606753 -0.81847333908081044 -0.87075847387313832 0.42327256500720983 -0.90390625596046437 -0.91037973761558522 0.93311646580696117 0.40954977273941046 0.9779009521007539 0.72099328041076671 -0.89737001061439503
decision_type=2 2 2 2 2 2 2 2 2 2 2 2 2 2 2 2 2 2 2 2 2 2 2 2 2 2 2 2 2 2 2 2 2 2 2 2 2 2 2 2 2 2 2 2 2 2 2 2 2 2 2 2 2 2 2 2 2 2 2 2 2 2
left_child=3 11 8 9 43 17 47 23 15 13 14 18 16 26 -9 20 -10 -6 29 -12 -3 27 30 46 -14 -7 36 -15 31 51 -20 52 -24 37 -25 -23 -1 -30 40 53 -11 -33 -41 44 -4 -17 -8 48 54 -50 -31 -2 -13 -40 -5 -28 -42 -35 -45 60 -49 -61
right_child=1 2 4 6 5 25 7 10 12 38 19 28 24 21 -16 45 -18 -19 22 -21 -22 35 32 34 -26 -27 55 -29 33 50 -32 41 -34 57 -36 -37 -38 -39 39 42 56 -43 -44 58 -46 -47 -48 59 49 -51 -52 -53 -54 -55 -56 -57 -58 -59 -60 61 -62 -63
leaf_value=-2.0148884804056717 -2.1480893986770107 -1.5582473897097939 -2.1097051509214406 -2.1068346127383775 -1.6140830375562256 -2.1167955521221193 -2.1721239072310858 -2.1160322247273036 -1.4296907795626155 -1.5936606730117433 -2.1027085261152449 -2.1416959774176938 -2.173135882099309 -2.0740166667176947 -1.810764790197267 -2.1198325169411247 -1.7543064280566028 -2.1281939621251578 -1.6851967157723469 -1.891970098079782 -1.9261382582335231 -1.684949927421767 -1.6573765960690003 -2.0125254728490023 -1.643242696173737 -1.8627837162569976 -2.1182704664676764 -2.1241483927693858 -2.0334874129573595 -1.7278740805364503 -1.9767316909707375 -1.9025452132593657 -2.0472443663825741 -2.1886449509556671 -1.6413222656991526 -2.0917642872772979 -1.5617865152647474 -1.5656277599163084 -2.178138486287351 -1.6877653292171597 -2.1628860283431703 -2.0692138002734928 -2.0508703604852969 -2.1152254166580997 -1.8321856201517628 -1.8550493970599233 -2.1075991953385391 -2.1429186379788105 -2.1500324019445571 -1.9997400847345723 -2.0659294436297331 -2.0421383230863532 -1.8989000031027667 -2.1322581398506428 -2.164777482445237 -2.1842165165744523 -2.1874479112039174 -1.9432139363037986 -2.1766951262722429 -2.188321206047803 -2.1886449509556671 -2.1736338797231372
leaf_weight=13.812435463070871 71.50685615837574 176.87251429259777 41.804008215665817 129.56797868013382 714.45739187300205 61.23920501768589 641.60596235096455 123.94521734118462 1962.8326430618763 2.6891467273235312 351.42258368432522 570.83250984549522 25.791361793875694 1897.437484011054 837.30250373482704 39.237095430493355 67.228668183088303 24.813490256667137 25.424659967422485 166.84933103621006 39.237095430493355 31.169655248522758 120.27819907665253 17.601687669754028 24.569022372364998 260.84723255038261 68.20653972029686 2383.0729361772537 7.0895686447620383 21.268705934286121 118.44468994438648 42.292943984270096 9.9009493142366392 8.3119080662727338 17.357219785451889 9.2897796034812909 9.4120135456323606 15.890412479639055 713.8462221622467 5.9894631654024115 291.16125020384789 150.71445067226887 93.631199687719345 38.136989951133728 17.11275190114975 12.590096041560171 196.18547715246677 100.59853439033031 82.874612778425217 68.817709431052208 4.8893576860427848 77.129617497324944 5.8672292232513419 202.17494031786919 272.33722311258316 2506.5292177498341 16373.725486904383 2.4446788430213919 108.78820851445198 308.88517181575298 38.748159661889076 13.323499694466589
leaf_count=113 585 1447 342 1060 5845 501 5249 1014 16058 22 2875 4670 211 15523 6850 321 550 203 208 1365 321 255 984 144 201 2134 558 19496 58 174 969 346 81 68 142 76 77 130 5840 49 2382 1233 766 312 140 103 1605 823 678 563 40 631 48 1654 2228 20506 133954 20 890 2527 317 109
internal_value=-2.08717 -1.70089 -1.58672 -2.1544 -1.78232 -1.71623 -2.04539 -1.99981 -1.48117 -2.16932 -1.91484 -2.03053 -1.45192 -2.1291 -1.85013 -1.70831 -1.44044 -1.63134 -1.90391 -2.03486 -1.62504 -2.0989 -1.81207 -2.14384 -1.91462 -1.91108 -2.17933 -2.10193 -2.10127 -2.04791 -1.92521 -2.11251 -1.68703 -1.8448 -1.82822 -1.77836 -1.83126 -1.70997 -2.18505 -2.15438 -2.18692 -2.03269 -2.02904 -2.12306 -2.0291 -2.05551 -2.15701 -2.15102 -2.12849 -2.08185 -1.79106 -2.09311 -2.13923 -2.16801 -2.1461 -2.18247 -2.18702 -2.13287 -2.16074 -2.17803 -2.15563 -2.18771
internal_weight=0 4867.84 3615.56 27969.6 1267.2 1061.36 3367.42 2352.27 2348.36 24602.1 1479.52 1252.29 2080.42 6918.93 961.248 267.937 2030.06 739.271 448.843 518.272 216.11 4320.97 274.048 872.75 50.3604 322.086 2597.96 4280.51 803.444 174.795 143.869 769.707 130.179 33.7366 34.9589 40.4594 23.2244 22.98 17683.2 1015.64 16667.6 193.007 99.6207 205.842 58.9168 51.8272 837.791 1015.15 553.598 151.692 26.1581 148.636 576.7 916.021 401.905 2574.74 16664.9 10.7566 146.925 461.555 139.347 322.209
internal_count=268644 39824 29579 228820 10367 8683 27549 19244 19212 201271 12104 10245 17020 56604 7864 2192 16608 6048 3672 4240 1768 35350 2242 7140 412 2635 21254 35019 6573 1430 1177 6297 1065 276 286 331 190 188 144667 8309 136358 1579 815 1684 482 424 6854 8305 4529 1241 214 1216 4718 7494 3288 21064 136336 88 1202 3776 1140 2636
is_linear=0
shrinkage=1


Tree=6
num_leaves=49
num_cat=0
split_feature=74 45 31 52 105 74 52 74 74 73 105 105 31 74 52 83 105 31 25 52 31 118 83 45 74 50 52 112 112 101 86 127 34 74 105 126 103 52 73 101 5 101 32 83 93 105 105 15
split_gain=18262.6 10327.5 9781.95 6925.27 3499.5 3012.6 2988.74 2907.06 2812.26 2011.7 918.442 1992.64 904.842 962.717 734.008 1017.22 479.599 402.939 402.372 388.94 372.551 367.975 350.122 330.57 326.09 294.817 243 204.37 203.734 174.538 168.692 158.351 157.986 137.915 125.43 112.135 127.184 105.109 123.393 102.233 71.404 57.0938 55.5039 49.2762 41.2712 19.0945 18.2086 8.88178e-16
threshold=-1.0288636088371275 1.0000000180025095e-35 1.0058237910270693 0.98978021740913402 -0.82717373967170704 -0.95801833271980275 1.0391214489936831 -0.98529386520385731 -1.2134265899658201 -0.85455960035324086 -0.85365113615989674 -0.8986840248107909 1.0051183104515078 -1.0452353954315183 1.0247868895530703 -1.3332451581954954 -0.80992695689201344 0.9993102252483369 1.2758759260177615 1.0279107689857485 0.99817582964897167 -0.30923549830913538 -1.3271932601928709 1.1115468740463259 -1.1876257658004759 1.0901873111724856 0.97317990660667431 -0.93296563625335682 -0.4454639852046966 -0.93018615245819081 -1.2685711979866026 0.26132474839687353 0.68914005160331737 -1.0375618934631345 -0.78714346885681141 0.31219588220119482 -0.75466588139533985 0.96155714988708507 -0.92129546403884877 -1.0252938866615293 0.61753198504447948 -0.97657945752143849 0.95623859763145458 -1.4478824138641355 -1.0911915898323057 -0.82561168074607838 -0.79918745160102833 1.065571188926697
decision_type=2 2 2 2 2 2 2 2 2 2 2 2 2 2 2 2 2 2 2 2 2 2 2 2 2 2 2 2 2 2 2 2 2 2 2 2 2 2 2 2 2 2 2 2 2 2 2 2
left_child=3 -2 5 8 12 6 26 14 21 -8 11 -9 13 29 30 -16 18 39 40 -15 24 31 33 -19 28 -12 -3 -26 -10 -5 -4 34 -33 -14 -1 47 -37 44 -39 -7 -6 -24 46 -44 -22 -20 -18 -23
right_child=1 2 7 4 16 17 9 10 20 -11 25 -13 22 19 15 -17 42 23 45 -21 37 35 41 -25 27 -27 -28 -29 -30 -31 -32 32 -34 -35 -36 36 -38 38 -40 -41 -42 -43 43 -45 -46 -47 -48 -49
leaf_value=-1.6953375286674928 -1.4163385976098635 -2.4132390261592995 -2.3211605907869362 -1.6235867789795162 -2.2559674561700871 -2.2727255424255084 -2.0830904104408976 -2.3661569600517898 -2.0724405456104709 -2.2915650550048716 -2.382793389567837 -2.092289659820719 -1.6821799298251188 -2.178890143572759 -2.1036134149383234 -1.8112064172270053 -2.3189601393514137 -2.4027283252372365 -2.140698998007796 -1.9017672730871349 -2.3027087971216011 -2.4277097226937689 -2.0319558041826755 -2.3406521306154611 -2.1225030518104604 -2.2707771051997772 -2.3613976747080487 -2.3773073281797301 -2.3754504244371537 -1.7884468417445079 -2.1057654064366935 -1.874317975006349 -1.5131114444753027 -1.8868460340619413 -2.3864292686087119 -1.7889490121144604 -2.3567363104071792 -1.8134980348574246 -2.1829192592976643 -2.4155714775698658 -1.8716952653016694 -1.5275240181805221 -2.3789689455812915 -2.0591592279598032 -1.8208870476434256 -2.3174272329904708 -2.4080396197747951 -2.4277097226937689
leaf_weight=5.7347889542579651 117.36542221903801 1838.1976111829281 59.127651631832123 108.56548744440079 5.2404105961322776 50.327716857194901 560.32843109965324 388.28476247191429 69.806224167346954 2661.1398261189461 331.72787830233574 841.33308985829353 119.24405997991562 80.781423717737198 209.81417518854141 274.77549144625664 36.781749844551086 1997.4863181710243 7.3167997002601615 135.75629714131355 17.599869549274448 2.8673944771289852 2.2741404473781577 1503.6023384034634 33.419977009296417 805.44122105836868 1779.4654622375965 541.64092916250229 32.530095964670181 157.21231788396835 94.426266402006149 15.721231788396834 52.700732976198196 45.482808947563171 4.8449079096317273 13.150464326143268 5.6359132826328251 21.653772085905075 15.523480445146559 11163.063326478004 62.588300138711929 168.1875174343586 8.2066807448864001 11.667329251766203 1.9775134325027455 37.177252531051636 61.006289392709732 4.1527782082557678
leaf_count=58 1187 18591 598 1098 53 509 5667 3927 706 26914 3355 8509 1206 817 2122 2779 372 20202 74 1373 178 29 23 15207 338 8146 17997 5478 329 1590 955 159 533 460 49 133 57 219 157 112900 633 1701 83 118 20 376 617 42
internal_value=-2.32923 -2.35216 -2.35663 -2.02934 -1.85787 -2.3802 -2.32536 -2.1876 -2.24343 -2.2553 -2.23868 -2.17877 -1.76092 -1.84863 -1.99818 -1.93781 -2.20248 -2.40568 -2.05468 -2.00515 -2.31261 -1.75887 -1.63472 -2.37607 -2.33323 -2.30345 -2.38774 -2.3625 -2.16876 -1.7211 -2.18871 -1.65178 -1.59611 -1.73869 -2.01182 -2.08671 -1.95929 -2.06651 -1.96775 -2.41493 -1.90138 -1.53425 -2.34357 -2.19122 -2.25404 -2.28837 -2.37453 -2.42771
internal_weight=0 24675.9 24558.5 1886.45 1047.49 21553.6 6839.13 3004.93 838.96 3221.47 2366.79 1229.62 817.504 482.316 638.144 484.59 229.985 14714.5 112.323 216.538 734.152 104.808 335.189 3501.09 677.397 1137.17 3617.66 575.061 102.336 265.778 153.554 79.0017 68.422 164.727 10.5797 25.8066 18.7864 56.7546 37.1773 11213.4 67.8287 170.462 117.662 19.874 19.5774 44.4941 97.788 7.02017
internal_count=268644 249565 248378 19079 10594 217987 69169 30391 8485 32581 23937 12436 8268 4878 6454 4901 2326 148818 1136 2190 7425 1060 3390 35409 6851 11501 36588 5816 1035 2688 1553 799 692 1666 107 261 190 574 376 113409 686 1724 1190 201 198 450 989 71
is_linear=0
shrinkage=1


Tree=7
num_leaves=63
num_cat=0
split_feature=106 37 83 101 106 57 57 82 103 54 37 37 37 99 83 37 108 37 54 107 56 53 37 101 56 107 99 37 56 125 88 108 56 117 37 71 37 57 54 28 56 48 114 125 39 21 111 67 114 0 71 53 47 83 43 108 37 75 37 81 77 0
split_gain=36687.8 4976.51 3390.45 1985.42 1695.81 1480.94 1233.48 1225.88 1477.73 1127.21 1702.94 967.408 707.489 579.66 693.313 573.019 488.221 493.792 483.808 408.195 405.258 373.823 342.719 341.295 325.763 303.409 302.129 292.219 275.896 273.897 203.058 258.629 199.133 195.27 164.789 158.212 143.958 399.514 141.076 122.145 116.257 105.813 99.2584 69.3255 43.2684 42.1688 36.7136 36.0356 35.9432 30.0244 30.9057 29.1163 25.6211 24.5113 19.4163 15.2861 40.9919 15.5834 11.3531 8.25547 16.0185 2.84217e-14
threshold=-0.83460405468940724 0.93657442927360546 -1.3271932601928709 -0.80955448746681202 -0.85098713636398304 0.9400700330734254 0.91706061363220226 -1.322135806083679 -0.75466588139533985 1.0612007379531863 0.98159241676330578 0.97611474990844738 0.97228512167930614 -1.0384317040443418 -1.4308938384056089 0.98159241676330578 -0.98682492971420277 0.97611474990844738 1.0460942983627322 -0.85886999964714039 0.981631100177765 0.98450693488121044 0.95034751296043407 -0.88106903433799733 0.96544647216796886 -0.79099029302597035 -0.97757565975189198 0.97929367423057567 0.99662137031555187 0.21833039075136187 -1.2564286589622495 -0.85939115285873402 0.97969198226928722 -1.1157349348068235 0.99370527267456066 -0.39061495661735529 0.96166712045669567 0.9113864302635194 1.0352050065994265 1.096985459327698 0.99027547240257274 0.73585432767868053 -0.94390320777893055 0.33812266588211065 1.0529062151908877 1.3344308733940127 -0.64155995845794667 0.17306417971849444 -1.0212587118148801 0.03756928630173207 -0.35125285387039179 0.93524482846260082 1.0794324874877932 -1.1593893170356748 1.1620002388954165 -1.0111987590789793 0.93952563405036937 -0.96721285581588734 0.99370527267456066 -1.2751269340515134 -1.2128564119338987 0.32486620545387274
decision_type=2 2 2 2 2 2 2 2 2 2 2 2 2 2 2 2 2 2 2 2 2 2 2 2 2 2 2 2 2 2 2 2 2 2 2 2 2 2 2 2 2 2 2 2 2 2 2 2 2 2 2 2 2 2 2 2 2 2 2 2 2 2
left_child=4 7 3 6 16 12 22 8 13 10 24 19 -5 41 -15 -7 44 21 35 36 33 51 -3 -23 -4 -8 29 53 -29 -10 42 -32 -12 58 48 -19 47 -38 -35 -20 -36 -2 -21 -28 55 59 52 -6 -22 54 -51 -18 -47 -11 -46 57 -57 -1 -13 60 -9 -61
right_child=1 2 9 5 11 15 25 45 26 27 32 20 -14 14 -16 -17 17 18 39 30 34 23 -24 -25 -26 -27 43 28 -30 -31 31 -33 -34 38 40 -37 37 -39 -40 -41 -42 -43 -44 -45 49 46 -48 -49 -50 50 -52 -53 -54 -55 -56 56 -58 -59 -60 61 -62 -63
leaf_value=-2.2667541862964957 -2.3733903974399775 -1.9973544704226827 -1.9867096855491657 -1.8251215664389855 -2.372509906311707 -2.0546615918822857 -2.1959377640372848 -2.3991369566423 -1.4971690146862198 -2.3234446231064836 -1.5705939464493088 -1.6631484610411369 -1.5974211493972326 -2.0227615108478876 -2.22075302479564 -1.8538194737496188 -2.4222096418476022 -2.1617232280056098 -2.1633375212268899 -2.0470419893589371 -2.2302672168130266 -2.3429365016308528 -1.8060938567965428 -2.3885333963227335 -2.1925338225186541 -1.8298545750726014 -1.4372108245308532 -2.0575936627652598 -2.2459467080655311 -2.2549868289324242 -2.283874319264501 -2.1200565676827354 -1.8353306062529229 -1.5938897532366578 -1.6549853233348237 -1.6555668865181612 -1.7979018621819551 -2.3314737390345881 -2.0768414379285134 -2.3363953582480135 -2.1032043767783692 -2.181964647893194 -2.3425886801290843 -1.8076201988215064 -2.1882727202402501 -2.4016251636798698 -1.8796348730125525 -2.4113221737494794 -2.3722307082760867 -2.427218150352016 -2.0193018627792982 -2.4048415407127681 -2.013658752081652 -2.4236205596988141 -2.3926835146096321 -2.4193494753757778 -2.3644712071661678 -2.4249990567216031 -1.4950683955204018 -2.427218150352016 -2.1672665285820729 -2.427218150352016
leaf_weight=6.2319287136197081 211.78665675967932 316.14673283696175 102.38168600946665 533.96747930347919 890.1766110137105 378.46601997315884 417.24246530234814 21.366612732410434 7.4189627543091801 201.40010890364647 56.384116932749748 8.5070772916078585 183.29783978313208 228.70189183950424 780.27704274654388 227.41593829542398 2136.3645147308707 9.7930308356881159 53.812209844589233 11.573581896722315 72.606915488839149 2189.0886100381613 133.14565156400204 6563.3090499788523 308.92560908943415 23.938519820570946 28.686655983328819 108.2179367095232 276.38109247386456 13.354132957756518 745.06169953942299 110.69092429429293 57.27439246326685 7.3200432509183875 7.1222042441368094 16.717396073043346 14.936845012009142 231.86731594800949 34.819665193557739 168.45991427451372 30.862885057926178 33.434792146086693 626.25937596708536 6.1330092102289191 5.4405726864933959 7.8146407678723318 2.3740680813789359 327.12679771333933 23.641761310398579 2.7697460949420929 5.638411693274973 1760.7671603560448 2.1762290745973587 27.796380452811718 31.852080091834068 991.27234347909689 157.77660790830851 4371.1539353355765 7.6168017610907546 248.8814705312252 3.4621826186776152 5.2427336797118178
leaf_count=63 2141 3196 1035 5398 8999 3826 4218 216 75 2036 570 86 1853 2312 7888 2299 21597 99 544 117 734 22130 1346 66350 3123 242 290 1094 2794 135 7532 1119 579 74 72 169 151 2344 352 1703 312 338 6331 62 55 79 24 3307 239 28 57 17800 22 281 322 10021 1595 44189 77 2516 35 53
internal_value=-2.32874 -2.08326 -2.01399 -1.94186 -2.38498 -1.86417 -2.0573 -2.22829 -2.18703 -2.1542 -2.04662 -2.31716 -1.76693 -2.20939 -2.17587 -1.97928 -2.39654 -2.38586 -2.24634 -2.3313 -2.09994 -2.3886 -1.94068 -2.37713 -2.1413 -2.17607 -1.68252 -2.24621 -2.19295 -1.98434 -2.29452 -2.26268 -1.704 -1.87971 -2.19553 -1.84254 -2.36882 -2.29918 -1.99295 -2.2945 -2.01916 -2.34729 -2.33723 -1.50245 -2.42128 -2.41383 -2.23312 -2.38294 -2.26514 -2.32438 -2.15367 -2.41436 -2.31712 -2.33559 -2.36286 -2.42208 -2.41181 -2.42477 -1.58375 -2.42184 -2.3668 -2.42722
internal_weight=0 4953.49 3352.38 2213.62 21620.6 1323.15 890.473 1601.11 1309.79 1138.76 524.966 3150.19 717.265 1254.2 1008.98 605.882 18470.4 12898.3 248.783 2957.69 192.497 12649.5 449.292 8752.4 411.307 441.181 55.5928 613.796 384.599 20.7731 1493.59 855.753 113.659 58.2636 134.234 26.5104 1464.11 246.804 42.1397 222.272 37.9851 245.221 637.833 34.8197 5572.14 291.318 12.3649 1217.3 96.2487 45.7008 8.40816 3897.13 9.99087 229.196 37.2927 5526.43 1149.05 4377.39 16.1239 278.953 24.8288 254.124
internal_count=268644 50076 33890 22378 218568 13376 9002 16186 13241 11512 5307 31846 7251 12679 10200 6125 186722 130392 2515 29900 1946 127877 4542 88480 4158 4460 562 6205 3888 210 15099 8651 1149 589 1357 268 14801 2495 426 2247 384 2479 6448 352 56330 2945 125 12306 973 462 85 39397 101 2317 377 55868 11616 44252 163 2820 251 2569
is_linear=0
shrinkage=1


Tree=8
num_leaves=63
num_cat=0
split_feature=80 105 70 86 74 46 49 33 97 33 73 74 33 69 27 102 38 33 73 73 105 23 115 59 30 33 66 38 105 73 46 69 100 36 84 111 85 74 123 116 74 33 105 6 30 105 59 115 27 5 98 29 102 69 39 30 105 69 70 94 109 59
split_gain=13729.6 13226.5 9010.39 5354.86 6959.51 4126.38 3563.66 2762.01 2094.51 1762.72 1551.01 1149.68 2034.42 1011.22 839.222 697.46 673.809 587.738 539.221 466.345 453.182 420.353 405.924 334.975 300.361 255.086 245.137 241.303 219.992 219.999 159.749 156.898 353.373 154.557 146.289 269.231 135.746 128.489 121.076 113.266 147.971 105.571 89.1284 88.2252 76.917 73.7299 63.0681 56.4121 55.3542 49.886 46.7829 37.573 36.8383 34.7915 34.1273 31.8669 21.9984 16.2633 15.0413 13.4067 11.5876 8.7495
threshold=-1.2377617359161375 -0.81964296102523793 -0.27423903346061701 -1.2685711979866026 -1.0034792423248289 1.0988845229148867 0.72522851824760448 0.92753800749778759 -0.89594307541847218 0.9372135102748872 -0.75521859526634205 -1.0072720050811765 0.88988158106803905 -0.091926764696836458 1.1405273675918581 -0.91065603494644154 0.97429302334785473 0.94410106539726268 -0.77187895774841297 -0.98297521471977223 -0.81169435381889332 1.2582339048385622 -1.1536440849304197 0.83015704154968273 0.93157604336738598 0.91766741871833812 0.25664843618869787 0.97429302334785473 -0.9740716516971587 -0.71455150842666615 1.2012001872062685 -0.072132736444473253 -0.80043557286262501 0.67599010467529308 -1.1932406425476072 -0.97418442368507374 -1.1951882243156431 -0.90868115425109852 1.0000000180025095e-35 -1.0734498500823972 -0.89615184068679798 0.94133812189102184 -0.94655200839042652 1.0524089336395266 1.061228930950165 -0.83614894747734059 0.79657024145126354 -1.3350462913513181 1.1785241961479189 0.54676669836044323 -0.79429119825363148 1.0291615128517153 -0.84605818986892689 -0.1003405638039112 0.6605001986026765 1.0479136109352114 -0.8033749759197234 -0.20412825793027875 -0.28233352303504938 -1.3675261735916135 -0.96657574176788319 0.70042330026626598
decision_type=2 2 2 2 2 2 2 2 2 2 2 2 2 2 2 2 2 2 2 2 2 2 2 2 2 2 2 2 2 2 2 2 2 2 2 2 2 2 2 2 2 2 2 2 2 2 2 2 2 2 2 2 2 2 2 2 2 2 2 2 2 2
left_child=1 2 3 4 6 -6 -1 25 9 16 21 44 -13 39 41 19 -4 -12 -11 38 26 -10 52 -24 57 28 58 -28 29 47 -31 36 48 -26 35 -30 37 -27 51 53 49 50 -34 -36 -5 -42 -38 -2 -33 -41 -15 -3 -16 61 59 -55 -56 -21 -17 -22 -43 -9
right_child=7 15 8 11 5 -7 -8 13 10 18 17 12 -14 14 22 20 -18 -19 -20 24 54 -23 23 -25 33 31 27 -29 34 30 -32 32 42 -35 43 -37 46 -39 -40 40 45 60 -44 -45 -46 -47 -48 -49 -50 -51 -52 -53 -54 55 56 -57 -58 -59 -60 -61 -62 -63
leaf_value=-1.5698878596707666 -1.9265987854904179 -2.2437056979930206 -1.6184877748344204 -2.1514780205187347 -1.7633238000891476 -2.1197114813165152 -2.1571755135122239 -2.0397453489520423 -2.1920645588099661 -2.1551599696326504 -1.7332675071195671 -2.0018989035987738 -2.1544930580565507 -1.6647214813605653 -1.8226262677148712 -2.2501320555772075 -2.010548406487386 -2.023944229832356 -1.7846981572670233 -2.2051694108470294 -2.1083092693427274 -1.98794026384315 -2.0519056804526401 -1.9031585988614657 -1.4876425423775224 -2.138612073443968 -2.0140645974078608 -2.1683044599002375 -2.0615290715458485 -1.6143331653897808 -2.2111551499287558 -1.4893737244206093 -1.7605922445042512 -2.2568644301892129 -2.249845458454204 -2.227894073111548 -2.2439524994660509 -1.7831500711262949 -1.5844956624870066 -2.1115370665766489 -1.8923579434406781 -2.1986889825849949 -2.1670220517462457 -1.8226262677148712 -2.2331510971600377 -2.2221253771912655 -2.1953216408679763 -2.2058713248711248 -1.9486954116590349 -2.208298319912477 -2.1042451596961387 -2.0775051891672023 -2.193317382022236 -2.2074648594123154 -2.2378073316980673 -2.0838101071367077 -2.2562413454170387 -1.9094739002097396 -2.2080490662868959 -2.2076124646911777 -2.2560979021001142 -2.2352352219792397
leaf_weight=110.19298573583364 8.1752371862530691 37.997581288218498 633.63845402747393 129.99778567999601 1443.4475122094154 419.2399802133441 1657.155120909214 2.3028837144374839 126.54346010833979 100.29058576375246 374.33374778181314 1217.4194756373763 3094.615135461092 2.5331720858812323 2.7634604573249808 222.80399937182665 47.093971960246563 85.436985805630684 64.595888189971447 9.6721116006374341 17.501916229724884 497.53802650421858 240.53620397299528 408.53157094120979 28.210325501859192 51.584595203399658 139.20932053774595 373.75802685320377 104.43577644973993 14.162734843790533 6.5632185861468306 9.9023999720811826 5.6420651003718367 2.878604643046855 10500.113440163434 1418.6915122792125 503.41037997603416 12.665860429406164 3.5694697573781005 86.012706734240055 31.549506887793541 48.130269631743431 123.54971127957106 4.8360558003187171 1020.5229180529714 8.635813929140566 567.08511468023062 62.753581218421459 3.5694697573781005 140.01532983779907 55.038920775055885 21.18653017282486 89.697320677340031 62.753581218421459 834.33476974070072 31.204074330627918 2888.8524755761027 2.3028837144374839 137.25186938047409 60.911274246871471 130.45836242288351 392.98710586875677
leaf_count=957 71 330 5503 1129 12536 3641 14392 20 1099 871 3251 10573 26876 22 24 1935 409 742 561 84 152 4321 2089 3548 245 448 1209 3246 907 123 57 86 49 25 91191 12321 4372 110 31 747 274 418 1073 42 8863 75 4925 545 31 1216 478 184 779 545 7246 271 25089 20 1192 529 1133 3413
internal_value=-2.15634 -2.09115 -2.0309 -2.07255 -1.97841 -1.84354 -2.12056 -2.22443 -1.83462 -1.71667 -1.92665 -2.13511 -2.11141 -2.10564 -2.03849 -2.23007 -1.64561 -1.78728 -2.01003 -1.97619 -2.23581 -2.02933 -1.98621 -1.95828 -1.72277 -2.23979 -2.17084 -2.12645 -2.24427 -2.08993 -1.80333 -2.19729 -2.09845 -1.55887 -2.24545 -2.21649 -2.20972 -2.06854 -2.1501 -2.19253 -2.14004 -2.20266 -2.14927 -2.24965 -2.22392 -1.96322 -2.21819 -2.17368 -1.61107 -2.17148 -2.08491 -2.18421 -2.18224 -2.2211 -2.25074 -2.1664 -2.25211 -2.1483 -2.23409 -2.18545 -2.24063 -2.2341
internal_weight=0 15802.5 11022.1 9092.59 3630.04 1862.69 1767.35 15130.3 1929.47 845.619 1083.85 5462.56 4312.03 1733.15 977.689 4780.44 680.732 459.771 164.886 105.818 4674.62 624.081 741.529 649.068 43.0639 13397.1 873.023 512.967 12119.7 91.6548 20.726 1277.41 142.664 31.0889 12028.1 1523.13 1134.75 64.2505 62.7536 755.461 266.213 236.161 129.192 10504.9 1150.52 40.1853 1070.5 70.9288 13.4719 226.028 57.5721 59.1841 92.4608 489.248 3801.6 93.9577 3723.19 11.975 360.056 78.4132 178.589 395.29
internal_count=268644 137241 95724 78967 31526 16177 15349 131403 16757 7344 9413 47441 37449 15052 8491 41517 5912 3993 1432 919 40598 5420 6440 5637 374 116351 7582 4455 105257 796 180 11094 1239 270 104461 13228 9855 558 545 6561 2312 2051 1122 91233 9992 349 9297 616 117 1963 500 514 803 4249 33016 816 32335 104 3127 681 1551 3433
is_linear=0
shrinkage=1


Tree=9
num_leaves=62
num_cat=0
split_feature=115 107 4 30 30 4 117 4 113 53 4 30 81 57 30 105 36 105 115 4 36 30 36 92 108 30 105 36 72 6 80 26 55 107 72 2 55 115 2 98 37 115 115 1 113 113 93 88 1 101 105 4 115 125 6 73 55 73 108 71 114
split_gain=72028 4212.66 2240.01 3048.01 2026.87 3033.25 1287.68 575.983 2364.17 521.814 517.757 484.556 514.402 446.187 1624.35 401.443 297.849 271.798 207.865 171.624 170.742 159.383 153.591 147.568 118.601 105.327 103.969 87.5632 83.2181 75.9103 75.2229 68.4709 64.4317 56.8392 56.9644 55.5395 37.1382 418.084 300.085 35.394 54.0945 28.3537 25.7001 25.1335 24.3798 22.7615 17.7715 16.7103 16.4553 12.7181 8.89931 19.0429 9.34803 7.96622 5.63168 4.14366 1.36308 23.1899 1.15986 0.355677 0.00248422
threshold=-1.3149927258491514 -0.91732019186019886 0.7024073898792268 1.0864833593368532 1.0397895574569704 0.46764609217643743 -1.4268014430999754 0.74869716167449962 -0.95073407888412464 1.1326884627342226 0.39554090797901159 1.0139096379280093 -0.66944625973701466 0.83193707466125499 1.060507118701935 -0.87352079153060902 0.94396981596946727 -0.959164798259735 -1.3454067707061765 0.35432988405227667 0.85332959890365612 1.0736805796623232 0.86808934807777416 -1.1059883236885069 -1.0796103477478025 1.0968467593193056 -0.90981537103652943 0.89170575141906749 -0.76056495308876026 0.3573726117610932 -1.043231666088104 1.5077576637268069 0.95872169733047496 -1.0122147202491758 -0.3546855747699737 0.74701866507530224 0.90987759828567516 -1.0236196517944334 0.60786890983581554 -0.59020942449569691 0.9456673562526704 -0.99907273054122914 -1.3778511285781858 -0.038652634248137467 -0.93994519114494313 -1.3463267683982847 -0.4265731126070022 -0.35659252107143397 -0.019099891185760495 -0.66883060336112965 -0.86201515793800343 0.20354463160037997 -1.4707601666450498 -1.1633661985397337 0.39848124980926519 -0.92542439699172963 0.92070668935775768 -0.78991857171058644 -1.0763886570930479 -0.24414835125207898 -1.3240373730659483
decision_type=2 2 2 2 2 2 2 2 2 2 2 2 2 2 2 2 2 2 2 2 2 2 2 2 2 2 2 2 2 2 2 2 2 2 2 2 2 2 2 2 2 2 2 2 2 2 2 2 2 2 2 2 2 2 2 2 2 2 2 2 2
left_child=6 2 4 17 5 10 16 36 23 11 -2 12 22 14 -6 -7 20 35 -14 54 42 -19 -8 53 -15 28 29 -21 -5 -22 44 -25 -28 49 43 -4 37 38 -3 50 46 -39 47 -35 -10 -36 -41 -1 -42 58 52 -52 -11 -9 -13 -27 57 -38 -18 -58 -44
right_child=1 7 3 25 13 15 9 8 30 39 -12 19 18 24 -16 -17 33 21 -20 27 26 -23 -24 31 -26 55 32 -29 -30 -31 -32 -33 -34 34 45 -37 56 41 -40 40 48 -43 60 -45 -46 -47 -48 -49 -50 -51 51 -53 -54 -55 -56 -57 59 -59 -60 -61 -62
leaf_value=0.06774421825363651 -0.049768184283717001 -0.023376734570682303 0.0088952785948491521 0.12184691748026506 0.18115258992164512 0.34496174957888481 0.12658044984201844 0.11559963291018834 0.026906881016130698 0.035678187932807602 0.090244742126683417 -0.094922756492962765 0.21830268166435568 0.31689968230693327 -0.062267750281370417 -0.054355331508083742 -0.091471331599044942 0.48349088049734096 -0.057077410932146466 0.2322312277003433 0.063576549988569916 0.30740527227800818 0.37078080630155696 0.45021552734696296 -0.087070034958959014 -0.058350393948072357 0.21444946268070214 0.049268339988615954 -0.068964386242071796 0.30994831220542129 0.38736345003135003 0.3070528771301444 0.37505452816143187 0.070768693663560506 0.24526156154336709 0.3311707692973308 -0.096343782364057912 -0.050800897913891779 0.32527015023973266 -0.077759927606507517 0.15264119614137411 -0.096158488783180063 -0.10313681378956639 0.35494631943281307 -0.097409076075989323 -0.090594613280242292 0.21332771108481149 0.3366166757117377 0.42335595584057906 0.16770622629581863 -0.066467054420777424 0.20461876030237613 -0.093762965400805531 -0.058809948510030963 -0.015209216052774805 -0.091157112666835821 -0.098674209593519857 0.065273292675297842 -0.01296394055726029 -0.062251591230183201 -0.099202739226628311
leaf_weight=7.4621237516403207 775.90543536096811 64.353538274765015 18.570515267550949 56.759471215307713 332.59996238350868 369.37916537374258 27.626630216836929 4.1701677441596985 16.185722775757313 6.5059905871748915 400.40984669327736 29.934467911720276 74.596523955464363 7.291782282292842 1559.560603491962 27.017518237233162 11.158374845981596 205.83134417980909 43.333086922764778 70.740131489932537 16.717168934643269 68.514369688928127 380.29968463629484 71.935504831373692 2189.6920037865639 51.842490389943123 25.134068414568901 41.504496432840824 38.265713803470135 49.645604811608791 3.2595158591866484 62.375711716711521 4057.987894333899 3.9145999774336842 2.7936917394399643 7.5099914520978919 436.22894797474146 145.87130564451218 40.051931843161583 12.249773219227789 4.6583507284522057 2496.6586199179292 3.4101723730564117 15.184129759669302 622.08693511039019 7.2662909775972384 2.5306735709309605 3.3488222211599359 4.3346682935953122 2.4932804405689231 7.9247640669345838 3.8503249958157539 39.167641408741474 7.0398826077580434 12.590644001960753 149.58965143561363 15184.035616464913 9.0626148357987386 2.263609178364276 2.6815751940011969 3.0324177518486968
leaf_count=50 6920 560 138 432 2699 2321 198 38 135 54 3416 250 473 50 14707 223 103 1310 338 489 108 508 2385 472 21078 461 145 335 344 288 26 409 20287 27 16 46 4215 1319 302 101 34 24560 27 86 6126 58 20 19 29 14 59 26 331 62 101 1296 147863 83 20 25 29
internal_value=0 -0.0697751 0.00145639 0.18571 -0.017968 0.0785094 0.346336 -0.0930361 -0.00926444 0.226699 -0.00210872 0.255289 0.301064 -0.0550738 -0.0194798 0.317745 0.367977 0.410189 0.117115 0.0997609 0.370743 0.439516 0.354242 0.354637 -0.0857293 -0.041774 0.372048 0.164577 0.0450091 0.247886 -0.0918096 0.383729 0.374066 0.112295 0.195258 0.101696 -0.0966235 -0.0859001 0.110371 -0.0128752 0.0897423 -0.0936547 0.0568142 0.296699 -0.0942566 0.0026738 -0.0279206 0.151031 0.283127 -0.0397026 -0.0553405 0.022175 -0.0753247 0.00607087 -0.0713215 -0.0827137 -0.0985079 -0.0930545 -0.0782311 -0.0986678 -0.101285
internal_weight=0 25424.7 6258.74 596.884 5661.86 1572.71 4973.66 19166 787.053 761.848 1176.32 680.626 525.856 4089.14 1892.16 396.397 4211.81 300.426 117.93 154.77 4166.74 274.346 407.926 145.521 2196.98 296.457 4149.48 112.245 95.0252 66.3628 641.532 134.311 4083.12 45.074 29.1587 26.0805 18378.9 2746.94 104.405 81.2222 23.7735 2642.53 17.2535 19.0987 638.273 10.06 14.7804 10.8109 8.99302 15.9153 57.4487 11.7751 45.6736 11.2101 42.5251 201.432 15632 445.292 13.422 15186.7 6.44259
internal_count=268644 242144 55949 4535 51414 12880 26500 186195 7268 5223 10336 4569 3394 38534 17406 2544 21277 2002 811 1175 20953 1818 2583 981 21128 2533 20828 824 776 396 6287 881 20432 324 187 184 178927 26741 862 654 184 25879 125 113 6261 74 121 69 63 137 470 85 385 100 351 1757 152186 4298 123 147888 56
is_linear=0
shrinkage=0.1


Tree=10
num_leaves=60
num_cat=0
split_feature=109 27 109 28 30 113 109 97 5 40 41 127 97 70 127 73 30 72 4 65 74 73 30 90 68 109 89 127 4 29 50 30 109 28 30 76 29 109 89 109 92 126 32 113 74 8 30 109 126 68 109 89 89 99 79 76 121 124 109
split_gain=49581.2 21270.8 2492.65 1639.65 1100.46 1029.95 995.438 835.584 796.149 486.18 348.641 338.676 322.039 298.768 297.944 278.3 268.953 254.177 266.714 191.306 190.265 138.182 137.409 127.041 115.56 112.048 197.539 108.072 96.3804 287.241 107.533 92.2498 79.8308 66.5603 59.3636 59.2061 51.5421 47.7376 43.4857 69.539 42.9568 42.4728 43.4535 38.3839 32.7543 29.0998 22.203 19.32 18.1264 14.2845 14.0918 90.1088 27.7824 11.2632 8.69491 8.42544 2.44695 3.39047 1.43947
threshold=-0.97936320304870594 1.1580457091331484 -1.0070267915725706 1.1572792530059817 1.0560790896415713 -1.3024110198020933 -0.95466026663780201 -0.95074236392974842 0.4350505024194718 1.0087568163871767 1.0423662066459658 -2.4472535848617549 -0.92799484729766835 -0.29636971652507776 -2.7497229576110835 -0.69067290425300587 1.0244398117065432 -0.71467399597167958 0.7086809277534486 0.32677008211612707 -0.94454124569892872 -0.9123857021331786 0.99417173862457286 -1.0673146247863767 -0.068868707865476594 -0.93477234244346608 -1.1473420262336729 -2.8220864534378047 0.25310078263282781 1.0229977369308474 1.1188380122184756 1.0468508601188662 -0.9645140767097472 1.1298635601997378 1.0549326539039614 -1.056891858577728 1.1472113728523257 -0.97282820940017689 -1.1336251497268675 -0.94529929757118214 -1.0657299160957334 -2.4438139200210567 0.90832301974296581 -0.98991969227790821 -1.0091802477836607 0.39466765522956854 1.0623934268951418 -1.1120892167091367 -2.6647858619689937 -0.1496453061699867 -0.91283380985259999 -1.2031009793281553 -1.1874564886093137 -0.66137140989303578 -1.2186852097511289 -1.031432509422302 -1.326796770095825 -1.7815990447998045 -0.89190277457237233
decision_type=2 2 2 2 2 2 2 2 2 2 2 2 2 2 2 2 2 2 2 2 2 2 2 2 2 2 2 2 2 2 2 2 2 2 2 2 2 2 2 2 2 2 2 2 2 2 2 2 2 2 2 2 2 2 2 2 2 2 2
left_child=1 5 3 8 15 22 7 17 14 27 11 -5 20 -14 -3 31 -10 18 40 -12 -6 -20 41 24 37 26 43 48 29 -11 -30 -4 34 -17 -25 -26 -19 -9 39 -28 -2 42 -1 54 -45 -43 -40 -29 -7 -38 51 -27 -53 -24 -8 -34 57 -52 -58
right_child=6 2 4 10 12 9 25 23 16 28 19 -13 13 -15 -16 33 -18 36 21 -21 -22 -23 53 32 35 50 38 47 30 -31 -32 -33 55 -35 -36 -37 49 -39 46 -41 -42 45 -44 44 -46 -47 -48 -49 -50 -51 56 52 -54 -55 -56 -57 58 -59 -60
leaf_value=-0.096670799846296382 0.23248843986740281 0.37914983157033433 -0.041080880287950136 0.39524424999654878 0.19994243792495422 0.41710583104740018 0.12505643917663437 0.41416152819905822 0.011178606205058591 -0.0052725470224491006 0.099181441641273987 0.31323675316767069 0.14904693506591307 0.36390302459376217 0.22106712721355831 0.094170847218112017 0.16748193759842986 -0.031830829159246947 0.015939939538402802 0.30040796568967809 0.38319006301592584 0.35220937456761364 0.23183035382915074 -0.050741816159231234 0.29293486281747755 0.48485809330353935 0.21188332031990484 0.2805218429885345 0.19558227892704325 0.21206668210204571 -0.01936348672509576 0.057848761965526678 -0.077536793708335813 0.28550920540116304 0.0038721063086614282 -0.10461979637706582 0.31369332372290715 -0.03437217263292907 -0.08627411555876674 -0.052762617716974464 -0.043051166006703133 0.26943783088884304 0.015640904698382248 -0.040535794449517888 0.30069744073770049 -0.063026309403331801 -0.064545750130361457 -0.013729933577635609 0.28566034424080267 0.45090357974039241 -0.10026346035504724 0.048271817775903253 -0.092515184728841682 0.49355426718663931 -0.10527875435069263 -0.042482780994467 -0.097120794964102697 0.049232128453641839 -0.099224466839897982
leaf_weight=1998.1151818409562 6.2306247949600211 143.94473091512918 279.04983439296484 572.30264162272215 94.366705551743507 34.005602069199085 2.6253811940550804 2.5020428225398055 241.06744681298733 187.7942179441452 109.66516241431236 4194.3525630831718 570.22071055322886 73.006114952266216 694.24829410761595 32.093118362128735 202.61639821529388 2.6825238838791838 16.39985229820013 83.004830107092857 141.80518778413534 47.947876296937466 3.253774881362915 413.50626910477877 26.416354849934581 2.7094721421599379 13.233185909688471 2.867838889360427 24.498706959187984 89.929332427680492 465.85972213745117 142.3340382874012 515.36531141400337 41.93927314132452 383.717444203794 4.3650398775935164 9.8053355142474157 45.954110339283943 1303.3037722632289 39.762681052088737 61.565285257995129 5.3742234632372838 35.053212009370327 3.3040532916784313 18.925966307520866 5.1608680263161659 735.77839229255915 10.054064884781836 15.171659551560877 33.542897753417492 3.498680017888546 14.065709374845026 4017.7240791469812 3.3240738809108725 4.3614833652973202 79.089891001582146 5375.0556313320994 2.6784718781709662 8237.9504238143563
leaf_count=19059 44 862 2286 3211 576 189 20 17 1682 1577 609 23443 3993 520 4497 255 1305 18 109 476 868 341 22 3607 190 19 94 22 195 673 3759 1090 4576 317 3096 31 71 379 11804 350 469 42 301 28 134 42 6593 77 93 220 31 122 37101 21 31 689 49793 24 76581
internal_value=0 0.177297 0.264843 0.291694 0.14295 -0.0541779 -0.0879935 -0.01335 0.190878 0.0397938 0.317752 0.323083 0.210102 0.173433 0.248215 0.0237508 0.0825574 0.191174 0.120681 0.185873 0.30997 0.266507 -0.092228 -0.0381243 0.0850393 -0.0942182 -0.0725032 0.30893 0.0180342 0.0651038 -0.00862462 -0.00766466 -0.0451368 0.202564 -0.0244552 0.236559 0.393543 -0.011212 -0.0761094 0.0133201 -0.0177283 -0.0936968 -0.0947345 0.185722 0.24998 0.106572 -0.0784337 0.0515752 0.376554 0.419867 -0.0968275 -0.0916366 -0.092024 0.364091 -0.0187281 -0.072873 -0.0983653 -0.0354407 -0.0983938
internal_weight=0 10496.5 7616.02 6241.2 1374.81 2880.46 21424.1 1649.09 1281.88 830.181 4959.33 4766.66 879.399 643.227 838.193 495.416 443.684 178.174 132.144 192.67 236.172 64.3477 2050.28 1470.92 79.2375 19775 2121.29 62.0992 768.082 277.724 490.358 421.384 1391.68 74.0324 797.224 30.7814 46.0308 48.4562 2092.08 52.9959 67.7959 2043.7 2033.17 29.2169 22.23 10.5351 2039.08 12.9219 49.1773 43.3482 17653.7 4034.5 4031.79 6.57785 6.98686 594.455 13619.2 6.17715 13613
internal_count=268644 72062 45990 36085 9905 26072 196582 13857 8346 6585 27739 26654 5957 4513 5359 3948 2987 1272 963 1085 1444 450 19487 12585 617 182725 19054 381 6204 2250 3954 3376 11968 572 6703 221 309 396 18841 444 513 19444 19360 213 162 84 18397 99 282 291 163671 37242 37223 43 51 5265 126429 55 126374
is_linear=0
shrinkage=0.1


Tree=11
num_leaves=59
num_cat=0
split_feature=106 35 57 80 52 126 101 73 31 24 87 126 71 71 55 35 1 35 57 87 24 106 73 71 101 80 52 29 25 104 101 71 3 114 30 74 101 104 69 69 3 55 74 3 117 40 126 39 43 43 35 101 104 24 94 55 4 101
split_gain=12887.6 3980.77 1358.54 1207.05 1292.98 723.314 563.913 468.211 455.177 441.235 453.201 399.291 418.863 364.535 303.382 280.562 272.409 240.781 225.137 210.958 190.283 183.678 178.487 144.136 135.04 126.053 114.403 273.505 99.4667 98.3795 94.8956 110.578 90.7582 79.1835 76.9231 74.3045 70.5252 70.015 67.1709 59.2129 54.2565 46.3571 41.5505 31.9836 29.8996 35.6771 31.2073 25.3567 21.0807 15.9741 12.5246 15.7279 9.98116 8.09835 6.99431 2.13711 1.71631 0.00529194
threshold=-0.84064894914627064 0.91566503047943126 0.94147291779518139 -1.062549829483032 1.0670111179351809 1.0000000180025095e-35 -0.85385721921920765 -0.71455150842666615 1.0079249143600466 1.2409957647323611 -1.1659762263298032 -1.7862327694892881 -0.45154459774494166 -0.41591781377792353 1.0115041732788088 0.94634297490119945 0.52720376849174511 0.92161044478416454 0.91933125257492077 -1.1791447401046751 1.1731917262077334 -0.8538021147251128 -0.87013453245162953 -0.38775117695331568 -0.84122535586357106 -1.1964892148971555 0.94434556365013134 1.2143055200576784 1.3195817470550539 -0.78041812777519215 -0.81302964687347401 -0.44814966619014734 0.72099328041076671 -0.85616517066955555 1.0443466901779177 -0.87768635153770436 -0.78251609206199635 -0.92625004053115834 0.025083358399569992 -0.0065347175113856784 0.59351423382759105 0.90987759828567516 -0.891403168439865 0.34313102066516882 -1.2192465662956236 1.0235917568206789 -2.0484927892684932 1.0189909338951113 0.82386231422424328 1.0214906930923464 0.91201913356781017 -0.8405838906764983 -0.93294048309326161 1.2334266901016238 -0.87374320626258839 1.022316098213196 0.098378568887710585 -0.84256702661514271
decision_type=2 2 2 2 2 2 2 2 2 2 2 2 2 2 2 2 2 2 2 2 2 2 2 2 2 2 2 2 2 2 2 2 2 2 2 2 2 2 2 2 2 2 2 2 2 2 2 2 2 2 2 2 2 2 2 2 2 2
left_child=3 5 13 4 8 11 14 19 26 21 -11 41 24 30 28 18 -14 44 -15 23 36 -8 -16 -4 -13 35 40 -28 -6 -17 31 -3 33 -10 -32 -9 56 -34 -27 -38 -1 -2 -21 53 50 49 -47 -45 55 -46 52 -52 -5 -22 -43 57 -19 -7
right_child=1 2 7 17 6 48 9 25 32 10 -12 12 16 15 22 29 -18 20 -20 42 43 -23 -24 -25 -26 38 27 -29 -30 -31 34 -33 37 -35 -36 -37 39 -39 -40 -41 -42 54 -44 47 45 46 -48 -49 -50 -51 51 -53 -54 -55 -56 -57 -58 -59
leaf_value=0.15584843066500709 0.46131497382875547 0.015311987093819618 0.17442181219939967 -0.045663093490235784 0.035716656058425313 -0.09740802413261361 0.023734292889621006 0.24910479415855014 0.0038167445531326486 0.026557594695942679 -0.043189392325159108 0.053881284519312969 0.12654650404961665 0.092354521323991676 0.0267310404032793 0.16057259911220875 0.70800736103691753 0.0054305708084011464 0.20619445289904337 -0.0091858498457304729 -0.044234540619393553 0.15776370496626349 0.29485852627518888 0.25393861859151723 -0.015661528967059218 0.096139902602569383 -0.054115518457890914 0.2275538835731887 0.11024321112579238 0.0029883111590811463 0.0007465095575487651 0.13612249655027969 0.054675076536585168 0.41654497570591609 0.098633864926974277 0.35510523301628022 -0.052520601649975768 0.71259522321617919 0.3815331313586674 0.23321702253602661 -0.084738516003103004 -0.048588967391738888 0.12515251813884085 -0.045245602668503887 -0.085747832808975119 -0.034304606538502383 0.13907474905856529 0.076289502117207475 0.20802331585064612 -0.059914049666920356 0.16017965979421581 -0.067038860073963133 -0.092262947724705779 -0.089748521474086504 -0.093274497191226491 0.011192596735707895 -0.09777520635340152 -0.09662351191980878
leaf_weight=9.431837782263754 1.5709472596645344 97.099726371467113 329.25863000750542 46.538105756044388 501.58201155811548 281.60464134812355 186.36826260387897 77.313698455691338 1194.8812529444695 1701.3794583454728 2059.1455739811063 956.84697812050581 581.41756641119719 214.90842515230179 33.27818475663662 57.314705438911915 8.1703582182526571 1.9467964395880688 906.50825416296721 35.039567105472088 96.681593932211399 226.53323788195848 97.761861406266689 740.93956886231899 394.28767452389002 34.017225295305252 5519.928542599082 34.690130472183228 278.52884373813868 128.29856914281845 204.8071683421731 344.798613473773 3.2616045624017715 4.6665854454040518 132.03304532170296 457.17067064344883 8.4553167149424535 3.2088309377431861 10.886147171258925 50.976995743811131 1518.6555990055203 44.302662171423435 67.140123821794987 32.628571473062038 677.41504833847284 57.041568912565708 12.691373474895952 36.226710341870785 2.2832462638616553 370.13425400853157 3.110144466161727 148.57518182694912 3721.9534276872873 65.63253852725029 167.31168903410435 1.8282490372657765 9.351477198302744 123.77705951780081
leaf_count=98 9 947 2795 546 5191 3148 1899 557 13184 17747 22712 10107 5579 2046 314 548 78 22 8026 310 1035 2037 894 5756 3982 261 61149 369 2861 1247 1949 3276 33 52 1286 3145 84 35 76 449 17787 461 567 366 7897 636 143 397 23 4218 36 1682 44267 735 1975 19 101 1495
internal_value=0 0.123334 0.187787 -0.041047 -0.024999 0.0268445 0.0147012 0.252711 -0.0493525 -0.000859404 -0.0116337 0.0500059 0.0642761 0.13326 0.085975 0.165529 0.134604 -0.0812418 0.184378 0.216367 0.00550243 0.0972679 0.226766 0.229474 0.0335873 0.326253 -0.0590224 -0.0523564 0.0623254 0.0516481 0.079099 0.109576 0.00743714 0.00542238 0.0391159 0.339772 0.149028 0.380952 0.165329 0.192566 -0.0832535 -0.0799015 0.0790851 -0.038412 -0.0864405 -0.0720094 -0.00274962 0.0186975 -0.094983 -0.0766199 -0.0905535 -0.06238 -0.0916875 -0.0626383 -0.0839193 -0.096682 -0.0799919 -0.0971685
internal_weight=0 6400.94 3837.53 18712.7 13373.3 2563.4 5084.58 1751.77 8288.72 4173.43 3760.53 2153.91 1940.72 2085.77 911.151 1307.03 589.588 5339.36 1121.42 1172.38 301.9 412.902 131.04 1070.2 1351.13 579.388 7082.71 5554.62 780.111 185.613 778.739 441.898 1206.02 1199.55 336.84 534.484 70.7306 6.47044 44.9034 59.4323 1528.09 213.185 102.18 231.169 5037.46 1117.28 69.7329 68.8553 409.493 1047.55 3920.18 151.685 3768.49 162.314 211.614 407.21 11.2983 405.382
internal_count=268644 59668 32792 208976 146362 26876 53655 13467 92707 44395 40459 22191 19746 19325 9260 11867 5657 62614 10072 9428 3189 3936 1208 8551 14089 4039 79403 61518 8052 1795 7458 4223 13304 13236 3235 3702 656 68 337 533 17885 2445 877 2533 59425 12894 779 763 4685 12115 46531 1718 44813 1770 2436 4662 123 4643
is_linear=0
shrinkage=0.1


Tree=12
num_leaves=62
num_cat=0
split_feature=106 106 71 56 72 127 31 108 53 89 76 77 30 122 2 83 72 57 89 32 61 118 106 2 106 36 95 75 30 108 53 30 57 32 42 61 2 118 21 38 21 109 53 29 52 53 32 56 29 35 108 73 38 118 109 38 74 108 101 42 95
split_gain=8543.65 2011.82 1978.57 1292.82 1246.26 970.233 860.435 647.327 675.401 599.122 469.508 405.249 624.667 404.711 472.352 401.324 687.59 617.353 377.053 345.682 224.464 214.588 203.828 193.129 191.269 114.872 114.53 80.4081 157.786 75.6368 69.7942 67.3738 66.2541 61.2293 88.4283 59.8167 48.5383 57.8633 46.6329 34.5982 33.1306 26.6474 43.602 24.4139 22.7839 22.2894 17.2971 20.2448 17.4049 15.8939 33.7504 15.5717 24.2854 12.4268 11.0545 10.8523 10.4801 5.41996 4.83154 3.09512 0.397626
threshold=-0.8837883174419402 -0.85017749667167652 -0.38918602466583246 0.96818023920059215 -0.62794956564903248 -1.7649877667427061 1.0067827105522158 -0.98438966274261464 0.98450693488121044 -1.1702506542205808 -1.2342281341552732 -1.2450914382934568 1.074464023113251 -1.676912188529968 0.31949000060558325 -1.3200563192367551 -0.52027860283851612 0.94222116470336925 -1.1600911617279051 0.94224345684051525 0.68407049775123607 -1.1748440265655515 -0.90853962302207936 0.53192079067230236 -0.87276858091354359 0.9432257115840913 -1.2855165004730222 -1.0648772716522215 1.0764753818511965 -0.88096225261688221 1.2011703848838808 1.0958432555198672 0.94222116470336925 0.9537433683872224 1.0170190930366518 0.81780436635017406 0.59001231193542492 -1.0217159390449522 1.3344308733940127 0.96375110745430004 1.4497392773628237 -1.0788341164588926 1.1696524024009707 1.1801378726959231 0.87432375550270092 1.1696524024009707 0.95413708686828624 0.94026362895965587 1.081274747848511 0.90946850180625927 -1.0145486593246458 -0.59997493028640736 0.97617194056510936 -1.4080535173416135 -0.84988772869110096 1.0098562836647036 -0.6777728497982024 -1.0111987590789793 -0.85015326738357533 1.1532548666000368 -0.6622503101825713
decision_type=2 2 2 2 2 2 2 2 2 2 2 2 2 2 2 2 2 2 2 2 2 2 2 2 2 2 2 2 2 2 2 2 2 2 2 2 2 2 2 2 2 2 2 2 2 2 2 2 2 2 2 2 2 2 2 2 2 2 2 2 2
left_child=7 6 3 4 5 -3 13 25 29 10 -5 33 23 55 21 26 17 -17 -6 -16 -11 -15 35 -13 -14 45 -4 31 -29 36 -18 -24 -28 34 -8 39 37 -9 -35 -10 -38 42 58 54 -45 49 48 -48 -43 57 -51 52 -47 -44 -31 60 -57 -1 -27 -53 -2
right_child=1 2 15 9 18 -7 11 8 22 20 -12 12 24 14 19 16 30 -19 -20 -21 -22 -23 27 -25 -26 41 32 28 -30 43 -32 -33 -34 38 -36 -37 40 -39 -40 -41 -42 46 53 44 -46 51 47 -49 -50 50 -52 59 -54 -55 -56 56 -58 -59 -60 -61 -62
leaf_value=-0.097682535849381899 -0.05724103683257227 0.29586199893307402 0.48329136330116385 0.22411880717085975 -0.021502532975817879 0.093401599181153455 0.03039395444216629 -0.071089293761189318 -0.055372845428450557 0.37490372416261147 0.064847371601277737 0.092109104641374728 0.17961165997327277 0.082821178373815238 0.024330962176912527 -0.029609533083649216 -0.071862860252699834 0.14876068236788934 0.079070879418920881 -0.021651520087440417 0.20458130901700652 0.29954269678212048 -0.031609322495757035 -0.029093603866975473 0.36738209238519376 0.05993726619841775 -0.087036976602443514 0.01251359003936809 0.11810068493409405 -0.058669087501142164 0.12846883881925172 0.12021369197789261 -0.034633333303566355 -0.038300123612697669 0.47981483059402263 0.33037575487609788 -0.054114474391189549 -0.00041028346915155268 0.23977926060882573 0.024681978071975516 -0.085809413593182546 0.047784629964146487 0.25300866633351382 -0.039287285327564619 0.11884037336786944 -0.020030040514674063 0.20041279430513576 -0.045436442458337056 0.32669021834524931 -0.094223102025336125 -0.015472937529268982 -0.10016495294638168 0.33196298649694345 0.042973544872465061 0.070487543724661775 0.20045884480284681 -0.058661391491540905 -0.089904546887403222 -0.08077651055397457 0.034160701856618687 -0.098879837368053947
leaf_weight=3879.5051786080003 2.3053476214408866 254.53362596035004 3.9319963678717604 254.76211691647768 1329.1306417733431 3378.0874143540859 191.82199636846781 361.05782920122147 751.67598431557417 83.857946537435055 676.70538731664419 760.63542619347572 130.64419391006231 251.09326476603746 2608.2498055621982 304.68232262134552 477.57569414377213 534.33153337985277 518.06043523550034 4381.0161406993866 1000.9343430101871 55.850063391029835 461.05364667624235 158.94046198576689 92.771208040416241 2.5123431533575049 427.89398921281099 1164.7719936296344 161.10459155589342 35.413558751344681 18.048023849725723 31.207591891288757 553.14767614752054 274.01875542104244 4.4803486093878737 4.1637519598007193 382.91018187254667 170.54145801067352 6.1662206575274459 58.163035184144974 2377.6974290087819 49.847551792860031 4.7840756177902222 13.010730281472204 30.407957099378109 4.9816694706678408 3.6543887332081786 40.142988212406635 2.342618264257907 180.28047592937946 77.954805128276348 7.3905548602342588 3.2316033914685249 6.8507213369011861 8.1523379758000356 2.318097785115242 4.7782110869884482 1164.9224979653955 84.886847153306007 2.2338703200221062 442.259816005826
leaf_count=37793 20 1937 32 1940 11098 27109 1677 3348 6809 626 5734 6343 1090 1990 22434 2501 4537 4134 3936 37881 7271 425 4063 1366 727 24 3907 9890 1362 300 138 269 4921 2415 39 34 3503 1593 53 498 22667 432 38 112 249 44 32 357 21 1721 699 66 27 53 68 19 42 11086 790 20 4334
internal_value=0 0.0421605 0.0737967 0.0987717 0.0735809 0.107588 0.00901016 -0.0667693 -0.0440699 0.167236 0.108409 0.0753011 0.107599 -0.00484614 0.000840284 -0.00691278 0.0288203 0.0839867 0.00670414 -0.00449181 0.217748 0.122255 -0.00609057 0.0711603 0.257582 -0.0915092 -0.0553311 0.0125293 0.0253433 -0.073653 -0.0645678 -0.0219843 -0.0574899 -0.0021752 0.0406514 -0.0476795 -0.0760849 -0.0484149 -0.0321802 -0.0496233 -0.0814132 -0.0161304 -0.052522 0.0183882 0.0714563 -0.0942722 0.0214162 -0.0249231 0.0603036 -0.0946476 -0.0704504 0.0173243 0.118466 0.129337 -0.0345004 -0.0967055 0.0259835 -0.0958863 -0.0767316 -0.0689874 -0.0986639
internal_weight=0 19183 9815.68 7496.07 5479.81 3632.62 9367.35 11526.9 6011.33 2016.26 931.468 1619.48 1142.99 7747.87 7296.21 2319.61 1334.64 839.014 1847.19 6989.27 1084.79 306.943 2632.14 919.576 223.415 5515.52 984.974 1818.14 1325.88 3379.19 495.624 492.261 981.042 476.487 196.302 814.003 3292.21 531.599 280.185 809.839 2760.61 195.022 99.034 86.9846 43.4187 5320.5 95.9875 43.7974 52.1902 5302.66 258.235 17.8377 8.21327 11.6348 43.5659 451.661 7.09631 5044.43 87.3992 9.62443 444.565
internal_count=268644 160676 79821 59651 44080 29046 80855 107968 54765 15571 7674 13710 9526 67145 62730 20170 11310 6635 15034 60315 7897 2415 22925 7709 1817 53203 8860 15584 11252 31840 4675 4332 8828 4184 1716 7341 31111 4941 2468 7307 26170 1747 905 729 361 51456 842 389 453 51299 2420 157 71 91 368 4415 61 48879 814 86 4354
is_linear=0
shrinkage=0.1


Tree=13
num_leaves=63
num_cat=0
split_feature=32 107 105 32 84 54 71 55 87 22 99 105 32 105 4 90 27 55 27 49 84 107 4 55 87 71 49 56 115 27 84 33 75 32 53 74 27 55 32 90 74 105 24 103 107 33 55 92 112 107 56 115 35 68 105 75 27 21 74 22 86 75
split_gain=12810.3 18757.4 11304.8 8422.4 3122.63 4678.68 2924.36 975.593 1365.46 741.146 1188.58 712.633 534.101 671.375 753.27 345.984 493.99 306.843 319.451 271.061 262.469 255.542 197.7 187.521 717.313 163.173 115.807 90.8287 79.1535 71.4372 67.6915 67.5833 63.1422 212.795 156.743 52.7224 55.1261 95.8645 44.8715 39.1103 37.8332 27.9206 27.1315 21.5433 19.1015 46.9841 15.2871 15.0333 67.5107 14.5035 15.3598 12.1298 27.2005 10.4167 6.43203 5.88543 4.61976 1.69229 1.4785 1.45938 1.10748 0.00557498
threshold=0.93408966064453136 -0.86400181055068959 -0.86882686614990223 0.96160840988159191 -1.2527291178703306 1.0047250986099245 -0.39196340739727015 0.94845372438430797 -1.2840559482574461 1.2658447027206423 -0.8394465148448943 -0.88273319602012623 0.92037248611450206 -0.88558849692344654 0.6495797634124757 -1.2062619328498838 1.2983098030090334 0.92625322937965404 1.2819723486900332 1.1779860258102419 -1.236639618873596 -0.85594335198402394 0.63347744941711437 0.97771844267845165 -1.257926285266876 -0.42902670800685877 1.065961539745331 1.0666964650154116 -1.2438820004463194 1.2720904946327212 -1.2906835079193113 0.94093048572540294 -1.1253301501274107 0.90753141045570385 0.99166601896286022 -0.97715282440185536 1.3145778775215151 0.90810447931289684 0.96090987324714672 -1.2017014026641843 -0.88510200381278981 -0.89810422062873829 1.2420942187309267 -0.87525343894958485 -0.97685256600379933 0.87537497282028209 0.92762190103530895 -1.1606287360191343 -0.86792212724685658 -0.84877026081085194 0.91397845745086681 -1.3149927258491514 0.90863004326820385 0.064720448106527342 -0.89936265349388111 -1.0560700893402097 1.2819723486900332 1.3032122254371645 -0.94289863109588612 1.0631836056709292 -0.57831808924674977 -1.1617804765701292
decision_type=2 2 2 2 2 2 2 2 2 2 2 2 2 2 2 2 2 2 2 2 2 2 2 2 2 2 2 2 2 2 2 2 2 2 2 2 2 2 2 2 2 2 2 2 2 2 2 2 2 2 2 2 2 2 2 2 2 2 2 2 2 2
left_child=12 2 11 4 5 -4 -6 8 47 31 -11 41 27 35 19 43 -17 18 -13 30 -19 23 26 24 -9 -21 -10 32 51 -24 -15 -5 33 39 -35 36 37 -14 -25 -1 -30 53 -42 -16 58 -46 -43 61 -49 50 -23 59 -53 -2 60 -38 -56 -51 -34 -29 -37 -3
right_child=1 7 3 9 6 -7 -8 21 22 10 -12 17 13 14 15 16 -18 20 -20 25 -22 49 29 38 -26 -27 -28 28 40 -31 -32 -33 44 34 -36 54 55 -39 -40 -41 42 46 -44 -45 45 -47 -48 48 -50 57 -52 52 -54 -55 56 -57 -58 -59 -60 -61 -62 -63
leaf_value=-0.098701972988311182 -0.095288589593836931 -0.10046617265599836 0.25286193553984571 -0.03533440793201606 0.29443502756709877 -0.024977194003553287 0.026896661579579057 -0.087874607784872383 -0.027736091715798522 -0.01543134424434791 0.25583777707382194 0.29026662327307257 0.15612719257802019 -0.081408861971068655 -0.074274341027104437 0.32118022904466503 -0.013518638583624591 -0.076332877527232515 -0.02890128636612968 0.29898049943845101 0.035321554292851824 -0.025201162608667362 0.39447714698777586 -0.052008138574295905 0.17671431595771495 0.044653002031986577 0.28568002990537666 -0.10012311138506028 0.37964319902313165 0.023194391430359784 -0.026226353116818736 -0.088876020121255714 -0.067644921137340497 0.13751128908741342 -0.086101903481271794 -0.098931061482188637 -0.087722595869280967 -0.062776461255690544 -0.094896116408252768 -0.03924985510563983 0.15075538148981915 -0.032321580613603219 -0.08613087599262513 0.064233951340113685 -0.090572845023833101 -0.053836570083149106 -0.074639942230582401 -0.063664379470908458 0.43487091824008539 -0.099286017768890969 -0.088391176682879949 -0.054362322665213951 0.23493331644076704 -0.028096871047659316 -0.070026678534302833 0.073655869808276903 -0.099181788844325602 -0.082877903486580459 -0.098502114146536715 -0.052620015676598124 -0.041896472446222903 -0.1018153556795014
leaf_weight=502.18297471106052 1140.3803843259811 87.358674556016922 1415.7843758091331 369.47100532054901 4637.6255420818925 1059.7691761925817 448.03254521638155 293.27989306300879 23.172055833041668 593.82791855931282 221.86752457171679 77.895724013447762 32.552910625934601 344.1577548161149 50.402193084359169 147.0686062052846 62.981437340378761 315.55507552623749 52.491181664168835 31.632138326764107 632.6073806732893 39.952058278024197 105.25820577144623 488.59033201634884 157.48170637339354 124.57879880070686 24.000248894095421 29.612229704856873 5.4950696304440525 5.450556829571723 627.7994321808219 651.39634985476732 15.614421203732489 83.089656673371792 50.337473407387733 983.81038928031921 114.10945630073547 51.902913369238377 487.20802023261786 141.9225146099925 18.942735850811008 100.81747321784496 6.4919863119721404 14.448614589869974 5976.9123735278845 369.67841781675816 556.84516414999962 90.334244221448898 2.8005319163203231 4200.4027979522943 1034.869221650064 15.161253422498705 4.1368771940469733 23.549254961311817 152.83937200158834 2.3055493906140319 84.339566312730312 63.812430568039417 2798.7603907734156 8.2744960561394674 3.4163543581962577 47.160752452909946
leaf_count=4627 10328 766 9561 3041 28345 7659 3445 2454 161 4769 1698 579 263 2986 402 918 539 2731 437 217 4832 316 675 4182 1168 985 162 266 31 38 5261 5677 144 676 406 9025 1030 434 4323 1293 150 872 54 116 54680 3257 4734 651 24 38343 9294 133 31 209 1368 21 742 571 26057 71 30 386
internal_value=0 0.0512243 0.126112 0.179373 0.22603 0.133921 0.270866 -0.0775607 0.077167 -0.012714 0.0583533 -0.0464796 -0.0774295 -0.0390511 0.010054 0.158488 0.220824 0.0179416 0.161776 -0.0261151 -0.00183782 -0.0863778 0.303153 -0.0487799 0.00456431 0.0961534 0.131723 -0.0882555 0.0128258 0.376198 -0.0457658 -0.0694983 -0.0891516 -0.061792 0.0531497 -0.087391 -0.0399065 0.0215984 -0.0734218 -0.0856023 0.141699 -0.0846229 0.0902923 -0.043415 -0.0914738 -0.088433 -0.0681527 -0.079557 -0.0486736 -0.0964238 -0.0860423 -0.0568784 0.00765304 -0.0939291 -0.0951811 -0.0845266 -0.0803941 -0.0990405 -0.0983309 -0.0897484 -0.0987337 -0.100939
internal_weight=0 19449 12297.9 9397.77 7561.21 2475.55 5085.66 7151.13 385.535 1836.56 815.695 2900.14 12855 2828.35 1403.07 274.901 210.05 1078.55 130.387 1128.17 948.162 6765.6 157.881 1426.56 450.762 156.211 47.1723 10026.6 88.1146 110.709 971.957 1020.87 9938.5 777.533 133.427 1425.28 200.871 84.4558 975.798 644.105 30.9298 1821.59 25.4347 64.8508 9160.97 6346.59 657.663 227.654 93.1348 5339.04 1074.82 57.1849 19.2981 1163.93 1224.41 116.415 237.179 4264.22 2814.37 37.8867 987.227 134.519
internal_count=268644 152431 88917 64195 49010 17220 31790 63514 2863 15185 6467 24722 116213 24337 11424 1975 1457 8579 1016 9449 7563 60651 1036 12127 3622 1202 323 91876 736 713 8247 8718 91140 7002 1082 12913 1748 697 8505 5920 235 16143 204 518 84138 57937 5606 1827 675 48524 9610 501 164 10537 11165 1051 2110 38914 26201 337 9055 1152
is_linear=0
shrinkage=0.1


Tree=14
num_leaves=62
num_cat=0
split_feature=28 105 23 61 101 109 103 110 118 118 101 122 1 19 63 73 54 25 40 105 54 63 118 31 73 1 54 101 63 101 40 27 105 63 109 124 8 105 72 23 1 40 73 116 23 122 107 1 39 38 1 19 107 37 38 61 121 54 92 24 107
split_gain=51582.5 6862.29 3124.52 2455.49 1495.25 1475.19 1158.85 1186.81 1293.15 911.797 839.458 691.775 643.825 483.74 479.848 460.066 402.276 360.173 303.267 283.299 266.736 220.085 179.968 158.33 201.468 239.99 199.639 152.626 136.148 131.452 130.837 126.272 176.45 114.628 114.619 109.265 108.021 77.2852 64.0675 62.5192 80.7433 61.7052 55.0675 53.017 51.1704 161.202 47.6816 49.925 42.7702 40.0558 37.2846 35.4777 32.4617 30.8894 28.9275 22.1574 19.0975 17.8072 15.9526 8.72398 4.5623
threshold=1.2442302703857424 -0.92576220631599415 1.3783015608787539 0.49289254844188696 -0.9148065149784087 -0.96657574176788319 -0.88432636857032765 -1.0652087330818174 -1.01676869392395 -1.4895561933517454 -0.96275031566619862 -1.3924962878227232 0.5089884102344514 1.3478602170944216 0.23510042577981952 -0.8435499072074889 0.93797734379768383 1.3784506916999819 0.97722396254539501 -0.7935504913330077 0.86517316102981578 0.48483842611312872 -1.0217159390449522 0.94842189550399791 -0.91071549057960499 0.61339986324310314 0.8841976821422578 -0.92540645599365223 0.33216683566570288 -0.90891155600547779 0.9087643325328828 1.2914077639579775 -0.92978930473327626 0.35176464915275579 -1.0374432206153867 -2.023909211158752 0.9389672875404359 -0.92337563633918751 -0.49450141191482538 1.6741494536399844 0.70221599936485302 0.96340310573577892 -0.5356926918029784 -1.2367038130760191 1.3607186079025271 -1.3589009642601011 -0.97567737102508534 0.54010936617851268 0.91656759381294262 0.92571741342544567 0.37409108877182012 0.99395966529846203 -0.89645826816558827 0.89266866445541393 0.87724781036376964 0.49974131584167486 -1.1569983363151548 0.94899988174438488 -1.1325020194053648 1.3280624747276308 -0.88882520794868458
decision_type=2 2 2 2 2 2 2 2 2 2 2 2 2 2 2 2 2 2 2 2 2 2 2 2 2 2 2 2 2 2 2 2 2 2 2 2 2 2 2 2 2 2 2 2 2 2 2 2 2 2 2 2 2 2 2 2 2 2 2 2 2
left_child=2 15 5 10 27 9 29 18 16 37 20 54 22 -13 -14 23 -9 -10 41 21 36 -11 -12 39 26 -26 -25 55 -29 57 46 49 -33 34 -32 51 -3 42 -21 56 -41 -8 -1 -20 59 -46 50 -48 -35 -31 -17 -7 -22 -39 -6 -5 -2 58 -4 -37 -59
right_child=1 3 6 4 11 35 7 8 17 19 12 13 14 -15 -16 30 -18 -19 43 38 52 -23 -24 24 25 -27 -28 28 -30 31 33 32 -34 48 -36 44 -38 53 -40 40 -42 -43 -44 -45 45 -47 47 -49 -50 -51 -52 -53 -54 -55 -56 -57 -58 60 -60 -61 -62
leaf_value=-0.07902268522079875 0.19868742476019416 0.27401664671406012 -0.086213192801448513 0.0046038978726182875 -0.064718490320667552 0.054654329180703211 -0.076465079936784724 -0.034339513433889343 -0.045692211116747233 0.01699143748091703 0.18602134492334613 0.016643006730508451 0.36434096140945704 0.27563259820209168 0.29614101931287279 0.21916775288031892 0.20410958019360581 0.11874290259775405 0.14923968874509466 0.32530961252059742 0.041350027016510131 -0.031976948941848604 -0.085177708206179648 0.30812426549035254 0.16446777037290389 -0.02449186225514895 0.046985299314193291 0.1557521779741522 -0.032826531421727971 -0.069894270662301347 0.043031263179195117 -0.05238870106681507 0.086810083282814796 -0.039493007470221511 0.41191188414098057 -0.099334130515315269 -0.043177771702325153 0.13010373905105319 0.10481712777436623 0.19687123028159292 -0.002845642799355765 0.018672254987339584 0.39139255737308126 0.45304458280744841 0.40078512059606597 -0.076947977417887295 0.079152173543354978 -0.04544401116651451 0.24070362363918615 0.11188781316704809 -0.074478942401794868 0.51228517922252281 -0.092860586144171628 -0.095662549753400106 0.15333386593275344 -0.080751256338681188 -0.058291421855600545 -0.077672218421258821 -0.035796986745445125 -0.091625275571545511 -0.099236141413565127
leaf_weight=4.4749794378876686 2.991980515420436 64.785892456769943 119.892014503479 37.195458829402924 76.437706895172596 3.1213117912411681 538.67572814971209 77.021316669881344 463.69934536516666 1391.7004100382328 63.908074125647545 78.756423555314541 2364.3789246678352 855.67093045264482 1830.2608129307628 4.3713879063725463 869.06108932197094 186.89384713023901 11.172083117067816 27.061564549803734 29.117635205388069 2695.5050026923418 39.650557190179825 89.919332198798656 138.51775555312634 130.5695887953043 43.407602801918983 81.151483662426472 72.477197781205177 340.89533481001854 17.348408631980419 174.0923325419426 190.94612424075603 51.624628283083439 16.373323559761047 13277.814378462732 12.86906576156616 6.0782060697674742 25.686351746320724 31.636296756565571 56.210471995174885 78.052439607679844 5.6057468727231008 11.822952650487421 7.1253221184015265 810.05857116729021 47.864093840122223 98.014499947428703 6.0904323831200591 12.5686117708683 398.31430093944073 3.704731173813343 47.29243641346693 2051.828345708549 6.6101242527365676 166.78632083535194 86.446039199829102 139.83869743347168 131.70773247629404 1650.5159844681621 328.81826434284449
leaf_count=37 24 363 1054 291 638 22 4782 623 3862 11536 405 574 12145 5384 10116 37 6073 1361 92 175 181 22960 257 589 1054 1027 305 485 521 2782 147 1517 1404 433 106 119842 90 55 179 241 442 637 36 83 52 7115 373 803 45 97 3506 23 336 19059 49 1385 686 1215 1106 14892 2935
internal_value=0 0.23906 -0.0664219 0.284206 0.167402 -0.0807039 0.0189181 0.0639577 0.110069 -0.0394178 0.320281 0.229222 0.328502 0.253804 0.334583 0.0233647 0.184697 0.00154454 -0.0511297 -0.0123314 0.0909302 -0.0153031 0.0821846 0.0878963 0.122584 0.0727787 0.223105 -0.00849141 0.0667867 -0.0510913 -0.0350867 -0.0208277 0.0204241 0.0756596 0.222138 -0.0969746 0.221451 -0.0936427 0.217938 0.00915887 0.0690785 -0.0644246 0.182568 0.305442 -0.097148 -0.0727824 -0.0535463 -0.00456287 -0.00992501 -0.0634304 -0.0712912 0.303027 -0.0417169 -0.0949957 -0.0473628 -0.065187 -0.0496947 -0.0812811 -0.0598213 -0.0984818 -0.0928019
internal_weight=0 7047.05 25635.4 5827.35 1375.09 21960.3 3675.16 2236.4 1596.68 6207.94 4452.26 1017.48 4298.2 934.427 4194.64 1219.7 946.082 650.593 639.723 4139.95 154.065 4087.21 103.559 579.699 402.414 269.087 133.327 357.61 153.629 1438.76 640.001 718.502 365.038 91.4368 33.7217 15752.3 77.655 2067.99 52.7479 177.285 87.8468 616.728 10.0807 22.995 15745.5 817.184 548.564 145.879 57.7151 353.464 402.686 6.82604 76.4101 2057.91 83.0478 203.982 89.438 720.257 251.6 14928.3 468.657
internal_count=268644 43038 225606 33220 9327 195983 29623 17513 11919 54037 23893 6645 22923 5958 22261 9818 6696 5223 5594 34850 970 34496 662 4368 2975 2081 894 2682 1006 12110 5450 5800 2921 731 253 141946 453 19187 354 1393 683 5419 73 175 141901 7167 4719 1176 478 2879 3543 45 517 19114 687 1676 710 6310 2160 134734 4150
is_linear=0
shrinkage=0.1


Tree=15
num_leaves=57
num_cat=0
split_feature=74 124 51 8 51 71 34 106 74 97 71 34 71 99 36 86 104 51 30 30 28 74 0 51 104 42 114 28 58 34 104 74 46 51 71 106 104 70 36 110 97 0 109 71 51 28 0 62 34 97 70 99 104 95 61 8
split_gain=11442.6 4176.35 3753.98 3284.37 2479.12 2771.06 2026.25 1558.47 1487.12 913.001 822.203 581.431 1954.96 574.971 717.005 463.653 341.567 257.331 314.618 245.441 244.07 239.402 258.689 224.003 217.562 922.998 123.131 123.842 113.771 97.2698 531.071 514.583 83.4291 74.204 81.1065 68.8618 62.8114 61.3121 53.943 94.3015 49.8189 47.5193 37.216 31.5239 29.6482 28.1385 22.9975 30.1427 21.3306 20.259 19.7422 18.6991 10.6743 7.373 2.86737 4.54747e-13
