tree
version=v4
num_class=1
num_tree_per_iteration=1
label_index=0
max_feature_idx=136
objective=binary sigmoid:1
feature_names=Column_0 Column_1 Column_2 Column_3 Column_4 Column_5 Column_6 Column_7 Column_8 Column_9 Column_10 Column_11 Column_12 Column_13 Column_14 Column_15 Column_16 Column_17 Column_18 Column_19 Column_20 Column_21 Column_22 Column_23 Column_24 Column_25 Column_26 Column_27 Column_28 Column_29 Column_30 Column_31 Column_32 Column_33 Column_34 Column_35 Column_36 Column_37 Column_38 Column_39 Column_40 Column_41 Column_42 Column_43 Column_44 Column_45 Column_46 Column_47 Column_48 Column_49 Column_50 Column_51 Column_52 Column_53 Column_54 Column_55 Column_56 Column_57 Column_58 Column_59 Column_60 Column_61 Column_62 Column_63 Column_64 Column_65 Column_66 Column_67 Column_68 Column_69 Column_70 Column_71 Column_72 Column_73 Column_74 Column_75 Column_76 Column_77 Column_78 Column_79 Column_80 Column_81 Column_82 Column_83 Column_84 Column_85 Column_86 Column_87 Column_88 Column_89 Column_90 Column_91 Column_92 Column_93 Column_94 Column_95 Column_96 Column_97 Column_98 Column_99 Column_100 Column_101 Column_102 Column_103 Column_104 Column_105 Column_106 Column_107 Column_108 Column_109 Column_110 Column_111 Column_112 Column_113 Column_114 Column_115 Column_116 Column_117 Column_118 Column_119 Column_120 Column_121 Column_122 Column_123 Column_124 Column_125 Column_126 Column_127 Column_128 Column_129 Column_130 Column_131 Column_132 Column_133 Column_134 Column_135 Column_136
feature_infos=[-1.7373466491699219:2.1873281002044678] [-1.6486232280731201:2.0962586402893066] [-1.5678098201751709:2.0136351585388184] [-1.4949060678482056:1.9394575357437134] [-1.4299124479293823:1.8737261295318604] [-1.3728283643722534:1.8164401054382324] [-1.333403468132019:1.7788288593292236] [-1.3043193817138672:1.77842116355896] [-1.2702003717422485:1.9030067920684814] [-1.226288914680481:1.9563957452774048] [-1.1696058511734009:1.9311326742172241] [-1.0977727174758911:1.9951491355895996] [-1.011857271194458:2.0683317184448242] [-0.91207128763198853:2.1760303974151611] [-0.8030850887298584:2.2671928405761719] [-0.68971306085586548:2.4052433967590332] [-0.63879203796386719:2.5269482135772705] [-0.65537858009338379:2.5277442932128906] [-0.65910369157791138:2.5653238296508789] [-0.66444498300552368:2.5221147537231445] [-0.66619455814361572:2.4413206577301025] [-0.67410272359848022:2.3840618133544922] [-0.67701548337936401:2.2409591674804688] [-0.7797551155090332:2.1030042171478271] [-1.0841877460479736:2.0889520645141602] [-1.4308524131774902:1.9925726652145386] [-1.6366665363311768:1.8694267272949219] [-1.8254417181015015:1.7314887046813965] [-1.9202775955200195:1.5598906278610229] [-2.2033448219299316:1.3462176322937012] [-2.6534385681152344:1.1459542512893677] [-2.9375624656677246:1.0414414405822754] [-2.8964071273803711:1.0082290172576904] [-2.6209216117858887:0.99270999431610107] [-1.9672813415527344:0.99480384588241577] [-1.2877312898635864:1.0559519529342651] [-0.66342759132385254:1.2162210941314697] [-0.67050886154174805:1.4357191324234009] [-0.67336314916610718:1.5244829654693604] [-0.67729061841964722:1.3697364330291748] [-0.67391806840896606:1.309401273727417] [-0.67713803052902222:1.2273765802383423] [-0.67526406049728394:1.26226806640625] [-0.67822211980819702:1.3601771593093872] [-0.67542338371276855:1.5217618942260742] [-0.67887544631958008:1.652112603187561] [-0.67573755979537964:1.5847338438034058] [-0.68056988716125488:1.6444205045700073] [-0.67851173877716064:1.8138210773468018] [-0.68057990074157715:2.0951991081237793] [-0.67672491073608398:2.3221406936645508] [-0.68208664655685425:2.3866791725158691] [-0.68785721063613892:2.3278176784515381] [-0.69603323936462402:2.41339111328125] [-0.68564701080322266:2.0181429386138916] [-0.66462117433547974:1.663224458694458] [-0.62813276052474976:1.3776267766952515] [-0.79989981651306152:1.3641012907028198] [-0.9627259373664856:1.3483799695968628] [-0.83332031965255737:1.3266682624816895] [-0.58399802446365356:1.3006186485290527] [-0.60407185554504395:1.5017008781433105] [-0.62945538759231567:1.6471337080001831] [-0.65896445512771606:1.5433529615402222] [-0.89532732963562012:1.1429597139358521] [-1.1747497320175171:1.0751444101333618] [-1.3727543354034424:0.99085426330566406] [-1.6713657379150391:0.88367986679077148] [-1.8910553455352783:0.75060045719146729] [-2.0949718952178955:0.59843027591705322] [-1.9126988649368286:0.44751104712486267] [-1.7446892261505127:0.31280896067619324] [-1.674402117729187:0.20481951534748077] [-1.5101885795593262:0.12430305778980255] [-1.3156384229660034:0.23297213017940521] [-1.5821062326431274:0.84510332345962524] [-1.8401819467544556:1.3364263772964478] [-2.0371255874633789:1.0853415727615356] [-2.1728529930114746:0.99276179075241089] [-2.2573421001434326:0.52897804975509644] [-2.3058340549468994:0.21415293216705322] [-2.3315773010253906:0.26114976406097412] [-2.3403120040893555:0.31248012185096741] [-2.3343968391418457:0.36315670609474182] [-2.3124566078186035:0.40882810950279236] [-2.2730567455291748:0.44654315710067749] [-2.2140905857086182:0.47649812698364258] [-2.1362462043762207:0.49989777803421021] [-2.0426793098449707:0.59374678134918213] [-1.9374580383300781:0.53298360109329224] [-1.8240519762039185:0.65060514211654663] [-1.7565661668777466:1.0689502954483032] [-1.6500253677368164:1.4172115325927734] [-1.5946441888809204:1.6290324926376343] [-1.530011773109436:1.6649528741836548] [-1.4861346483230591:1.6182941198348999] [-1.4531639814376831:1.5608183145523071] [-1.4315723180770874:1.5595740079879761] [-1.414076566696167:1.5629584789276123] [-1.5819015502929688:1.5623300075531006] [-2.0638625621795654:1.5685317516326904] [-2.4396805763244629:1.5680602788925171] [-2.5584738254547119:1.5700795650482178] [-2.4521515369415283:1.5659784078598022] [-2.0341367721557617:1.5674868822097778] [-1.4475361108779907:1.5623446702957153] [-1.2213733196258545:1.563502311706543] [-1.1123948097229004:1.5613243579864502] [-1.1654683351516724:1.5694600343704224] [-1.225186824798584:1.5736351013183594] [-1.3317182064056396:1.5835809707641602] [-1.6010570526123047:1.5861003398895264] [-2.1418814659118652:1.5904537439346313] [-2.4733853340148926:1.5896482467651367] [-2.5047738552093506:1.5896980762481689] [-2.0072333812713623:1.5826603174209595] [-1.6131480932235718:1.5835590362548828] [-1.6319060325622559:1.579189658164978] [-1.6864286661148071:2.1815340518951416] [-1.7459897994995117:2.2202906608581543] [-1.8207311630249023:2.1617026329040527] [-1.9267433881759644:1.6088942289352417] [-2.1567583084106445:1.5756756067276001] [-2.3918964862823486:1.5728672742843628] [-2.6616356372833252:1.5717638731002808] [-2.9659750461578369:1.7272710800170898] [-3.3559722900390625:2.2903428077697754] [-3.8750591278076172:3.3610599040985107] [0:1] [0:1] [0:1] [0:1] [0:1] [0:1] [0:1] [0:1] [0:1]
tree_sizes=5981 5364 5256 5192 4869 6877 6864 6549 6924 6645 6287 6950 6564 5995 6075 6767 6333 6445 6902 6896 6581 6996 6905 6645 6262 6612 6874 6728 6936 6663 6976 6771 6569 6719 5782 6713 6745 6928 6887 5798 5914 6427 6375 6408 6512 6801 5909 5718 6437 6820 6441 6444 6948 6939 5822 6338 6723 6723 6809 6502 5458 6426 5916 6970 6507 6840 4975 6049 6942 6576 6369 6468 6172 6262 5373 5503 6374 6693 6948 6025 6835 6821 6884 6188 6337 5713 6459 6952 6961 6562 6939 6844 5928 6509 6044 5410 6924 6715 6917 6481 6375 5673 6938 5485 6834 6838 6336 5619 6816 6790 6923 6636 6457 6966 6932 6334 6691 6618 6047 6926 6917 6493 4213 6415 6794 6898 5671 6586 6902 6621 6358 4871 4097 6687 6309 6920 5899 6929 5838 4511 5041 5915 4767 6752 5963 6093 6713 5219 6465 6332 6585 6495 6704 6164 6634 6873 6459 6850 6938 5489 6512 6699 6585 6825 4653 4238 6765 6681 6614 5911 6301 6056 6941 6491 5828 6427 5895 5936 5905 6071 5791 6491 6048 6469 6568 6365 6710 5595 4934 5262 6168 5921 6754 6718 6819 6976 5835 4761 5785 6226

Tree=0
num_leaves=55
num_cat=0
split_feature=106 23 30 36 92 17 132 129 132 55 131 92 77 51 55 81 105 122 74 133 104 34 4 30 106 105 133 132 64 128 132 103 68 61 68 111 121 135 44 31 77 135 38 35 29 77 36 75 31 106 31 70 12 0
split_gain=103543 70761.6 63968.6 62798.3 33374.7 31556.2 36243.4 31258.1 27868.8 29572.2 20371.1 18220.2 14428 12696.3 11527.1 12135.9 9916.21 9768.23 8754.83 8262.05 17351.5 11170.4 7926.6 6677.35 6528.82 5716.2 5657.79 4400.78 3755.07 3507.05 3343.12 3340.01 3229.69 2981.07 2657.7 2452.33 2155.63 1893.63 1639.89 1473.19 1381.82 1312.67 1127.63 1151.43 1025.23 926.783 888.928 838.305 800.951 669.628 540.186 485.562 803.319 8.88178e-16
threshold=-0.91016680002212513 1.1492326259613039 1.0569435358047488 0.91846901178359996 -0.96512925624847401 0.80443456768989574 1.0000000180025095e-35 1.0000000180025095e-35 1.0000000180025095e-35 1.0307278633117678 1.0000000180025095e-35 -1.1561813354492185 -1.2723654508590696 1.2336956858634951 0.86878234148025524 -1.1325434446334837 -0.86202585697174061 -1.0447143316268919 -0.88237878680229176 1.0000000180025095e-35 -0.91585475206375111 0.87068924307823192 0.50195184350013744 1.0605073571205141 -0.98695310950279225 -0.85922956466674794 1.0000000180025095e-35 1.0000000180025095e-35 0.53867202997207653 1.0000000180025095e-35 1.0000000180025095e-35 -0.83563566207885731 0.035661125555634506 0.65264132618904125 0.13754824548959735 -1.1033930182456968 -1.2777799367904661 1.0000000180025095e-35 1.0936813950538637 0.96547597646713268 -0.52631178498268116 1.0000000180025095e-35 1.0261939167976382 0.94740355014801036 1.0891085267066958 -1.2552544474601743 0.91887658834457409 -0.51455283164978016 0.9884333908557893 -0.90710425376892079 0.95001703500747692 1.0000000180025095e-35 1.0199446082115176 -0.1819057688117027
decision_type=2 2 2 2 2 2 2 2 2 2 2 2 2 2 2 2 2 2 2 2 2 2 2 2 2 2 2 2 2 2 2 2 2 2 2 2 2 2 2 2 2 2 2 2 2 2 2 2 2 2 2 2 2 2
left_child=3 13 4 14 8 42 26 10 9 -3 11 -4 -12 39 15 23 19 31 36 21 -21 -16 -20 37 48 40 33 38 -27 -26 -25 -9 -28 -7 -29 50 -6 -1 -18 41 -8 49 46 -44 -10 -19 -5 -48 -17 -2 53 52 -37 -15
right_child=1 2 7 5 18 6 25 17 44 -11 12 -13 -14 35 16 24 27 45 22 20 -22 -23 -24 30 29 28 32 34 -30 -31 -32 -33 -34 -35 -36 51 -38 -39 -40 -41 -42 -43 43 -45 -46 -47 47 -49 -50 -51 -52 -53 -54 -55
leaf_value=-1.0326513520761007 -2.8735249589634839 -1.8981794061772856 -1.6458906068223713 -1.5693721594193684 -3.4048603662299182 -1.1140235330098451 -0.52858325180910271 -1.6469370564775305 -2.4567323063337057 -1.2984910007338897 -2.7953822705486244 -2.6184838366463641 -1.7888413729456021 -3.4751047337810648 -1.7176054855869005 -2.0572628264160571 -3.4751047337810648 -0.63459974642715133 -2.3575399334987246 -1.2164680000610644 -2.0027053726325166 -1.1680527787607748 -1.3854863951298555 -1.9410591199652165 -2.9350909078684939 -3.4751047337810648 -3.4751047337810648 -3.2042682774724365 -1.1805036309793024 -0.72335281268636376 -3.3212994860855218 -2.4251611398889565 -2.1678504165195935 -1.991804066710599 -2.2096895280553941 -2.5863632467936553 -2.6782238284495632 -3.4751047337810648 -1.1977012185267553 -0.85390736948203783 -1.5031249432150813 -1.1553701908960692 -0.94523275493039449 -3.4751047337810648 -0.54948522168472724 -1.8211446226218024 -2.3608880470693059 -3.4751047337810648 -1.20239161398076 -3.4751047337810648 -1.1553701908960705 -0.38171202914864111 -0.64993693940954333 -3.4751047337810648
leaf_weight=104.94330350682139 19.367122825235128 4578.9272179603577 207.00324228405952 3.0567954666912547 82.930986456573009 66.616402979940176 972.71100414544344 269.25825117528439 2.8601690977811804 1002.3024571575224 179.97658631578088 2771.1962733566761 682.29161517322063 3.9792686551809333 826.99663038551807 18.488983847200871 3.5620872639119652 100.49139194563031 729.76605648174882 375.27094788104296 1113.7330738119781 669.13976105302572 94.78514613583684 239.23824847117066 221.14509943500161 7.8301738053560248 29.940787542611361 64.527147933840752 79.970846626907587 7.4094693176448336 18.937698099762201 69.354138735681772 51.246722307056189 92.292627077549696 46.035757020115852 3.2773504890501499 80.413247708231211 3.2732693776488295 28.137210294604301 2.2224326841533175 14.77052331343293 2.5112505704164496 4.6053197495639315 2.9523606151342392 193.14444786310196 7.0442263446748248 7.8424171395599833 48.58558664470911 26.913675885647535 414.80666642636061 1.255625285208225 13.182303946465254 6.1859349086880684 1.0269080400466921
leaf_count=795 491 72959 2794 39 2528 557 2634 3637 61 10166 4427 63431 10151 124 11735 323 111 375 14865 3509 18870 5944 1041 3911 5738 244 933 1842 720 34 562 1458 950 1554 872 74 1887 102 258 13 179 22 31 92 562 107 160 1514 248 12926 11 17 24 32
internal_value=-3.37167 -2.08367 -2.03268 -1.54429 -1.84117 -0.967813 -0.859951 -2.33492 -1.74933 -1.79048 -2.42696 -2.55088 -1.99893 -3.28832 -1.75581 -2.14235 -1.67666 -1.54264 -2.3783 -1.63779 -1.80455 -1.47182 -2.2458 -1.76592 -2.64581 -0.611911 -1.97081 -2.49234 -1.38514 -2.86339 -2.0423 -1.80633 -2.64995 -1.62383 -2.79015 -1.25838 -3.04714 -1.10653 -1.45362 -3.42201 -0.54316 -3.43508 -3.08409 -1.93351 -0.577316 -0.712326 -3.23028 -3.32025 -1.55051 -3.44827 -3.00995 -0.774046 -1.32057 -3.4751
internal_weight=0 11519.6 11051.7 5150.17 6765.13 1382.42 1315.38 4286.62 5777.23 5581.23 3840.47 2978.2 862.268 467.815 3767.75 640.35 3127.4 446.148 987.895 2985.14 1489 1496.14 824.551 366.393 273.957 1075.28 240.097 142.262 87.801 228.555 258.176 338.612 81.1875 158.909 110.563 28.9074 163.344 108.217 31.6993 438.907 987.482 436.685 67.0425 7.55768 196.005 107.536 59.4848 56.428 45.4027 434.174 6.2618 22.6456 9.46329 5.00618
internal_count=268644 204183 190449 64461 104069 9607 7771 86380 83748 83125 80803 66225 14578 13734 54854 11713 43141 5577 20321 40058 22379 17679 15906 5370 6343 3777 3994 3083 964 5772 4473 5095 1883 2111 2714 282 4415 897 369 13452 2813 13439 1836 123 623 482 1713 1674 571 13417 167 115 98 156
is_linear=0
shrinkage=1


Tree=1
num_leaves=49
num_cat=0
split_feature=53 94 73 99 75 54 99 134 54 70 92 102 86 32 57 97 75 32 69 70 117 136 73 105 124 94 33 76 79 96 114 73 125 23 132 106 28 72 123 30 55 106 83 106 105 30 9 0
split_gain=5889.78 5650.48 7621.43 6021.41 5256.52 4485.44 3769.93 3710.57 8966.46 4480.51 3751.86 3675.2 3103.8 2245.67 2156.68 1677.58 1569.19 1449.44 1379.23 1239.4 1037.46 759.151 683.848 667.976 593.969 1460.35 488.572 419.961 245.305 186.125 135.65 86.1147 73.5868 0.791611 0.222955 0.192751 0.344803 0.160573 0.13604 0.12999 0.0784018 0.0410137 0.0210735 0.0175745 0.000831234 3.10005e-06 2.84217e-14 1.77636e-15
threshold=0.73357951641082775 -0.98687338829040516 -0.7933334708213805 -0.86734101176261891 -1.0649186372756956 1.0290385484695437 -0.86275610327720631 1.0000000180025095e-35 1.0285673141479494 -0.25494223833084101 -0.33327481150627131 -0.83761867880821217 -1.1338777542114256 0.96758183836936962 0.91572722792625438 -0.93731352686882008 -1.0718460679054258 0.96789151430130016 -0.11585247144103049 -0.22701939940452573 -0.97700873017311085 1.0000000180025095e-35 -0.77382925152778614 -0.83181822299957264 -1.4257766008377073 -0.97578191757202137 0.9235830307006837 -1.2074273228645322 -0.54157552123069752 -0.902146816253662 -1.0318669676780698 -0.93285772204399098 -1.5447766184806822 1.1492326259613039 1.0000000180025095e-35 -0.91016680002212513 1.2807840108871462 -0.40407896041870112 -0.90119004249572743 1.0569435358047488 1.0307278633117678 -0.90639597177505482 -1.1193916201591489 -0.91355663537979115 -0.9224334955215453 1.0631412267684939 1.0597343444824221 1.070007383823395
decision_type=2 2 2 2 2 2 2 2 2 2 2 2 2 2 2 2 2 2 2 2 2 2 2 2 2 2 2 2 2 2 2 2 2 2 2 2 2 2 2 2 2 2 2 2 2 2 2 2
left_child=30 2 3 5 20 11 18 10 12 -10 13 -2 -9 -6 22 -7 19 -16 21 -5 24 -4 -8 -20 25 -3 -18 40 -12 -29 31 -1 -26 37 39 42 -37 46 43 41 -22 -35 -36 45 -41 -33 -32 -48
right_child=1 4 6 16 7 15 14 8 9 -11 28 -13 -14 -15 17 -17 26 -19 23 -21 27 -23 -24 -25 32 -27 -28 29 -30 -31 33 38 -34 34 35 36 -38 -39 -40 44 -42 -43 -44 -45 -46 -47 47 -49
leaf_value=0.31359318672584585 0.31954388326304328 0.30376658645974403 0.47603203763673668 -0.016066385563179561 0.28493028241411505 0.51196020273461695 -0.032770192654380213 0.53379486981786828 -0.054383236245232419 0.3246382492300417 0.37699540599824288 0.13408660112586099 0.24791153053378118 0.15872225334287005 0.4293325399601951 0.36073883736475698 0.5418011251784316 0.10333897304630563 0.64545777261926729 0.33522560384022609 -0.1149841121037599 0.18288188517972981 0.26449174181684548 0.5167399848808325 0.049244300290109157 -0.033534260118924651 -0.11158326312877898 0.043643201253419223 -0.094742650315291554 0.39057303627648376 -0.10309585640254192 -0.10509777287048552 -0.10465706131838669 -0.1281401969365791 -0.12226354895335999 -0.10784720940384765 -0.15437114333932195 -0.13560616467426259 -0.14464758686993059 -0.10531259123443271 -0.12713516821849863 -0.11501115759167971 -0.10531259123443287 -0.11625555978041069 -0.10744078295492068 -0.10531259123443287 -0.10309585640254193 -0.10309585640254182
leaf_weight=12.651606909930708 12794.195692876354 194.0408872961998 343.78942329995334 763.63038992322981 31245.008343957365 1540.3058984056115 142.82857140153646 2181.4233405906707 549.48298822715878 721.30285126902163 11.462674129754303 1165.9230400919914 459.81483923830092 1476.4704901874065 2147.6160168647766 1400.6983276512474 84.228718496859074 145.63941483944654 1038.28288157098 115.64222133718431 9.2932859808206576 118.88636057078838 168.91094408929348 659.09170311689377 34.766681149601936 379.19356995262206 13.243812553584574 17.548424400389194 287.46565780043602 130.19059268012643 65.594456799328327 0.90170058049261648 292.04324050992727 2.4042384568601838 1.031357139348984 2.4039613381028158 4.7222534939646721 1.5490175485610951 1.3750416859984378 2.0118468850851086 12.388845978304742 230.08694607764482 2.5387591645121574 2.46650592237711 20.911300420761108 2.6345613971352577 11.592626024037596 1.8932680692523725
leaf_count=6 77015 956 1308 6224 99252 4196 1227 7961 6381 4085 9 9448 2489 8900 5781 5374 322 921 1958 429 82 1198 889 1834 225 2877 160 98 8505 227 2252 20 2852 21 13 36 24 8 8 42 75 2031 53 25 329 55 398 65
internal_value=0 0.304157 0.343701 0.313749 0.280595 0.3277 0.456078 0.286924 0.379012 0.160751 0.276014 0.304055 0.484025 0.279235 0.375082 0.439939 0.0723371 0.408629 0.553757 0.0301357 0.0620366 0.400706 0.128296 0.595477 0.0193044 0.0806427 0.453024 0.28905 -0.0766534 0.349365 -0.0977842 0.155252 -0.0882847 -0.112401 -0.115031 -0.129175 -0.138677 -0.10372 -0.116276 -0.114439 -0.121927 -0.115147 -0.110209 -0.109777 -0.107254 -0.105258 -0.103096 -0.103096
internal_weight=0 60644.8 22642.9 17877.9 38001.9 16901.1 4765.05 36932.4 3912.02 1270.79 33020.4 13960.1 2641.24 32721.5 2604.99 2941 976.745 2293.26 2160.05 879.273 1069.47 462.676 311.74 1697.37 900.044 573.234 97.4725 169.421 298.928 147.739 366.769 20.0294 326.81 346.74 266.111 10.6963 7.12621 80.6294 7.37781 255.414 21.6821 232.491 3.57012 6.00277 22.9231 3.53626 79.0804 13.4859
internal_count=268644 263258 118284 103168 144974 96033 15116 137582 20916 10466 116666 86463 10450 108152 8818 9570 7135 6702 6298 6653 7392 2506 2116 3792 6910 3833 482 482 8514 325 5386 114 3077 5272 2549 126 60 2723 108 2423 157 2052 66 100 371 75 2715 463
is_linear=0
shrinkage=0.1


Tree=2
num_leaves=48
num_cat=0
split_feature=51 32 103 71 102 99 73 54 99 63 136 70 103 70 132 111 70 98 70 105 62 37 39 35 111 108 71 70 111 75 105 101 70 75 99 23 30 113 72 30 53 106 106 53 105 102 0
split_gain=3539.15 2538.35 2421 2212.88 7282.47 5248.61 3455.21 2680.14 2402.4 1976.11 1536.38 956.21 818.095 638.647 629.24 611.604 582.457 570.2 586.078 537.161 521.924 422.827 389.834 374.569 299.511 388.19 287.453 269.649 249.214 248.944 286.971 240.482 201.074 58.5269 58.334 0.700922 0.402656 0.162127 0.112469 0.0891377 0.127563 0.0289339 0.0198866 0.00170566 0.000205663 0.000104366 1.42109e-14
threshold=0.79301598668098461 0.96758183836936962 -0.70435401797294606 -0.47555725276470179 -0.84547540545463551 -0.8619612157344817 -0.78388449549674977 0.99100330471992504 -0.97272413969039906 0.46008862555027014 1.0000000180025095e-35 -0.15807714313268659 -0.7955365478992461 -0.23497865349054334 1.0000000180025095e-35 -0.92171314358711232 -0.19034428149461743 -0.85819920897483815 -0.21359759569168088 -0.83094796538352955 0.67879122495651256 0.94937345385551464 1.0248770713806155 0.95819538831710827 -1.1790929436683653 -1.019645571708679 -0.3301356434822082 -0.27155160903930659 -0.95061519742012013 -1.0447936058044431 -0.96499440073966969 -0.84472224116325367 -0.14956976473331449 -1.0473452806472776 -0.98499196767806996 1.1492326259613039 1.0537940859794619 -0.94792890548706044 -0.40407896041870112 1.0569435358047488 0.73357951641082775 -0.90710425376892079 -0.91016680002212513 0.73357951641082775 -0.83961769938468922 -0.83699902892112721 1.070007383823395
decision_type=2 2 2 2 2 2 2 2 2 2 2 2 2 2 2 2 2 2 2 2 2 2 2 2 2 2 2 2 2 2 2 2 2 2 2 2 2 2 2 2 2 2 2 2 2 2 2
left_child=15 2 3 4 8 7 -7 -5 -2 -6 11 12 13 -3 24 29 -14 27 28 21 32 -16 -20 -22 25 -4 -26 44 -19 33 -31 -29 -13 -1 -32 38 -36 -37 43 40 -39 -21 -41 46 -12 -45 -17
right_child=1 10 14 5 9 6 -8 -9 -10 -11 17 20 16 -15 19 35 -18 18 22 41 23 -23 -24 -25 26 -27 -28 31 -30 30 34 -33 -34 -35 36 37 -38 39 -40 42 -42 -43 -44 45 -46 -47 -48
leaf_value=0.27754407768571426 0.31170902060778344 0.082236937060013601 -0.11881704261953988 0.52680847759493954 0.12280247699211802 0.11312186589475726 0.23584156033926315 0.30072955871202961 0.21361735254375455 -0.048435097762121349 -0.10883030996819687 0.30535288019294349 -0.068362025702483717 0.27098805836781764 0.30774429733546127 -0.10279259612426622 0.089178859156491277 -0.11611400335789766 -0.1182820723717071 -0.10715992044240188 0.30963644505981219 -0.034679420143206373 0.51754176428794907 -0.031446925709868234 -0.11323065758260026 0.69997314280404854 0.20271406128885627 0.8616418457945545 0.39725867258297998 0.33228026617122453 0.17056895152075682 0.4410911186173091 0.57699935971114058 0.63776925439459942 -0.12854219376119355 -0.1358534333632245 -0.10776965091385493 -0.11349657086959725 -0.13109082051317952 -0.11644291826587926 -0.12080694945273829 -0.10337219962987068 -0.1087129732187857 -0.10427123481549327 -0.10765535005356093 -0.10355208474264394 -0.10279259612426622
leaf_weight=7.3913859874010113 2837.7894510980695 616.11495845764875 7.9259875901043442 563.43866001069546 1715.3026890885085 2466.9136081505567 32784.190951498225 7562.3389697857201 20778.179345920682 1110.0574064161628 6.2384410500526428 54.423449009656906 519.48243615031242 252.81648605316877 69.522873302921653 70.01088316552341 428.06131158769131 56.179010078310966 11.92962037026882 21.697882626205683 66.332114867866039 74.921907812356949 50.305005013942719 62.564517796039581 36.877911649644375 21.488597104325891 131.41460413858294 14.947632364928721 11.369726128876207 30.131173212081194 8.5701797585934383 150.48992860689759 54.572176113724709 11.571247331798075 19.626528393477201 3.3036991320550433 17.78991000726819 209.11219843477011 1.4473634958267201 3.6374280266463748 26.94522475451231 285.92803890444338 39.146984927356243 8.8339156210422498 1.9570910148322562 2.6154495514929286 1.7178963404148806
leaf_count=40 7741 3597 84 1551 10892 13544 82372 23072 87962 9773 84 159 3875 950 591 2649 2268 513 94 410 118 1290 111 407 389 55 219 17 52 31 23 335 82 14 193 27 303 2011 8 38 191 9559 551 225 30 79 65
internal_value=0 0.224851 0.228266 0.230055 0.207252 0.243954 0.227253 0.316406 0.225404 0.0555248 0.122786 0.0917638 0.0670743 0.137154 0.036133 -0.0528455 0.00280847 0.332833 0.174271 -0.0289449 0.280286 0.130133 0.395662 0.14408 0.184938 0.479344 0.133481 0.451352 -0.0297037 0.173169 0.0924061 0.479089 0.441361 0.497358 -0.0647632 -0.111437 -0.118666 -0.113831 -0.103454 -0.11357 -0.114331 -0.103639 -0.10937 -0.102974 -0.10855 -0.104107 -0.102793
internal_weight=0 72825.8 70468 69818.2 26441.3 43376.9 35251.1 8125.78 23616 2825.36 2357.78 2054.37 1816.48 868.931 649.778 461.851 947.544 303.416 129.783 452.071 237.892 144.445 62.2346 128.897 197.707 29.4146 168.293 173.633 67.5487 95.0804 76.1178 165.438 108.996 18.9626 45.9866 366.771 37.4164 282.146 84.6255 278.842 236.057 307.626 42.7844 83.1781 8.19553 11.4494 71.7288
internal_count=268644 262196 249504 236907 116368 120539 95916 24623 95703 20665 12692 11456 10690 4547 12597 6448 6143 1236 770 11850 766 1881 205 525 747 139 608 466 565 604 550 352 241 54 519 5844 496 2818 3026 2791 2202 9969 589 3018 114 304 2714
is_linear=0
shrinkage=0.1


Tree=3
num_leaves=47
num_cat=0
split_feature=50 32 72 101 98 73 53 106 136 98 71 100 100 70 71 96 100 95 72 101 100 34 101 99 129 121 59 129 102 71 69 37 105 23 132 27 106 30 53 73 53 106 102 24 0 11
split_gain=2375.53 1897.91 1967.18 4747.31 3135.45 2332.94 2035.61 2369.27 1748.05 1600.05 1472.94 2016.22 1656.02 1588.78 1258.98 1711 904.407 898.839 811.812 916.702 745.076 653.697 610.184 495.645 447.537 394.514 453.288 314.084 160.269 220.987 126.658 123.295 53.9795 0.51895 0.115363 0.127867 0.110496 0.0499676 0.0365524 0.00681474 0.000913601 0.000553825 6.40827e-05 5.8206e-06 1.42109e-14 2.22045e-16
threshold=0.74949821829795849 0.96399298310279857 -0.63828852772712696 -0.84404149651527394 -0.8656708002090453 -0.78065437078475941 1.0403516292572024 -0.89538684487342823 1.0000000180025095e-35 -0.93920069932937611 -0.38504219055175776 -0.80829703807830799 -0.79690575599670399 -0.1719352304935455 -0.40376237034797663 -0.97336024045944203 -0.81848838925361622 -1.029124319553375 -0.596176117658615 -0.82515099644660939 -0.82981258630752552 0.89898782968521129 -0.77475962042808522 -0.77873921394348133 1.0000000180025095e-35 -1.2811734080314634 0.8182855248451234 1.0000000180025095e-35 -0.79285880923271168 -0.39221994578838343 -0.047105895355343812 0.97218170762062084 -0.96499440073966969 1.1492326259613039 1.0000000180025095e-35 1.4303665757179262 -0.90225753188133229 1.0571621060371401 0.73357951641082775 -0.8914789855480193 0.73357951641082775 -0.91016680002212513 -0.83699902892112721 1.0558007359504702 1.070007383823395 1.0242687463760378
decision_type=2 2 2 2 2 2 2 2 2 2 2 2 2 2 2 2 2 2 2 2 2 2 2 2 2 2 2 2 2 2 2 2 2 2 2 2 2 2 2 2 2 2 2 2 2 2
left_child=32 2 3 6 14 16 7 -2 -7 -8 11 18 25 22 15 -4 -6 24 19 -3 -20 -19 -14 -15 -5 31 -27 -16 29 -13 -30 -12 -1 40 37 39 -37 38 -35 -36 44 -39 43 -42 -34 -44
right_child=1 10 4 17 5 8 9 -9 -10 -11 12 28 13 23 27 -17 -18 21 20 -21 -22 -23 -24 -25 -26 26 -28 -29 30 -31 -32 -33 33 34 35 36 -38 41 -40 -41 42 -43 45 -45 -46 -47
leaf_value=0.11933304276163999 0.19067599207538624 0.11889785118246013 0.31624869278320777 0.12697201467328065 0.10668389769056799 0.19078636521665412 0.30023694637450532 0.12273232684656739 0.057015845879070153 0.19104495526925958 0.27213438190889949 -0.053526289510177287 0.13583121926359817 0.25395888536748989 0.34729738623363537 0.20843042680539725 -0.080613997148696576 0.039465213991726381 0.24753055286023767 -0.037209665428992796 0.10615862508949148 -0.083831389741950313 -0.021605918520621485 0.12651083593056953 0.44286840082975731 -0.057007627421383579 0.27041933962981735 0.21097635009777368 -0.11615842377895487 0.26247457596964124 0.061137468399736994 0.50928185021875627 -0.10251979398053533 -0.11200371135131422 -0.10618193544236441 -0.1134039455751011 -0.14339233893282408 -0.10428608814516141 -0.11826871901993258 -0.11549247362184563 -0.10413965216516857 -0.10601483536982025 -0.10319185136650706 -0.10383947993274226 -0.10251979398053533 -0.10319185136650694
leaf_weight=10.637581784278153 11243.034362509847 1373.8248742520809 1844.7351495847106 215.83411891013384 730.86709352210164 32446.263963829726 1935.9315058365464 9442.9801700655371 1007.1826999336481 4374.2329737097025 29.210442900657654 82.6406513415277 396.79127044975758 782.28009788691998 1292.0562629885972 7281.6519344262779 398.3110099863261 1299.0224760044366 724.617521263659 518.00052746757865 767.82863450795412 642.78000798635185 648.54628807678819 500.29271329194307 56.610595650970936 44.159450985491276 993.95995864272118 194.44838945567608 461.83875334635377 30.224172785878181 44.144892904907465 87.881904125213623 63.436523649841547 188.94942940399051 2.5620414055883889 1.8681826535612343 3.5893402397632599 2.2857653908431521 9.7954088598489744 1.1341414526104907 0.75076189264655102 9.791157264262436 1.0491061210632313 4.6290430426597595 1.5583424177020777 0.7493615150451659
leaf_count=29 36593 5479 2945 761 3048 81030 3559 48401 4657 13454 75 576 1550 1266 1171 21426 2728 9348 1672 3378 3345 5069 3523 1669 78 270 1997 424 3409 104 159 110 2646 1984 48 37 19 58 75 14 20 185 35 130 65 25
internal_value=0 0.178677 0.183506 0.163281 0.196578 0.181987 0.174827 0.15966 0.186759 0.224545 0.130683 0.0893076 0.178236 0.129663 0.244124 0.230224 0.0406157 0.0225165 0.119656 0.0761541 0.174798 -0.00134872 0.0381544 0.204245 0.192611 0.276118 0.256491 0.329465 -0.0766552 0.0310959 -0.10069 0.450122 -0.101939 -0.109996 -0.11241 -0.1234 -0.133127 -0.111933 -0.112312 -0.109039 -0.102638 -0.105688 -0.103709 -0.103881 -0.10252 -0.103192
internal_weight=0 81892.2 74405.9 29210.4 45195.5 34582.6 26996.2 20686 33453.4 6310.16 7486.24 4003.12 3483.12 2327.91 10612.9 9126.39 1129.18 2214.25 3384.27 1891.83 1492.45 1941.8 1045.34 1282.57 272.445 1155.21 1038.12 1486.5 618.848 112.865 505.984 117.092 302.786 292.149 219.975 9.15371 5.45752 210.822 198.745 3.69618 72.1731 12.0769 7.17827 5.3798 64.9949 1.79847
internal_count=268644 263274 234692 117263 117429 91463 102007 84994 85687 17013 28582 18122 10460 8008 25966 24371 5776 15256 13874 8857 5017 14417 5073 2935 839 2452 2267 1595 4248 680 3568 185 5370 5341 2420 118 56 2302 2059 62 2921 243 210 150 2711 60
is_linear=0
shrinkage=0.1


Tree=4
num_leaves=44
num_cat=0
split_feature=50 122 31 103 69 102 32 71 102 11 71 73 99 39 63 95 89 108 36 55 100 32 85 1 105 106 23 104 135 132 27 106 30 53 103 53 106 102 34 11 66 8 70
split_gain=1707.08 1528.77 1536.78 2649.8 1315.47 1300.47 1286.81 1393.96 3097.14 1884.67 748.722 433.056 689.042 431.917 419.53 416.728 317.584 239.535 224.888 291.536 133.303 112.377 94.6587 53.1017 47.7488 0.491825 0.37519 0.287439 0.19647 0.0830461 0.0899346 0.0732288 0.0359076 0.0258809 0.0052103 0.00067067 0.000404331 4.69623e-05 4.30885e-06 1.42109e-14 7.10543e-15 1.77636e-15 2.22045e-16
threshold=0.74949821829795849 -1.9762875437736509 1.0034223198890688 -0.82219418883323658 -0.11967040970921515 -0.85038563609123219 0.96758183836936962 -0.48300072550773615 -0.84750413894653309 0.77459844946861278 -0.44653980433940882 -0.73298865556716908 -0.80150744318962086 0.97934642434120189 0.49428957700729376 -0.96061092615127552 -0.29351532459259028 -1.0639153718948362 0.88114911317825328 1.0247636437416079 -0.43841579556465143 0.96006354689598095 -0.28983066976070399 -0.69167977571487416 -0.96499440073966969 -0.91016680002212513 1.1492326259613039 -0.81348189711570729 1.0000000180025095e-35 1.0000000180025095e-35 1.4303665757179262 -0.90225753188133229 1.0571621060371401 0.73357951641082775 -0.98910889029502858 0.73357951641082775 -0.91016680002212513 -0.83699902892112721 0.70268526673316967 1.077498257160187 0.1395647078752518 1.1537159681320193 -0.21681049466133115
decision_type=2 2 2 2 2 2 2 2 2 2 2 2 2 2 2 2 2 2 2 2 2 2 2 2 2 2 2 2 2 2 2 2 2 2 2 2 2 2 2 2 2 2 2
left_child=24 16 6 4 5 -4 7 8 -3 -9 21 15 -13 -12 -6 -8 17 18 -2 -20 22 -5 -19 -18 -1 27 35 -25 -27 32 34 -32 33 -28 -31 39 -34 38 -37 40 -26 -41 -39
right_child=1 2 3 10 14 -7 11 9 -10 -11 13 12 -14 -15 -16 -17 23 20 19 -21 -22 -23 -24 25 26 28 29 -29 -30 30 31 -33 36 -35 -36 37 -38 42 -40 41 -42 -43 -44
leaf_value=0.10337758445897012 0.69158454726245788 0.14763352973124316 0.14431596478791861 -0.023549994880043591 0.35861513070896645 0.063003460238784351 0.13324008083790029 0.1625285858974298 0.018268837977018303 0.27580469007559327 -0.10983364483984424 0.20633456090837834 0.031214630144383766 0.066379871877173147 0.20228919694566519 -0.083667188857608266 0.1714318198120893 -0.10813584460583291 -0.13034754114726768 0.20590841360030826 0.24385539527138531 -0.12073778115562371 0.24980460226911552 -0.16370815221406435 -0.10227427008637452 -0.1031767539340426 -0.11073371327070591 -0.11234054597552792 -0.14501939986283838 -0.11366946130416539 -0.11231690483597499 -0.13773922075007725 -0.103861632540028 -0.11623099164424744 -0.10534213857546189 -0.1037316430935119 -0.10541124884949578 -0.10287890425127444 -0.1034606623392863 -0.10227427008637453 -0.10227427008637452 -0.1022742700863743 -0.10287890425127454
leaf_weight=11.028475761413572 7.170092672109603 20769.412910090759 8196.7241831459105 186.29635079391301 194.702651463449 2587.9165160357952 123.18148444592953 47678.000893840566 2031.7069345600903 1515.4763526320457 152.13546742498875 360.85311535000801 595.42996158078313 1623.2021823823452 1451.3587774038315 315.26510865613818 7.0795750617980948 101.85702339559793 35.11621055752039 97.024960972368717 14.157657690346239 329.23406292498112 7.9660195447504512 1.1061145663261402 31.396095216274261 184.7349913045764 172.82873029261827 71.863618474453688 1.1290244162082661 1.1304898858070376 1.705930585041642 3.3740690685808659 2.0762673988938323 9.0106286182999593 2.2404609657824022 0.68201195448636998 8.907543543726204 1.0880124568939207 4.2029266059398651 9.7841016948223078 16.980852052569389 0.78272813558578569 0.54400622844695945
leaf_count=29 5 70568 23996 1553 204 14105 490 105847 12918 2856 948 910 2939 7169 3191 2299 1 2244 281 592 3 2654 103 5 1444 6287 1984 1100 6 14 37 19 58 75 48 20 185 40 130 450 781 36 20
internal_value=0 0.147769 0.148787 0.1193 0.137513 0.124804 0.154702 0.156545 0.136106 0.166018 0.0204726 0.0595656 0.0972961 0.0512795 0.22078 -0.0227271 -0.0216873 0.0561644 0.146145 0.116549 -0.0449427 -0.0856172 -0.0821726 -0.0987717 -0.100526 -0.106162 -0.108957 -0.113119 -0.103431 -0.111096 -0.120799 -0.129202 -0.110671 -0.111006 -0.108135 -0.102381 -0.105118 -0.103343 -0.103498 -0.102274 -0.102274 -0.102274 -0.102879
internal_weight=0 88640.1 88110.9 14721.6 12430.7 10784.6 73389.3 71994.6 22801.1 49193.5 2290.87 1394.73 956.283 1775.34 1646.06 438.447 529.205 263.292 139.311 132.141 123.981 515.53 109.823 265.913 277.763 258.834 266.735 72.9697 185.864 201.274 8.45095 5.08 192.823 181.839 3.37095 65.4607 10.9838 6.51696 4.88494 58.9438 48.3769 10.5668 1.63202
internal_count=268644 263274 252647 53820 41496 38101 198827 192189 83486 108703 12324 6638 3849 8117 3395 2789 10627 3228 878 873 2350 4207 2347 7399 5370 7398 5341 1105 6293 2420 118 56 2302 2059 62 2921 243 210 150 2711 2225 486 60
is_linear=0
shrinkage=0.1


Tree=5
num_leaves=63
num_cat=0
split_feature=71 103 104 136 96 44 31 39 122 69 97 30 102 100 71 50 3 47 37 95 20 68 58 69 62 81 30 5 64 82 102 100 133 42 67 69 103 44 129 27 95 36 31 101 0 33 71 89 70 104 70 29 101 136 35 118 102 100 29 62 104 1
split_gain=1415.17 3381.55 2077.41 1578.11 1880.06 2342.29 1289.53 1215.43 1127.05 1227.64 1650.33 1108.58 1207.41 976.376 1488.82 1077.39 925.56 917.443 1235.65 851.461 1149.99 1008.17 663.3 629.429 628.514 617.225 602.872 1073.41 590.282 568.225 506.356 549.33 496.349 488.069 394.533 392.997 454.512 364.642 345.211 343.812 310.035 308.381 297.719 273.788 272.426 270.107 260.831 248.613 229.399 221.83 211.321 387.175 203.624 188.039 181.116 173.391 145.084 139.142 131.24 77.7715 71.3859 46.8006
threshold=-0.44065442681312555 -0.81693920493125904 -0.81459081172943104 1.0000000180025095e-35 -0.97877997159957875 1.0122295022010805 1.0009347796440127 0.68089580535888683 -1.9762875437736509 0.0030991935636848216 -0.86499130725860585 1.1012804508209231 -0.94712218642234791 -0.95208853483200062 -0.48590648174285883 0.87284553050994884 0.50403371453285228 1.1218488216400149 0.91106480360031139 -1.0281537175178526 1.2427337169647219 0.010632212273776533 0.87760016322135936 -0.11290197819471358 0.57443553209304821 -1.3511058092117307 1.0526608824729922 0.59306776523590099 0.40190243721008306 -1.2669939398765562 -0.80092352628707875 -0.80088037252426136 1.0000000180025095e-35 1.045150935649872 -0.23434371501207349 -0.094149712473154054 -0.79849484562873829 1.1847301721572878 1.0000000180025095e-35 1.1981153488159182 -1.0566549897193906 0.94245830178260814 1.0084027647972109 -0.83940973877906788 0.18872746825218203 0.92903262376785289 -0.45237268507480616 -0.29351532459259028 -0.25390087068080897 -0.78467547893524159 -0.27345490455627436 1.107560992240906 -0.84886661171913136 1.0000000180025095e-35 0.91652148962020885 -1.5789490342140196 -0.82962492108345021 -0.8737046718597411 1.0964035987854006 0.28221359848976141 -0.83760368824005116 -0.69167977571487416
decision_type=2 2 2 2 2 2 2 2 2 2 2 2 2 2 2 2 2 2 2 2 2 2 2 2 2 2 2 2 2 2 2 2 2 2 2 2 2 2 2 2 2 2 2 2 2 2 2 2 2 2 2 2 2 2 2 2 2 2 2 2 2 2
left_child=1 3 16 11 5 29 8 59 47 10 -10 13 34 15 -15 -1 17 30 32 23 50 28 -20 38 -23 -7 41 33 -22 -5 31 -2 -19 -28 -13 39 53 -11 56 -8 -14 48 -38 -40 -32 49 -9 55 -18 -25 60 -52 -29 -37 -41 -4 -3 -47 -43 -6 -21 -49
right_child=2 19 6 4 7 25 35 46 9 37 -12 12 40 14 -16 -17 26 18 22 20 21 24 -24 45 -26 -27 27 52 -30 -31 44 -33 -34 -35 -36 36 42 -39 43 54 -42 58 -44 -45 -46 57 -48 61 -50 -51 51 -53 -54 -55 -56 -57 -58 -59 -60 -61 -62 -63
leaf_value=0.052896557473796735 -0.0043243109717321345 0.08774121729498699 0.10521079190189141 -0.048845365397968729 0.10023248509724354 0.13755126945246807 -0.12763006247112271 -0.08435512479706482 0.15274616805307525 0.19271522145646233 0.088750646882900297 -0.056239035386634252 0.1146476588014429 0.10808092096280267 0.15120055874677329 0.18821754261811785 0.19103707633826789 0.13109553051941 0.12625212702241589 0.16310131823456178 0.050806894014122653 0.29189484407366922 0.16917890105444233 0.25976403692299682 0.071226359169935305 0.26800141542313294 -0.081526200029954574 0.24469203479226043 -0.089756345408258331 0.19776535002736273 0.12602477750832264 0.15685229065495424 0.31582688028290556 0.10281474916237708 0.19321570445266931 0.13504337237760455 -0.011799583045840001 0.095696327483960508 -0.1311724057421069 -0.0053010632305291678 -0.1013981019384656 -0.13699716635964382 0.25129582215178398 0.38428011897497116 -0.088795791772573074 0.28293342133190513 0.016068172432589543 0.16017829605291536 0.23885324440211628 -0.032271656890953231 -0.050029105245745581 0.26160313705920718 0.1582875874387312 0.006854858774262864 0.27347663561513513 -0.063290517595086318 -0.12795324159251606 -0.077895822674025963 0.20404584906586251 0.31970012245274632 -0.10802569176945603 -0.10534250081986499
leaf_weight=680.47543054446578 317.30401053279638 41.126113327220082 165.06853899918497 756.57129385508597 19.468725740909576 947.00995325297117 234.8650605417788 979.67044314742088 6930.3107478823513 3082.6409667022526 9627.9395480751991 77.183801524341106 76.649312242865562 23429.302109882236 12165.040506927297 4346.3169817961752 1829.3153796941042 189.05933119356632 7453.0441831462085 9.830771476030348 891.44057298451662 228.30373287945986 6962.0623941868544 317.07680844515562 296.96074796840549 587.85383481532335 213.55981331318617 585.94014621526003 449.3502974845469 106.59617023915052 76.468719825148582 633.92789078503847 630.52123260498047 438.61197558790445 355.06196942925453 639.03834850341082 725.93705504760146 443.0766391530633 14.847875922918318 66.964897647500038 497.86418808251619 35.321257092058659 45.719975337386131 33.677767187356949 258.9075385555625 13.917955592274664 351.41003965586424 6.831732749938964 2222.0653443261981 28.33483437821269 393.04416987299919 44.368293955922127 510.26242733001709 139.39425155520439 35.743919849395752 96.928837839514017 129.00549840927124 46.036157622933388 16.58035059273243 94.622320160269737 797.53387723490596 234.40267868898809
leaf_count=3696 1312 497 1547 5413 37 2866 1491 6414 14222 3546 28140 450 186 79060 32224 8644 2201 386 13680 31 4432 174 8736 277 1135 1969 1107 453 3039 343 185 1063 694 1190 592 1657 3883 2314 88 281 2886 194 111 14 1159 16 1653 1 1673 299 2029 96 1048 526 78 1673 832 204 32 61 7011 7393
internal_value=0 0.112901 0.137461 0.120415 0.0591024 0.113399 0.115987 -0.0309939 0.12324 0.126944 0.115535 0.126075 0.0224165 0.128644 0.122818 0.169899 0.159032 0.146927 0.153775 0.0214312 4.62581e-05 0.0497045 0.146984 0.128038 0.167139 0.187514 0.193208 0.144036 0.00369878 -0.0183904 0.0658382 0.103088 0.273213 0.0424506 0.148672 0.0368822 0.0581753 0.180523 -0.00870839 -0.0608925 -0.0725741 0.21416 0.00378858 0.226562 -0.0398148 0.201799 -0.057843 -0.0245731 0.217263 0.235808 -0.0743969 -0.0184191 0.204472 0.112089 0.091717 0.0428719 -0.0758132 0.00586833 -0.0280485 0.28225 -0.104724 -0.097823
internal_weight=0 49206 44847.8 45471.1 3843.2 2398.03 22474.9 1445.17 20587.2 20084 16558.3 41627.9 1006.76 40621.1 35594.3 5026.79 22373 16521.3 15234.7 3734.86 3110.83 1866.06 14415.1 624.023 525.264 1534.86 5851.66 1748.37 1340.79 863.167 1286.61 951.232 819.581 652.172 432.246 1887.66 1550.09 3525.72 218.657 337.574 574.514 4103.28 771.657 48.5256 335.376 405.366 1331.08 503.232 4051.38 345.412 1244.78 437.412 1096.2 778.433 102.709 261.997 170.132 59.9541 51.9016 114.091 807.365 241.234
internal_count=268644 166668 101976 146494 18756 10591 66863 8165 58836 48222 42362 127738 4114 123624 111284 12340 35113 27215 23496 20174 17947 8780 22416 2227 1309 4835 7898 3798 7471 5756 3719 2375 1080 2297 1042 8027 6177 5860 1431 1850 3072 4100 3994 102 1344 796 8067 10614 3874 576 9167 2125 1501 2183 359 3220 1329 220 226 98 7042 7394
is_linear=0
shrinkage=0.1


Tree=6
num_leaves=63
num_cat=0
split_feature=71 103 104 32 136 136 96 59 103 69 88 29 34 69 34 70 4 48 68 19 69 73 36 68 96 69 82 69 21 73 102 69 100 69 132 98 102 101 28 63 68 105 25 30 28 18 70 71 62 96 31 106 131 6 52 79 24 21 21 68 106 99
split_gain=1243.13 2446.05 1638.97 1164.27 1213.32 1157.08 1399.08 1648.33 962.642 967.853 924.431 805.977 789.526 1514.45 702.336 938.606 609.664 821.137 601.025 597.215 585.271 715.747 684.135 542.832 530.502 528.326 468.729 468.209 410.328 407.823 378.121 367.519 359.415 735.145 316.031 265.903 251.265 247.981 236.815 324.344 235.861 231.745 391.043 212.94 201.601 168.188 174.128 144.626 140.314 132.148 127.53 122.92 114.295 104.318 99.3068 95.7397 140.29 71.2386 58.4559 55.0424 0.74951 0.210498
threshold=-0.44065442681312555 -0.81693920493125904 -0.81459081172943104 0.96646276116371166 1.0000000180025095e-35 1.0000000180025095e-35 -0.97877997159957875 0.73414731025695812 -0.70435401797294606 -0.01573438290506601 -0.82733094692230214 1.2414308786392214 0.91099759936332714 -0.14817336201667783 0.91215059161186229 -0.28066085278987879 0.5509500801563264 1.0936611890792849 0.085393108427524581 1.2191541790962221 -0.069430328905582414 -0.63593885302543629 0.8888862431049348 0.0029604575829580431 -0.92175978422164906 -0.028406483121216294 -1.2669939398765562 -0.12538270652294156 1.2529258728027346 -0.83298549056053151 -0.79588970541954029 -0.078974049538373933 -0.79891180992126454 -0.012979791034013031 1.0000000180025095e-35 -0.90418958663940419 -0.80092352628707875 -0.84070736169815052 1.1641930341720583 0.49144516885280615 0.046520387753844268 -0.83181822299957264 1.2647248506546023 1.0481753945350649 1.1359454393386843 1.15938276052475 -0.28066085278987879 -0.44398902356624598 0.67250442504882824 -1.0079534053802488 0.9978296458721162 -0.99482047557830799 1.0000000180025095e-35 0.57488715648651134 1.0568206310272219 -1.1519698500633238 1.5969322919845583 1.2249154448509219 1.491338908672333 0.038819700479507453 -0.91016680002212513 -0.86808279156684864
decision_type=2 2 2 2 2 2 2 2 2 2 2 2 2 2 2 2 2 2 2 2 2 2 2 2 2 2 2 2 2 2 2 2 2 2 2 2 2 2 2 2 2 2 2 2 2 2 2 2 2 2 2 2 2 2 2 2 2 2 2 2 2 2
left_child=1 5 16 4 8 11 7 26 9 -4 35 12 13 -1 15 19 17 51 28 43 22 -22 -19 -21 31 -26 -7 -9 36 -14 37 -6 48 -34 -10 -8 -5 -17 41 54 45 44 -43 -3 -18 49 -47 57 -20 -16 -41 -2 -32 -53 -40 60 -57 -42 -12 -30 -13 -49
right_child=2 14 3 18 24 6 10 27 34 -11 58 55 29 -15 40 30 38 20 32 23 21 -23 -24 -25 25 -27 -28 -29 59 -31 52 -33 33 -35 -36 -37 -38 -39 39 50 47 42 -44 -45 -46 46 -48 61 -50 -51 -52 53 -54 -55 -56 56 -58 -59 -60 -61 -62 -63
leaf_value=0.10460296669897895 0.2067405014400252 -0.014678694694115571 0.10325068113033736 0.027092408570139732 -0.098568558523268304 -0.044676107506435997 -0.01981743608691508 0.12751569429348353 0.099351924999775132 0.15245036517948563 0.13960504581046929 -0.13612287456461089 -0.13737778037561998 0.16604154359515821 0.15222533863481194 0.21365110806740206 -0.066719678045305167 0.18347324792923 0.14217599138086678 0.010018081796693399 0.21628561734403659 0.13784846132443321 0.11150314179963079 0.18032185613302132 -0.096624251723712196 0.19937861420395445 0.16379720686732646 0.26053430308849362 0.18416300825316204 0.05312984497048389 -0.12417423701203706 0.17574040946297831 -0.039330142783994299 0.10459688720758938 -0.041954237261382921 -0.11443252477166065 -0.097630447531074444 0.1014547248523896 0.11439661375937914 0.17337169692897625 0.10304657971833452 0.14851524148574288 -0.14751107441406683 -0.11648023229838654 0.19322522164822845 -0.12127956495604847 0.24225856358296857 -0.14560919696571747 -0.15742190583962645 -0.11329626715507524 -0.13218686061028084 -0.12185812255143375 0.31731068720424782 0.033078927537302849 0.26559455957548622 0.21863576045899213 -0.046069263205957292 0.34766066481831503 0.28199065204179602 0.49674616308962938 -0.12015251219936079 -0.12345998756352244
leaf_weight=37492.409553974867 16.346502579748631 405.70318801514804 13208.863088998944 252.72183708846569 64.595909684896469 758.72418696805835 818.97250567004085 1333.8925479277968 229.41786781139672 5734.1395264249295 45.087468657642603 54.704701110720634 122.19120720773935 4492.8939743191004 19.378316670656204 271.18153094314039 30.119556764140725 1502.34550120309 563.55441592633724 888.9207469932735 1567.0056982114911 4516.3951836451888 10930.158970594406 237.07827733084559 513.61874280497432 68.319714389741421 125.72090297937393 330.10038496553898 9.365738872438671 1397.9382930062711 76.440834622830153 200.27974557876587 639.16900861263275 797.90616902709007 510.37765570357442 466.06851661577821 447.61294833756983 720.13249649107456 182.21659909933805 16.887453764677048 35.223041340708733 809.54649997875094 47.226760804653168 416.31525092571974 3161.5381563976407 23.707886971533298 29.657781459391117 12.003100693225862 16.078362412750721 572.50775939226151 71.450981616973877 152.76076050847769 6.3512485027313224 60.732125595211983 57.037172205746174 23.092618770897388 150.56351915374398 17.984515726566315 79.981525756418705 14.135831616818903 63.494941018521786 6.6778746098279944
leaf_count=110755 20 3817 32161 1031 291 5507 4820 4400 827 7674 59 285 702 9437 35 560 119 2391 1293 4853 2072 2898 21724 547 2621 156 348 336 37 4759 632 231 3519 1944 11849 3257 3141 1950 298 14 92 1205 226 3151 2692 215 26 57 73 4184 446 755 3 176 77 31 1281 7 29 15 488 45
internal_value=0 0.0967249 0.119294 0.100558 0.108731 0.102824 0.0510479 0.0952704 0.113773 0.118144 -0.0288735 0.107503 0.108614 0.111178 0.0188371 0.0399489 0.13815 0.130305 0.0393373 -0.00143326 0.132637 0.158053 0.1202 0.0458754 -0.00847461 -0.0618734 -0.0150423 0.153904 -0.0388307 0.0378164 0.115 0.108844 0.0673934 0.0405824 0.00186619 -0.0541332 -0.0526231 0.132147 0.171759 0.0899797 -0.0701308 0.178376 0.132198 -0.0662366 0.190772 -0.089273 0.0807555 0.101684 0.133865 -0.104603 -0.0737739 -0.0575476 -0.0903065 -0.0777833 0.150442 -0.0581216 -0.0108691 0.185728 0.230661 0.372177 -0.127544 -0.137692
internal_weight=0 51495.1 46391.9 23270.2 20529.6 47755.8 3958.55 2548.44 19682.8 18943 1410.11 43797.3 43505.4 41985.3 3739.26 3022.12 23121.8 18745.7 2740.54 1948.02 18515.9 6083.4 12432.5 1126 846.814 581.938 884.445 1663.99 723.836 1520.13 1074.11 264.876 2016.71 1437.08 739.796 1285.04 700.335 991.314 4376.02 327.592 717.14 4048.43 856.773 822.018 3191.66 645.252 53.3657 71.8885 579.633 591.886 88.3384 229.839 82.7921 213.493 239.254 291.856 173.656 53.2076 125.069 23.5016 118.2 18.681
internal_count=268644 166668 101976 66863 55810 146494 18756 10591 52511 39835 8165 127738 125653 120192 20174 15513 35113 30036 11053 12368 29085 4970 24115 5400 3299 2777 5855 4736 4224 5461 3145 522 6829 5463 12676 8077 4172 2510 5077 835 4661 4242 1431 6968 2811 4460 241 201 1366 4219 460 951 635 931 375 2085 1312 99 88 52 773 102
is_linear=0
shrinkage=0.1


Tree=7
num_leaves=60
num_cat=0
split_feature=71 103 104 33 75 96 72 32 136 122 69 100 4 102 96 69 18 29 5 49 103 72 69 101 71 34 120 70 67 129 105 69 131 71 33 73 130 107 101 98 64 102 19 103 107 101 50 103 69 31 70 32 128 101 30 102 47 81 76
split_gain=1120.46 1783.15 1152.9 899.821 919.484 1034.48 1449.57 876.432 788.342 805.749 609.077 606.645 584.732 524.277 522.05 530.199 493.957 478.328 622.456 553.334 608.445 586.309 453.115 424.218 407.899 397.959 380.07 334.638 296.973 332.623 284.459 274.793 294.355 269.561 263.524 243.387 226.665 223.146 203.89 233.767 194.286 177.546 168.786 166.671 163.979 148.666 138.144 115.722 108.98 89.6815 85.4986 77.4591 67.6371 40.893 38.38 36.38 15.3731 20.3231 0.596109
threshold=-0.42829892039299006 -0.80192083120346058 -0.81459081172943104 0.93281778693199169 -1.2080019712448118 -1.0197222828865049 -0.64658638834953297 0.96699732542037975 1.0000000180025095e-35 -2.0031266212463374 -0.01573438290506601 -0.8530844748020171 0.62248158454895031 -0.82667288184165943 -0.92175978422164906 -0.047105895355343812 1.1403521895408633 1.1039691567420962 0.53772512078285228 1.1488047242164614 -0.80584415793418873 -0.55413651466369618 0.0030991935636848216 -0.76782205700874318 -0.44742822647094721 0.93440577387809765 -1.1483044028282163 -0.19034428149461743 0.16936714947223666 1.0000000180025095e-35 -0.83441272377967823 -0.1119299679994583 1.0000000180025095e-35 -0.43540146946907038 0.93567666411399852 -0.7830720543861388 1.0000000180025095e-35 -0.96828752756118763 -0.83108341693878163 -0.76955065131187428 0.43071688711643225 -0.74324461817741383 1.1652322411537173 -0.8333148956298827 -0.93142604827880848 -0.8231925070285796 1.1883174180984499 -0.82788953185081471 -0.078974049538373933 1.0041206479072573 -0.14956976473331449 0.96892571449279796 1.0000000180025095e-35 -0.5812871754169463 1.0676624178886416 -0.81799694895744313 1.1036385893821719 -1.445090591907501 -1.0313249230384824
decision_type=2 2 2 2 2 2 2 2 2 2 2 2 2 2 2 2 2 2 2 2 2 2 2 2 2 2 2 2 2 2 2 2 2 2 2 2 2 2 2 2 2 2 2 2 2 2 2 2 2 2 2 2 2 2 2 2 2 2 2
left_child=1 3 17 4 49 12 -7 8 9 53 -11 28 -6 24 48 -16 37 18 19 20 -2 -21 23 27 26 36 -5 -9 29 55 38 32 -18 43 -35 -32 -20 46 47 -40 -33 52 -26 -15 -25 -39 -13 -19 -10 54 -43 -37 -24 -4 -1 -3 -30 -58 -27
right_child=2 11 7 13 5 6 -8 22 14 10 -12 16 -14 33 15 -17 31 30 25 21 -22 -23 41 44 42 58 -28 -29 56 -31 35 40 -34 34 -36 51 -38 45 39 -41 -42 50 -44 -45 -46 -47 -48 -49 -50 -51 -52 -53 -54 -55 -56 -57 57 -59 -60
leaf_value=-0.11843440072968102 0.10915148429103699 0.017982470660260052 -0.0016905341416102446 0.14001506086206361 0.1916624196157232 0.070628604819599719 0.10523175292265424 0.0046811336385125272 -0.018024887421558458 0.091266554950897361 0.1292193223651221 -0.016436121248156393 0.11441923159739989 0.23697440754651844 -0.11672192542594007 0.094608744162117911 -0.011618521860169519 0.14630376862920366 0.16530116747512974 0.047266215383451222 0.016252561667160121 0.13969974777467331 0.12597229513776406 0.51112827243392311 -0.15440130374247696 -0.13545304351212645 -0.073148290234189312 0.11182190709058069 0.29072413112254175 0.2444487417318241 0.16486604895226661 0.22243256078995738 0.34125070795222523 0.11086581437253151 -0.074680277875372195 -0.1268475269709772 -0.018297425528203955 0.014874644489801551 0.020772968223621437 0.13585082798644529 0.014154756190799865 -0.14597755225350156 0.1391565641075142 -0.10761875751343891 -0.087651488683776785 -0.10259616887858428 0.27601075944253589 0.0098524614045120279 0.15068371193813951 0.14294069977332344 0.069099381234238005 0.16254985740918212 0.22665587769837869 -0.10395530183232593 0.08485446272862382 -0.13497905594873047 0.15169793300358528 0.24192482290633457 -0.16765695748598811
leaf_weight=238.07089356891811 2750.0301979072392 20.782327013090253 49.56571945361793 119.92427034676075 1186.9631449505687 26766.836403982714 22103.010023137555 1001.4072029180825 46.868913874030113 12572.431467177346 6371.3707200344652 39.698088236153126 5621.2031221017241 14.512924332171677 390.73680887743831 170.52905727922916 680.50423417985439 557.74670523405075 4742.7910239621997 752.10690769553185 948.07221698015928 7834.1094989851117 137.89562799036503 4.6270115524530402 20.420314818620682 36.881959229707718 276.4925012588501 411.23141410201788 32.936373651027679 43.815959315747023 43.023450791835785 109.76808243989944 24.490529753267765 166.48930320888758 141.68649501726031 132.19409108161926 68.209961852058768 124.72583981603384 582.04320351779461 253.36281498521566 75.656937547028065 22.406796157360077 479.4924265705049 427.23429634422064 395.82811965793371 790.78952800296247 27.233205452561378 69.947324514389038 209.15767826139927 14.795443594455717 105.54563895612955 9.9445033892989141 129.27011480927467 185.21904595941305 9.6640357375144941 61.744747076183558 36.5958331823349 78.543304562568665 6.8090506494045249
leaf_count=2966 4491 439 527 257 1463 90826 52758 5052 175 29359 12337 128 14400 22 2204 518 3932 874 4552 2194 2575 6844 207 8 94 202 1426 1101 7 32 39 137 51 375 723 610 242 415 2134 439 301 116 928 2866 2454 6469 9 208 234 9 307 30 103 6914 17 452 41 22 29
internal_value=0 0.0850056 0.106475 0.0883419 0.0904863 0.0913666 0.086279 0.0910482 0.0976504 0.101749 0.104031 -0.00446889 0.127886 0.0154748 0.00146561 -0.0525135 -0.0248147 0.124707 0.129655 0.117674 0.0853352 0.131603 0.0312631 0.0101167 0.0670935 0.15997 -0.00866197 0.0358707 0.134389 0.0217679 0.0732535 0.0291299 0.00063966 -0.0462213 0.0255594 -0.0435236 0.162698 -0.0737063 0.0880322 0.0556739 0.137451 0.128299 0.127165 -0.0962977 -0.080733 -0.0865925 0.102556 0.131098 0.119799 -0.0962208 0.0314355 -0.1066 0.174689 -0.0823661 -0.110504 -0.0964596 0.23048 0.213247 -0.140472
internal_weight=0 59734.1 40991.4 57586.8 55940.5 55678 48869.8 22204.1 19995.9 19178.6 18943.8 2147.28 6808.17 1646.25 817.292 561.266 1872.87 18787.3 17139 12284.3 3698.1 8586.22 2208.21 1813.09 896.33 4854.69 396.417 1412.64 274.419 126.343 1648.26 890.42 704.995 749.923 308.176 185.162 4811 982.447 1463.1 835.406 185.425 395.118 499.913 441.747 400.455 915.515 66.9313 627.694 256.027 262.53 127.952 142.139 267.166 234.785 247.735 82.5271 148.076 115.139 43.691
internal_count=268644 181565 87079 169130 162439 159447 143584 61616 52268 49137 41696 12435 15863 6691 3131 2722 11442 25463 21129 16104 7066 9038 9348 8615 2705 5025 1683 6153 993 923 4334 4421 3983 3986 1098 679 4794 7021 3655 2573 438 733 1022 2888 2462 6884 137 1082 409 2992 423 640 310 7441 2983 891 70 63 231
is_linear=0
shrinkage=0.1


Tree=8
num_leaves=63
num_cat=0
split_feature=71 103 104 32 69 103 136 97 55 39 98 68 8 30 101 127 92 136 69 50 4 34 70 19 110 36 22 103 69 63 33 59 68 100 30 3 30 72 58 36 102 55 109 106 106 1 71 63 136 69 18 105 70 103 37 131 30 111 110 132 36 133
split_gain=1054.82 1614.06 1176.69 898.315 1213.88 976.993 826.439 1012.99 1387.97 743.003 742.719 865.684 741.853 716.635 786.628 1002.37 755.633 695.403 646.992 630.952 627.592 564.155 665.386 556.141 552.749 544.96 512.065 488.12 464.862 720.408 489.906 390.024 377.114 365.254 307.089 288.084 392.046 370.668 275.749 267.094 266.763 266.266 263.193 294.134 243.012 231.33 226.739 210.937 206.094 174.258 194.574 159.047 151.598 148.201 100.799 75.3061 43.0893 23.0424 21.2209 1.77763 1.99635 0.368291
threshold=-0.44065442681312555 -0.81850147247314442 -0.81968167424201954 0.96233761310577404 -0.047105895355343812 -0.78481435775756825 1.0000000180025095e-35 -0.94878000020980824 0.92063513398170482 0.68089580535888683 -0.82386162877082814 0.13431952893733981 0.19221343100070956 1.0995376110076907 -0.93524685502052296 -1.4251365065574644 -1.1430965662002561 1.0000000180025095e-35 -0.078974049538373933 0.87284553050994884 0.57441055774688732 0.91215059161186229 -0.27974800765514368 1.2181981205940249 -0.91575485467910755 0.91648250818252575 1.3640251159667971 -0.94689619541168202 -0.095251142978668199 0.51421162486076366 0.92076075077056896 0.77022793889045726 0.021370749920606617 -0.84038820862770069 1.0481753945350649 0.47943164408206945 1.0535610318183901 -0.56004932522773732 0.88934022188186657 0.8888862431049348 -0.79660910367965687 1.0014195442199709 -1.0185742974281309 -0.90937429666519154 -0.92092865705490101 0.31510122120380407 -0.45237268507480616 0.5042531192302705 1.0000000180025095e-35 -0.10383701324462889 1.15938276052475 -0.91002187132835377 -0.28066085278987879 -0.79708796739578236 0.94854095578193676 1.0000000180025095e-35 1.0582486391067507 -1.1489962935447691 -1.0590837001800535 1.0000000180025095e-35 0.91341921687126171 1.0000000180025095e-35
decision_type=2 2 2 2 2 2 2 2 2 2 2 2 2 2 2 2 2 2 2 2 2 2 2 2 2 2 2 2 2 2 2 2 2 2 2 2 2 2 2 2 2 2 2 2 2 2 2 2 2 2 2 2 2 2 2 2 2 2 2 2 2 2
left_child=1 6 28 12 5 24 13 8 44 57 38 -12 42 14 19 -16 51 25 -19 -1 -10 22 23 34 -5 -14 -25 -18 29 32 39 59 41 -32 -3 37 -37 -33 -6 -31 48 -2 43 -4 -8 -7 -11 -34 -24 50 56 -15 -52 54 -51 -42 -23 -9 -44 61 -61 -30
right_child=2 21 3 4 10 45 7 9 20 46 11 -13 17 16 15 -17 27 18 -20 -21 -22 49 40 26 -26 -27 -28 -29 31 30 33 35 47 -35 -36 36 -38 -39 -40 -41 55 -43 58 -45 -46 -47 -48 -49 -50 53 52 -53 -54 -55 -56 -57 -58 -59 -60 60 -62 -63
leaf_value=0.039916787001182584 0.090477331667395106 8.7380271212365124e-06 0.032730995452934085 -0.017963710161488056 0.053234553743971735 0.13208325297202278 0.14340683701076573 0.21348016391549343 0.3036105484444479 -0.088416802898181407 -0.02643678354451371 0.094299366933821197 0.053966498372812505 0.20092070728372438 0.082838192906642322 0.016988421559926244 0.083538810325947635 -0.091174369652616147 0.073866252639196286 0.12779528384142921 0.089956297210184485 -0.11646997239644195 0.11336638263204102 0.062300060010825289 0.073492987146394448 0.10780109064258739 -0.11216881846396781 -0.060670646904006947 -0.16441724262851062 0.16013659771484656 0.066995271410798071 0.040441750392966345 0.17587002174803318 -0.049680449775394604 -0.11400565059398818 0.16481128169998294 -0.0051317955215408927 0.12464950287339077 0.13798496592582485 0.068531491814118523 -0.12169153744406423 0.16762552011536511 0.22954315520634624 -0.098325881612308541 -0.09342015214193812 -0.10285022402981957 0.0075836405878150232 0.11770922434913617 -0.13475647205643002 0.11837403467665651 -0.12060806054363769 -0.027249736300052087 0.19255487736764018 -0.1239803053681359 -0.13501977181845798 0.21484553475055829 0.03274857594357989 0.11878823894092189 0.11908293738614369 -0.17298570251226919 -0.24792808053291929 -0.14010802265209107
leaf_weight=949.84849665686488 4482.0774024352431 459.26882318779826 390.66847798787057 1113.2331870086491 470.71351082623005 44.397379361093044 47.402219880372286 97.573037050664425 146.94364269077778 860.67251909896731 998.22554131597281 1466.0210507363081 2151.2353917919099 218.15449477732182 35619.641277357936 2472.0794620513916 323.01981336995959 361.17554215714335 693.831149533391 5842.2900544926524 2135.7987963855267 496.79525672458112 1061.9403128921986 1288.1853786967695 1626.1780000329018 14933.567120244727 193.49294725060463 858.57467361539602 11.278201954439282 389.95310826599598 487.21825814992189 569.02705455571413 1205.965711042285 597.16202322021127 486.45297529920936 2611.5905936062336 143.18963242322206 6425.432991206646 2081.8721218407154 1731.9983774386346 68.096647528931499 496.97135200724006 21.509579606354237 304.89888587407768 504.06993656232953 748.83356348797679 344.50208925828338 1291.269649412483 34.565506599843502 107.25804325193167 25.075799703598022 35.524287715554237 40.30250982940197 48.847757756710052 18.390420891344547 7.3686130344867697 20.136266086250544 34.886209856718779 90.855821184813976 14.489656656980516 4.7099521607160559 13.930036537349224
leaf_count=4609 7982 3979 2861 4791 1339 208 67 46 90 5794 4171 2509 7638 151 95384 9928 849 1648 1801 10940 6975 3855 2290 5086 4476 24900 1275 4045 52 462 1039 1593 999 2688 3562 1973 408 5694 2860 3286 611 648 28 9539 4001 4124 1585 2044 197 234 238 101 33 344 105 2 244 48 64 61 20 70
internal_value=0 0.0730522 0.0933548 0.0798399 0.0529321 0.00802836 0.078091 0.0354611 0.0693136 -0.0362665 0.0845514 0.0453911 0.0919811 0.0819306 0.0841549 0.0785647 0.0123727 0.096157 0.0173655 0.115506 0.10371 0.014649 0.0311506 0.00127535 0.0363271 0.101023 0.0395161 -0.0212472 0.111504 0.0970769 0.0574227 0.12724 0.114083 0.00274262 -0.0586371 0.128587 0.155978 0.117799 0.122356 0.0853659 0.0930285 0.0981777 -0.00177704 -0.0247172 -0.0730635 -0.0897009 -0.0609748 0.145796 0.105545 -0.0638325 -0.0901001 0.168969 0.0724415 0.0238248 0.0812863 -0.0888312 -0.110657 0.188541 0.140228 -0.168445 -0.19137 -0.150984
internal_weight=0 54847.2 47973.5 27497.2 8549.47 3532.64 50491 4171.85 2834.21 1337.63 5016.83 2464.25 18947.7 46319.1 44883.9 38091.7 1435.27 18139.8 1055.01 6792.14 2282.74 4356.18 3599.37 2427.4 2739.41 17084.8 1481.68 1181.59 20476.3 10682.6 3206.33 9793.65 7476.28 1084.38 945.722 9749.24 2754.78 6994.46 2552.59 2121.95 1171.97 4979.05 807.933 695.567 551.472 793.231 1205.17 2497.24 1096.51 756.806 582.31 253.679 65.3783 174.496 125.648 75.4653 516.932 132.459 112.365 44.4078 19.1996 25.2082
internal_count=268644 166668 101976 72957 24478 13599 144613 18606 11133 7473 10879 6680 48479 126007 120861 105312 5146 35987 3449 15549 7065 22055 17002 13902 9267 32538 6361 4894 29019 19148 7475 9871 11673 3727 7541 9668 2381 7287 4199 3748 3100 8630 12492 12400 4068 4332 7379 3043 2487 5053 4370 252 271 683 339 613 4099 94 92 203 81 122
is_linear=0
shrinkage=0.1


Tree=9
num_leaves=61
num_cat=0
split_feature=72 102 98 132 80 30 70 103 33 96 105 132 69 62 99 58 104 98 135 31 68 31 31 105 47 39 37 36 70 72 102 43 64 36 133 108 33 43 72 33 44 14 31 102 129 21 56 61 90 87 5 103 81 23 104 55 56 65 96 102
split_gain=984.201 2422.47 846.942 821.532 1243.78 983.137 971.875 1238.4 1125.2 881.828 640.653 800.306 1027.47 878.205 611.504 605.453 648.636 491.436 487.228 449.018 445.532 436.296 354.884 343.2 503.427 327.833 292.095 267.045 334.57 279.949 208.137 207.056 347.754 191.502 189.37 164.543 153.962 137.638 136.123 133.742 128.299 163.387 104.989 187.366 118.326 84.3783 66.9776 257.779 66.9829 33.4665 21.7943 15.7593 2.71178 1.15589 1.03051 0.821787 0.426047 0.279709 0.251784 0.0952883
threshold=-0.58604076504707325 -0.79043951630592335 -0.86482658982276905 1.0000000180025095e-35 -0.98846617341041554 1.0673882961273196 -0.27345490455627436 -0.8122827112674712 0.93531832098960888 -1.0146706104278562 -0.8537006378173827 1.0000000180025095e-35 0.010267614852637054 0.60823902487754833 -0.88462999463081349 0.87559616565704357 -0.83244287967681874 -0.86482658982276905 1.0000000180025095e-35 0.95292052626609813 0.092211298644542708 0.97832739353179943 0.99794745445251476 -0.83094796538352955 1.2052089571952822 0.99704545736312877 0.94195926189422619 0.8888862431049348 -0.25897975265979761 -0.56910085678100575 -0.76760029792785633 1.0531130433082583 0.40190243721008306 0.98073720932006847 1.0000000180025095e-35 -0.89476606249809254 0.94739496707916271 1.1107116341590884 -0.58792021870613087 0.94089844822883617 1.08011931180954 0.89897173643112194 1.0016649365425112 -0.8214224874973296 1.0000000180025095e-35 1.18491667509079 0.98271381855010997 0.71031454205513012 -1.2524488568305967 -1.1190866231918333 0.62941119074821483 -0.90400752425193776 -1.2608820199966428 1.1492326259613039 -0.73964619636535633 1.0307278633117678 0.98935401439666759 0.40986789762973791 -0.90312016010284413 -0.75735524296760548
decision_type=2 2 2 2 2 2 2 2 2 2 2 2 2 2 2 2 2 2 2 2 2 2 2 2 2 2 2 2 2 2 2 2 2 2 2 2 2 2 2 2 2 2 2 2 2 2 2 2 2 2 2 2 2 2 2 2 2 2 2 2
left_child=1 3 26 6 5 19 7 9 14 -1 15 12 13 -12 -8 16 21 -10 -18 -5 25 -4 -9 24 -13 31 34 29 -29 -17 39 54 -33 -14 40 -7 42 56 50 45 52 -42 44 -44 -28 -22 48 -48 -27 -36 -6 -51 -2 -25 -3 59 -38 -41 -57 -32
right_child=2 20 10 4 38 35 8 22 17 -11 11 23 33 -15 -16 27 18 -19 -20 -21 30 -23 -24 53 -26 46 36 28 -30 -31 55 32 -34 -35 49 -37 37 -39 -40 57 41 -43 43 -45 -46 -47 47 -49 -50 51 -52 -53 -54 -55 -56 58 -58 -59 -60 -61
leaf_value=0.091578640068532044 -0.15144437591524346 -0.12377671637298038 0.10155227654725403 0.087458926112858326 -0.16287092031206546 -0.13110344529838699 0.14950069223090998 0.01340323173392265 0.049912211058548525 0.056245584741313005 0.14045446405848647 -0.089182875553300178 0.14735763067836807 0.053586470386849473 0.091855926797505233 -0.14767551637126114 -0.017823252897210609 -0.069333102640934077 0.14041956074631995 0.16437652430813821 -0.051449291620924778 0.05240866542327547 -0.089723109741050022 -0.10403860766836136 0.07379634994336047 0.12057159068498312 0.1709531651218123 -0.046482790542816531 0.11274512811693456 0.19970143982149163 -0.1466031840522915 0.16109706763950168 -0.026589374174810443 0.041065450710705553 0.19164902975800446 0.44064447919687533 -0.13625396217623592 0.16445720417012016 0.13028551155389129 -0.15087283901106852 -0.11242697288894894 0.13297858030708781 0.16269680201346118 0.053864770985186584 0.098629309337884996 0.15958862032644838 0.045008372509215071 -0.1372043903986678 -0.13476283806510331 0.17142636411617451 -0.086593679166937373 -0.0093469579224802219 -0.20021558431254599 -0.13008811559710493 -0.10236768841451541 -0.18305322633948862 -0.16409343045374106 -0.17925241357511029 -0.15913034178296953 -0.12724566936589971
leaf_weight=8642.5900770742446 24.976602906361222 137.22635565325618 6430.7843170762062 1125.0342175811529 147.05699058622122 156.74915447086096 2403.7835465669632 714.43390259332955 1853.5775786787271 38660.284981606528 1297.1245707087219 285.44975356757641 1919.7285820599645 11322.203095760196 7849.9032272137702 24.324828773736954 1043.0678734630346 424.81778945028782 239.19274905323982 2332.3518879264593 21.14396583661437 2512.2897186167538 626.1512053553015 280.36578391678631 564.00225431472063 10.494099497795103 1756.6779138743877 134.31134880334139 7543.6848235186189 501.41860618442297 8.5757957827299851 118.09424829669297 601.74688015505672 185.91598610952497 61.049133144319057 5.2005059570074073 27.636898726224899 25.53977432847023 20.009845808148384 11.356978863477709 48.371757611632347 61.780213743448257 362.78583537042141 280.49669834971428 259.64723959565163 182.22439175844193 121.15273882076144 216.18059774301946 490.16708779055625 7.079484939575198 50.261336002498865 15.126273967325686 20.974419802427292 18.135972753167152 26.888510707765818 11.860537841916086 6.8620070666074744 5.0027231872081748 6.9936457537114611 3.6148762591183177
leaf_count=22545 196 986 8198 1607 640 1130 2636 3584 5060 119478 2083 1938 1601 29895 14635 119 2971 2122 250 1656 64 5861 4273 9982 2428 18 1056 523 7525 380 44 436 3089 525 33 17 151 22 31 52 181 62 242 640 416 170 574 1349 3049 1 264 43 90 108 1439 48 31 21 33 43
internal_value=0 0.0659152 0.0861899 0.0692278 0.114115 0.128068 0.0664127 0.0600151 0.091245 0.0627012 0.0817619 0.0670362 0.0733058 0.0625155 0.10537 0.0944451 0.07821 0.0276783 0.0116953 0.139348 -0.0432553 0.0877468 -0.0347643 -0.0133839 0.0190288 -0.0613911 0.137522 0.114681 0.10996 0.183629 0.0812754 -0.0189075 0.00420171 0.137973 0.0316155 -0.112744 0.146843 -0.0115167 -0.118239 0.11552 -0.0333422 0.025212 0.150417 0.115242 0.16164 0.137647 -0.106205 -0.071763 -0.129411 0.153411 -0.143441 0.0482859 -0.173706 -0.105621 -0.120269 -0.161097 -0.141791 -0.159551 -0.174179 -0.140863
internal_weight=0 66984.9 37261 65012.2 3836.66 3619.34 61175.5 48643.5 12532.1 47302.9 34302 15872.9 14725 12619.3 10253.7 18429.1 10225.3 2278.4 1282.26 3457.39 1972.72 8943.07 1340.59 1147.95 849.452 1721.95 2959 8203.74 7678 525.743 250.773 883.956 719.841 2105.64 239.358 161.95 2719.65 60.0387 217.328 219.728 156.103 110.152 2659.61 643.283 2016.33 203.368 837.995 337.333 500.661 83.2549 197.318 22.2058 45.951 298.502 164.115 31.0449 34.4989 16.3597 18.8542 12.1907
internal_count=268644 191093 77551 179678 5345 4410 174333 149880 24453 142023 74387 48560 34104 31978 17271 25827 17280 7182 3221 3263 11415 14059 7857 14456 4366 10940 3164 8547 8048 499 475 5950 3525 2126 606 1147 2558 204 935 307 529 243 2354 882 1472 234 4990 1923 3067 77 904 44 286 10090 2425 168 182 73 81 87
is_linear=0
shrinkage=0.1


Tree=10
num_leaves=57
num_cat=0
split_feature=31 104 69 104 59 102 70 53 101 68 68 132 105 30 80 81 111 69 106 35 57 94 55 131 100 20 109 104 68 64 91 30 67 29 78 106 64 69 108 32 69 21 114 74 68 62 21 132 123 23 28 106 105 0 106 83
split_gain=941.625 1026.54 1151.09 1573.02 1085 809.816 1425.45 794.257 690.644 604.38 567.741 535.678 1311.51 714.468 766.435 694.548 1197.72 604.167 595.98 427.315 422.847 370.731 361.023 550.345 440.17 352.299 345.182 337.254 317.736 457.007 322.984 286.11 276.209 264.256 212.889 196.758 322.209 191.454 121.635 112.682 253.021 74.3791 58.995 41.1093 35.4755 24.0488 2.95457 0.402804 0.289543 0.251004 0.163831 0.254626 0.148321 0.127175 0.00869437 0.000281433
threshold=1.0010405182838442 -0.82423788309097279 -0.14719427376985547 -0.87418687343597401 0.766313135623932 -0.83636173605918873 -0.32848267257213587 0.73357951641082775 -0.83621612191200245 0.033597268164157874 0.01161889359354973 1.0000000180025095e-35 -0.84529590606689442 1.0673882961273196 -0.98846617341041554 -0.8342885673046111 -0.98454126715660084 0.010267614852637054 -0.96822044253349293 0.87185934185981762 0.81919336318969738 -0.93698412179946888 0.96236333250999462 1.0000000180025095e-35 -0.96077701449394215 1.2604123353958132 -1.0902362465858457 -0.79848584532737721 0.055787391960620887 0.41827268898487097 -1.1126619577407835 1.0605073571205141 0.2007718160748482 1.0825516581535342 -1.412865102291107 -0.90639597177505482 0.57127121090888988 -0.15018997341394422 -0.89476606249809254 0.9549049735069276 -0.13853614777326581 1.2830867767333987 -1.0318669676780698 -0.96854755282402027 0.073106899857521071 0.55705121159553539 1.1044884324073794 1.0000000180025095e-35 -0.90119004249572743 1.1492326259613039 1.2807840108871462 -0.91016680002212513 -0.95992350578308094 0.63730284571647655 -0.91355663537979115 -1.0656003355979917
decision_type=2 2 2 2 2 2 2 2 2 2 2 2 2 2 2 2 2 2 2 2 2 2 2 2 2 2 2 2 2 2 2 2 2 2 2 2 2 2 2 2 2 2 2 2 2 2 2 2 2 2 2 2 2 2 2 2
left_child=7 2 3 22 21 6 -5 42 25 -10 34 15 13 14 -13 16 18 -18 -9 20 -17 31 24 -24 -2 -6 -21 28 29 -12 -30 -4 44 -34 -3 36 -14 -7 -15 40 -36 -23 43 -1 -29 -41 -37 49 54 52 55 -52 -44 -51 -45 -49
right_child=1 10 4 5 8 37 -8 11 9 -11 27 12 35 38 -16 19 17 -19 -20 26 -22 41 23 -25 -26 -27 -28 32 30 -31 -32 -33 33 -35 39 46 -38 -39 -40 45 -42 -43 47 48 -46 -47 -48 50 -50 53 51 -53 -54 -55 -56 -57
leaf_value=0.16310042395915283 0.12402064358196177 0.23724292794513607 0.23161820683081974 -0.019377510563080926 0.10685682005725239 -0.11173577787028298 0.07973837605385474 0.083216985216360895 -0.019190881997547867 0.086073085329704702 0.088966549817233467 0.13220379962212633 -0.086384698756304862 -0.12939905494476833 0.081931691874970611 -0.0027114579488192992 0.070063444681449191 0.12904973896791669 0.03078249048778478 0.029945771374777171 0.13551967500724113 0.084394760230869614 0.042183531486249176 0.16532965587236623 0.050015232777501674 -0.009178208188050303 0.11259393516076364 -0.13070090764045394 0.12620711820212893 -0.010564769990500201 0.027593946826718938 0.1007458631369354 -0.091096266480915386 0.15607143089789288 -0.11169045853805389 -0.10385050338200857 0.097331360592560187 0.020865783345801692 0.30563009766739846 -0.068259449755016022 0.14784614508214305 -0.15317665527275412 -0.13414558301120594 -0.10741524087458698 -0.052480985013143557 -0.12722560591654011 -0.1300833546638239 -0.10869173203216816 -0.15842105719976024 -0.12244074326018176 -0.11618144338761194 -0.15175827957557045 -0.10244388369553242 -0.11018341309756773 -0.11491887716893152 -0.10668055565143258
leaf_weight=14.103554952889683 971.57450059056282 20.517574056982994 733.21327564120293 3680.0256386622787 3909.9685954600573 638.98393563367426 2395.5329390764236 2620.2194515168667 1171.5075849164277 1020.6532572358847 589.51637655869126 4225.2271953746676 203.71184620261192 160.18226946145296 10744.387285796925 239.39003100246191 40372.236518763006 1814.4591120779514 12551.337017836049 1143.6607360541821 2927.6128446273506 21.234937015920877 592.54518352076411 936.41551622748375 4651.364796563983 280.42341008037329 905.39423104375601 242.93512131273746 587.20426928251982 2121.415996722877 764.60760774463415 216.33330366760492 78.904267124831676 95.740892954170704 105.37689508125186 248.39278855361044 179.65684097073972 131.25019627809525 6.6958405226469031 85.34245028346777 58.369392484426498 34.734747100621462 1.5151039510965336 4.1014727763831607 76.159240990877151 364.87724254094064 51.90594407171011 1.5391759537160399 1.5391235575079898 8.8759126067161542 3.6490554213523856 4.4834549501538268 56.945695935748518 182.69513769261539 2.4765790477395067 1.2697990499436844
leaf_count=7 1238 12 577 14455 6911 4289 7196 4957 4829 1990 1323 3500 1420 1196 12797 753 100552 1502 38979 2764 4907 37 1426 750 10841 1191 1576 1668 758 8080 2674 465 498 236 717 9681 1323 576 14 561 145 189 8 71 473 2917 315 22 10 70 58 24 2715 2353 26 22
internal_value=0 0.048893 0.0585758 0.0417208 0.0905099 0.00745676 0.0197029 0.0706643 0.0752993 0.0298192 0.00900203 0.0712681 0.0877081 0.0938273 0.0961212 0.0671117 0.0639347 0.0726005 0.0398382 0.102048 0.125071 0.18706 0.0745183 0.117605 0.0628025 0.0990917 0.0664646 0.0213429 0.0308272 0.0110792 0.0704298 0.201802 -0.0566984 0.0444017 -0.0796229 -0.0477705 -0.00029043 -0.0891401 -0.111944 -0.0902119 -0.0191754 -0.0630419 -0.0965046 0.0599125 -0.112032 -0.116048 -0.108385 -0.109823 -0.119376 -0.109001 -0.128603 -0.135795 -0.103265 -0.110751 -0.11024 -0.107783
internal_weight=0 26576.7 21385.8 13997.7 7388.07 6845.79 6075.56 78677.7 6382.55 2192.16 5190.97 78394.5 15820.2 15136.5 14969.6 62574.3 57358.3 42186.7 15171.6 5216.06 3167 1005.52 7151.9 1528.96 5622.94 4190.39 2049.05 4556.48 4062.74 2710.93 1351.81 949.547 493.74 174.645 634.484 683.667 383.369 770.234 166.878 613.966 163.746 55.9697 283.194 22.2207 319.094 450.22 300.299 260.973 8.11718 250.032 10.9415 8.13251 58.4608 191.571 6.57805 2.80898
internal_count=268644 77022 56960 40771 16189 26516 21651 191622 14921 6819 20062 186236 30246 17507 16297 155990 145990 102054 43936 10000 5660 1268 14255 2176 12079 8102 4340 15710 12835 9403 3432 1042 2875 734 4352 12739 2743 4865 1210 4340 862 226 5386 114 2141 3478 9996 5272 107 5146 126 82 2723 2423 97 44
is_linear=0
shrinkage=0.1


Tree=11
num_leaves=63
num_cat=0
split_feature=70 63 70 104 104 101 55 69 35 103 69 136 30 71 7 54 63 68 55 30 96 129 104 69 70 33 36 11 35 64 58 130 33 68 35 71 36 26 114 57 73 30 105 105 63 64 132 56 70 66 42 52 61 127 103 99 19 48 69 132 133 34
split_gain=929.185 1333.94 1201.04 1639.19 1088.76 685.077 811.567 669.237 1534.4 832.096 747.357 666.229 639.335 634.5 564.864 530.816 512.386 1088.99 1118.14 563.005 584.261 486.739 476.73 493.148 466.89 448.342 442.619 408.486 351.088 479.221 348.503 347.056 353.636 345.128 340.168 487.613 432.544 294.424 292.256 281.447 281.408 280.169 278.977 255.494 250.818 248.645 233.941 233.17 220.323 190.484 190.339 236.59 180.83 174.856 162.46 126.929 83.8846 51.5841 36.8112 2.53828 2.32874 2.36155
threshold=-0.25897975265979761 0.50333532691001903 -0.29805135726928705 -0.83662894368171681 -0.81056088209152211 -0.83496439456939686 0.99780920147895824 -0.020969084464013573 0.94007232785224926 -0.76954814791679371 -0.063485525548458085 1.0000000180025095e-35 1.1012804508209231 -0.42829892039299006 0.1851296201348305 0.95827576518058788 0.48579455912113195 0.01161889359354973 0.99480098485946666 1.0609877705574038 -0.89706221222877491 1.0000000180025095e-35 -0.7768135368824004 -0.035151477903127663 -0.31992721557617182 0.95468977093696605 0.88182064890861522 0.68256759643554699 0.86884930729866039 0.43877398967742925 0.81239953637123119 1.0000000180025095e-35 0.9287308156490327 0.030408278107643131 0.92310532927513134 -0.39221994578838343 0.92163291573524486 1.2317848205566408 -0.87268975377082814 0.97185444831848156 -0.63593885302543629 1.0428829193115237 -0.88837847113609303 -0.83921164274215687 0.51607456803321849 0.42680159211158758 1.0000000180025095e-35 0.94303885102272045 -0.14956976473331449 0.24268757551908496 1.1307284235954287 1.1365220546722414 0.66287484765052807 -1.7187675237655637 -0.81542280316352833 -0.62595069408416737 1.1902149915695193 1.114635229110718 -0.023487984202802178 1.0000000180025095e-35 1.0000000180025095e-35 0.87125033140182506
decision_type=2 2 2 2 2 2 2 2 2 2 2 2 2 2 2 2 2 2 2 2 2 2 2 2 2 2 2 2 2 2 2 2 2 2 2 2 2 2 2 2 2 2 2 2 2 2 2 2 2 2 2 2 2 2 2 2 2 2 2 2 2 2
left_child=1 2 3 11 30 6 33 8 9 10 -6 12 -1 31 50 -13 19 18 -18 20 -4 24 23 -10 -5 39 -11 53 46 -30 54 49 -33 52 36 41 42 -19 -23 -16 -37 -36 -32 -29 -38 -35 -15 -21 -27 -7 51 -9 -3 -8 56 -52 59 -58 -24 -2 61 -56
right_child=4 5 16 21 7 13 27 14 22 26 -12 15 -14 28 25 -17 17 37 -20 47 -22 38 58 -25 -26 48 -28 43 29 -31 34 32 -34 45 35 40 44 -39 -40 -41 -42 -43 -44 -45 -46 -47 -48 -49 -50 -51 55 -53 -54 -55 60 -57 57 -59 -60 -61 -62 -63
leaf_value=0.060308908739583514 -0.16986349618285176 -0.015515584931870477 0.16177691032894681 -0.083197049746942239 0.043705147214688975 -0.08943022882624653 0.0046199104385784657 -0.094486123625282914 -0.07038888265566999 0.1213843603198493 0.10112588505221259 -0.069254266410362919 -0.016874429964070223 0.13773328603054089 0.08074065466024033 0.031977283148373802 -0.020893045924228772 0.020342069735613456 0.12052798451237089 -0.0060034327802695395 0.087615558264035387 -0.021097765108788219 -0.13982842386894187 0.057879562795264544 -0.0011629503636888601 -0.12011497169846047 -0.0076867038558539116 0.043372337633593508 0.05237740391581467 -0.11233648776050152 0.10177495795886311 0.059684634367015779 -0.078858081022767978 0.1280725783035033 -0.066042204720832762 0.11789732730905081 0.15544380429303187 0.11958205899002104 0.15082522280358002 0.12681066197340302 0.030111299119636684 0.041543977980175284 0.052171577769225978 0.1088678840205019 0.10405032178250927 -0.050289540663493851 -0.18191497422593986 0.18382056204000471 0.042498151659972568 -0.031841269172763732 0.16425124760136878 0.088599635690799705 -0.12336876691683954 -0.19563915525646913 -0.16649249590201309 -0.063292832156815082 -0.0052703133294889227 0.13900719487173344 -0.067321235382857253 -0.25923043799045681 -0.14420026521473678 -0.21460897446363086
leaf_weight=39919.162916949019 10.218163710087536 279.97856134548783 2065.7481286292896 1094.4288774542511 5126.463931132108 823.20002270676196 122.34523751959205 90.834114369004965 662.15793799608946 298.07364157773554 4063.2678908631206 668.64004855975509 1102.850821916014 424.89861199259758 5165.3969825152308 2298.8181416988373 1902.5204960796982 337.02533028274775 791.73021457344294 503.1912246607244 2186.9484201669693 161.45835671201348 423.20680316910148 547.6249973103404 1895.1998499650508 141.50141780823469 2445.3947895336896 933.69329411908984 754.72285908833146 230.60502663627267 1934.4944194406271 671.04970862716436 253.97280603647232 183.68881224840879 300.10726553574204 1457.4115393385291 1075.9477980434895 2646.202896323055 255.10027165152133 1784.0481856241822 487.24455847591162 1251.2303544729948 2739.4234809838235 1644.8532042242587 8086.909728422761 136.04372857511044 24.200203433632851 74.259496875107288 202.64046957343817 1900.0115149710327 26.188615754246712 316.54926251806319 349.52342296391726 67.74286875128746 29.596625953912735 383.56441296078265 57.393390292301774 43.611192010343075 83.900668486952782 4.6130672693252555 23.389831759035587 15.564320877194403
leaf_count=100429 54 852 2909 8278 13452 4605 311 1602 3328 1081 6423 4433 4112 460 7996 9036 6780 952 1331 1865 3085 710 2206 1349 9108 764 7811 2009 1667 1175 1920 2098 1490 196 1046 2216 730 3771 202 1854 1110 3245 4818 2198 7820 433 103 90 491 9084 17 3480 1499 296 125 7475 131 23 311 20 114 65
internal_value=0 0.0510172 0.0565303 0.049749 0.0704044 0.0147435 0.0473658 0.0554667 0.0419486 0.0546659 0.0690939 0.0549239 0.0582339 -0.00911901 0.0782171 0.00916737 0.0871178 0.0667498 0.0206648 0.111059 0.123639 -0.0170831 -0.0464426 -0.0123264 -0.0311936 0.0870503 0.00633667 0.0747228 0.0472282 0.013828 0.088961 -0.0312738 0.0216466 -0.0324265 0.0904158 0.0625453 0.0974575 0.108371 0.0841878 0.0925677 0.095902 0.0207314 0.072702 0.0851519 0.110085 0.0521809 0.120509 0.0184077 -0.0243638 -0.0492498 -0.000626308 0.0477771 -0.0753998 -0.0667476 -0.0477932 -0.0487498 0.024416 0.057025 -0.127832 -0.19766 -0.169811 -0.183075
internal_weight=0 66703.8 57903.3 47395.7 39278 8800.53 3717.87 21760.8 13650.1 11933.2 9189.73 43989.5 41022 5082.66 8110.72 2967.46 10507.6 5677.48 2694.25 4830.15 4252.7 3406.19 1716.89 1209.78 2989.63 7293.59 2743.47 2768.63 1434.43 985.328 17517.2 3648.23 925.023 949.235 17332.8 3495.99 13836.8 2983.23 416.559 6949.45 1944.66 1551.34 4673.92 2578.55 9162.86 319.733 449.099 577.451 344.142 2723.21 817.136 407.383 629.502 190.088 184.387 409.753 115.836 101.005 507.107 14.8312 68.5508 45.1609
internal_count=268644 185567 157091 136308 83077 28476 7794 59640 35961 28767 19875 118010 104541 20682 23679 13469 20783 12834 8111 7949 5994 18298 7194 4677 17386 11105 8892 4814 3405 2842 23437 17277 3588 2980 22905 7617 15288 4723 912 9850 3326 4291 6738 4207 8550 629 563 1955 1255 13689 12574 5082 2351 607 532 7492 228 154 2517 74 304 190
is_linear=0
shrinkage=0.1


Tree=12
num_leaves=60
num_cat=0
split_feature=132 105 69 104 101 61 71 134 78 101 72 54 105 31 38 105 102 38 99 31 82 110 55 101 30 54 38 82 30 63 69 106 70 69 101 56 43 58 1 69 39 97 72 104 30 66 68 4 70 38 67 33 33 36 27 99 27 23 103
split_gain=929.878 1053.45 722.242 1075.06 1048.82 721.594 1587.07 820.285 714.463 786.727 2233.55 1755.73 700.383 698.918 1134.31 737.889 625.38 554.364 549.028 527.096 499.979 422.273 356.029 349.602 345.79 341.347 381.638 331.419 312.083 306.206 292.311 395.757 287.723 256.137 316.703 333.837 222.448 291.32 218.101 208.519 200.964 198.601 181.634 162.563 154.409 127.42 118.238 117.115 81.1544 45.3839 35.1892 27.083 81.7425 19.7915 19.1133 34.097 11.6896 0.380662 0.0960619
threshold=1.0000000180025095e-35 -0.85140675306320179 -0.11486387252807616 -0.82196128368377674 -0.82842496037483204 0.66600757837295543 -0.40725490450859064 1.0000000180025095e-35 -0.86134648323059071 -0.8771628439426421 -0.66990718245506276 0.99961054325103771 -0.91735717654228199 0.95559775829315197 0.9784381389617921 -0.89109525084495533 -0.78714105486869801 0.95601049065589916 -0.83396425843238819 0.99794745445251476 -1.2035290002822874 -1.2101740837097166 0.99683186411857616 -0.85627713799476612 1.0573838353157046 0.98633131384849559 0.9250164031982423 -0.77466061711311329 1.0600463151931765 0.40621414780616766 0.0067428064066916713 -0.90710425376892079 -0.29894039034843439 -0.095251142978668199 -0.84815061092376698 0.97251713275909435 1.1728042960166933 0.93582788109779369 0.50476145744323742 -0.16244927048683164 1.0439815521240237 -0.86601433157920826 -0.49479791522026056 -0.95972776412963856 1.0667909383773806 0.26292932033538824 0.015494510531425478 0.59568727016448986 -0.25600738823413843 1.0193632245063784 -0.15229494124650952 0.88653483986854564 0.88721203804016124 0.91887658834457409 1.3356218934059145 -0.9163365066051482 1.4303665757179262 1.1492326259613039 -0.70435401797294606
decision_type=2 2 2 2 2 2 2 2 2 2 2 2 2 2 2 2 2 2 2 2 2 2 2 2 2 2 2 2 2 2 2 2 2 2 2 2 2 2 2 2 2 2 2 2 2 2 2 2 2 2 2 2 2 2 2 2 2 2 2
left_child=2 12 3 8 33 7 16 22 9 11 -11 -1 20 14 15 -14 -7 -9 -8 28 54 -16 -6 47 43 29 -27 44 32 -10 40 36 -5 34 45 -36 37 -32 41 -30 51 -35 -29 -22 -15 -4 -25 -21 -40 -38 -26 53 -53 -3 55 -2 -56 58 -33
right_child=1 30 4 19 5 6 18 17 25 10 -12 -13 13 27 21 -17 -18 -19 -20 23 24 -23 -24 46 50 26 -28 42 39 -31 31 57 -34 38 35 -37 49 -39 48 -41 -42 -43 -44 -45 -46 -47 -48 -49 -50 -51 -52 52 -54 -55 56 -57 -58 -59 -60
leaf_value=0.038760372755918392 -0.023152799551601457 -0.11874340246628508 0.11954216189120469 -0.044745937256628017 -0.013206828949567895 0.016329565052681936 0.09551961325645765 -0.04237956419390098 0.086931829822004994 -0.045954856122428028 0.041169979445591511 0.09837650362029203 0.06135261187827952 0.12763350407099969 -0.098910052604482906 -0.046919088608912737 -0.068198073587934269 0.1526030993912034 0.051902911257287757 0.15724158745509847 0.12031623458841703 0.10130764692413496 0.18192697268935523 -0.11070435825069912 -0.068024599952938289 0.14253714146414975 0.06757859315759146 -0.23797792693469721 -0.11720173845624907 -0.034834182895535942 0.062332973050907195 -0.11217600580596024 0.043829139764158191 0.11984817902440413 0.029580208398802418 0.13155565528984955 -0.12767971150797777 0.32574471948814243 0.21379065637743519 0.56801212683237956 0.18258348013489487 -0.014836365599340665 0.090134941282487224 5.5522934894302322e-05 -0.06941723048998015 -0.0070390910884693698 -0.046667208009168432 0.0050203805132439895 -0.14820263202435538 0.13371690763866895 -0.14873741377761759 0.25278467959188594 -0.15068741858704396 -0.17876761857972071 0.12971683743671508 0.16007367685576424 0.17655557312470069 -0.13736906066158713 -0.10284647066205913
leaf_weight=19950.063818477094 20.152323953807354 197.6042472794652 1285.5226360540837 525.87997672427446 669.53100521210581 5225.0513765979558 3585.4504246041179 159.29544696211815 459.38963541761041 3447.8333201259375 20075.022421041504 6565.8679963573813 1583.3171464651823 4212.7249376326799 107.33740541525185 1044.8198256455362 1051.4060777332634 1723.0956743918359 14792.570468600839 67.79890039563179 128.9633256085217 5657.0768994055688 108.67927562445402 669.16756222676486 84.671372026205063 1367.6655787006021 1349.3289857432246 38.893608763813972 6.0208446308970478 375.18521761521697 316.44974561221898 11.739331211894749 1211.8332555647939 3466.2850867956877 1639.6460066037253 399.18448442965746 60.971145957708359 48.408208180218935 7.2514939308166495 16.926751352846622 22.61906610801816 113.05333375185728 29.796633191406727 875.28319945558906 40.145421728491783 84.767686396837234 506.63062464632094 198.58791963011026 42.433606349863112 7.4540722966194144 149.1964997202158 7.348707556724551 15.85511104390025 76.082001430913806 189.72069519758224 20.475878238677979 74.091437749564648 3.3563928455114356 184.33884625323117
leaf_count=60355 39 2213 1275 4967 2469 15636 4922 451 884 14610 56578 10537 2138 2445 688 3243 5298 1162 33063 59 182 3528 121 5149 674 1673 2289 164 54 1164 1337 124 4251 2835 3740 429 853 47 1 11 23 279 19 2171 239 184 2531 594 635 4 821 9 90 508 82 3 16 17 8761
internal_value=0 0.0750583 0.0483483 0.0414251 0.0597938 0.0509245 0.0455851 0.100401 0.0447886 0.0417125 0.0283998 0.0535225 0.08186 0.0895804 0.0727558 0.018309 0.00216985 0.136103 0.0604123 -0.0148535 0.0182272 0.0975795 0.0140442 -0.0596768 -0.0100038 0.0881287 0.105311 0.122254 0.021862 0.0321916 -0.0267767 0.0125955 0.0170239 0.094216 0.0745334 0.0495461 0.0662521 0.0972816 0.112706 0.38823 -0.104745 0.115594 -0.0956483 0.0154992 0.125773 0.111712 -0.0831119 0.0437627 -0.0953701 -0.0992038 -0.119516 -0.126635 -0.0229068 -0.13543 0.133039 0.06919 0.142871 -0.103977 -0.103405
internal_weight=0 15208.9 91146.4 56793.2 34353.2 27315.1 24654.5 2660.6 53590.4 50038.8 23522.9 26515.9 14256.7 12714.1 8392.55 2628.14 6276.46 1882.39 18378 3202.85 1542.55 5764.41 778.21 1442.19 1238.11 3551.57 2716.99 4321.56 1760.66 834.575 952.227 632.718 1737.71 7038.14 3409.12 2038.83 433.283 364.858 3629.02 22.9476 319.509 3579.34 68.6902 1004.25 4252.87 1370.29 1175.8 266.387 49.6851 68.4252 233.868 296.89 23.2038 273.686 304.44 40.6282 263.812 199.435 196.078
internal_count=268644 30438 238206 165706 72500 63122 58919 4203 148090 142080 71188 70892 16452 12464 9597 5381 20934 1613 37985 17616 3988 4216 2590 8333 3848 6010 3962 2867 9283 2048 13986 11143 9218 9378 5628 4169 2241 1384 3750 65 2843 3114 183 2353 2684 1459 7680 653 636 857 1495 2820 99 2721 140 42 98 8902 8885
is_linear=0
shrinkage=0.1


Tree=13
num_leaves=55
num_cat=0
split_feature=132 33 79 108 47 98 30 109 76 32 74 30 103 37 110 28 55 30 0 77 27 72 101 105 55 126 37 37 31 24 53 120 121 108 107 44 54 70 100 101 72 26 50 55 104 41 101 24 23 105 80 105 112 53
split_gain=898.023 936.841 922.698 1063.44 666.683 672.855 755.941 671.498 1047.04 572.017 495.71 444.868 418.761 374.559 364.097 337.746 330.781 318.961 428.083 308.081 249.255 247.072 241.069 240.965 198.951 125.722 519.752 140.448 135.714 131.094 121.228 119.792 113.844 78.9554 71.3819 88.0905 61.9161 60.8398 40.6153 39.6891 3.4837 3.09082 2.55109 2.17245 1.46229 0.542435 0.391569 0.270618 0.197355 0.107405 0.0863379 0.0418477 0.033646 0.0135528
threshold=1.0000000180025095e-35 0.88518536090850841 -1.0613417625427244 -1.0618221163749693 0.77094462513923656 -0.99885371327400196 1.0995376110076907 -0.8306380808353423 -1.1963756680488584 0.90331700444221508 -0.67834576964378346 1.0673882961273196 -0.94689619541168202 0.95879408717155468 -1.2101740837097166 1.2004792690277102 0.94287618994712841 1.0302763581275942 0.70757198333740245 -1.3446530103683469 1.4175065755844118 -0.69643539190292347 -0.94978120923042286 -0.93012237548828114 0.7889818847179414 -2.201878428459167 0.93739464879035961 0.95514833927154552 0.98549595475196849 1.2670918107032778 0.88834959268569957 -0.94810310006141651 -0.98059594631195057 -0.89476606249809254 -0.84623807668685902 1.015210032463074 0.94372880458831798 -0.33432334661483759 -1.0161918401718137 -0.93944016098976124 -0.58792021870613087 1.2746450304985049 0.74949821829795849 0.86878234148025524 -0.97029650211334217 1.0461403131484988 -0.95506626367568959 1.3566199541091921 1.1492326259613039 -0.96499440073966969 -1.1276862025260923 -0.95992350578308094 -0.93420132994651783 0.718853920698166
decision_type=2 2 2 2 2 2 2 2 2 2 2 2 2 2 2 2 2 2 2 2 2 2 2 2 2 2 2 2 2 2 2 2 2 2 2 2 2 2 2 2 2 2 2 2 2 2 2 2 2 2 2 2 2 2
left_child=4 2 11 10 31 16 7 8 -7 13 40 17 24 -5 -12 -11 20 18 -2 -9 22 -14 -6 41 -8 26 29 -28 36 -25 -19 32 50 43 39 -36 -27 -30 -22 -18 -4 45 48 -13 -44 -3 -46 -43 51 -50 52 -33 -1 -52
right_child=1 23 3 9 5 6 12 19 -10 15 14 33 21 -15 -16 -17 34 30 -20 -21 38 -23 -24 25 -26 28 27 -29 37 -31 -32 42 -34 -35 35 -37 -38 -39 -40 -41 -42 47 44 -45 46 -47 -48 -49 49 -51 53 -53 -54 -55
leaf_value=-0.13448783309195705 -0.11777410388315442 -0.2312562457531088 -0.14720883458886855 -0.07775158210377188 0.10395615791202227 0.012305301182493645 -0.13273453053649728 0.038581277303346199 0.045669206024260105 0.06851237901532109 -0.054319507012731263 -0.11253797177019165 -0.091956629129007122 0.041310137767255381 0.07778138038266931 -0.16061360219802492 0.18748518789115848 0.072041342527992838 0.10780823251209576 0.095125553429660115 0.025991093886661681 0.093744381112990716 0.012154812106335192 -0.23087918829031218 0.12144712631658568 -0.021806504152727321 0.072026603632756925 0.11152350983690687 -0.20352537150201036 -0.023975628455566184 0.13273426841157981 -0.12173410674070038 0.20774936243301806 0.19221586496493537 0.12887512960999012 -0.17412382576175117 0.13110079791489143 0.032905829705918842 -0.15650483544063054 0.12436913622425604 -0.19086483145993807 -0.18938485962285412 -0.17412481172713068 -0.1446927685103602 -0.13187431303569949 -0.27109394253101632 -0.11844852524945869 -0.15540874966782894 -0.13460007987333653 -0.10943158876563702 -0.10744624656364797 -0.10264200762674301 -0.11981616777495983 -0.1141752150878525
leaf_weight=2.6933433935046196 139.31509420275688 9.0348719954490679 26.851983651518822 1395.6954342434183 1240.8609006851912 10813.345751894638 36.850249789655209 1327.2969438284636 72275.992134570144 713.13791716098785 223.68643465451896 73.596783811226487 753.56318733096123 325.929173595272 3102.5997060788795 70.713435657322407 411.69474604725838 406.24677577614784 212.34571704268456 3516.3450183160603 15.97470150887966 79.174162827432156 371.74835068359971 36.882012248039246 187.35031216591597 26.915169566869736 1295.8833095505834 2949.3250904157758 14.823374330997465 180.44771394133568 1732.9585373774171 1.170633628964423 24.20372711122036 8.6869924403727037 34.592172861099243 13.278047800064085 1644.6563575714827 40.95151112228632 51.542516753077507 131.4386729747057 57.252938196063042 4.7717268317937833 6.2669455967843524 29.40709326416254 37.743246048688889 5.4976668655872336 51.181171273812652 4.6082338690757751 1.7137391865253437 159.71739914081991 4.5936404895037404 59.532069924287498 3.7245801240205791 8.5909526348113996
leaf_count=16 443 37 125 13833 1589 32625 255 3182 184324 993 1923 788 3714 1150 4823 329 216 549 163 4269 46 115 930 153 262 50 1115 1206 65 362 1175 8 42 17 31 67 638 60 241 188 233 20 32 142 246 25 452 21 10 2223 83 2921 31 88
internal_value=0 0.0698621 0.0483245 0.0264951 0.0432617 0.0437983 0.0424266 0.0434371 0.0413272 -0.0229705 0.0628355 0.0979448 -0.0416402 -0.0552114 0.0688978 0.0478423 0.097547 0.1067 0.0184408 0.0796308 0.0749123 -0.0743007 0.0827936 0.0993878 0.0796691 0.100612 0.091745 0.0994668 0.123519 -0.0590883 0.121208 -0.0923413 0.0626709 -0.0973011 0.161893 0.0448305 0.128639 -0.0299308 -0.113326 0.172211 -0.176927 -0.217443 -0.11374 -0.121718 -0.127437 -0.246327 -0.124147 -0.172693 -0.107871 -0.109699 -0.116461 -0.10301 -0.125973 -0.111831
internal_weight=0 14732.2 8518.42 5915.87 91622.2 91261 88989.9 87933 83089.3 2505.48 3410.39 2602.56 1056.94 1721.62 3326.29 783.851 2271.13 2490.87 351.661 4843.64 1680.13 832.737 1612.61 6213.8 224.201 6189.88 4462.54 4245.21 1727.35 217.33 2139.21 361.131 43.8062 111.691 591.004 47.8702 1671.57 55.7749 67.5172 543.133 84.1049 23.9125 317.325 103.004 95.1914 14.5325 88.9244 9.37996 222.134 161.431 19.6025 60.7027 6.41792 13.1846
internal_count=268644 30438 26686 23409 238206 232054 228746 224400 216949 16305 7104 3277 4346 14983 6746 1322 3308 2330 606 7451 2806 3829 2519 3752 517 3649 2836 2321 813 515 1724 6152 260 947 502 98 688 125 287 404 358 103 5892 930 730 62 698 41 5162 2233 218 2929 47 171
is_linear=0
shrinkage=0.1


Tree=14
num_leaves=56
num_cat=0
split_feature=132 33 79 108 69 36 85 99 69 74 33 30 74 73 56 43 104 30 0 74 105 33 98 36 113 95 109 68 66 6 12 53 36 104 118 34 72 40 68 0 108 47 34 67 7 55 73 32 28 72 55 68 47 33 25
split_gain=858.694 856.44 793.482 994.783 639.196 696.78 600.988 713.418 1126.41 780.413 536.22 430.621 411.995 388.627 357.726 337.717 329.382 293.435 343.736 270.707 201.299 192.05 242.157 183.815 184.39 180.931 176.719 161.374 220.107 125.804 115.391 114.746 106.948 438.78 94.0716 91.6737 241.892 90.9277 71.8476 71.2607 67.5602 67.5192 66.5958 64.5039 44.4254 36.6945 25.2143 22.4274 5.11864 2.09222 1.75935 1.64179 0.62088 0.326752 0.0312101
threshold=1.0000000180025095e-35 0.88518536090850841 -1.0296919941902158 -1.0618221163749693 0.010267614852637054 0.97017914056777965 -0.79410898685455311 -0.80150744318962086 -0.041420942172408097 -0.89972782135009755 0.87452891469001781 1.0673882961273196 -0.67834576964378346 -0.52088046073913563 0.8987625539302827 1.1662846207618716 -0.86342471837997425 1.0302763581275942 0.70757198333740245 -0.87445139884948719 -0.93012237548828114 0.95313173532485973 -0.77869114279746998 0.98073720932006847 -1.2339688539505003 -0.89651370048522938 -1.1159733533859251 0.18972213566303256 0.37314020097255712 0.21471660584211352 0.76486998796463024 0.88834959268569957 0.92743581533432018 -0.83153116703033436 -1.2732866406440733 0.94666364789009105 -0.51401978731155384 1.0792596936225893 0.12258901819586755 0.18027601391077044 -0.89476606249809254 1.23583459854126 0.9381823241710664 0.2995790988206864 0.47934322059154516 0.97317436337471019 -0.62844690680503834 0.96729287505149852 0.99109336733818065 -0.58792021870613087 0.86878234148025524 -0.069012656807899461 1.2487835288047793 0.90345340967178356 1.2884468436241152
decision_type=2 2 2 2 2 2 2 2 2 2 2 2 2 2 2 2 2 2 2 2 2 2 2 2 2 2 2 2 2 2 2 2 2 2 2 2 2 2 2 2 2 2 2 2 2 2 2 2 2 2 2 2 2 2 2
left_child=4 2 11 12 5 6 7 8 -1 -9 26 17 49 14 -8 -14 -12 18 -2 30 51 22 -21 24 37 -23 -5 28 -25 38 47 -19 33 -31 52 44 -37 39 -22 -6 50 -39 -30 -15 -26 -34 -36 -7 -40 -4 -13 -3 -29 54 -53
right_child=1 20 3 10 23 19 13 9 -10 -11 16 40 15 43 -16 -17 -18 31 -20 21 29 25 -24 27 35 -27 -28 34 42 32 -32 -33 45 -35 46 36 -38 41 48 -41 -42 -43 -44 -45 -46 -47 -48 -49 -50 -51 -52 53 -54 -55 -56
leaf_value=0.036175221571145867 -0.087842409107621033 -0.15917874019533931 -0.1408158480637646 -0.013762507338668729 -0.16136209611523702 -0.21615762861834475 0.012452449670739307 -0.086557882603829739 0.091266546586894579 0.017955097123932579 0.094167591052487898 -0.1112580616527214 0.070092745396686931 -0.17260898556403534 0.084182528020241329 -0.082629754238270625 -0.019706824694571946 0.063027927296010672 0.10116412075121149 0.093883652839472642 0.093375539647152672 0.14275214550584375 -0.084940814976037088 0.18931024820734951 0.14558583583646678 -0.13974789932183382 -0.099641976391021736 -0.13588743294222999 0.14732601141662879 0.094795628389371944 0.11955557509885117 0.12187986453250932 -0.051941133320327473 -0.039255520416273851 0.18374915599394279 -0.24184498814785635 0.08873652459028479 0.10362529220720679 -0.27912436678404318 0.17741680938102783 0.16004875386963816 -0.17822518785504704 -0.16739887919499999 0.15330804962543601 0.10802167631283473 0.11111858813133391 0.066397887736531033 -0.14502701489591349 -0.42892045055745109 -0.17543473750935534 -0.13839564026572468 -0.20893782311134892 -0.18745798607229897 -0.23381193898641672 -0.19784978904105846
leaf_weight=71932.248405951075 173.37796207144856 8.3106019869446772 25.341610476374626 335.28462581615895 46.582057625055313 98.06879947334528 818.61044768244028 794.09907755628228 3913.2346888957545 7125.0259577864781 401.88776684552431 73.623089103028178 3123.932029126212 75.157066106796265 4614.149349052459 151.83017571177334 690.3080691806972 405.22750882059336 216.21848931536078 194.27179153263569 5.4064246714115134 26.186566427350044 124.09853726625443 25.198715597391129 531.59359299764037 168.8889180123806 839.68701438978314 9.8948245048522931 7.2829890921711913 2846.0014338642359 13.464189648628233 1815.8464463949203 13.870316386222838 267.0935670658946 51.9653080701828 23.033556580543518 566.905746743083 54.637400455772877 3.9853931851685029 7.1638102531433097 9.3490533865988237 10.06516897305846 87.492520831525326 6.60634422302246 772.12833395414054 2757.5853326059878 28.26984067261219 80.887592304497957 5.3344858139753342 56.11296546459198 35.365242511034012 5.2203855365514737 3.0554455518722525 5.4964231848716727 4.9414803981781006
leaf_count=191718 530 38 125 4192 232 411 2414 3708 5165 21768 446 857 4960 335 7757 1786 1656 602 203 276 3 24 499 34 374 1051 9519 65 3 1876 7 1379 27 561 31 98 627 94 21 1 17 67 412 1 537 1131 35 444 30 233 181 21 18 24 20
internal_value=0 0.0650227 0.0443982 0.0229297 0.0386676 0.0373583 0.0381407 0.0360356 0.0390176 0.00747494 -0.0282473 0.088644 0.0574901 0.0701175 0.0733742 0.0630141 0.0221948 0.0971013 0.0170526 -0.0616055 0.0941089 -0.0236944 0.0241791 0.0916121 0.100967 -0.101826 -0.0751358 0.00330967 -0.0733724 0.095284 -0.162766 0.111143 0.0960145 0.0832945 0.102036 0.108538 0.0758293 -0.0200733 -0.196632 -0.116206 -0.097934 0.0597805 -0.143214 -0.146275 0.123338 0.110303 0.142402 -0.184007 -0.364864 -0.164664 -0.120064 -0.195103 -0.148055 -0.21417 -0.203546
internal_weight=0 14276.6 8353.39 5624.38 92210.3 89985 89279.1 83764.6 75845.5 7919.13 2267.17 2729.01 3357.22 5514.52 5432.76 3275.76 1092.2 2610.67 389.596 705.866 5923.25 513.446 318.37 2225.27 2012.11 195.075 1174.97 213.16 119.974 5899.28 192.421 2221.07 5884.55 3113.1 93.1854 1893.66 589.939 118.448 14.7263 53.7459 118.337 64.7026 94.7755 81.7634 1303.72 2771.46 80.2351 178.956 9.31988 81.4546 108.988 23.9689 12.9503 15.6583 10.1619
internal_count=268644 30438 26686 22917 238206 235578 232866 222359 196883 25476 15813 3769 7104 10507 10171 6746 2102 2714 733 2712 3752 1850 775 2628 2030 1075 13711 598 449 3649 862 1981 3595 2437 149 1636 725 394 54 233 1055 161 415 336 911 1158 66 855 51 358 1038 103 83 65 41
is_linear=0
shrinkage=0.1


Tree=15
num_leaves=62
num_cat=0
split_feature=132 33 81 69 102 63 55 32 31 68 63 62 70 101 44 27 37 108 31 30 49 28 134 79 110 43 108 70 61 69 101 136 93 26 56 30 44 61 34 104 126 37 106 33 69 66 30 106 77 52 96 70 37 30 110 36 38 31 81 105 104
split_gain=806.674 780.718 714.927 593.747 964.785 935.613 875.074 869.136 813.186 763.65 1236.24 680.2 869.193 558.328 514.122 461.216 412.63 385.222 854.836 498.431 352.382 333.795 331.748 315.349 401.087 308.157 307.195 300.097 239.969 231.604 269.769 264.919 222.084 216.695 214.815 203.709 217.553 201.633 199.382 183.38 129.164 477.777 146.589 122.674 112.972 108.05 57.8241 167.339 104.771 47.2537 41.1997 40.9352 39.9919 38.0374 122.809 36.1195 30.8758 22.6316 8.09456 3.73444 1.33489
threshold=1.0000000180025095e-35 0.88518536090850841 -1.190527021884918 -0.11486387252807616 -0.81856712698936451 0.49530161917209631 0.99333059787750255 0.92726415395736705 1.001551687717438 0.010632212273776533 0.48191913962364202 0.59065294265747081 -0.25797359645366663 -0.84958025813102711 1.0845981836318972 1.1987417936325075 0.9356399178504945 -1.0639153718948362 0.95292052626609813 1.0558494925498965 1.1548897027969363 1.2278520464897158 1.0000000180025095e-35 -1.2532465457916258 -0.93577495217323292 1.1621233224868777 -1.0518932342529295 -0.31006795167922968 0.72662490606307995 -0.095251142978668199 -0.84815061092376698 1.0000000180025095e-35 -1.0059384703636167 1.1737377643585207 0.95727044343948375 1.0535610318183901 1.0936813950538637 0.71145617961883556 0.85311555862426769 -0.88513898849487294 -2.201878428459167 0.93739464879035961 -0.92390465736389149 0.88851013779640209 -0.14429558813571927 0.26292932033538824 1.0569435358047488 -0.90639597177505482 -1.1355077028274534 1.0063838958740237 -0.96447119116783131 -0.31006795167922968 0.91292589902877819 1.0313242673873904 -0.94804370403289784 0.9122416377067567 0.92424070835113536 0.98359048366546642 -1.2327281832695005 -0.9224334955215453 -0.87807872891426075
decision_type=2 2 2 2 2 2 2 2 2 2 2 2 2 2 2 2 2 2 2 2 2 2 2 2 2 2 2 2 2 2 2 2 2 2 2 2 2 2 2 2 2 2 2 2 2 2 2 2 2 2 2 2 2 2 2 2 2 2 2 2 2
left_child=3 2 46 5 29 6 9 28 11 10 -1 16 -13 27 -15 -11 -6 20 26 -20 38 22 -8 32 -25 -22 -19 -9 34 30 45 -32 -10 -30 -7 37 -37 -31 -4 43 41 44 -43 51 -41 -5 53 48 -48 56 -49 52 -3 54 -2 59 -42 -51 -55 -45 -23
right_child=1 39 17 4 8 7 21 13 23 15 -12 12 -14 14 -16 -17 -18 18 19 -21 25 60 -24 24 -26 -27 -28 -29 33 35 31 -33 -34 -35 -36 36 -38 -39 -40 40 49 42 -44 55 -46 -47 47 50 -50 57 -52 -53 -54 58 -56 -57 -58 -59 -60 -61 -62
leaf_value=0.03153258648014419 -0.086749502756037822 -0.17290750882876749 0.049181375768231145 0.10281142087856075 0.007009101369186122 0.011733210904971784 0.089808855743945717 -0.14280987548395405 -0.018161473955154481 -0.14230041709604979 -0.04198349379368696 -0.04192849277515516 0.043002890637805422 -0.1211521033163459 -0.028691533693508294 0.12282321807501101 0.13239769829925896 0.0075028070138610098 0.084018735251765675 -0.075272596129256075 0.080336320838786127 -0.181748801386481 -0.12485431748861592 0.0027336316772421198 0.1606403516537708 -0.042024052691235575 -0.066901688821541516 0.042700493739248092 0.025098503305875611 0.1112302651676451 0.063251490077506661 -0.010033503073965567 -0.098493534152475609 -0.20316625590402562 0.077860029373401668 -0.12586532846445866 0.075511356245035494 0.027293900314934217 -0.078905894263686382 -0.24588218401843365 -0.14732934757166272 0.095058993402555261 0.010582091328838975 -0.19736836972833943 -0.034182347156398743 -0.014344178559384496 -0.15825736670920676 0.11018884724488176 0.1492899565477929 0.12108699374931871 0.26067889445353298 0.14130521849256825 0.13862804590156641 0.12207822666411171 0.1064096435444299 -0.024894019960371522 0.070658219810078374 0.058832065686661952 0.10283810365272722 -0.26895643458392759 -0.15020922703926781
leaf_weight=43501.155608657748 42.9977852627635 10.794427841901781 216.79891235381365 1258.3891285602003 332.22482231445611 750.97512662224472 3393.8830662555993 94.012250036001205 1386.3853874802589 69.574243046343327 2414.3263841196895 1276.3576468080282 21547.32131267339 745.52204813249409 3110.5852453941479 1153.2238010689616 1249.5993546023965 1022.6474349899217 1422.2332741841674 227.91510621458292 2352.2490423591807 26.934738546609879 73.553740924224257 1026.6253159306943 190.7422505877912 225.5572943566367 1213.1969495601952 1203.7641828283668 102.4471231661737 2920.0862365579233 1469.8255982026458 742.4203388094902 457.77717634290457 70.00785486958921 1420.4798503182828 81.011926233768463 158.82021318376064 317.29153120517731 276.54508362710476 29.150723665952682 10.630442127585413 3593.4575843214989 217.86550112068653 22.603608734905716 186.35214680433273 83.975803405046463 21.215632077306509 22.669985264539719 23.178444802761078 1439.6992298290133 92.095787860453129 27.862406775355339 6.6646704375743857 384.12699039280415 140.37512768059969 13.176140874624251 16.71318294107914 60.862478345632553 507.63480404019356 10.753677964210512 26.743673615157604
leaf_count=123238 108 49 407 1252 1342 1591 5938 392 4983 301 9215 5479 44469 3848 13608 1338 901 4168 1737 1271 3263 117 576 3321 311 1983 12223 2507 196 2360 2721 1777 2285 356 2352 287 256 572 789 122 33 1872 449 96 395 184 165 61 27 561 53 10 2 104 80 29 13 74 247 47 133
internal_value=0 0.0605064 0.0407856 0.034622 0.0450155 0.0284566 0.0333361 -0.00451274 0.0365542 0.0297441 0.027667 0.0426483 0.0382533 -0.0274732 -0.0465674 0.107738 0.106063 0.0283421 0.00742314 0.0620177 0.0548113 0.0814244 0.0852553 -0.0120265 0.0274751 0.0696298 -0.03287 0.0292619 0.0459736 0.0780666 0.0601168 0.0386574 -0.0381023 -0.0675653 0.0549908 0.0964159 0.00748914 0.103004 -0.0226182 0.089115 0.0914324 0.0820394 0.0902301 -0.0510255 -0.0628186 0.0954824 0.110924 0.167179 0.00231515 0.116188 0.230952 0.0660741 -0.0539849 0.102596 0.0611172 -0.165075 -0.0140893 0.118562 0.111126 -0.220447 -0.166035
internal_weight=0 13838 8191.44 92656 34498.9 58157.2 50659.4 7497.79 27467 47138.3 45915.5 24405.5 22823.7 5153.88 3856.11 1222.8 1581.82 6957.14 3885.99 1650.15 3071.15 3521.12 3467.44 3061.53 1217.37 2577.81 2235.84 1297.78 2343.91 7031.82 3554.61 2212.25 1844.16 172.455 2171.45 3477.21 239.832 3237.38 493.344 5646.59 5554.73 4026.83 3811.32 91.8549 215.503 1342.36 1234.29 159.16 44.3941 1527.91 114.766 45.3215 17.4591 1075.13 183.373 46.5334 27.3436 1500.56 891.762 33.3573 53.6784
internal_count=268644 30438 26686 238206 72500 165706 140856 24850 63091 134092 132453 52191 49948 20355 17456 1639 2243 25841 19399 3008 6442 6764 6514 10900 3632 5246 16391 2899 4495 9409 5934 4498 7268 552 3943 3475 543 2932 1196 3752 3519 2838 2321 233 517 1436 845 306 192 681 114 61 51 539 188 172 46 635 351 143 250
is_linear=0
shrinkage=0.1


Tree=16
num_leaves=58
num_cat=0
split_feature=132 33 80 108 69 94 75 117 4 106 36 129 31 97 125 126 71 29 33 125 30 75 43 80 30 102 106 40 34 113 72 9 71 112 73 105 62 36 49 63 40 0 25 56 108 74 69 43 48 105 32 38 103 55 72 67 112
split_gain=743.253 717.677 639.32 894.706 544.931 571.695 1422.72 1185.69 798.422 1152.98 584.597 568.297 536.278 501.643 644.492 421.157 413.202 394.515 392.105 372.513 354.534 329.257 281.446 260.561 215.651 220.866 170.358 165.905 159.978 175.979 144.348 137.865 132.511 124.797 132.744 123.45 111.451 102.978 99.3548 97.8759 76.6734 59.9461 53.9375 101.073 52.0915 45.3495 41.7635 24.3434 19.2065 6.19478 2.83789 2.71893 2.39802 1.07722 0.476415 0.445596 0.180145
threshold=1.0000000180025095e-35 0.88518536090850841 -0.98846617341041554 -1.0582845807075498 0.010267614852637054 -1.0580079555511472 -1.1064082980155943 -0.934432953596115 0.60926273465156566 -0.90033355355262745 0.97017914056777965 1.0000000180025095e-35 1.0041206479072573 -0.978135585784912 -1.2569260001182554 -1.5250645875930784 -0.40119676291942591 1.225924074649811 0.87525892257690441 -1.3409986495971677 1.0673882961273196 -1.1117342710494993 1.1662846207618716 -1.2559118270874021 1.0302763581275942 -0.98517754673957814 -0.96990895271301258 1.0648157000541689 0.95037955045700084 -1.2339688539505003 -0.50543528795242298 0.25990791618824011 -0.48590648174285883 -0.99755534529685963 -0.66855907440185536 -0.91226539015769947 0.67879122495651256 0.92743581533432018 1.2109996080398562 0.53162992000579845 1.0792596936225893 0.18027601391077044 1.1760611534118655 1.0134111642837527 -0.89476606249809254 -0.67834576964378346 0.034412303939461715 0.99250134825706493 1.1966435313224795 -0.92869713902473439 0.96758183836936962 0.96509656310081493 -0.73543384671211232 0.86878234148025524 -0.51401978731155384 0.057431589812040336 -0.95107144117355336
decision_type=2 2 2 2 2 2 2 2 2 2 2 2 2 2 2 2 2 2 2 2 2 2 2 2 2 2 2 2 2 2 2 2 2 2 2 2 2 2 2 2 2 2 2 2 2 2 2 2 2 2 2 2 2 2 2 2 2
left_child=4 2 20 16 5 8 7 21 13 17 12 -11 -8 14 -1 -9 45 -10 38 -15 24 -7 -18 -12 25 -2 39 -20 29 40 50 52 47 36 -35 -26 -32 -34 -5 49 41 -6 43 -31 53 -4 -42 -33 -44 55 56 -51 -28 -22 -52 -3 -30
right_child=1 26 3 18 28 6 10 15 9 11 23 -13 -14 19 -16 -17 22 -19 27 -21 44 -23 -24 -25 35 -27 31 -29 30 42 33 32 37 34 -36 -37 -38 -39 -40 -41 46 -43 48 -45 -46 -47 -48 -49 -50 51 54 -53 -54 -55 -56 -57 -58
leaf_value=0.15314086694918036 0.1219154325683556 -0.14803080917462894 -0.15930712910887837 -0.10643667730236694 -0.15448622013696511 -0.099872102784686001 0.034462069408951863 0.080351097398533231 0.10866044036037997 0.0045326383067531301 -0.12513098003088521 0.079047798912453809 0.010758264593477194 0.08752956934901962 -0.080117126446129019 -0.020556046416381205 0.057971244512911205 -0.068001419140250069 -0.014196108537670069 0.019374214886990676 -0.10970628870413782 -0.02792770903515886 -0.076421325619609001 -0.0015083787926906476 0.059779494585425967 -0.02727318315655345 -0.35806580740934812 0.10862606532827451 -0.24020201553965315 0.048444872792269618 0.18778570687088866 0.034176039877423563 0.07511782077825091 -0.012455684089308616 0.14028800801178143 0.110856135038024 -0.10304378264659607 0.10310832209473397 -0.015310175020035822 0.060182445140872259 -0.17593364628171895 0.16210237206608868 0.12400505196392522 0.1100276978178753 0.12048294834321027 -0.045300337253858826 0.069417762852409637 -0.18961549509603365 0.18693797015038696 -0.22163650041251512 -0.16188719520190664 -0.31456150757804063 -0.25520850206223805 -0.13088237030269775 -0.19787530459002431 -0.18580943670433209 -0.2676452581222078
leaf_weight=1280.3860815241933 145.6656484939158 4.1591807603836122 95.563579007983208 716.70163475442678 45.602579593658447 1585.6353449784219 59045.337686474435 948.6365259885788 2007.7303801849484 7109.0677340077236 335.94735573604703 1195.6319182869047 11384.847689680755 2020.4837523624301 130.52821445465088 733.38594646751881 3279.7573030320928 134.90268313884735 634.0753779206425 1329.7068300358951 67.625994593836367 1062.29364920035 163.60078659374267 346.18949490785599 674.65518055483699 311.31268585845828 3.9915915429592133 133.05574387684464 4.9419336915016174 385.38431888073683 15.65484109520912 6.4031960293650654 2825.5721928626299 97.207596972584724 137.20405343174934 1584.7458349578083 83.238249614834785 2457.5898156948388 143.62280294112861 22.731703236699104 7.7273684404790393 6.8837928771972647 369.27134454250336 864.02107778936625 10.106995090842245 54.955291107296944 67.896719515323639 20.176609210669994 55.825966715812683 6.1409866958856565 5.8723097294569007 6.462015688419342 5.2450595758855325 37.256580747663975 9.8462824597954732 12.521377772092817 4.6356202661991137
leaf_count=922 115 21 432 7229 236 8062 145151 1313 2836 25756 1394 1504 34088 2950 423 2377 5701 528 1473 3175 904 3790 2089 1309 1218 797 20 153 21 548 8 11 2298 225 109 1044 360 1157 5165 22 37 1 186 614 17 138 164 91 32 25 26 30 26 211 41 51 20
internal_value=0 0.056273 0.0373894 0.0166404 0.0310982 0.0299151 0.0263495 -0.0293028 0.0476024 0.0321347 0.0297381 0.0152606 0.0306304 0.0815433 0.131561 0.0363541 0.0444967 0.0975376 -0.0448739 0.0604784 0.0756525 -0.0710095 0.051586 -0.0623916 0.0829331 0.0202819 0.0845851 0.00710689 0.0807238 0.0928587 0.0197242 0.0863463 0.0870178 0.0372028 0.0769471 0.0956047 -0.0570053 0.0881383 -0.091224 -0.0955103 -0.0201026 -0.112964 0.101501 0.0910322 -0.0963349 -0.117683 0.0443474 -0.135703 0.13227 -0.216369 -0.210576 -0.269283 -0.299658 -0.117228 -0.184431 -0.17639 -0.253485
internal_weight=0 13423.7 8052.7 5221.33 92811.9 90650.7 75442.3 4329.95 15208.4 10447.3 71112.3 8304.7 70430.2 4761.1 1410.91 1682.02 3593.88 2142.63 1627.46 3350.19 2831.37 2647.93 3443.36 682.137 2716.38 456.978 5370.99 767.131 2161.21 1802.61 358.601 5318.98 5309.74 333.305 234.412 2259.4 98.8931 5283.16 860.324 52.0153 128.11 52.4864 1674.5 1249.41 114.99 150.519 75.6241 26.5798 425.097 29.2836 25.2961 12.603 9.23665 104.883 15.7186 16.6806 9.57755
internal_count=268644 30438 26686 22380 238206 235578 197484 15542 38094 30624 181942 27260 179239 7470 1345 3690 8360 3364 14020 6125 4306 11852 7790 2703 3174 912 3752 1626 2628 1818 810 3603 3557 702 334 2262 368 3455 12394 149 438 237 1380 1162 1132 570 201 102 218 127 108 55 46 1115 67 72 41
is_linear=0
shrinkage=0.1


Tree=17
num_leaves=59
num_cat=0
split_feature=132 33 82 53 107 99 71 103 54 99 73 129 30 53 29 124 30 31 108 10 109 57 103 106 103 68 69 106 100 105 36 70 36 75 114 114 63 105 6 83 114 35 115 30 95 106 107 30 120 81 30 53 105 105 108 38 51 67
split_gain=682.32 650.589 585.844 535.498 1256.2 696.706 683.498 2184.85 1265.63 910.416 812.099 702.48 626.374 617.836 435.836 370.148 309.012 374.823 491.945 293.527 269.622 258.128 315.687 237.321 189.178 164.624 155.563 144.791 126.924 120.335 359.394 113.661 90.4629 82.8666 124.312 131.164 78.6093 76.9644 76.7298 71.7325 134.123 69.6678 69.0051 47.3782 100.738 34.5058 25.333 17.7818 165.907 8.50624 6.29829 7.6073 3.12916 2.78651 1.7574 1.19842 1.08692 0.262309
threshold=1.0000000180025095e-35 0.88518536090850841 -1.2035290002822874 0.8822133243083955 -0.89701628684997547 -0.96758908033370961 -0.49605043232440943 -0.85598590970039357 1.0015550255775454 -0.87974843382835377 -0.8175879418849944 1.0000000180025095e-35 1.0969573855400088 1.0034579634666445 1.2117369174957278 -1.0716244578361509 1.057815730571747 0.96547597646713268 -1.0618221163749693 0.75537016987800609 -0.89417618513107289 0.84900692105293285 -0.91756197810173024 -0.95244881510734547 -0.95258408784866322 -0.072290644049644456 -0.25437830388545984 -0.96990895271301258 -0.94547468423843373 -0.8708171248435973 0.92875799536705028 -0.34158232808113093 0.92743581533432018 -1.0995050668716428 -0.92699772119522084 -0.92964932322502125 0.53162992000579845 -0.90143010020256031 0.8369383215904237 -1.1105408668518064 -1.0771782994270322 0.90288200974464428 -1.4177008271217344 1.0569435358047488 -1.0224214196205137 -0.90496501326560963 -0.91989505290985096 1.0244706869125368 -0.99427765607833851 -1.2327281832695005 1.0569435358047488 0.73357951641082775 -0.92869713902473439 -0.91831171512603749 -0.90003338456153859 0.96509656310081493 0.79301598668098461 0.057431589812040336
decision_type=2 2 2 2 2 2 2 2 2 2 2 2 2 2 2 2 2 2 2 2 2 2 2 2 2 2 2 2 2 2 2 2 2 2 2 2 2 2 2 2 2 2 2 2 2 2 2 2 2 2 2 2 2 2 2 2 2 2
left_child=3 2 43 4 12 19 7 8 -7 13 -11 -9 14 -8 26 -16 17 18 -4 25 24 22 -21 -19 -14 38 -1 36 -23 31 41 46 -33 34 35 -6 52 -36 -5 40 -18 -31 -32 47 54 -46 -29 48 -2 -49 51 -35 57 -41 -45 -54 -52 -3
right_child=1 27 16 5 33 6 9 11 -10 10 -12 -13 20 -15 15 -17 39 23 -20 21 -22 28 -24 -25 -26 -27 -28 29 -30 30 42 32 -34 50 37 -37 -38 -39 -40 53 -42 -43 -44 44 45 -47 -48 49 -50 -51 56 -53 55 -55 -56 -57 -58 -59
leaf_value=-0.077768236184648273 -0.2704830281216774 -0.14183436764689436 0.045869136196466175 -0.21647062341748105 -0.14302949936230006 0.012740878698443321 0.15071720675950784 -0.069851925879394094 0.070203838105484279 -0.066213922075818846 0.029056334347642709 0.059526927324767477 0.018683982701424916 0.053103420854254603 0.099973416978250282 -0.089958470067820928 0.14291964686117384 -0.056157194457046755 -0.012672011120710119 0.074500384010863549 0.21677358395013968 0.13412232246307015 0.0038584188034903595 0.10858960384705547 -0.13814868016482898 0.12870278712307345 0.14445105706817307 -0.16806819990642888 -0.066000261496070411 -0.11080671214784338 -0.14512740129024473 0.076223724362333836 0.10485580812477238 -0.10994522566399126 0.0099551663834435769 0.24627182235420197 0.056001645456744256 -0.11751338620796031 0.12600988693743523 -0.1278638242968842 -0.083745422741873465 -0.34005336491942567 0.08009729394815332 -0.12628918457875557 0.074512739461716535 0.20841765251413591 0.085166943359016103 0.1153115172116535 0.10540766303196414 0.093087135523051034 -0.11598356797558765 -0.17087137791213447 -0.19782826729896325 -0.17008892235294959 -0.2230366804375836 -0.25813440617487576 -0.13456705897824589 -0.1715659231815172
leaf_weight=260.783212704584 13.250417456030844 3.9191583469510141 3177.8653140161186 64.569345645606518 14.011158585548399 16423.478459738195 692.94412112236023 3517.0251855086535 4999.7909907177091 911.64962378330529 48222.476171267219 476.53192213177681 103.18721926212311 10089.552596874535 1181.1834135986865 112.36907760798931 33.884754002094269 98.644080370664597 2618.0805205181241 3097.6552684381604 29.128157287836075 693.91399654746056 794.9482247531414 769.72461172938347 302.05517941340804 22.403108641505241 35.830697447061539 21.272899813950065 33.208719715476036 63.485013552010059 14.080055847764013 2650.8801363110542 1890.3947239592671 25.681589885614812 56.797118812799454 22.637220650911331 22.023870348930359 285.32115534972399 7.2792082950472823 110.61108583770692 113.71077491249889 16.755059599876404 401.8732022177428 6.9453084841370583 23.432839285582304 107.65838419646025 4.8512510508298865 366.38245671987534 103.14689590036869 324.96979667246342 34.565344870090485 101.45262609422207 6.188032388687132 18.200088605284691 2.5731556862592679 7.0488837659358978 351.83315481990576 12.219400674104689
leaf_count=1181 61 21 6966 280 71 47758 998 16642 8283 5031 114487 787 422 20965 2830 611 43 327 16416 4607 10 583 2199 556 1784 15 19 97 153 211 62 2025 758 1276 254 28 22 4267 5 832 845 97 349 63 62 61 4 116 54 174 355 434 25 99 11 30 1871 51
internal_value=0 0.0523915 0.0343811 0.0279356 -0.0142341 0.0293015 0.0272341 0.013493 0.0261517 0.0330632 0.0272887 -0.0544138 0.0293337 0.0593766 0.0584049 0.0834743 0.024308 0.0286052 0.0194256 0.0667259 -0.0770917 0.0702902 0.0600739 0.0898749 -0.0982142 -0.107974 -0.0509243 0.0801697 0.124982 0.0818648 0.0350939 0.0869459 0.0881424 -0.113085 -0.0776012 0.0974368 -0.0868233 -0.0963516 -0.181773 -0.0792989 -0.031708 -0.158676 0.0724734 0.108103 0.161674 0.184482 -0.121042 0.098777 0.0626171 0.104865 -0.139257 -0.158564 -0.193904 -0.13383 -0.152443 -0.229942 -0.132905 -0.164346
internal_weight=0 13004.1 7889.08 92964.3 2916.84 90047.4 85333.4 25416.8 21423.3 59916.6 49134.1 3993.56 2024.54 10782.5 1590.17 1293.55 6940.72 6664.31 5795.95 4713.98 434.371 4619.73 3892.6 868.369 405.242 94.2517 296.614 5114.99 727.123 5063.59 496.193 4567.4 4541.27 892.299 378.767 36.6484 51.3993 342.118 71.8486 276.407 147.596 80.2401 415.953 948.359 140.61 131.091 26.1242 807.75 116.397 691.352 513.533 127.134 29.3755 128.811 9.51846 13.2369 386.398 16.1386
internal_count=268644 30438 26686 238206 15413 222793 214951 73470 56041 141481 119518 17429 6857 21963 4641 3441 26084 24265 23382 7842 2216 7542 6806 883 2206 300 1200 3752 736 3603 719 2884 2783 8556 4620 99 149 4521 285 1819 888 308 411 602 197 123 101 405 115 290 3936 1710 127 931 74 55 2226 72
is_linear=0
shrinkage=0.1


Tree=18
num_leaves=63
num_cat=0
