tree
version=v4
num_class=1
num_tree_per_iteration=1
label_index=0
max_feature_idx=136
objective=binary sigmoid:1
feature_names=Column_0 Column_1 Column_2 Column_3 Column_4 Column_5 Column_6 Column_7 Column_8 Column_9 Column_10 Column_11 Column_12 Column_13 Column_14 Column_15 Column_16 Column_17 Column_18 Column_19 Column_20 Column_21 Column_22 Column_23 Column_24 Column_25 Column_26 Column_27 Column_28 Column_29 Column_30 Column_31 Column_32 Column_33 Column_34 Column_35 Column_36 Column_37 Column_38 Column_39 Column_40 Column_41 Column_42 Column_43 Column_44 Column_45 Column_46 Column_47 Column_48 Column_49 Column_50 Column_51 Column_52 Column_53 Column_54 Column_55 Column_56 Column_57 Column_58 Column_59 Column_60 Column_61 Column_62 Column_63 Column_64 Column_65 Column_66 Column_67 Column_68 Column_69 Column_70 Column_71 Column_72 Column_73 Column_74 Column_75 Column_76 Column_77 Column_78 Column_79 Column_80 Column_81 Column_82 Column_83 Column_84 Column_85 Column_86 Column_87 Column_88 Column_89 Column_90 Column_91 Column_92 Column_93 Column_94 Column_95 Column_96 Column_97 Column_98 Column_99 Column_100 Column_101 Column_102 Column_103 Column_104 Column_105 Column_106 Column_107 Column_108 Column_109 Column_110 Column_111 Column_112 Column_113 Column_114 Column_115 Column_116 Column_117 Column_118 Column_119 Column_120 Column_121 Column_122 Column_123 Column_124 Column_125 Column_126 Column_127 Column_128 Column_129 Column_130 Column_131 Column_132 Column_133 Column_134 Column_135 Column_136
feature_infos=[-1.7391834259033203:1.7600680589675903] [-1.6486232280731201:1.7309049367904663] [-1.5678098201751709:1.7044392824172974] [-1.4949060678482056:1.6806706190109253] [-1.4299124479293823:1.6595996618270874] [-1.3728283643722534:1.6412254571914673] [-1.333403468132019:1.7937201261520386] [-1.3043193817138672:1.9274762868881226] [-1.2702003717422485:2.0758624076843262] [-1.226288914680481:2.0974209308624268] [-1.1696058511734009:2.0165181159973145] [-1.0977727174758911:2.064321756362915] [-1.011857271194458:2.1106562614440918] [-0.91207128763198853:2.1771299839019775] [-0.8030850887298584:2.2825961112976074] [-0.68971306085586548:2.4052433967590332] [-0.63882678747177124:2.5269482135772705] [-0.65620064735412598:2.5277442932128906] [-0.66012513637542725:2.5653238296508789] [-0.66667592525482178:2.5221147537231445] [-0.8555336594581604:2.4413206577301025] [-0.86833834648132324:2.3840618133544922] [-0.86565589904785156:2.2409591674804688] [-0.70636492967605591:2.1797337532043457] [-0.6794590950012207:2.1614029407501221] [-0.84136444330215454:2.0620582103729248] [-1.1302109956741333:1.9191513061523438] [-1.5701906681060791:1.7018531560897827] [-1.8814246654510498:1.524950385093689] [-2.2033448219299316:1.3304171562194824] [-2.6534385681152344:1.1459542512893677] [-2.9375624656677246:1.0691677331924438] [-2.8855924606323242:1.0182701349258423] [-2.3245775699615479:1.0153312683105469] [-1.6179424524307251:1.0222163200378418] [-0.85442560911178589:1.096311092376709] [-0.66409575939178467:1.2523990869522095] [-0.67050886154174805:1.4357191324234009] [-0.67336314916610718:1.5244829654693604] [-0.67729061841964722:1.427788257598877] [-0.67367839813232422:1.3506048917770386] [-0.77278417348861694:1.3033223152160645] [-0.78214722871780396:1.4334096908569336] [-0.67821109294891357:1.6771683692932129] [-0.67549598217010498:1.8418123722076416] [-0.67939788103103638:1.9795904159545898] [-0.67687302827835083:1.8671952486038208] [-0.68056988716125488:1.8940913677215576] [-0.67851173877716064:2.0411467552185059] [-0.68057990074157715:2.1347439289093018] [-0.67617702484130859:2.3221406936645508] [-0.68208664655685425:2.3866791725158691] [-0.6882440447807312:2.2922041416168213] [-0.69760811328887939:2.324758768081665] [-0.68820065259933472:2.0119130611419678] [-0.66498374938964844:1.7058380842208862] [-0.63047897815704346:1.5109990835189819] [-0.6819922924041748:1.3641012907028198] [-0.88048118352890015:1.3483799695968628] [-0.69688475131988525:1.3266682624816895] [-0.62303602695465088:1.2987289428710938] [-0.62908732891082764:1.5017008781433105] [-0.65896600484848022:1.6471337080001831] [-0.67422842979431152:1.5962808132171631] [-0.93073725700378418:1.2496439218521118] [-1.1747497320175171:1.0751444101333618] [-1.3727543354034424:0.99085426330566406] [-1.6713657379150391:0.88367986679077148] [-1.7223098278045654:0.75060045719146729] [-1.8893227577209473:0.59843027591705322] [-1.7363165616989136:0.44751104712486267] [-1.6730015277862549:0.31280896067619324] [-1.5802557468414307:0.20481951534748077] [-1.5674382448196411:0.12430305778980255] [-1.4517455101013184:0.30397361516952515] [-1.6804615259170532:0.9557119607925415] [-1.8599822521209717:1.4404212236404419] [-2.0371255874633789:1.2026444673538208] [-2.1728529930114746:1.1285310983657837] [-2.2573421001434326:0.92254304885864258] [-2.3058340549468994:0.73609095811843872] [-2.3315773010253906:0.27998179197311401] [-2.3403120040893555:0.3133491575717926] [-2.3343968391418457:0.36315670609474182] [-2.3124566078186035:0.5232703685760498] [-2.2730567455291748:0.45226269960403442] [-2.2140905857086182:0.47906926274299622] [-2.1362462043762207:0.50354379415512085] [-2.0426793098449707:0.59374678134918213] [-1.9374580383300781:0.53568804264068604] [-1.8240519762039185:0.64909452199935913] [-1.8478662967681885:1.0685811042785645] [-1.6520191431045532:1.4172115325927734] [-1.5958865880966187:1.6290324926376343] [-1.5394163131713867:1.6649528741836548] [-1.4922878742218018:1.6182941198348999] [-1.4547033309936523:1.5608183145523071] [-1.4384253025054932:1.5595740079879761] [-1.4264529943466187:1.5636097192764282] [-1.5819015502929688:1.563044548034668] [-2.0638625621795654:1.5685317516326904] [-2.4619696140289307:1.5680602788925171] [-2.648137092590332:1.5700795650482178] [-2.4631106853485107:1.5662518739700317] [-2.0341367721557617:1.5674868822097778] [-1.4475361108779907:1.5623446702957153] [-1.1194825172424316:1.563502311706543] [-1.117332935333252:1.561995267868042] [-1.168958306312561:1.5723429918289185] [-1.225186824798584:1.5757462978363037] [-1.369315505027771:1.5835809707641602] [-1.6010570526123047:1.5861003398895264] [-2.1400496959686279:1.5904537439346313] [-2.4733853340148926:1.5886306762695312] [-2.4289262294769287:1.5883719921112061] [-1.9469403028488159:1.5865405797958374] [-1.577265739440918:1.5868538618087769] [-1.6321159601211548:1.611059308052063] [-1.6864286661148071:2.2872264385223389] [-1.7459897994995117:2.4594569206237793] [-1.820858359336853:2.1168181896209717] [-1.9268163442611694:1.6493175029754639] [-2.1567583084106445:1.6308574676513672] [-2.3918964862823486:1.6220458745956421] [-2.6616356372833252:1.8138364553451538] [-2.9761693477630615:2.1645474433898926] [-3.3559722900390625:3.0688047409057617] [-3.8750591278076172:4.2020993232727051] [0:1] [0:1] [0:1] [0:1] [0:1] [0:1] [0:1] [0:1] [0:1]
tree_sizes=6387 6598 5658 5042 6307 6824 6779 6785 6800 6905 6823 6936 6655 6943 6461 6338 6582 6548 6899 6920 6971 6925 6561 6484 6919 6160 6948 5851 6597 5579 5620 6693 6564 5196 6704 6927 5978 6333 4730 6956 6268 6467 6567 5583 6927 6484 6034 6920 6076 6282 6119 5911 6951 6640 5271 6638 6921 6628 6014 5542 6600 6920 6957 6884 6941 5830 5820 6146 6710 6612 6696 6910 6831 6943 6813 6827 6944 5554 5236 5321 6944 5484 6545 4307 5722 5718 6919 6634 4555 5858 6666 5050 5722 6785 5757 6950 6269 6933 4345 4973 5509 6584 6678 6642 6941 6719 6801 6946 6498 5605 6349 5551 4188 6787 4601 6152 6945 6619 6653 6689 5625 6485 6736 6621 5516 6714 6147 5716 6973 6132 4870 5825 6651 6405 4709 5954 5078 6045 5999 5605 5321 6880 6612 6660 5999 4220 6689 6850 6786 6796 6287 6216 5822 5730 6322 6297 6274 4979 4960 5717 3253 5886 5509 6600 6837 6506 6792 6026 6414 6358 6224 6291 6479 6813 6817 6128 6519 5279 5722 6371 3369 5072 6074 6372 6927 5808 6240 6722 6927 6907 6941 5829 6041 6684 6771 6246 6603 6195 5999 5929

Tree=0
num_leaves=59
num_cat=0
split_feature=106 24 36 70 132 17 132 101 129 68 101 103 122 51 21 33 104 29 4 108 69 100 105 104 133 29 105 69 68 115 34 58 80 61 111 31 50 30 115 30 34 66 100 106 107 105 66 43 36 74 12 35 72 2 6 0 0 0
split_gain=104328 75191.3 68114.9 58084.2 56792.6 34319.4 34645.2 34277.6 27322.8 26941.3 25103.1 21702.9 12483.4 11854.2 11094.3 9550.18 8396.4 8019.07 7881.6 7838.26 7304.61 8606.46 7053.76 6987.81 6685.99 5257.1 4286.59 3387.97 2824.86 2598.29 2558.68 2777.75 2549.29 2391.43 2267.81 2074.67 1936.65 1808.22 1722.72 1196.28 1173.67 1060.83 941.149 640.763 633.007 572.876 1104.88 801.051 437.648 403.464 406.894 349.45 271.332 5.68434e-14 7.10543e-15 1.77636e-15 8.88178e-16 8.88178e-16
threshold=-0.91090315580368031 1.143495559692383 0.91733378171920787 -0.27310131490230555 1.0000000180025095e-35 0.80441257357597362 1.0000000180025095e-35 -0.82761815190315235 1.0000000180025095e-35 0.11817267164587976 -0.77810573577880848 -0.81214112043380726 -1.049794018268585 1.2336956858634951 1.4954686760902407 0.9502711594104768 -0.80302327871322621 1.110648572444916 0.51160967350006115 -0.92768707871437062 -0.095139008015394197 -0.86474347114562977 -0.8534962236881255 -0.88031032681465138 1.0000000180025095e-35 1.2354341149330141 -0.97463387250900257 -0.10134132206439971 0.14464677125215533 -1.2979789972305296 0.83712759613990795 0.88953879475593578 -1.1091632246971128 0.65271523594856273 -1.2641102671623228 1.004428565502167 0.88273927569389354 1.0626428723335268 -1.4358133077621458 1.0968314409255984 0.92583021521568309 0.24712306261062625 -0.94057005643844593 -0.90552052855491627 -0.93404018878936756 -0.83135610818862904 0.39832617342472082 1.1662949919700625 0.96668472886085521 -0.55495831370353688 1.0036274194717409 0.88644701242446911 -0.35372169315814966 -0.70860064029693592 -0.69576415419578541 1.0000000180025095e-35 0.3537833839654923 -0.084198620170354829
decision_type=2 2 2 2 2 2 2 2 2 2 2 2 2 2 2 2 2 2 2 2 2 2 2 2 2 2 2 2 2 2 2 2 2 2 2 2 2 2 2 2 2 2 2 2 2 2 2 2 2 2 2 2 2 2 2 2 2 2
left_child=2 13 14 4 8 38 24 20 11 10 -9 -3 -10 45 16 -11 17 18 -1 26 21 -5 34 -19 33 39 42 -26 -24 56 41 -32 37 -7 -8 -22 -28 -6 51 -21 48 -18 -16 -34 -27 46 55 -48 -40 50 -31 -4 -53 54 -47 -2 -15 -42
right_child=1 3 5 7 32 6 22 9 12 15 -12 -13 -14 29 19 -17 30 23 -20 25 35 -23 28 -25 27 44 36 -29 -30 49 31 -33 43 -35 -36 -37 -38 -39 40 -41 57 -43 -44 -45 -46 53 47 -49 -50 -51 -52 52 -54 -55 -56 -57 -58 -59
leaf_value=-1.5780946583766422 -3.4749891388020959 -2.3023914630403466 -2.1230945304266395 -0.97959799669157688 -0.57456727063725133 -1.0936769347343063 -2.1622097039575929 -1.8981837872382674 -1.9148339720031631 -1.2076383349442574 -2.6334892216413581 -3.0885534453252879 -0.87911523524923751 -3.4749891388020959 -0.98324014674968963 -2.0011338518592892 -3.4749891388020959 -1.7015965878176151 -0.88287059874164209 -1.397478924772221 -0.85433902903036385 -1.8355253535994209 -3.0664588592034576 -2.2108053705373827 -3.3889856799248714 -0.46260980896008652 -3.3856847682501461 -2.1100806440210085 -1.289047675245889 -2.0598468100269125 -3.3188360149239751 -2.2946607671419335 -1.5075817113420062 -1.84359565521068 -0.55707026238082724 -1.4356239077604311 -2.5629280271365529 -2.0762071409565213 -2.1129487963188565 -2.0289887265039894 -3.4749891388020959 -0.82981568780872683 -2.4452525461917949 -3.4749891388020959 -3.0646113408007754 -3.4749891388020959 -1.3207602294605341 -3.4749891388020959 -0.67197215273475885 -0.44714621961511636 -0.73543899799401968 -2.4899635396225888 -3.4749891388020959 -3.4749891388020959 -3.4749891388020959 -3.4749891388020955 -3.4749891388020959 -3.4749891388020959
leaf_weight=822.94263482838869 13.70428828150034 5153.6748838201165 2.1542946845293036 193.73915658891201 215.88637541979551 72.157855853438377 8.8739335536956769 2360.4821164011955 468.54776828736067 631.96689592301846 577.97671120613813 376.82587530463934 154.82583817094564 3.7871335297822979 19.86975792050362 199.5788316950202 1.7330950051546086 1638.9798234552145 203.36287003010511 138.78418289870024 391.1844370290637 298.43887884914875 14.257838472723959 322.52677330374718 33.8635144084692 0.96680366247892635 32.611834682524204 53.343857482075691 23.981808073818684 4.1160232573747653 37.301583170890808 91.294964380562305 2.9606265872716904 103.5421589538455 1085.9344921931624 72.832146763801575 233.10246562212706 8.328329570591448 4.2764950171112996 38.267767794430256 3.3699069544672957 12.111180476844309 5.6565521508455268 3.7550391778349868 28.387299537658691 30.393351294100285 5.4077435433864585 2.5354538038372993 4.1560638174414635 12.504258908331392 5.3154335916042328 2.9566534832119933 51.607717931270599 383.75216623395681 4.4290205687284461 0.83445315062999803 0.64188703894615162 0.67398139089345921
leaf_count=10567 427 102222 39 1368 680 589 164 37606 7540 5854 13312 10335 943 118 141 3378 54 23000 1246 1540 2289 4574 388 6112 1027 2 988 959 241 72 1106 1804 36 1595 3237 835 5210 147 77 658 105 68 120 117 772 947 56 79 17 24 25 64 1608 11957 138 26 20 21
internal_value=-3.37156 -2.08299 -1.5399 -2.03073 -2.22744 -0.964438 -0.856685 -1.76498 -2.28521 -1.90061 -2.04281 -2.35596 -1.65759 -3.32545 -1.77231 -1.39808 -1.70258 -1.66682 -1.44034 -2.21089 -1.23023 -1.4986 -0.616712 -1.78532 -1.89089 -1.73947 -2.545 -2.60669 -1.95176 -1.26569 -2.45268 -2.59174 -0.687847 -1.53561 -0.570081 -0.945578 -2.66391 -0.630345 -3.13827 -1.53397 -2.07441 -1.16095 -1.30722 -2.60765 -2.97891 -3.44858 -2.95682 -2.00839 -1.40275 -0.819612 -1.31343 -3.37229 -3.42161 -3.47499 -3.47499 -3.47499 -3.47499 -3.47499
internal_weight=0 11578.4 5093.05 11111 6384.8 1465.15 1395.96 4726.2 6153.87 3770 2938.46 5530.5 623.374 467.421 3627.9 831.546 3130.25 2987.81 1026.31 497.647 956.195 492.178 1133.05 1961.51 262.907 206.406 291.241 87.2074 38.2396 26.3647 142.441 128.597 230.93 175.7 1094.81 464.017 265.714 224.215 69.1951 177.052 12.4764 13.8443 25.5263 6.71567 29.3541 441.056 22.4819 7.9432 8.43256 21.9357 9.43146 56.7187 54.5644 418.575 34.8224 14.5387 4.42902 4.04389
internal_count=268644 205125 63519 191236 122020 10131 8200 69216 121040 60150 50918 112557 8483 13889 53388 9232 43957 40925 11813 9431 9066 5942 4030 29112 4170 2972 6459 1986 629 259 3032 2910 980 2184 3401 3124 6198 827 1931 2198 220 122 261 153 774 13630 588 135 94 121 97 1711 1672 13042 1085 453 138 126
is_linear=0
shrinkage=1


Tree=1
num_leaves=61
num_cat=0
split_feature=131 105 134 71 54 70 103 52 94 129 31 54 102 31 28 60 55 111 75 73 91 103 27 54 101 4 25 5 81 30 60 68 106 55 29 103 111 85 101 127 71 60 110 77 53 30 52 4 94 93 36 73 129 24 70 68 24 70 77 52
split_gain=7301.34 11346.6 3810.22 10933 14444.9 4896.97 3885.28 3416.88 4204.05 3576.24 3137.43 2796.23 3868.56 2746.73 2356.47 2331.62 2131.18 2098.46 2023.38 1968.47 1902.53 1765.31 1546.47 1516.66 2043.31 1405.92 1349.59 1069.81 1020.19 973.239 945.7 872.707 863.253 743.231 1323 886.519 740.117 623.405 620.84 609.512 594.037 1333.47 491.191 523.672 280.946 266.852 253.454 212.445 736.543 328.453 155.585 100.88 0.946573 0.593018 0.249181 0.156001 0.0749397 0.00921878 0.00622007 3.14577e-06
threshold=1.0000000180025095e-35 -0.85599678754806507 1.0000000180025095e-35 -0.47940795123577112 1.0276700854301455 -0.25467003881931299 -0.68442341685295094 0.781507968902588 -1.0868337750434873 1.0000000180025095e-35 1.0036000013351443 1.0008236169815066 -0.91731062531471241 1.0009958148002627 1.1900990009307864 0.76746079325675975 0.93259254097938549 -1.0167917013168333 -1.1433169841766355 -0.83715534210205067 -1.1844759583473203 -0.84153750538825978 1.2819294929504397 1.0648723244667055 -0.84524294734001149 0.64081481099128734 1.2966297268867495 0.58722946047782909 -1.2314871549606321 1.0930069088935854 0.67695012688636791 0.084277972579002394 -0.91090315580368031 0.99381002783775341 1.1046587824821474 -0.84878063201904286 -1.1793558597564695 -1.2978627681732176 -0.93813100457191456 -1.7436448335647581 -0.48994895815849299 0.6844027340412141 -0.91414466500282276 -1.1043333411216734 1.063902020454407 1.0980256795883181 1.1586002111434939 0.6424289643764497 -1.1036720275878904 -1.1464658975601194 0.85803231596946727 -0.81220689415931691 1.0000000180025095e-35 1.143495559692383 1.0000000180025095e-35 0.11817267164587976 1.143495559692383 -0.34934850037097925 -1.1943491697311399 0.69015079736709606
decision_type=2 2 2 2 2 2 2 2 2 2 2 2 2 2 2 2 2 2 2 2 2 2 2 2 2 2 2 2 2 2 2 2 2 2 2 2 2 2 2 2 2 2 2 2 2 2 2 2 2 2 2 2 2 2 2 2 2 2 2 2
left_child=2 11 6 16 10 44 7 42 9 -9 17 12 28 -10 33 -7 19 -5 47 20 -4 -21 38 24 27 -24 46 -20 37 32 -12 36 -16 35 -35 -13 -8 -2 -14 -26 51 -42 43 -1 -6 -30 -25 48 49 -3 -50 -18 -44 54 -33 -55 -49 -38 -31 -58
right_child=1 18 3 4 5 15 31 8 13 -11 30 14 22 -15 29 -17 40 -19 23 21 -22 -23 25 26 39 -27 -28 -29 45 58 -32 53 -34 34 -36 -37 57 -39 -40 -41 41 -43 52 -45 -46 -47 -48 56 50 -51 -52 -53 -54 55 -56 -57 59 -59 -60 -61
leaf_value=0.75512826528562826 0.31245441511379185 0.134592312527158 0.90811795213696367 0.11435172130976268 0.067879198060003074 0.46866166101315643 1.3192146115181722 0.54269687355216856 0.29368064216957801 0.29014837724013648 0.66838548416201082 0.48736573813659101 1.0100688161662441 0.23213931216473496 0.55214471849639313 0.084226515520359133 -0.10993459154403254 0.65051290666272066 0.65322050692032918 0.67284107365626888 0.0084606341226946876 0.033549112747001467 0.59655142252165405 0.5486313118770817 0.17198369805045727 0.12881031784281427 1.6152755293638448 0.30228829670325891 0.42612746134958712 -0.11000193615868281 0.2684346286670321 -0.10356548246378444 0.84198670619339833 0.42437409373632584 0.77306189213858512 0.074909756901402794 -0.11812033839349981 0.68763596075454081 0.10827456088654018 -0.049785993849383245 0.39814243303564872 -0.10974176987011081 -0.10986863301409727 0.051408870228114349 -0.11122293004372119 0.085107724199075585 0.09100647830563624 -0.10309621704268863 0.50680246585338196 0.58995848293392639 -0.075781317454478234 0.077579013856149542 -0.13811508113762422 -0.1071827460134154 -0.16155891669426947 -0.12989023405755326 -0.10986115293509141 -0.10593285263262531 -0.11722257340935618 -0.11000193615868281
leaf_weight=13.472332134842871 48.255356978625059 34.736161034554243 25.745116766542196 75.540694631636143 113.12888819724321 465.12353964149952 8.1672519929707033 1176.3168828301132 39647.482416484505 1071.4150656089187 71.052131220698357 313.71106873080134 7.8005233705043784 8876.0424325950444 126.01472519338131 238.74542540311813 372.53109177574515 2168.5319994091988 110.11699421331286 148.75940679013729 270.25823244452477 60.867489874362946 189.23912559449673 100.38304890319705 403.4809200912714 97.303382776677608 11.836002141237257 411.44542881473899 106.86452600732446 10.910819649696348 352.06840664893389 280.78703955560923 556.78528809547424 203.78469436988235 233.49136431515217 62.492128502577543 0.69411065429448982 538.70307318121195 358.09772192686796 178.87118152156472 91.698582172393799 118.50226439535618 230.21766506135464 49.162245824933052 387.86234770715237 29.220543302595615 13.76185432076454 18.526912584900856 4.7217227220535269 29.117630913853645 157.220319673419 31.084569737315178 12.508475609123705 4.1265238970518103 0.74285643920302291 11.338518142700194 1.6121792793273915 5.8641728051006794 1.339470550417899 102.33026307821274
leaf_count=71 387 284 59 606 1096 2072 19 4986 142491 1075 323 1456 10 47319 174 2048 4566 7692 406 656 2956 653 866 246 2765 921 20 2769 296 132 2657 9241 1618 775 566 601 13 1709 3372 2515 659 1520 3569 443 5048 247 114 636 29 154 1781 343 93 66 4 64 20 118 11 1238
internal_value=0 0.425447 0.292565 0.375977 0.455554 0.168181 0.284463 0.286611 0.288617 0.422316 0.58537 0.543408 0.440289 0.282423 0.637432 0.338265 0.10073 0.632464 0.20988 0.252753 0.086709 0.487216 0.263743 0.270134 0.23262 0.437717 0.598854 0.37638 0.599596 0.772645 0.335596 -0.0675084 0.788495 0.521903 0.610562 0.418852 0.683925 0.656791 0.1275 0.103866 -0.0244993 0.111819 -0.0468973 0.202775 -0.0707799 0.352903 0.493458 -0.00290487 0.0546158 0.342241 -0.058795 -0.0954932 -0.111324 -0.104766 -0.103719 -0.123831 -0.108955 -0.107223 -0.110791 -0.11
internal_weight=0 4462.17 56379.8 4991.5 3872.05 1204.86 51388.3 51076.6 50771.3 2247.73 2667.19 2884.01 1375.48 48523.5 1508.53 703.869 1119.45 2244.07 1578.16 505.63 296.003 209.627 652.441 1229.9 1103.91 286.543 125.981 521.562 723.043 695.05 423.121 311.72 682.8 813.479 437.276 376.203 14.7255 586.958 365.898 582.352 613.817 210.201 305.361 62.6346 500.991 136.085 114.145 348.265 225.796 63.8538 161.942 403.616 242.726 296.995 281.53 15.465 122.469 6.55828 12.2503 103.942
internal_count=268644 26118 242526 32954 21542 10264 209572 200047 195871 6061 11278 13141 7808 189810 5333 4120 11412 8298 12977 4324 3015 1309 5169 8835 8455 1787 380 3175 2639 1935 2980 9525 1792 3398 1341 2057 150 2096 3382 5280 7088 2179 4176 514 6144 543 360 4142 2248 438 1810 4909 3662 9375 9245 130 1894 131 143 1258
is_linear=0
shrinkage=0.1


Tree=2
num_leaves=52
num_cat=0
split_feature=52 99 122 32 51 101 107 69 104 28 54 29 106 101 96 129 62 34 116 2 106 126 81 51 39 29 97 4 127 120 40 44 129 105 24 132 129 106 29 29 35 106 107 104 21 105 68 110 105 34 0
split_gain=3002.68 2829.97 2279.13 1825.95 1999.15 6668.61 2442.56 1366.14 1772.46 944.551 598.098 572.481 667.332 554.553 472.518 469.395 449.94 641.377 402.825 327.914 323.22 208.939 194.834 179.419 214.935 178.458 152.058 146.688 130.304 127.09 97.8216 93.4122 0.745662 0.330113 0.232553 0.152536 0.134191 0.133946 0.117654 0.0859578 0.0558808 0.0457019 0.0402805 0.0290821 0.0453613 0.0250729 0.0209097 0.0170519 0.00177043 7.58845e-05 6.23565e-05
threshold=0.781507968902588 -0.97496479749679554 -1.9763684272766111 0.96731913089752208 1.0611225962638857 -0.87724223732948292 -0.89735203981399525 0.0031704369466751818 -0.81759586930274952 1.3391049504280093 0.97083488106727611 1.2095289230346682 -0.91090315580368031 -0.58115002512931813 -0.80764156579971302 1.0000000180025095e-35 0.70521879196167003 0.86469361186027538 -0.93148833513259877 0.67031678557395946 -0.91090315580368031 -2.8281509876251216 -1.1328803896903989 0.8877340853214265 0.71563255786895763 1.2354341149330141 -0.96006390452384938 0.60257765650749218 -1.0568093657493589 -0.92964106798171986 0.61018884181976329 0.75247985124588024 1.0000000180025095e-35 -0.92347717285156239 1.143495559692383 1.0000000180025095e-35 1.0000000180025095e-35 -0.91090315580368031 1.2354341149330141 1.2414501905441286 0.8869033455848695 -0.90696901082992543 -0.86299285292625416 -0.8441382348537444 1.1954591274261477 -0.959612876176834 0.085865195840597167 -0.91414466500282276 -0.9298463463783263 0.71807855367660534 0.60610345005989086
decision_type=2 2 2 2 2 2 2 2 2 2 2 2 2 2 2 2 2 2 2 2 2 2 2 2 2 2 2 2 2 2 2 2 2 2 2 2 2 2 2 2 2 2 2 2 2 2 2 2 2 2 2
left_child=18 9 13 4 6 -6 -4 8 -5 10 11 19 -13 16 -9 20 21 -18 22 -2 -12 -3 25 24 26 28 -11 -17 35 -26 -25 38 33 39 50 -1 -32 40 41 42 -15 -24 -20 49 -45 -40 -39 -36 -41 -34 -35
right_child=1 2 3 7 5 -7 -8 14 -10 23 15 12 -14 37 -16 27 17 -19 32 -21 -22 -23 31 30 29 -27 -28 -29 -30 -31 36 -33 43 34 47 -37 -38 46 45 48 -42 -43 -44 44 -46 -47 -48 -49 -50 -51 -52
leaf_value=-0.1183967925687496 0.30767165316500755 -0.081342749838058892 0.22319679399476963 0.21734129256264315 0.36331722085900076 0.22485780695165503 0.14483339581854901 0.40949071349746574 0.044994486960516333 0.024923851745001301 0.30890567171421879 0.2678807894050686 0.57368539542205632 -0.11135245790319022 -0.12040365996721414 -0.14040920532532913 0.55857890414949318 -0.10859959060668281 -0.13163251145732285 0.19681066356747129 0.45885660155701968 0.26279433257545382 -0.12503765382758186 0.29928375228146203 0.29745538712156788 0.53414751687958029 0.28134938395660297 0.23848778066389761 0.34680743593987273 0.81015675947482524 -0.1175609355059186 0.30637439326741478 -0.13658850356500687 -0.10295785053826662 -0.11660059101378349 -0.14331329275703267 -0.1414602807315197 -0.12420018377873286 -0.11977284064035854 -0.10486851191224958 -0.10398189367820597 -0.10939708551314663 -0.11866818056726343 -0.10868451050976753 -0.13509755424626743 -0.10714765176701135 -0.10281616741877966 -0.10905816852529089 -0.11009272048746527 -0.13600355404997641 -0.1027810847373665
leaf_weight=7.9145403429865837 873.42778243124485 76.592090718448162 11526.939863044769 1040.9238270521164 3765.1984860319644 45680.424652416259 6073.2521638832986 220.72558143734932 1398.3157998435199 76.603622980415821 182.65691208094358 134.25578073039651 152.32276014238596 30.116770155727863 18.217176776379347 11.667411673814057 43.270053785294294 21.602393846958876 7.1921828240156165 384.16194394975901 674.80535113066435 22.922269377857447 10.8703729622066 6.4796800613403311 20.674455128610138 17.840802617371082 33.1252136901021 82.233318489044905 11.83046118542552 6.3106163293123236 38.222520004957914 6.5616317726671687 3.7223781645297986 33.647928584367037 3.044664852321147 3.5630714036524296 2.5032302513718596 0.45826778560876746 1.8310112543404091 1.4775530304759743 15.622034814208744 2.2559407856315383 3.59429633244872 1.0900000054389232 1.6114707700908182 11.16315826959908 209.41875717975199 193.24995343200862 1.1563691087067116 5.4867262002080679 49.045218592509627
leaf_count=73 2075 1076 40500 4033 11714 141926 36961 577 8920 606 183 485 385 358 139 67 203 478 48 904 1529 162 82 1 71 33 27 74 4 12 356 9 19 1208 30 19 16 3 38 35 456 39 46 36 10 229 7891 2587 19 29 1863
internal_value=0 0.224318 0.220466 0.221865 0.225099 0.235401 0.196156 0.140896 0.118542 0.325181 0.341299 0.302872 0.430423 -0.0117837 0.369091 0.403669 0.131503 0.33641 -0.0582001 0.273806 0.426914 -0.00207376 0.151342 0.106476 0.164514 0.296116 0.102334 0.191409 0.113918 0.417354 -0.0616099 -0.0309373 -0.109037 -0.108038 -0.107301 -0.126132 -0.11903 -0.103931 -0.115672 -0.123358 -0.108835 -0.12235 -0.127313 -0.133564 -0.12444 -0.108927 -0.102863 -0.109175 -0.107162 -0.13624 -0.102853
internal_weight=0 72823.5 70144 69724 67045.8 49445.6 17600.2 2678.18 2439.24 2679.45 2495.53 1544.17 286.579 420.003 238.943 951.363 164.387 64.8724 378.15 1257.59 857.462 99.5144 73.831 183.919 136.714 41.1489 109.729 93.9007 23.3081 26.9851 47.2054 32.6821 304.319 292.408 278.988 11.4776 40.7258 255.616 26.1205 13.4204 45.7388 13.1263 10.7865 11.9106 2.70147 12.9942 209.877 196.295 2.63392 9.2091 82.6931
internal_count=268644 262188 255397 244770 231101 153640 77461 13669 12953 6791 5702 3849 870 10627 716 1853 1919 681 6456 2979 1712 1238 526 1089 716 129 633 141 96 83 373 397 5930 5836 5688 92 372 8708 388 148 814 121 94 94 46 267 7894 2617 54 48 3071
is_linear=0
shrinkage=0.1


Tree=3
num_leaves=46
num_cat=0
split_feature=52 103 32 30 103 71 101 108 105 101 69 73 68 105 30 9 110 105 64 62 42 116 13 31 81 44 29 127 24 129 34 105 24 132 29 29 106 74 105 104 21 110 105 73 0
split_gain=1964 1667.64 1446.42 1797.69 3642.95 1714 2499.81 1636.68 1694.08 1606.21 1308.35 1162.18 909.723 830.191 476.26 438.746 358.005 343.661 377.963 352.089 603.683 330.99 273.325 247.586 120.328 71.8721 70.4371 94.3751 3.93485 0.524103 0.388666 0.240871 0.169239 0.104479 0.0821194 0.0615371 0.0320509 0.0274367 0.0199514 0.0191054 0.0308109 0.0123633 0.00131245 5.19053e-05 4.58142e-05
threshold=0.781507968902588 -0.70465943217277516 0.96402105689048778 1.0589066147804262 -0.83543124794960011 -0.38307867944240565 -0.81310400366783131 -0.91282686591148365 -0.83177971839904774 -0.79606029391288746 -0.17277863621711728 -0.78290385007858265 0.13471827656030658 -0.83721855282783497 1.0605171918869021 0.61649274826049816 -0.91514188051223744 -0.83135610818862904 0.53935062885284435 0.70521879196167003 1.132549583911896 -0.93148833513259877 0.5526619851589204 1.0008916854858401 -1.1328803896903989 0.75247985124588024 1.2354341149330141 -1.0568093657493589 1.143495559692383 1.0000000180025095e-35 0.83712759613990795 -0.92347717285156239 1.143495559692383 1.0000000180025095e-35 1.2354341149330141 1.2414501905441286 -0.90696901082992543 -0.9208383560180663 -0.959612876176834 -0.8441382348537444 1.1954591274261477 -0.91414466500282276 -0.9298463463783263 -0.923139989376068 0.60610345005989086
decision_type=2 2 2 2 2 2 2 2 2 2 2 2 2 2 2 2 2 2 2 2 2 2 2 2 2 2 2 2 2 2 2 2 2 2 2 2 2 2 2 2 2 2 2 2 2
left_child=21 2 3 7 10 6 11 13 -9 23 -5 -4 -11 -2 -6 -8 17 19 22 30 -21 24 -19 -7 26 34 27 33 -20 31 -3 35 44 -1 36 37 -26 -23 -36 43 -41 -34 -37 -31 -33
right_child=1 16 5 4 14 9 15 8 -10 12 -12 -13 -14 -15 -16 -17 -18 18 28 20 -22 29 -24 -25 25 -27 -28 -29 -30 39 -32 32 41 -35 38 42 -38 -39 -40 40 -42 -43 -44 -45 -46
leaf_value=-0.11648696840000027 0.18048540572324262 -0.1543916355857361 0.073612580587401652 0.16342629587822211 0.092047832221582207 0.39790923105456871 0.027251337742067436 0.24350489538503683 0.19016866402630944 0.11091508343584294 0.23755589870766536 0.20634218256826245 0.23116503465878635 0.082338883513617928 -0.020749373277719009 -0.09063363184187978 0.22669554448095025 0.3233387273213823 -0.10380513961340937 0.37238636633633487 -0.061801477324960045 -0.121017104315192 -0.11246667268874606 0.25834446405140787 -0.12215711029957606 0.24228719927010878 0.33977157012524578 0.27700276626056441 -0.13793635353240116 -0.13192853241888433 -0.11235512773642185 -0.10266851956264261 -0.11483043994406208 -0.13784054356416356 -0.11822353357023406 -0.10438667403441715 -0.10845997967747455 -0.13267109454524986 -0.10645178000879824 -0.10801438455588913 -0.13071608953763725 -0.10812733076498487 -0.10909941101071159 -0.13142822087360836 -0.10250944297006162
leaf_weight=7.2727482691407204 24094.116991203278 2.2983172349631777 1114.4144230671227 20245.404461480677 573.23788371309638 354.76256477832794 1012.4971486702561 10571.030099544674 13637.967229956761 1534.7057313993573 2698.2110106758773 1616.7226089127362 1066.200898386538 893.81484792381525 1078.7372369542718 458.76826109737158 72.358815221115947 38.961159914731979 279.73736846074462 76.320973798632622 55.170628268271685 7.1718683112412682 22.820226173847914 198.07826589047909 10.055850507691501 7.4120358824729911 24.708050131797791 13.237809762358665 38.415911857038736 3.4815311431884757 51.156073097139597 30.527334855869412 2.7952113114297381 3.345299044623971 1.6773769855499292 1.3428016044199469 2.0579946506768527 2.8123106509447089 10.163502320647234 0.99208177998661939 1.504442725330591 176.28804717026651 1.0553654730319966 5.1277522649615994 44.489557037129998
leaf_count=73 46981 13 5128 81908 3222 365 5818 26624 38679 6765 9957 4464 2271 5805 7952 3038 25 187 10010 214 957 74 297 582 82 9 33 4 236 19 690 1208 30 19 38 35 39 20 229 36 10 2587 19 29 1863
internal_value=0 0.178411 0.179676 0.183892 0.161817 0.137391 0.0955751 0.194928 0.213458 0.193112 0.172144 0.152183 0.16021 0.176975 0.0183914 -0.00950742 0.0172717 -0.00955461 -0.0639741 0.102239 0.190212 -0.056481 0.162365 0.347904 0.122828 -0.0298402 0.221434 0.0988693 -0.107926 -0.108112 -0.114163 -0.107225 -0.106562 -0.123215 -0.114041 -0.120845 -0.11983 -0.1243 -0.108119 -0.129397 -0.121695 -0.108232 -0.106461 -0.131631 -0.102574
internal_weight=0 81785.9 81148.7 73792.5 24595.6 7356.15 4202.4 49196.9 24209 3153.75 22943.6 2731.14 2600.91 24987.9 1651.98 1471.27 637.239 564.881 379.935 184.946 131.492 357.519 61.7814 552.841 79.9307 31.3668 48.5639 23.8559 318.153 277.588 53.4544 266.482 254.1 10.618 23.9547 12.3823 12.1138 9.98418 11.8409 11.1058 2.49652 179.083 2.39817 8.60928 75.0169
internal_count=268644 262188 249559 221128 103039 28431 18448 118089 65303 9983 91865 9592 9036 52786 11174 8856 12629 12604 10730 1874 1171 6456 484 947 526 397 129 96 10246 5930 703 5836 5688 92 388 148 121 94 267 94 46 2617 54 48 3071
is_linear=0
shrinkage=0.1


Tree=4
num_leaves=58
num_cat=0
split_feature=51 105 99 31 103 71 71 102 55 103 32 69 103 103 30 101 118 135 114 124 107 111 122 56 101 104 133 5 128 115 11 72 38 109 127 0 126 6 82 105 45 111 112 4 20 35 35 94 94 104 31 74 74 132 99 125 112
split_gain=1477.71 2324.7 1596.83 1537.18 2442.44 1468.15 1221.31 2994.95 1816.73 1337.98 1226.42 1179.11 1231.59 931.961 692.606 536.252 493.567 480.188 395.299 1069.68 431.212 388.647 360.537 334.074 432.834 314.107 313.878 296.07 302.411 219.875 204.667 169.08 168.471 134.641 102.017 100.241 92.096 155.118 90.5778 88.7596 254.521 96.2257 94.1087 82.3829 68.4323 61.9864 93.828 48.9712 33.918 20.2603 107.475 5.15658 64.0731 1.18756 0.0930389 0.074664 0.0591573
threshold=0.9251672923564912 -0.90197381377220143 -0.96768701076507557 1.0033749341964724 -0.83311158418655384 -0.46800138056278223 -0.48994895815849299 -0.84746879339218129 0.97432422637939464 -0.71076500415801991 0.96823009848594677 -0.14831928163766858 -0.85370883345603932 -0.82197824120521534 1.0968314409255984 -0.86651775240898121 -0.88739463686943043 1.0000000180025095e-35 -0.94230073690414418 -1.071131646633148 -0.89735203981399525 -0.93513923883438099 -2.0130666494369502 0.90279442071914684 -0.93669506907463063 -0.95912787318229664 1.0000000180025095e-35 0.60363605618476879 1.0000000180025095e-35 -0.87462583184242237 0.77224737405776989 -0.73941850662231434 0.87237918376922619 -0.90384578704833973 -1.8020116686820982 0.62079986929893505 -1.2946050167083738 0.65801438689231884 -1.415197432041168 -0.90007701516151417 0.8867127299308778 -0.90143451094627369 -0.90524181723594654 0.65068328380584728 1.2753480672836306 0.71972447633743297 0.72568976879119884 -1.1257244944572447 -1.0634908676147459 -0.91205942630767811 0.94851127266883861 -1.022235035896301 -1.0234696269035337 1.0000000180025095e-35 -0.99853369593620289 -0.38956113159656519 -0.97567126154899586
decision_type=2 2 2 2 2 2 2 2 2 2 2 2 2 2 2 2 2 2 2 2 2 2 2 2 2 2 2 2 2 2 2 2 2 2 2 2 2 2 2 2 2 2 2 2 2 2 2 2 2 2 2 2 2 2 2 2 2
left_child=1 14 23 6 11 38 7 8 -4 10 -8 12 -5 -7 18 -13 25 -9 21 20 -20 26 -11 24 27 31 -1 47 -29 32 34 -16 -26 -21 -25 -23 43 -38 -6 40 41 56 -43 -32 -31 -42 -47 -2 -27 50 55 52 -51 -53 -36 -41 -3
right_child=2 39 3 4 5 13 9 17 -10 22 -12 15 -14 -15 16 -17 -18 -19 19 33 -22 35 -24 30 29 48 -28 28 -30 44 36 -33 -34 -35 54 -37 37 -39 -40 49 45 42 -44 -45 -46 46 -48 -49 -50 51 -52 53 -54 -55 -56 -57 -58
leaf_value=0.14973317557262539 0.1567894904217543 -0.13992166946810344 0.12861213128883059 0.14935967222055016 0.07978478810323307 0.1337087255405108 0.16402277358022482 -0.021901043505223115 0.22838528328572757 -0.10368321456959384 0.053652849002136384 0.29366330270544383 0.051932088031287571 0.03344328619915312 0.086291989247681306 0.17973647529732123 0.34405778351885796 0.13042324077634251 0.31053287883070441 0.10946242144677554 0.02488736738641217 -0.12375301403088904 0.06471750793620859 0.33793112661426644 0.080638755028810183 -0.031753887319070022 -0.12203605713241016 0.20249597953680545 0.31336693323114462 0.43627774713007234 0.32084468254715237 0.56129078398853482 -0.1263324029616231 -0.11697664769370882 -0.14562360510087519 0.032941863866030936 -0.12552696793539828 0.24893194723059417 -0.11144192396856976 -0.11882808169198687 0.50873070257896502 0.5706293004420292 -0.11805620880329877 0.18917738951811763 0.16589127512362056 0.46742712841365663 -0.13415238297879448 -0.14086414113339724 -0.11678749339135282 -0.11024758483501169 0.35836126287560244 -0.11685254956892355 0.12994507205533806 -0.17663839032001102 -0.13090576719425248 -0.1075805893284395 -0.11896212939641314
leaf_weight=1110.6324680969119 6.9119043722748748 1.3735569976270188 12892.235118590295 5216.7512947209179 26.045805126428604 1591.5482360906899 50217.106564629823 1401.7214419022202 2125.9394387416542 158.93563191406429 1027.3878614790738 570.17701503634453 1727.0230774022639 2220.2915926240385 60.51974561624229 1500.2917227372527 36.562294237315655 242.80158470571041 448.81757258623838 37.454938594251871 59.90245296433568 56.308596361428499 635.38217422738671 6.0679616928100613 119.3782077729702 62.406457129865885 44.187955290079117 2475.7024183571339 273.1592918895185 10.287730216979979 434.67166652530432 8.5529623404145223 58.65010742098093 87.844149097800255 7.2475239075720355 148.4800103250891 11.625325843691824 228.49188654124737 505.6495964564383 8.4378133360296506 9.2673874348402041 4.2276453599333763 3.73914811015129 53.353369623422623 103.83451516926289 4.9606413245201093 5.4313393086194992 27.59386207908392 188.88518696464598 207.48584991134703 5.9057511687278739 300.51488526724279 11.734036028385161 3.3596060797572127 10.543675765395161 19.638714609667659 68.662220980972052
leaf_count=2853 2 10 45975 16857 95 5287 111678 8751 4865 6337 5300 1025 8991 11045 279 4082 33 1226 1203 221 353 395 7281 1 486 371 441 5128 348 2 241 17 421 870 41 709 82 329 4246 80 11 5 36 149 167 8 36 158 1775 3987 3 3368 62 25 62 309 526
internal_value=0 0.077841 0.149179 0.146234 0.115195 0.0535935 0.152269 0.128707 0.142736 0.159814 0.16181 0.144877 0.125128 0.0753069 0.124259 0.21111 -0.00403014 0.000588503 0.147227 0.212435 0.276898 0.11682 0.0310221 0.212314 0.197705 -0.0437565 0.139334 0.209859 0.213513 0.081912 0.272061 0.145109 0.0124536 -0.0492885 -0.0161399 -0.0101429 0.281504 0.230802 -0.102074 -0.0888035 -0.000867175 -0.0819128 0.2474 0.30645 0.190266 0.320698 0.153013 -0.0812407 -0.09567 -0.10422 -0.0293977 -0.109081 -0.097391 -0.117514 -0.136901 -0.110961 -0.119373
internal_weight=0 3005.29 85886.8 82059.3 13357.8 4343.54 68701.5 16662.7 15018.2 52038.8 51244.5 9014.24 6943.77 3811.84 2350.55 2070.47 356.927 1644.52 1993.63 634.019 508.72 1359.61 794.318 3827.52 3075.52 320.364 1154.82 2783.37 2748.86 292.151 752.001 69.0727 178.028 125.299 23.8592 204.789 728.142 240.117 531.695 654.739 97.6619 78.0026 7.96679 488.025 114.122 19.6594 10.392 34.5058 251.292 557.077 33.9823 523.094 219.22 303.874 17.7912 28.0765 70.0358
internal_count=268644 17986 250658 243041 51628 20673 191413 60817 50840 130596 116978 30955 25848 16332 9520 5107 2475 9977 7045 2647 1556 4398 13618 7617 6712 2442 3294 5636 5476 1076 905 296 907 1091 104 1104 801 411 4341 8466 632 577 41 390 169 55 44 160 2146 7834 392 7442 4049 3393 103 389 536
is_linear=0
shrinkage=0.1


Tree=5
num_leaves=63
num_cat=0
split_feature=71 34 136 102 28 99 102 102 31 103 51 105 103 22 99 101 130 122 69 57 52 30 34 101 72 44 31 1 70 99 40 69 28 101 105 31 69 54 38 25 69 69 28 100 105 103 92 65 69 30 42 6 29 64 104 104 31 123 50 107 76 98
split_gain=1358.61 2332.86 1809.33 2024.9 2311.62 1758.42 1300.1 1119.61 1078.07 1220.65 959.205 1588.17 1226.74 1752.75 890.748 860.857 838.237 784.537 746.188 672.425 663.768 488.685 470.441 460.736 455.396 405.409 359.436 351.887 328.936 299.452 402.522 277.86 476.482 275.889 256.036 245.026 219.532 203.096 199.388 197.98 298.793 178.668 172.195 164.549 159.328 157.616 145.928 131.644 129.579 301.744 117.91 101.593 98.8819 96.8301 82.7038 79.7516 70.6562 47.1765 44.0911 0.191429 0.134712 0.0852797
threshold=-0.40346194803714747 0.92421549558639537 1.0000000180025095e-35 -0.8189176321029662 1.1754541993141177 -0.83865746855735768 -0.8014906346797942 -0.84611850976943959 0.99814650416374218 -0.76522514224052418 0.9251672923564912 -0.90197381377220143 -0.89993458986282338 1.4900476336479189 -0.91336739063262928 -0.79521277546882618 1.0000000180025095e-35 -1.9763684272766111 0.0067137535661458978 0.81418254971504223 1.0573540329933169 1.0968314409255984 0.93745839595794689 -0.82761815190315235 -0.60797801613807667 1.0865438580513003 1.0083456635475161 0.43212997913360601 -0.20420229434967038 -0.85209029912948597 1.0104462504386904 -0.073179185390472398 1.1377186179161074 -0.58115002512931813 -0.81382429599761952 0.99949616193771373 -0.04848694056272506 1.0099005699157717 1.0116264820098879 1.2529314756393435 -0.098191224038600908 -0.078601274639368043 1.1408318877220156 -0.82971814274787892 -0.95199385285377491 -0.80688932538032521 -1.1433820724487302 0.33572794497013098 -0.073179185390472398 1.0400775074958803 1.1262140870094302 0.62709876894950878 1.0789794325828554 0.47263693809509283 -0.80084270238876332 -0.93039777874946583 1.0028159618377688 -1.5168882608413694 1.1490776538848879 -0.94587498903274525 -0.86450156569480885 -0.85160699486732472
decision_type=2 2 2 2 2 2 2 2 2 2 2 2 2 2 2 2 2 2 2 2 2 2 2 2 2 2 2 2 2 2 2 2 2 2 2 2 2 2 2 2 2 2 2 2 2 2 2 2 2 2 2 2 2 2 2 2 2 2 2 2 2 2
left_child=1 2 10 4 7 23 24 -4 9 16 11 21 19 -14 -6 28 20 33 -19 -12 -7 -1 -18 44 25 51 36 42 34 30 -29 32 -26 -11 -10 -31 -17 47 -28 48 59 -39 43 -25 60 -44 -27 -5 50 -50 -8 -3 54 -33 -46 -13 -30 -42 -54 -41 -2 -62
right_child=5 6 3 37 14 8 39 -9 15 17 12 55 13 -15 -16 26 22 18 -20 -21 -22 -23 -24 27 31 46 38 29 56 35 -32 53 -34 -35 -36 -37 -38 41 -40 40 57 -43 45 -45 52 -47 -48 -49 49 -51 -52 -53 58 -55 -56 -57 -58 -59 -60 -61 61 -63
leaf_value=0.12409204758160307 -0.13134865066573484 0.33311472887503607 0.22280138716495448 -0.12826187966176139 0.056395461359843073 -0.017566469242036923 -0.12244560363628101 0.10526142452168474 0.061385278314822711 0.061644832583850534 0.14310761501945662 0.22261852590990544 0.12467615540502258 -0.033054710979923067 -0.069036955443078654 -0.078637653483829659 0.26737360507751884 0.10358777740479441 0.16388021526941238 0.19824885767705416 0.15656306162520092 -0.0037812672810288192 0.063272140643067784 0.31892546098689101 -0.059682029097371726 0.12247314741737532 0.43865839752822811 -0.13106441248529691 0.27406494628473366 0.1391311113924156 0.25906511302181418 0.2747145281745545 0.12753311933821007 -0.10334058293240161 0.21301705761194564 -0.12806263576338361 0.026360868297079766 -0.12468851185512649 -0.12389686133391689 -0.14675033387943842 0.56818925216426419 0.042613518880166075 0.028585581121967116 0.24825227067149613 -0.19781025152473131 0.28760693853520608 -0.081861428675671255 0.31950435334778482 -0.11578508688370209 0.08762069980658653 0.29278053962841361 0.032893446403999986 0.16006105189878803 0.104761650063737 0.12438893679430306 -0.088536597860301255 0.094997838404636992 0.2714567647842413 0.251803041029388 -0.1162413537304853 -0.16313047882166209 -0.14655788883041884
leaf_weight=2068.8572371359915 3.8407148644328144 36.777992412447929 1094.4469159431756 10.02713652700186 1740.0475518573076 223.21145290136337 534.73985587432981 3122.4062678143382 491.53670729324222 201.69390194676816 6974.4588150456548 8.3663956075906736 42727.705110672861 716.31797951459885 839.20504486188293 417.41751916706562 986.78227515518665 7275.1138164550066 2859.4996572732925 3238.3680422082543 11367.277180191129 349.32293812744319 127.525474794209 601.72094416618347 170.72869595885277 39.797079235315323 25.961693853139877 28.677334321662784 155.07550184428692 136.94299766421318 340.0032113045454 125.29700925946236 667.2690018415451 203.73409853130579 143.97570292651653 45.79935584962368 380.77635701745749 556.81839834526181 8.3193464279174787 2.2623522505164173 8.4899089857935923 72.09800461679697 54.000514298677444 728.07432034611702 13.683370303362606 41.58269776403904 287.00674126297235 19.021720945835114 185.20841380208731 120.30382570624352 6.9273869320750228 16.252363167703152 640.13286723196507 45.769713759422302 19.06884009949863 533.89516401104629 25.684980392456055 14.523720383644102 57.055141240358353 22.615039743483067 4.8818343132734308 8.5311246588826144
leaf_count=6877 25 25 2526 67 8199 708 3279 6311 1806 1913 18607 49 128038 4111 5057 2548 1653 15948 5006 4941 16068 2449 495 461 763 69 43 317 180 335 499 150 1839 8707 338 278 1996 3023 63 13 11 203 206 989 60 58 1620 11 1037 440 16 58 422 114 201 6942 86 31 32 264 22 41
internal_value=0 0.116712 0.120252 0.0739385 0.0901557 0.143106 0.0174015 0.135768 0.134759 0.140302 0.126349 0.0709357 0.129407 0.122075 0.0155838 0.0566209 0.161174 0.115143 0.120599 0.160592 0.15321 0.10562 0.244015 0.219386 0.0779686 -0.0153615 -0.0149309 0.244671 0.129593 0.176837 0.228719 0.1131 0.089391 -0.021263 0.0957375 0.0721663 -0.0285484 -0.0935689 0.302137 -0.0765816 0.121226 -0.105509 0.270913 0.280231 0.152492 0.141271 -0.0569782 0.164944 -0.0877637 -0.0356885 -0.117135 0.241105 0.159591 0.229243 -0.0102209 -0.0837359 0.248621 0.380924 0.167569 -0.119016 -0.147861 -0.15259
internal_weight=0 66355.3 64071.4 7454.07 6796.11 27617.6 2283.97 4216.85 24893.6 23244.8 56617.3 2960.44 53656.8 43444 2579.25 1648.75 12704.8 10540 10134.6 10212.8 11590.5 2418.18 1114.31 2724 1388.9 379.834 832.475 1976.8 816.273 551.423 368.681 1009.06 837.998 405.428 635.512 182.742 798.194 657.965 34.281 895.071 47.891 628.916 1425.38 1329.8 747.194 95.5832 326.804 29.0489 847.179 305.512 541.667 53.0304 729.94 171.067 32.7522 542.262 180.76 23.0136 697.188 24.8774 17.2537 13.413
internal_count=268644 207140 197411 25397 22093 61504 9729 8837 57558 50498 172014 16317 155697 132149 13256 7060 18924 31574 20954 23548 16776 9326 2148 3946 4638 1772 4650 3143 2410 1429 816 2866 2602 10620 2144 613 4544 3304 106 5091 319 3226 1714 1450 803 264 1689 78 4772 1477 3295 83 715 264 261 6991 266 42 454 277 88 63
is_linear=0
shrinkage=0.1


Tree=6
num_leaves=62
num_cat=0
split_feature=71 103 136 102 69 33 70 104 0 101 102 34 71 100 69 57 112 38 36 96 33 104 63 33 102 104 100 106 32 68 39 77 68 29 129 78 71 45 32 70 71 70 72 38 49 102 126 73 73 66 106 44 107 72 28 117 43 0 35 104 68
split_gain=1327.13 2641.31 1242.77 1323.31 1953.76 1247.91 1579.02 2879.32 979.936 955.803 928.815 909.523 1850.13 720.075 1295.19 671.609 946.122 726.535 720.578 617.912 873.89 601.642 601.071 597.053 533.601 519.483 510.496 460.378 449.646 439.401 395.864 394.331 505.951 376.515 346.345 248.453 335.631 396.822 219.9 268.963 214.947 208.955 208.831 184.409 172.962 155.305 145.549 116.21 181.4 105.151 131.107 107.048 87.7676 77.2088 73.5757 65.9196 52.4226 36.6326 0.332995 0.123033 0.0263908
threshold=-0.4166977852582931 -0.79609158635139454 1.0000000180025095e-35 -0.8265496790409087 -0.12524169683456418 0.93222239613533031 -0.29729804396629328 -0.83842381834983815 0.33389310538768774 -0.85996937751770008 -0.67797806859016407 0.9331992268562318 -0.37809559702873224 -0.78376653790473927 0.0031704369466751818 0.93864327669143688 -0.96991676092147816 0.96463388204574596 0.89445340633392345 -0.97348791360855091 0.90837424993515026 -0.84528514742851246 0.49441458284854894 0.94414713978767406 -0.81560987234115589 -0.76741212606430043 -0.83185431361198414 -0.91427227854728688 0.88043963909149181 0.065151594579219832 0.99145588278770458 -1.1969650387763975 0.043379768729209907 1.0967571139335635 1.0000000180025095e-35 -0.42351907491683954 -0.25655500590801233 1.2056142091751101 0.95674896240234386 -0.24953743070363996 -0.42332388460636133 -0.21467138826847074 -0.56129276752471913 0.99661174416542064 1.1358274817466738 -0.78583884239196766 -1.5010386705398557 -0.57661697268486012 -0.56395009160041798 0.33368283510208135 -0.9084799289703368 1.1740087270736697 -0.86764299869537342 -0.52953624725341786 1.1356204748153689 -1.0942738652229307 1.0764562487602236 0.46580387651920324 0.85802209377288829 -0.80302327871322621 0.11095644161105157
decision_type=2 2 2 2 2 2 2 2 2 2 2 2 2 2 2 2 2 2 2 2 2 2 2 2 2 2 2 2 2 2 2 2 2 2 2 2 2 2 2 2 2 2 2 2 2 2 2 2 2 2 2 2 2 2 2 2 2 2 2 2 2
left_child=1 2 5 4 9 6 7 -1 -8 -4 11 15 24 45 -15 17 18 21 -17 29 28 -2 -6 40 44 -18 -19 35 53 34 47 32 -7 -33 54 36 43 -38 39 -22 -5 -26 -30 -12 -13 -14 -31 60 -49 51 -51 -32 -25 -21 -3 -40 -48 -36 -37 -60 -29
right_child=10 19 3 23 22 31 8 -9 -10 -11 27 12 13 14 -16 16 25 26 -20 20 38 -23 -24 52 41 -27 -28 30 42 46 49 33 -34 -35 57 58 37 -39 55 -41 -42 -43 -44 -45 -46 -47 56 48 -50 50 -52 -53 -54 -55 -56 -57 -58 -59 59 -61 -62
leaf_value=0.10966173180504522 0.12177627538834851 -0.14040026643998627 0.054232297316261779 -0.11597051099354821 0.25479047272383609 -0.041543870684715302 0.081252315132787759 0.013831080886164825 0.15696422338808202 -0.091166134797727075 -0.042474640939117264 -0.15880059240834124 0.20518959362707523 0.034110526985785435 0.14590145218465458 0.25390393004427708 0.22376490529341125 0.17736121794310497 0.12646818273267854 -0.12711034207052846 -0.079737987087429268 0.03679406573142846 0.12566972923626291 0.0498829141853495 -0.086611459330694029 0.11713050398474123 0.12446733676109362 -0.11306858703157791 0.058645443047099004 0.32544810101766863 -0.11571029945083694 -0.071507718488004815 0.069573246145897605 0.10866078161095623 0.12266412567771282 -0.16333668962366235 0.18274881719821959 -0.062347587242562279 -0.014415590550040745 0.078459579582935882 -0.0049464584750817837 0.0026575774295688444 0.19493769311811215 0.12552692695514869 0.2309301001322473 0.14645093173005694 0.17530537106782207 0.51692937989628973 0.12779825050164492 0.010475016479598542 -0.10579374514237616 0.35682676166040928 0.3235296310693182 0.18137733198341388 -0.0020090841864719672 -0.13267464213439942 -0.01140193410313721 0.29020865010858504 -0.1391070786405938 -0.10902650028988298 -0.12551851394347097
leaf_weight=37159.639781255275 1762.280358155258 76.350133404135704 2980.9788749292493 520.91788575798273 452.57453536428511 870.03476398810744 2082.9908134005964 3424.2299506701529 9534.0712517425418 532.94513263553381 185.39839705079794 12.847789436578749 613.56863740831614 1988.1898197457194 2164.8744815513492 477.99758815765381 2403.2647050991654 2240.802356287837 6185.52428958565 119.09576175734401 397.28851493820548 1579.9488347284496 1772.5419672131538 16.047885969281197 525.45881987735629 564.08406816422939 9825.1759773716331 13.505041997879742 339.6157035715878 74.972134992480278 8.1027746088802832 131.32383627817035 774.60532736778259 993.45910845324397 21.792344152927399 1.185629803687333 488.82860642112792 76.37881176546216 51.207081537693739 147.32436596602201 262.12895455211401 523.39104302972555 168.05300596728921 100.89157212525606 100.17318931594491 1689.8496303632855 90.099364325404167 13.801008261740206 90.774410786107183 138.06578648090363 325.93786553107202 11.740378662943838 43.467700738459826 8.7062782123684865 77.322011262178421 592.77246636897326 18.051048323512077 32.529474522918463 1.3946348875761021 54.313733482733369 1.9482439886778582
leaf_count=103948 2808 920 13561 2973 395 4349 6021 18015 20117 3251 1037 61 809 6540 2827 445 2992 2240 9237 1950 2638 4719 2601 65 3376 1009 15880 141 1947 28 80 667 1920 2947 49 6 828 779 400 435 878 2540 285 130 114 2894 91 36 235 1054 10360 12 14 14 345 3483 53 12 10 1058 15
internal_value=0 0.0986332 0.102494 0.061429 0.0786099 0.107411 0.110881 0.101576 0.143389 0.0321802 0.123057 0.126605 0.0963499 0.117255 0.092384 0.13581 0.156525 0.122862 0.13561 -0.00864908 -0.0331055 0.0816032 0.151932 -0.0555972 -0.0198189 0.203494 0.13429 0.0464406 0.0615569 0.105409 -0.0212309 0.0419967 0.0107909 0.0876252 0.00595473 0.0914269 0.104945 0.149628 -0.0837159 -0.0369436 -0.0788046 -0.0420649 0.103762 0.0167309 0.186627 0.162097 0.218371 0.141328 0.179153 -0.0615572 -0.0711976 0.16387 0.249743 -0.106095 -0.0707671 -0.123271 0.144143 0.222995 -0.110896 -0.10978 -0.114638
internal_weight=0 63767.1 61552 6581.6 5739.04 54970.4 52200.9 40583.9 11617.1 3513.92 34169.7 32657.4 7618.35 6456.48 4153.06 25039.1 9630.87 15408.2 6663.52 2215.18 1824.06 3342.23 2225.12 842.562 1161.87 2967.35 12066 1512.27 635.471 391.117 603.876 2769.42 1644.64 1124.78 207.994 908.391 851.497 565.207 1188.59 544.613 783.047 1048.85 507.669 286.29 113.021 2303.42 183.123 120.029 104.575 483.847 464.004 19.8432 59.5156 127.802 153.672 643.98 108.15 54.3218 56.894 55.7084 15.4533
internal_count=268644 194372 181722 23738 19808 157984 148101 121963 26138 16812 74272 58491 19161 13070 9367 39330 13683 25647 9682 12650 11152 7527 2996 3930 6091 4001 18120 15781 4196 1498 11933 9883 6269 3614 1326 3848 2774 1607 6956 3073 3851 5916 2232 1167 175 3703 172 427 271 11506 11414 92 79 1964 1265 3883 144 61 1074 1068 156
is_linear=0
shrinkage=0.1


Tree=7
num_leaves=62
num_cat=0
split_feature=71 34 102 136 102 67 97 103 88 53 105 103 133 31 120 52 34 72 11 69 97 132 70 35 101 34 55 134 72 44 70 105 104 15 4 42 61 31 54 77 32 97 69 99 69 67 98 118 30 65 94 1 4 31 76 95 29 58 132 101 106
split_gain=1219.5 1525.22 954.105 921.478 1471.89 1649.82 1498.22 840.704 792.177 695.441 1307.51 997.76 1294.28 692.491 591.918 588.805 586.826 978.665 521.271 517.178 538.963 515.378 509.453 522.082 464.236 455.803 430.546 295.306 278.288 293.243 274.14 285.744 269.365 235.272 216.094 210.711 268.855 181.887 172.922 172.861 168.146 163.095 162.466 146.676 136.654 122.858 114.629 101.074 93.9528 92.0172 82.429 67.9488 74.4603 67.0907 92.6527 64.3502 62.5833 31.5736 1.03534 0.708023 0.0601505
threshold=-0.40225648880004877 0.92421549558639537 -0.80765050649642933 1.0000000180025095e-35 -0.8189176321029662 0.073895655572414412 -0.96401324868202198 -0.76522514224052418 -0.82766392827033985 0.91830170154571544 -0.90197381377220143 -0.90192323923110951 1.0000000180025095e-35 0.99540579319000255 -1.1484873890876768 1.0573540329933169 0.93745839595794689 -0.55530574917793263 0.31359893083572393 -0.046644266694784157 -0.8262321650981902 1.0000000180025095e-35 -0.17733917385339734 0.94417661428451549 -0.7631888985633849 0.92747059464454662 1.0041037201881411 1.0000000180025095e-35 -0.60797801613807667 1.0865438580513003 -0.22811824083328244 -0.7988816201686858 -0.86406823992729176 0.96045422554016124 0.4311042726039887 1.132549583911896 0.75900009274482738 1.0116528868675234 1.0099005699157717 -0.79895475506782521 0.96214094758033764 -0.73775082826614369 -0.078601274639368043 -0.83359155058860768 -0.090666644275188432 0.24998257309198382 -0.90174001455306996 -0.91840186715126026 0.96503776311874401 0.33572794497013098 -1.0634908676147459 0.44006589055061346 0.54890805482864391 0.99626687169075023 -1.1484149098396299 -1.0034099817275999 1.1110092401504519 0.88876900076866161 1.0000000180025095e-35 -0.82897624373435963 -0.79007059335708607
decision_type=2 2 2 2 2 2 2 2 2 2 2 2 2 2 2 2 2 2 2 2 2 2 2 2 2 2 2 2 2 2 2 2 2 2 2 2 2 2 2 2 2 2 2 2 2 2 2 2 2 2 2 2 2 2 2 2 2 2 2 2 2
left_child=1 3 28 9 5 8 -7 15 -5 10 14 21 -13 18 -1 32 19 37 35 25 -21 -11 23 -20 -19 -17 -24 -12 29 55 34 43 39 40 44 36 -9 -18 49 41 -30 -2 -40 -32 -4 -37 -36 -33 -41 -6 -31 53 -53 54 -15 -3 58 -55 -34 -35 -54
right_child=7 2 30 4 38 6 -8 13 -10 11 27 12 -14 51 -16 16 17 24 22 20 -22 -23 26 -25 -26 -27 -28 -29 33 50 31 47 56 59 46 45 -38 -39 42 48 -42 -43 -44 -45 -46 -47 -48 -49 -50 -51 -52 52 60 57 -56 -57 -58 -59 -60 -61 -62
leaf_value=-0.04040430301209208 -0.057765996408638609 0.025472419447165436 -0.12347857240370924 -0.025548881332793746 -0.1234017582753168 0.22318421986340825 0.076251222046535116 -0.089549183186927284 0.20683413429227118 0.13087469267068597 -0.051417464985469008 0.098014687002922693 0.053550817677942043 -0.095553676897043527 0.095497945035803805 0.12926501558267942 -0.10081035518099113 0.1275011053605046 0.075047832463484565 0.19253141476584976 0.12386370878163055 -0.026334627203762912 -0.16064592436125846 -0.080878511812348258 -0.072791292346840175 0.070184509803055822 0.11458669253949459 0.22798856801107728 -0.044422894315163226 0.10686905490508632 0.22015278869235591 -0.10310694852482533 -0.14789233298322504 -0.16222938896218664 0.15646108164389499 0.41468916709223819 0.10138661711489459 0.25865708523168468 -0.12053608940533925 0.2338308684675896 0.12221855925233678 0.23442065044541233 0.023726639535753422 -0.14068203759071146 0.20737411072493966 -0.064660639682197749 -0.091142788449565068 0.1459024813016592 -0.16443532349203571 0.25946089541304168 -0.071913612116862688 0.25667640280653353 -0.117456582106077 -0.047675099758500913 0.078064633110946954 0.26169571603089137 0.1270677235085283 -0.12915255248715407 -0.1673931894392918 -0.13410596127069099 -0.13518610628417158
leaf_weight=350.70227819681168 27.176078423857689 15.947887308895586 17.726819798350334 1842.2031054645777 8.91358514968306 828.10857027769089 4283.9489502757788 96.572432087734342 159.38621757179499 8751.893642552197 1017.8538121180609 40315.600943721831 7815.6873198375106 58.062210641801357 3719.6453598178923 9409.0996150635183 312.35447330027819 1210.1858471110463 2152.4011159576476 2491.2963003963232 2112.0297187715769 213.62017753720284 57.271979242563248 238.53052089363337 127.95576004311442 1516.2714926153421 7457.5297323763371 39.286884382367134 65.427656024694443 28.925384216010571 86.899457007646561 92.416745848953724 61.791204404085875 20.364892214536667 19.077431812882423 5.4503887929022303 312.0151809733361 14.7403497248888 524.89969168230891 7.1285395622253409 812.36270028352737 64.315450638532639 91.702998161315918 12.943215221166609 42.210256010293961 281.43666994199157 938.30945697799325 19.791589796543121 35.033680632710457 21.225922331213951 237.81289041042328 14.174941740930082 3.3350696116685876 77.914534479379654 65.313500128686428 41.647605650126934 8.373899042606352 122.08276800066233 48.669494897127151 15.973133221268652 4.4895656630396825
leaf_count=1794 105 48 174 10273 68 1367 10393 1548 99 16324 9156 111335 21666 306 11524 12115 1965 2867 6264 2768 1978 666 601 1159 703 4661 9793 66 211 39 94 484 324 95 33 23 4380 23 3065 1 1680 21 253 66 93 6780 5619 35 158 11 1340 9 29 551 228 30 7 850 212 89 25
internal_value=0 0.0865549 0.00928999 0.0892795 0.0567873 0.0699188 0.100053 0.111005 -0.00704426 0.0933318 0.0580538 0.0964999 0.0907945 0.0892819 0.0837886 0.124636 0.126862 0.0704465 0.0938216 0.132912 0.161026 0.127129 0.0996972 0.0594919 0.108349 0.121066 0.112489 -0.0410338 0.0712399 -0.00834179 -0.0531178 0.0503139 -0.0269645 0.0994756 -0.0746771 0.0101348 0.0562577 -0.0846112 -0.0876488 0.0704291 0.109798 0.147631 -0.0990809 0.173376 0.109522 -0.0555538 -0.0862089 -0.059186 -0.0970988 0.146231 -0.0525262 -0.0500664 0.11999 -0.0616355 -0.0036424 0.196287 -0.136503 -0.0974107 -0.156485 -0.149867 -0.127629
internal_weight=0 72452.5 2467.84 69984.7 7760.39 7113.65 5112.06 28393 2001.59 62224.3 5127.49 57096.8 48131.3 10946.6 4070.35 17446.4 17193.9 1665.24 10601.2 15528.7 4603.33 8965.51 9905.73 2390.93 1338.14 10925.4 7514.8 1057.14 1238.46 324.334 1229.37 212.051 252.488 914.128 1017.32 695.475 408.588 327.095 646.742 133.654 877.79 91.4915 616.603 99.8427 59.9371 286.887 957.387 112.208 42.1622 30.1395 266.738 345.373 21.9996 323.373 123.376 57.5955 118.835 199.997 110.461 36.338 7.82464
internal_count=268644 208190 10130 198060 25529 22132 11760 60454 10372 172531 22540 149991 133001 32546 13318 27908 27080 5558 30548 21522 4746 16990 17817 7423 3570 16776 10394 9222 3532 1457 6598 679 828 2075 5919 12731 5928 1988 3397 285 1891 126 3318 160 267 6803 5652 519 159 79 1379 1998 63 1935 534 78 543 1401 536 184 54
is_linear=0
shrinkage=0.1


Tree=8
num_leaves=62
num_cat=0
split_feature=30 104 31 103 68 133 34 56 107 70 103 5 131 129 73 36 98 62 56 111 76 104 70 107 71 63 68 69 52 54 108 83 68 100 106 69 69 31 105 29 30 35 102 71 31 131 63 83 69 34 44 64 30 71 59 59 44 101 31 74 101
split_gain=1310.71 1486.12 2237.44 1430.9 944.808 944.22 1432.91 1324.66 869.626 1003.01 1546.73 1158.2 1101.08 1008.55 790.521 760.198 693.766 645.981 1125.53 604.005 601.198 600.029 617.075 592.194 572.041 567.597 511.843 488.106 462.203 438.022 501.661 414.975 408.713 405.455 389.088 378.614 340.465 339.48 338.615 323.137 322.286 306.099 283.969 275.716 272.164 322.506 256.403 219.197 218.426 176.062 170.039 306.649 178.588 99.0257 81.15 143.328 74.2968 59.9354 24.7647 21.125 6.00108
threshold=1.0577966570854189 -0.81955885887145985 0.99960312247276317 -0.83255639672279347 0.0069309982936829337 1.0000000180025095e-35 0.87059849500656139 0.91568160057067882 -0.99724191427230824 -0.32875730097293848 -0.85445180535316456 0.64560988545417797 1.0000000180025095e-35 1.0000000180025095e-35 -0.73296684026718129 0.86018225550651561 -0.93921965360641468 0.59611818194389354 0.97967827320098888 -0.8232935070991515 -1.1262778639793394 -0.79231128096580494 -0.2683586180210113 -1.0088716745376585 -0.47227865457534784 0.47585199773311621 0.045646125450730331 -0.14639606326818463 0.95923623442649852 1.0276700854301455 -0.89184767007827748 -1.3481829762458799 -0.078821636736392961 -0.87882366776466359 -0.97392916679382313 -0.067687015980482088 -0.071890909224748598 1.0062425732612612 -0.95531138777732838 1.1919092535972597 1.082819998264313 0.90532851219177257 -0.80827239155769337 -0.43338078260421747 1.0002478361129763 1.0000000180025095e-35 0.46109595894813543 -0.91315805912017811 -0.16489939391613004 0.87115234136581432 1.0994916558265688 0.40294313430786138 1.0546551346778872 -0.45957487821578974 0.82228761911392223 0.82380780577659618 1.1074560880661013 -0.869941085577011 1.0014070868492129 -0.39659351110458368 -0.82761815190315235
decision_type=2 2 2 2 2 2 2 2 2 2 2 2 2 2 2 2 2 2 2 2 2 2 2 2 2 2 2 2 2 2 2 2 2 2 2 2 2 2 2 2 2 2 2 2 2 2 2 2 2 2 2 2 2 2 2 2 2 2 2 2 2
left_child=1 5 4 8 50 19 7 23 15 10 12 16 -10 -12 -9 28 -11 20 -19 34 -6 22 33 -7 44 27 38 46 39 41 -31 -13 53 -4 43 -36 -24 -29 -8 -2 -30 -27 -28 -1 45 48 -26 -34 -5 -47 52 -52 -3 -17 60 -56 59 -46 -59 -21 -23
right_child=3 2 21 24 17 6 26 14 9 11 13 31 -14 -15 -16 32 -18 18 -20 56 -22 54 36 -25 25 29 42 37 40 30 -32 -33 47 -35 35 -37 -38 -39 -40 -41 -42 -43 -44 -45 57 49 -48 -49 -50 -51 51 -53 -54 -55 55 -57 -58 58 -60 -61 -62
leaf_value=-0.085763366177402461 -0.11739710510392334 -0.094302685530381167 0.10590170425002517 -0.096963394279007034 0.072385376813370386 0.094931243072114369 0.20748632927174895 -0.13766636890160819 0.055639811071777283 0.17458757520528417 -0.042951411838511977 0.10926515395688917 0.11096792071120226 0.14099264472506234 0.15960212050704004 -0.1227172969669806 0.066857483253965941 0.049569160842516197 0.099037235604934007 -0.11615616188487173 0.19905603775222197 -0.20777337684836344 0.022913178259143276 -0.061087211146828628 0.12434967162437116 -0.11764362148407362 0.1657545238287797 0.24955091795660089 0.1352656794524672 -0.058994548217743151 0.14715498762588766 0.23244323979815318 -0.15646922893370144 -0.078570369278061103 0.10813817344072396 0.14003448821096329 0.090065736809943522 -0.12577968886727853 -0.048212630995300307 0.11919413660637126 0.21794714501750298 0.015700752705288062 0.017549697157548023 0.07124843094329307 0.16722925831320368 0.36052899238792607 -0.084432019647304374 0.11159510947072718 0.093047740124961406 -0.12686455009474648 0.26994228947632309 -0.04346739750096032 0.069970812387864914 0.26233321986295705 0.10586842120258838 -0.084540767916986462 0.20791334805630615 -0.064321731351322756 -0.12066721437461142 0.063501684261540278 -0.12977463429303299
leaf_weight=152.80624478310347 99.95680458843708 386.36626725457609 141.40740149468184 182.88222152739763 605.02438437659293 436.34879407286644 53.938893973827362 93.369757421314716 17722.917773546651 696.14663760364056 2101.7490784749389 413.07034956663847 4512.7554836366326 347.3368479013443 2134.8410565108061 170.03125248104334 4230.3732954636216 6446.9068367816508 16050.501621915959 134.31468058377504 984.16871091350913 10.329368904232977 2504.5053893700242 549.84490382298827 111.56451701372862 389.49718809872866 216.69414903223515 239.50784762203693 1225.2359196692705 197.00724775716662 294.51358530297875 809.43471979349852 34.232250392436981 756.84711688756943 27067.057289658114 4314.7124068513513 1080.8229302987456 26.7941909506917 1300.1897428631783 136.64577535167336 766.28370732069016 308.509078014642 320.50360953807831 417.16829384118319 7.7998054176568976 34.847271107137203 124.42315218225121 280.07754169777036 90.405664619058371 9.4136693477630597 46.344746377319098 95.652001388370991 79.856691859662533 6.9521012008190146 47.143080294132233 244.88185907155275 7.8903462439775458 92.56094042211771 495.98039535805583 6.8801775202155104 218.95863036811352
leaf_count=508 476 4841 327 1183 2671 840 34 506 57677 1203 11076 993 9664 541 2856 686 13007 18870 41028 1898 1031 49 8100 2128 331 2289 235 331 1890 1097 760 1183 153 4624 48681 2563 2918 174 4922 412 577 1332 966 790 4 42 686 552 321 67 103 761 294 2 149 1488 8 551 3760 9 1426
internal_value=0 0.0904306 0.0737494 0.0668004 0.0861059 0.103746 0.0638018 0.104438 0.072344 0.067563 0.0585612 0.1037 0.0668687 -0.0168639 0.147146 0.126553 0.0820804 0.0892141 0.0848616 0.110099 0.150831 0.0127811 0.0245877 0.00794432 -0.00458372 0.0298529 -0.0052615 0.118989 0.151381 -0.00778565 0.0645279 0.190823 0.013957 -0.0495299 0.111036 0.112524 0.0431568 0.211787 -0.0380274 0.0192421 0.167079 -0.0587073 0.0773324 0.0291547 -0.0683338 0.00645051 0.0142707 0.0823996 -0.0341063 0.256867 -0.0369851 0.0588229 -0.0661652 -0.107592 -0.0887624 -0.053802 -0.0907137 -0.108156 -0.111806 -0.107402 -0.133288
internal_weight=0 66906.3 29699.7 36158.9 24694.8 37206.6 5105.73 3214.4 33553.2 30833.8 24684.8 6149.03 22235.7 2449.09 2228.21 2719.42 4926.52 24086.6 22497.4 32100.8 1589.19 5004.9 4483.58 986.194 2605.71 1691.82 1891.33 502.29 2228.12 1189.53 491.521 1222.51 491.293 898.255 31951.7 31381.8 3585.33 266.302 1354.13 236.603 1991.52 698.006 537.198 569.975 913.89 317.549 235.988 314.31 273.288 44.2609 608.22 141.997 466.223 176.983 521.313 292.025 149.085 596.341 588.541 141.195 229.288
internal_count=268644 155624 88680 113020 69599 66944 12487 6330 100092 95344 78958 16386 67341 11617 3362 4748 14210 63600 59898 54457 3702 19081 15969 2968 12928 7000 6157 1522 3355 5478 1857 2176 1393 4951 52542 51244 11018 505 4956 888 2467 3621 1201 1298 5928 1613 1017 705 1504 109 5999 864 5135 688 3112 1637 1915 4315 4311 1907 1475
is_linear=0
shrinkage=0.1


Tree=9
num_leaves=63
num_cat=0
split_feature=71 103 136 54 101 34 30 69 103 102 32 101 70 99 113 37 133 51 104 72 96 99 37 104 33 107 106 31 67 38 101 39 33 102 68 129 2 71 45 42 25 70 55 88 39 72 107 70 36 109 73 32 33 126 107 92 20 126 73 104 119 106
split_gain=1155.86 1711.25 703.14 1014.76 1214.22 844.291 973.285 835.141 760.46 645.556 744.99 557.786 1004.02 561.498 537.63 461.141 572.21 504.454 1176.53 448.158 598.809 436.517 423.809 402.632 395.8 382.144 351.745 338.542 339.295 300.111 292.601 284.304 271.185 267.528 235.746 252.559 216.836 199.51 338.085 191.157 187.572 176.855 176.759 157.275 153.873 130.638 98.2889 91.7508 87.0518 84.3008 83.774 78.2066 77.719 125.703 116.038 64.1131 59.3067 56.2567 52.1831 40.6086 37.4553 2.70561
threshold=-0.4166977852582931 -0.7953301966190337 1.0000000180025095e-35 0.95845404267311107 -0.83675101399421681 0.92074161767959606 1.0525686144828799 -0.12524169683456418 -0.81732451915740956 -0.67797806859016407 0.96323734521865856 -0.81310400366783131 -0.20420229434967038 -0.77857154607772816 -1.2462593913078306 0.94278624653816234 1.0000000180025095e-35 1.132780194282532 -0.84469118714332569 -0.57004010677337635 -0.97348791360855091 -0.84914994239807118 0.91910764575004589 -0.79137670993804921 0.94414713978767406 -0.90706506371498097 -0.91427227854728688 1.0065835118293764 0.16604442149400714 0.96899455785751354 -0.84187740087509144 0.99145588278770458 0.92881920933723461 -0.80953314900398243 0.065151594579219832 1.0000000180025095e-35 0.47413337230682379 -0.25655500590801233 1.2056142091751101 1.0556074380874636 1.3127878308296206 -0.24953743070363996 1.0186121463775637 -1.1763850450515745 1.0357307195663454 -0.55217245221137989 -1.003235340118408 -0.23591373860836026 0.91184034943580639 -1.0499253869056699 -0.57661697268486012 0.94472330808639537 0.87828207015991222 -2.727669239044189 -0.98377245664596547 -0.45910929143428797 1.2280716896057131 -1.5010386705398557 -0.56395009160041798 -0.83321326971054066 -1.6152504086494444 -0.91090315580368031
decision_type=2 2 2 2 2 2 2 2 2 2 2 2 2 2 2 2 2 2 2 2 2 2 2 2 2 2 2 2 2 2 2 2 2 2 2 2 2 2 2 2 2 2 2 2 2 2 2 2 2 2 2 2 2 2 2 2 2 2 2 2 2 2
left_child=1 2 5 25 7 6 14 -5 -8 10 15 29 23 -14 -1 17 21 18 -2 20 34 -17 -19 -13 -6 43 37 28 -7 30 -12 50 41 -18 35 -3 -29 44 42 40 61 -22 -39 -4 46 -42 -11 -31 49 -41 -28 -27 54 -54 -33 -40 -34 -36 -52 -50 -46 -21
right_child=9 19 3 4 24 27 8 -9 -10 26 11 12 13 -15 -16 16 33 22 -20 39 32 -23 -24 -25 -26 51 31 36 -30 47 -32 52 56 -35 57 -37 -38 38 55 48 45 -43 -44 -45 60 -47 -48 -49 59 -51 58 -53 53 -55 -56 -57 -58 -59 -60 -61 -62 -63
leaf_value=0.0039093030086126256 0.097198384166490348 -0.071318691554675975 0.22853814082092813 0.034803372957749004 -0.075407205117475035 -0.09817570790855068 0.0673663593312991 0.1148349567062736 -0.0047489652825546003 0.056367106721248152 0.11502756767648288 0.018388167651239681 0.096355865550768402 0.0078282778849889396 0.095452393183202894 0.14976248243897819 0.11769120251334553 0.1817284649235863 -0.02051955645689172 -0.16611317129777337 -0.051443006606934696 0.10267899992631258 0.078223787600029626 -0.082915518524236023 0.17560833216785057 -0.11381821891500432 -0.11532856965396519 0.10203012337786353 0.021340405392551713 0.088712195599320975 -0.13812429265639861 0.013790220456195983 -0.12706342652626321 -0.042564927591106333 0.22886132161266107 0.17483931996548641 -0.020421878945363112 -0.14567529647289776 0.21172212094636544 0.15587125254437331 -0.15399737580015274 0.075376653792588399 0.1389246500919992 -6.5212400932872201e-05 0.16633562401928126 0.17116247069788323 -0.090005953931546506 0.14627228598308065 0.15048444126182903 0.34502095090295154 0.268045948393827 0.1803238499527765 0.15737815086368123 -0.14798508221313175 -0.10892965965903451 -0.097006819028353175 -0.0044503090287362976 0.11241102137853526 0.095974384500896126 -0.14647206507347432 0.014729952446622591 -0.11393926831467248
leaf_weight=665.07124255597591 2142.0567995319143 146.99274131841958 45.731149293482304 3043.4875096827745 832.52676524966955 474.52346006408334 38326.310857580975 2281.1654019057751 1520.2494351901114 65.259702678769827 96.298664070665836 1373.0475750155747 3245.354793921113 919.43732208386064 18141.928175512701 2210.1683673784137 143.91007924824953 631.82760217040777 1406.4998984951526 34.147041864693165 732.22576027177274 18051.783200249076 1058.0555322766304 549.29117577522993 67.943150497972965 577.45663729310036 16.016844626516104 390.17043796367943 475.61029428988695 376.80231863260269 86.822484821081161 99.289776938036084 585.63658551871777 377.22152230143547 66.241951838135719 58.17715148627758 229.7710845656693 22.794920828193426 7.2586297988891593 104.98209597915411 15.663277968764303 129.39391839504242 511.75035875476897 88.019627681002021 51.960024476051331 58.517602097243071 154.44806624390185 1044.7855871915817 7.6224174797534969 30.381278920918703 21.800127655267715 9.1829218715429288 35.750277057290077 21.641072403639555 343.98928360454738 91.763572797179222 42.297619348391891 111.00216405279934 92.008169621229172 11.633037619292734 23.742217160761356 14.020359098911284
leaf_count=1685 3040 1208 44 12067 4143 2534 108277 2855 6866 247 94 5322 6595 2863 35727 1803 395 543 4563 156 5834 23753 2306 3376 86 4230 156 1041 1418 758 363 1144 3570 1497 23 54 972 315 1 109 82 319 1007 308 27 51 858 1220 3 59 36 19 81 147 10134 1340 269 141 235 79 53 143
internal_value=0 0.0652427 0.068053 0.0379253 0.0509282 0.0715276 0.0734648 0.0690902 0.064615 0.0874787 0.0903883 0.0630466 0.0492202 0.0768121 0.0922152 0.0984704 0.105154 0.0719546 0.0505399 -0.0226001 -0.040166 0.107815 0.116923 -0.0105585 -0.0564673 -0.0744369 0.0245775 -0.000840838 -0.0383493 0.115494 -0.00499829 -0.0330708 -0.0688232 0.00168968 0.0714577 -0.00151911 0.0566453 0.0637034 0.0953477 0.096124 0.00273131 -0.0323978 0.126788 0.0780973 -0.00416445 0.102505 -0.0465288 0.131016 0.170025 0.198324 0.0987995 -0.109214 -0.0672651 0.0422321 -0.0814417 -0.074376 -0.118804 0.155932 0.128935 -0.0289196 0.118788 -0.150927
internal_weight=0 69318.1 67169.1 6945.51 6225.12 60223.6 58653.6 5324.65 39846.6 35272.8 33713.4 7691.84 6087.13 4164.79 18807 26021.5 20783.1 5238.44 3548.56 2148.94 1871.97 20262 1689.88 1922.34 900.47 720.39 1559.47 1570.08 950.134 1604.71 183.121 630.496 1489.55 521.132 382.414 205.17 619.942 928.977 633.567 276.967 122.348 861.62 534.545 133.751 295.41 74.1809 219.708 1421.59 154.619 135.363 129.825 586.64 500.67 57.3913 443.279 99.0222 627.934 177.244 113.808 19.2555 75.7022 48.1674
internal_count=268644 194372 182272 23752 19151 158520 152555 14922 115143 74272 58491 20591 18156 9458 37412 37900 27448 10452 7603 12100 11418 25556 2849 8698 4229 4601 15781 5965 3952 2435 457 11933 9992 1892 1426 1262 2013 3848 2663 682 432 6153 1322 352 1185 133 1105 1978 250 168 427 4249 11506 228 11278 1341 3839 164 271 82 80 299
is_linear=0
shrinkage=0.1


Tree=10
num_leaves=62
num_cat=0
split_feature=30 104 31 95 75 131 107 68 133 34 52 72 135 136 34 98 4 100 131 125 69 7 135 33 5 101 101 72 96 104 68 57 135 72 23 96 4 75 76 28 62 76 3 30 99 99 7 43 64 117 34 74 30 51 131 97 95 77 31 29 134
split_gain=1091.37 1196.14 1624.01 846.776 1238.11 1188.8 1094.76 690.844 678.389 1024.87 950.224 824.479 665.232 631.396 615.016 552.875 536.576 761.143 864.327 504.467 483.817 552.995 1066.25 850.874 455.076 984.693 481.578 434.641 434.619 414.96 435.899 367.46 352.353 350.051 345.625 340.75 719.189 394.569 293.986 281.437 244.64 239.772 217.127 207.403 202.006 187.897 212.679 174.803 252.782 172.594 260.954 128.995 113.255 113.001 68.8967 53.058 46.6847 38.3428 33.758 21.3245 0.77569
threshold=1.0555878877639773 -0.81658974289894093 0.99949616193771373 -1.0494865179061887 -1.1158543825149534 1.0000000180025095e-35 -0.99724191427230824 0.010797883849591019 1.0000000180025095e-35 0.87175175547599804 1.0374722480773928 -0.60377648472785939 1.0000000180025095e-35 1.0000000180025095e-35 0.86100032925605785 -0.823657065629959 0.62256088852882396 -0.95364236831665028 1.0000000180025095e-35 -1.2532340288162229 -0.06624725833535193 0.59314024448394786 1.0000000180025095e-35 0.87387803196907055 0.61030867695808422 -0.87454217672348011 -0.85618278384208668 -0.54500570893287648 -0.89978238940238942 -0.79047435522079457 0.034038107842206962 0.91251316666603099 1.0000000180025095e-35 -0.67783138155937184 1.2762529850006106 -1.0019462108612058 0.62009075284004223 -1.1411772370338438 -1.2119780182838438 1.1583156585693362 0.68911114335060131 -1.1780108809471128 0.63371735811233532 1.0498806238174441 -0.99853369593620289 -0.9344189167022704 0.67183983325958263 1.0783202648162844 0.40294313430786138 -0.94739466905593861 0.87570741772651683 -1.0262719988822935 1.0418053269386294 1.2336956858634951 1.0000000180025095e-35 -0.61407005786895741 -1.0928215980529783 -1.3529613614082334 0.99992108345031749 1.1421278119087221 1.0000000180025095e-35
decision_type=2 2 2 2 2 2 2 2 2 2 2 2 2 2 2 2 2 2 2 2 2 2 2 2 2 2 2 2 2 2 2 2 2 2 2 2 2 2 2 2 2 2 2 2 2 2 2 2 2 2 2 2 2 2 2 2 2 2 2 2 2
left_child=1 8 7 16 35 6 14 47 20 10 52 -12 -8 15 -6 -9 19 42 33 45 21 23 -23 -1 26 -26 -7 43 -15 30 39 -29 40 -19 -32 36 37 -5 -20 -4 -22 -38 59 -11 -44 54 -47 53 -49 60 -51 56 -10 -3 -2 -34 -21 -31 -59 -18 -37
right_child=3 2 29 4 5 24 12 13 9 27 11 -13 -14 28 -16 -17 17 18 38 51 32 22 -24 -25 25 -27 -28 31 -30 57 34 -33 55 -35 -36 49 41 -39 -40 -41 -42 -43 44 -45 -46 46 -48 48 -50 50 -52 -53 -54 -55 -56 -57 -58 58 -60 -61 -62
leaf_value=-0.01984976000005613 0.24530937422094762 -0.091785050758511733 -0.095398171207876373 -0.10358973895723156 0.12051617395566692 0.17456572039789653 0.026872535442741735 0.090037865161779362 -0.14339253938892979 -0.11703030218097871 -0.041488871516913155 0.12245059198806746 0.061359329410123786 0.072819038837323477 -0.0039029496080490093 0.058282265469390464 0.097574027525456963 0.051934785583920597 -0.091903570568213591 0.086443632387014427 0.12774416377053044 0.10005244275083949 -0.10831706804432567 0.076580972529911848 0.10161075821627863 -0.081141263157283094 0.076579312868684746 -0.030205453108633797 -0.072317934520265137 0.082571974575639973 0.013980082879330356 0.089482784229704002 -0.17395018983079819 0.17135500758399555 0.1188630061778001 -0.13107386722571399 -0.079132355827755851 0.12974700926183649 0.0738873555056032 0.056208870335489394 0.013328455800851706 0.093023759198291922 0.13635931028315204 -0.0081813073203127491 0.071610642015010204 0.14796804114735154 -0.083336373572482525 0.25243296566157197 -0.041593408845872502 0.050320539352525444 -0.095138460519660184 0.13439723774014189 -0.027086269592420539 0.14992806144438736 0.17782337192992306 0.058690610406908851 -0.1577750750034716 -0.047667037287435605 -0.11699036153485134 0.17325343917139857 -0.12135573536137184
leaf_weight=1010.8130321279168 274.18892551958561 373.4140603877604 542.32885826565325 86.018119722604752 2543.646142475307 1229.2134960591793 18221.17915456742 10406.870435532182 127.4231793358922 413.63069561123848 348.4527442753315 2564.4682605713606 8070.7401945888996 344.55381687730551 470.83383633941412 11586.810070459731 40.173448324203491 1638.1572749465704 561.72841769456863 8.9032708555459958 4450.4258875316009 15810.11375368759 249.45316398888826 9656.2084351480007 1560.2463854625821 363.52767552435398 847.31788747012615 505.70108493044972 514.29405411332846 11.682560622692106 2644.9978828169405 520.55951975658536 45.912966847419739 288.71763408184052 356.5452006496489 237.96351284906268 656.47241988033056 460.10446693003178 132.11024974286556 158.15241328626871 195.06793089956045 92.272051490843296 788.78419221937656 303.49134917929769 1238.2345322817564 249.2919045984745 47.293169736862183 43.097359895706177 90.936243690550327 203.67017085105181 312.67869894206524 25.056207865476608 244.13260494917631 20.397652968764305 337.46219734847546 12.46501713991165 64.773596212267876 90.930041152983904 308.79875502735376 508.59999080747366 125.42475886642933
leaf_count=2828 141 4900 3164 457 3730 1195 62082 19481 537 1751 1354 3451 25203 659 1360 38069 53 4213 2976 11 2650 26206 1274 17619 3104 1790 2415 1710 2036 25 8948 1116 190 383 585 1424 3382 837 376 630 488 225 824 1025 2650 357 212 76 731 753 1739 25 796 9 271 23 314 450 2217 268 876
internal_value=0 0.0729656 0.0572169 0.0521696 0.0462101 0.0509832 0.0440033 0.0674111 0.0848419 0.0507364 0.0836296 0.10284 0.0374588 0.0700236 0.101083 0.0733082 0.0862558 0.0733093 0.0353671 0.153066 0.0902977 0.0850927 0.0968158 0.0674431 0.102119 0.0670769 0.134583 -0.0112334 -0.0140917 -0.000726031 0.00986209 0.0305051 0.119872 0.0698284 0.0264388 -0.0268964 0.00573176 0.0929948 -0.0603362 -0.0611688 0.12294 -0.0579166 0.111913 -0.0709646 0.0968066 0.176403 0.111084 -0.0456929 0.0529483 -0.074921 -0.0377632 -0.0616059 -0.0669729 -0.0792654 0.208076 -0.124276 -0.128263 -0.0960017 -0.101221 0.167713 -0.12772
internal_weight=0 63952.1 27493.8 41684.8 35481.3 33306.7 29306.4 23380.4 36458.3 5027.86 3284.48 2912.92 26291.9 22852.5 3014.48 21993.7 6203.48 5196.51 2620.71 1006.97 31430.5 26726.6 16059.6 10667 4000.31 1923.77 2076.53 1743.38 858.848 4113.44 3702.02 1026.26 4703.87 1926.87 3001.54 2174.6 1294.87 546.123 693.839 700.481 4645.49 748.744 2575.79 717.122 2027.02 908.236 296.585 527.845 134.034 879.737 516.349 98.7331 371.556 393.812 611.651 58.378 73.6769 411.411 399.729 548.773 363.388
internal_count=268644 144998 81980 123646 110572 100879 92375 65961 63018 11740 6138 4805 87285 60245 5090 57550 13074 11743 7948 1331 51278 47927 27480 20447 8504 4894 3610 5602 2695 16019 13327 2826 3351 4596 9533 9693 4901 1294 3352 3794 3138 3607 3795 2776 3474 981 569 5716 807 4792 2492 350 1333 4909 412 213 325 2692 2667 321 2300
is_linear=0
shrinkage=0.1


Tree=11
num_leaves=63
num_cat=0
split_feature=71 103 30 103 59 101 70 31 103 104 71 56 104 32 136 100 72 37 104 94 69 39 132 0 71 62 38 69 67 105 33 28 48 103 16 106 122 71 31 60 102 69 54 40 104 69 132 84 102 4 98 28 72 106 71 70 106 105 49 127 37 35
split_gain=1032.04 1342.74 654.247 962.72 869.292 1561.1 1123.71 655.189 855.99 667.598 599.764 594.864 584.591 629.379 875.269 632.888 750.326 546.1 545.826 474.965 471.956 453.454 441.583 465.654 423.781 446.146 414.006 411.445 367.36 348.079 336.546 294.593 383.53 524.379 271.696 268.531 248.995 240.646 230.171 226.756 205.437 304.578 195.723 188.944 187.03 176.391 173.892 170.945 153.156 365.445 138.049 250.253 137.411 131.087 126.048 95.7397 95.3797 83.1022 69.5193 50.7934 28.0771 6.72101
threshold=-0.42060482501983637 -0.80168092250823964 1.0577966570854189 -0.83255639672279347 0.78703099489212047 -0.83738580346107472 -0.28938555717468256 0.98629066348075878 -0.90091195702552784 -0.90318867564201344 -0.45306830108165735 0.96057772636413585 -0.8149411380290984 0.96703565120697033 1.0000000180025095e-35 -0.76342502236366261 -0.53670442104339589 0.93909257650375377 -0.82547512650489796 -0.9887501299381255 -0.046644266694784157 0.99601927399635326 1.0000000180025095e-35 0.34343431890010839 -0.47227865457534784 0.55798807740211498 0.96463388204574596 0.0031704369466751818 0.18086536228656772 -0.83177971839904774 0.92881920933723461 1.1047851443290713 1.1375458836555483 -0.8303508162498473 0.97517433762550365 -0.95226868987083424 -1.3918482065200803 -0.44045700132846827 1.0002478361129763 0.72481927275657665 -0.78583884239196766 -0.040976228192448609 1.0672522187232973 1.0794850587844851 -0.75898069143295277 -0.075931910425424562 1.0000000180025095e-35 -0.90956115722656239 -0.79489174485206593 0.49192161858081823 -0.9026099145412444 1.14209520816803 -0.55681198835372914 -0.91090315580368031 -0.4317145943641662 -0.23720002174377439 -0.81208625435829151 -0.87687069177627552 1.155184864997864 -1.6366114616394041 0.94238880276680004 0.91037148237228405
decision_type=2 2 2 2 2 2 2 2 2 2 2 2 2 2 2 2 2 2 2 2 2 2 2 2 2 2 2 2 2 2 2 2 2 2 2 2 2 2 2 2 2 2 2 2 2 2 2 2 2 2 2 2 2 2 2 2 2 2 2 2 2 2
left_child=1 2 4 7 6 11 18 9 -9 -4 -7 -6 17 14 15 26 -17 31 -1 45 -21 28 23 34 38 -26 -14 40 30 -8 37 35 33 -33 -19 39 -25 -3 -5 -2 41 -15 -42 44 -29 -16 -37 -34 49 58 59 -52 60 57 -32 -51 -45 -24 -23 -30 -50 -55
right_child=12 21 3 24 5 10 29 8 -10 -11 -12 -13 13 27 19 16 -18 22 -20 20 -22 48 53 36 25 -27 -28 43 50 -31 54 32 47 -35 -36 46 -38 -39 -40 -41 42 -43 -44 56 -46 -47 -48 -49 52 55 51 -53 -54 61 -56 -57 -58 -59 -60 -61 -62 -63
leaf_value=0.070177900284849812 -0.10173848449757246 -0.024869759264011162 0.046813254224475173 -0.002258439275227851 0.053740623492882014 -0.062956140585229012 0.13818486680128525 0.086849717174636881 0.046382616786039804 -0.013682547608950766 0.021526374298917551 0.12483904589030531 -0.035512868707055327 -0.0078955384642264634 -0.15976193595418331 -0.078355484669860753 0.05636886347661018 0.076125922845227692 -0.02297681192710159 -0.13302363609249312 0.044297723187628466 0.24092527686326318 0.11970616918508103 -0.16551533363787441 0.086932651568976893 -0.021945315289944409 0.089325968675668582 0.16717173121517387 0.21522096999797766 0.036930727790535474 -0.12672511880756987 0.084837210360651477 -0.0062688603397640236 -0.022545237941181812 0.017344582622041006 0.057062934068854702 0.10884386018985015 0.051733519865009708 -0.10742328699123618 0.096207209905214724 -0.06034021729200785 0.14671680005033191 0.036877449553075058 -0.15072988453556685 -0.0010377416864410358 0.1254745612484349 -0.12696602156698819 0.11329632191884156 -0.027309361135697863 -0.10663731658538643 -0.14924642065161001 0.27746575825891212 0.11335813916636164 0.20872647562618815 -0.021673609757467981 0.1331287146337565 0.07158347161991746 0.075311480678005541 0.0096640423216732968 0.11512835951992989 -0.12845937695280221 0.26464486926187708
leaf_weight=13365.654678476974 75.024760246276855 769.04920576978475 4768.3967489805073 326.44549104571342 2813.1395077891648 1038.8088710233569 3312.6696551032364 6995.4233015663922 20678.919589363039 2954.3743445239961 4398.0016503743827 2023.0744228251278 272.39476407226175 474.34271813184023 24.282370880246162 439.94796340167522 6847.5530119640753 1953.1710275150836 660.05399474129081 440.64156522601843 227.64414849132299 51.008517481386662 4816.5356845483184 33.424986004829407 576.8298546820879 1082.889298401773 10726.026253901422 276.22408871352673 88.968962043523788 378.2783173751086 259.44002692587674 970.93800407648087 131.05288265645504 855.39576084911823 1316.2312975786626 67.755615474656224 3194.754873983562 878.61799425911158 574.16185167618096 253.12488293647766 860.34617564082146 174.20478469878435 272.73329328373075 40.646935068070889 86.896001681685448 202.32851599156857 212.01078499853611 1365.5560291334987 29.175704818218946 185.32735793478787 42.458742462098598 20.322169259190559 26.021281331777573 38.903750039637089 204.04720389842987 18.298245094716549 36.744120985269547 462.10151334106922 17.444012366235256 117.86634588241577 461.88770706020296 48.032364755868912
leaf_count=26922 254 5915 14725 1573 6027 5293 3788 12788 60099 12153 12810 2751 1277 2162 121 2232 24232 3816 3696 2126 514 28 2036 150 1635 4924 18501 246 29 1192 1501 1299 392 2229 3603 119 3450 2279 4261 316 4838 219 1020 191 221 198 752 1517 216 1049 212 10 28 25 692 21 70 365 51 90 3374 21
internal_value=0 0.0506388 0.0536947 0.0451416 0.0652937 0.0421504 0.0787134 0.0494248 0.0566117 0.0236704 0.00538434 0.0834824 0.0712972 0.0605281 0.0663648 0.0710905 0.0482355 0.0858908 0.065794 -0.0301978 -0.0726211 -0.0129347 0.0965945 0.0790623 -0.0140742 0.0158949 0.0862341 0.010147 0.00884065 0.127808 -0.00519719 0.0535876 0.0652968 0.0345427 0.0524611 -0.0104164 0.106003 0.0159789 -0.0693039 0.0509509 -0.0112494 0.0336345 -0.0369398 0.0966837 0.126919 0.0949102 -0.0823967 0.102826 -0.0786274 -0.0178955 0.11876 -0.0111198 -0.110583 0.117826 -0.0804769 -0.0850914 -0.0451788 0.11582 0.181992 0.158183 -0.12245 0.239621
internal_weight=0 69117.1 65947.1 37957.4 27989.7 10273 17716.7 35397.1 27674.3 7722.77 5436.81 4836.21 37197 21403 19180.8 18285.9 7287.5 15794 14025.7 894.897 668.286 3169.93 11863.2 6497.58 2560.33 1659.72 10998.4 2222.14 2380.77 3690.95 2111.15 3930.86 3322.94 1826.33 3269.4 607.916 3228.18 1647.67 900.607 328.15 1781.63 648.548 1133.08 440.511 363.12 226.611 279.766 1496.61 789.163 272.078 269.616 62.7809 517.085 5365.57 463.487 203.626 77.3911 5278.64 68.4525 206.835 491.063 86.9361
internal_count=268644 190132 174637 112158 62479 26881 35598 99765 72887 26878 18103 8778 78512 58168 49201 46242 26464 20344 30618 2959 2640 15495 13466 11019 12393 6559 19778 8967 10728 4980 10387 6878 5437 3528 7419 1441 3600 8194 5834 570 8239 2381 5858 728 467 319 871 1909 4767 1149 341 222 3618 2447 2193 1070 261 2401 79 119 3590 46
is_linear=0
shrinkage=0.1


Tree=12
num_leaves=61
num_cat=0
split_feature=73 99 54 103 70 102 54 30 133 34 56 33 54 71 107 40 109 2 71 105 32 72 53 10 4 100 94 103 31 99 129 55 98 30 43 89 51 69 55 59 69 69 74 56 135 65 18 124 17 24 73 96 26 108 31 20 53 94 21 21
split_gain=920.821 1866.44 1761.36 909.225 1128.42 1568.28 1221.11 592.969 763.762 1834.52 1225.96 1139.85 1503.05 1519.72 704.38 691.665 622.758 1344.08 577.874 532.972 532.546 635.369 494.292 453.013 401 393.076 377.043 337.438 330.35 320.835 287.302 343.689 279.834 270.587 270.335 266.831 257.114 222.221 179.321 169.33 449.964 187.425 158.03 150.465 148.144 147.054 144.322 141.095 137.242 125.691 106.808 87.1562 81.3336 72.4252 66.7214 42.9618 42.7162 36.4561 0.760966 0.675339
threshold=-0.79170241951942433 -0.86802133917808522 1.0281373858451845 -0.82768556475639332 -0.32014843821525568 -0.86531409621238697 0.98377844691276561 1.0833193659782412 1.0000000180025095e-35 0.87000253796577465 0.8711860477924348 0.87461405992507946 1.0202069282531741 -0.39714349806308741 -0.97209590673446644 0.98981276154518139 -1.1247527599334715 0.5452837646007539 -0.44045700132846827 -0.93612402677536 0.95291632413864147 -0.63985607028007496 1.103312134742737 0.72635331749916088 0.4989281445741654 -0.8325476050376891 -1.009217321872711 -0.88872697949409474 1.0002478361129763 -0.8618369698524474 1.0000000180025095e-35 1.0093585252761843 -0.86045625805854786 1.0548848509788515 1.0366546511650088 -0.29348708689212794 0.97997748851776134 -0.059945710003376 0.99333569407463085 0.76864302158355724 -0.14151001721620557 -0.046644266694784157 -0.98872640728950489 0.92217370867729198 1.0000000180025095e-35 0.099356018006801619 1.4017722606658938 -1.3492775559425352 1.0917498469352724 1.4962654709815981 -0.81133601069450367 -0.894586682319641 1.3709424734115603 -0.99976646900176991 1.0033749341964724 1.1770664453506472 1.0340329408645632 -1.1433458328247068 1.4954686760902407 1.4954686760902407
decision_type=2 2 2 2 2 2 2 2 2 2 2 2 2 2 2 2 2 2 2 2 2 2 2 2 2 2 2 2 2 2 2 2 2 2 2 2 2 2 2 2 2 2 2 2 2 2 2 2 2 2 2 2 2 2 2 2 2 2 2 2
left_child=1 2 3 4 5 -1 -6 8 11 10 19 16 15 -14 -12 -13 35 -18 26 -10 21 22 23 -3 47 -20 -11 36 33 37 31 -26 34 -5 -23 -2 45 43 -30 40 -31 -41 -32 -22 56 46 -9 50 -24 52 -4 -34 -38 -46 -55 -39 58 -49 -29 -47
right_child=7 20 24 28 6 -7 -8 27 9 18 14 12 13 -15 -16 -17 17 -19 25 -21 29 32 48 -25 30 -27 -28 44 38 39 42 -33 51 -35 -36 -37 49 55 -40 41 -42 -43 -44 -45 53 59 -48 57 -50 -51 -52 -53 -54 54 -56 -57 -58 -59 -60 -61
leaf_value=0.043945341281601998 0.070296535899279936 -0.10212415955660797 0.12511566755001272 -0.015022832125359837 0.19970819122873695 -0.026164248077072728 0.064125706066140778 0.22852321635637185 0.020460401741819945 0.22093012150069524 0.09692481737955555 0.067525313116953686 0.032210053743236142 0.075037794818787792 -8.8902727444898498e-06 0.11971011683373188 -0.059246429581970232 0.092563296371132905 0.09604342590384396 -0.11310904708487374 0.083048028097563134 -0.14907687286919052 -0.13033626871183782 0.01852351073296005 0.090285493392683602 -0.016943419226782767 -0.09790657493189342 -0.16194921392790856 -0.087705543286552487 -0.1160883311536229 -0.008877407376103574 0.14409064048728606 -0.14448752928486894 0.12982157918216589 0.10566679490177906 -0.10856328475324453 0.10888136070994339 0.047743833639580874 0.073042797926753625 -0.11804564117154036 0.19227955772402627 0.068729775337151508 0.075153471254270049 -0.050751309883308539 0.1917511452855267 -0.16988950014118023 -0.12787706750791669 0.1263861636039238 0.15780847846912094 0.31870486783065455 -0.17210871926149637 0.027138895772174938 0.16619004149836991 0.18844408047184585 -0.16741750808323483 0.20654847024914341 0.03471902527278866 -0.15628487368787233 -0.12395741501535583 -0.12943503747788432
leaf_weight=23770.898655304685 1720.3179950471967 771.71125625446439 48.319468572735786 650.6202588044107 810.82390120252967 3685.2003178447485 3675.3506140336394 30.083526626229286 909.02252350747585 38.430602088570595 4937.393212325871 4012.3184902332723 13745.695726469159 20857.577488899231 883.84309607744217 6920.8058599382639 1947.0378659386188 832.60591544955969 368.93326864391565 444.9714229516685 103.26295092701912 43.937689172104001 18.520439904183149 521.56657323427498 3563.7008099332452 1861.4669699408114 1063.0477700158954 54.061416171491146 827.3948216792196 136.3121649492532 301.49725747108459 1780.2372479587793 68.514995735138655 160.86298567801714 802.79220448061824 87.65852977335453 373.61680223047733 25.261365085840225 75.749886274337769 976.87939846888185 72.480205699801445 56.853178590536118 868.4545723721385 451.6853695679456 32.248944252729416 35.389938950538635 18.257570184767246 4.8108859062194815 153.78108412399888 44.266923561692238 16.124947175383568 52.080562595278025 734.48258993029594 8.185811325907709 14.784649923443792 52.315901577472687 14.189575910568236 88.389054425060749 5.8418227583169928 4.6712489426136008
leaf_count=66952 4524 4434 64 3628 933 16077 9441 33 2019 28 7434 7655 37171 32774 3284 8668 15396 1109 556 1810 322 213 176 1892 6567 6164 4127 237 4319 791 660 1862 390 451 1596 2574 495 48 144 6043 56 91 1439 2135 21 147 110 1 194 26 70 251 433 6 62 15 34 427 38 27
internal_value=0 0.0409458 0.0476291 0.0383246 0.0421326 0.0345351 0.0886307 0.0597822 0.0583121 0.0337982 0.0622721 0.0634508 0.0682373 0.058025 0.0822073 0.100559 0.0159406 -0.0137738 -0.0275205 -0.0234354 -0.0216194 0.00924705 -0.0322705 -0.0534681 0.0945691 0.00174587 -0.0867824 0.124839 -0.0326163 -0.0616691 0.0983831 0.10821 0.0721497 0.0136902 0.0924479 0.0616246 0.14086 -0.00369312 -0.074223 -0.0911826 -0.00904147 -0.107773 0.0534987 -0.0258544 -0.0288879 -0.0234942 0.0939172 -0.0630252 0.126836 0.153468 0.0507457 -0.0703687 0.146867 0.0950957 -0.0406018 0.154837 -0.12129 -0.141694 -0.158244 -0.165172
internal_weight=0 44636.4 40328.4 33656.9 31942.3 27456.1 4486.17 62001.2 60631.1 10507.1 7175.23 50124 45536.4 34603.3 5821.24 10933.1 4587.62 2779.64 3331.88 1353.99 4307.96 2432.9 1465.58 1293.28 6671.53 2230.4 1101.48 1370.08 1714.63 1875.05 6513.89 5343.94 967.325 811.483 846.73 1807.98 1240.77 632.526 903.145 1242.52 208.792 1033.73 1169.95 554.948 129.312 88.4023 48.3411 157.644 172.302 1152.37 64.4444 120.596 1108.1 55.2194 22.9705 77.5773 74.0928 93.1999 59.9032 40.0612
internal_count=268644 131682 113035 101945 93403 83029 10374 136962 135293 25422 14547 109871 86268 69945 10718 16323 23603 16505 10875 3829 18647 9146 6696 6326 11090 6720 4155 1669 8542 9501 10528 8429 2450 4079 1809 7098 1271 2520 4463 6981 847 6134 2099 2457 398 317 143 562 370 954 134 641 928 89 68 63 309 428 275 174
is_linear=0
shrinkage=0.1


Tree=13
num_leaves=63
num_cat=0
split_feature=71 103 136 96 59 32 40 71 30 102 102 34 70 98 82 100 71 99 70 103 59 72 69 33 103 72 37 56 106 100 106 39 133 73 101 32 64 51 72 131 78 102 28 72 71 106 22 68 70 0 20 37 29 84 111 39 132 106 101 105 33 34
split_gain=845.976 1005.82 764.434 900.942 1298.17 659.876 583.847 694.096 564.135 606.583 555.518 434.916 788.121 433.876 422.849 403.17 924.821 450.299 664.552 377.717 510.451 346.888 337.262 386.237 336.11 327.538 305.027 294.691 286.011 241.593 238.177 216 203.041 196.475 196.007 186.605 193.79 176.113 171.892 143.997 143.966 143.371 138.893 136.993 136.806 91.6808 89.5789 138.587 86.8857 77.2284 59.7345 46.5395 46.7058 39.6613 28.3176 26.3029 7.6165 4.74006 2.50719 2.35433 0.483156 0.151961
threshold=-0.42332388460636133 -0.80168092250823964 1.0000000180025095e-35 -0.97529813647270192 0.73403707146644603 0.96232056617736828 0.66710492968559276 -0.44045700132846827 1.1010878682136538 -0.9560415744781493 -0.67797806859016407 0.91720363497734081 -0.29818201065063471 -0.95660322904586781 -1.267408490180969 -0.82596194744110096 -0.37809559702873224 -0.77857154607772816 -0.1493003964424133 -0.84669142961502064 0.7227100431919099 -0.62873008847236622 -0.081161491572856889 0.92791768908500682 -0.78357478976249684 -0.52393600344657887 0.94278624653816234 0.98298028111457836 -0.94033473730087269 -0.83598533272743214 -0.91689980030059803 0.99145588278770458 1.0000000180025095e-35 -0.78290385007858265 -0.84874749183654774 0.88043963909149181 0.4423928856849671 1.0580762028694155 -0.39192096889019007 1.0000000180025095e-35 -0.42351907491683954 -0.83126389980316151 1.3290680646896365 -0.60028311610221852 -0.38757717609405512 -0.9084799289703368 1.2779350280761721 0.028824117965996269 -0.25467003881931299 1.0000000180025095e-35 1.2806056141853335 0.95131090283393871 1.0759371519088747 -1.3993026614189146 -1.0544306635856626 0.97997254133224498 1.0000000180025095e-35 -0.91090315580368031 -0.82761815190315235 -0.8534962236881255 0.92912477254867565 0.92421549558639537
decision_type=2 2 2 2 2 2 2 2 2 2 2 2 2 2 2 2 2 2 2 2 2 2 2 2 2 2 2 2 2 2 2 2 2 2 2 2 2 2 2 2 2 2 2 2 2 2 2 2 2 2 2 2 2 2 2 2 2 2 2 2 2 2
left_child=1 2 8 4 14 10 54 -8 11 42 19 12 -1 -6 -4 26 24 25 -19 37 56 -13 23 35 27 -18 34 -17 -22 51 38 49 -11 43 55 57 -37 50 59 -35 -40 -39 -10 -28 -26 -33 48 -48 -25 -32 -2 53 -53 -24 -5 -7 -21 -3 -36 -12 -31 -62
right_child=5 22 3 6 13 15 7 -9 9 32 30 21 -14 -15 -16 16 17 18 -20 20 28 -23 29 46 44 -27 33 -29 -30 60 31 45 -34 39 58 36 -38 41 40 -41 -42 -43 -44 -45 -46 -47 47 -49 -50 -51 -52 52 -54 -55 -56 -57 -58 -59 -60 -61 61 -63
leaf_value=0.04299994464326392 0.14308108917480306 -0.14874420367357885 -0.074585463533562199 0.18576442511976166 0.17318440505554022 0.0088087478062917716 -0.088262097772511774 0.014564028019268144 0.12304472438654045 -0.10582783430733669 -0.17609100823169116 -0.093023842943359858 0.072619292510468766 0.063216938868724926 0.10730559326716967 -0.026123496304527295 0.051670064153860495 -0.078369423521124679 0.073742903975147087 -0.15441118919923516 0.090343145417173198 0.019807675760457881 0.10540776253112988 -0.13175077924231252 -0.11150891959986936 0.12238998823114844 0.030255685880928314 0.05923637863682072 0.066183479722016395 -0.15511783365240725 0.10263120771655239 -0.013877911457392323 0.0020651584913477469 0.095523169061011881 -0.1853121059731275 0.029508082342180303 -0.045528435782872329 -0.0074152870988353978 0.06647597057278766 -0.034176585396755901 -0.11097244491278953 -0.13793038015705988 -0.020542234920105183 -0.16445685147044475 -0.029431230186207441 -0.093893340203574288 -0.1312579162310952 0.11629960271826112 -0.057467516108278299 -0.12800903512768988 0.015106562093667793 0.15853625711221164 -0.15984434035272699 0.19930443954809204 0.082331742162483817 0.15908997219570445 -0.21801430684959194 -0.10786049986910645 -0.14284104165153719 -0.1281838270139693 -0.1354931923483538 -0.12007148378212854
leaf_weight=45083.664217780344 82.239369109272957 58.034471932798624 920.82291430793703 112.18160043656826 434.26924332976341 23.654235281050205 1506.7072970513254 1163.3204833492637 261.55776637047529 545.87131099402905 15.731997434049843 325.46276021562517 11218.924993207678 2064.2134756296873 148.40841628611088 1255.9104328937829 2886.5336799882352 586.40088973939419 562.92066783085465 53.529848987236619 6541.0489425584674 1673.6363534405828 177.1753157582134 417.7987571619451 461.5680542960763 847.09529429674149 199.75253428518772 596.55421740561724 19531.843703076243 11.533271521329878 127.79710580967367 247.51029058359563 256.32202310860157 1983.4776602834463 61.234100326895714 1016.8391225002706 520.28867534175515 344.5978179872036 745.90756356716156 89.460940532386303 48.706335724331439 111.36811570823193 90.738489910960197 44.113375186920166 362.61169909313321 339.76607115287334 42.014146966859698 48.972219552844763 252.69246738404036 16.378652391955256 65.541495636105537 7.6751214563846615 11.528707809746264 60.29335905611515 34.643240792676806 22.942431539297104 29.042838260531425 55.457933813333511 17.981128931045532 29.481560669839382 23.209308385848999 8.8167202621698362
leaf_count=116766 64 304 5584 44 568 44 7778 3001 259 2531 98 1728 22848 4930 404 4885 6062 2382 917 713 6220 4860 222 2878 2875 957 527 1505 32072 54 329 1561 959 2597 258 4038 2590 907 2102 254 960 484 411 211 1606 10419 439 69 1188 122 117 3 61 23 48 11 125 2189 89 203 122 69
internal_value=0 0.0399143 0.0423728 0.00949102 0.0428697 0.0584642 -0.0327851 -0.0434612 0.0459037 -0.0233174 0.0662601 0.0472745 0.0489019 0.0823307 -0.0493391 0.0363828 0.0249705 0.0508666 -0.00386706 0.0696533 0.0714584 0.00143817 -0.019765 -0.0322056 -0.0222712 0.0677152 0.0717026 0.00136518 0.0722445 0.0801848 0.00847284 -0.0332453 -0.0713532 0.0799375 -0.0799415 -0.00502658 0.00410964 -0.00854552 0.0448075 0.0899258 0.0555992 -0.0392932 0.086062 -0.00496624 -0.0753975 -0.0601705 -0.0911204 0.00198667 -0.103755 0.07643 0.0863238 0.117139 -0.0325984 0.129248 0.16136 0.0828015 -0.176782 -0.128766 -0.175672 -0.144853 -0.137568 -0.131248
internal_weight=0 68553.1 65840.7 6384.57 3567.71 38332.7 2816.85 2670.03 59456.2 1154.49 28330.5 58301.7 56302.6 2498.48 1069.23 10002.2 7559.59 4882.95 1149.32 26759.2 26155.5 1999.1 2712.33 2412.1 2676.64 3733.63 2442.62 1852.46 26072.9 300.232 1571.28 731.452 802.193 2316.8 125.812 1650.62 1537.13 603.747 839.827 2072.94 794.614 455.966 352.296 243.866 824.18 587.276 761.478 90.9864 670.491 144.176 147.781 256.673 19.2038 237.469 146.825 46.5967 82.5727 113.492 79.2152 45.2136 43.5593 32.026
internal_count=268644 186968 172719 22357 11486 81676 10871 10779 150362 4160 56496 146202 139614 5498 5988 25180 21189 10318 3299 40702 39130 6588 14249 13695 10871 7019 3991 6390 38292 554 15794 12431 3490 3589 402 9121 6628 1572 3363 2851 3062 1391 670 738 4481 11980 4574 508 4066 451 181 309 64 245 92 55 838 2493 347 301 245 191
is_linear=0
shrinkage=0.1


Tree=14
num_leaves=59
num_cat=0
split_feature=132 33 30 79 108 55 134 62 32 94 75 93 5 4 105 77 129 71 54 135 106 69 101 30 1 98 111 72 130 71 31 111 105 126 28 62 25 97 83 31 126 71 106 104 33 52 39 29 65 21 101 70 37 29 101 71 106 110
split_gain=785.459 1370.65 929.569 1305.51 1457.05 769.863 888.862 781.349 701.682 550.76 1369.21 902.035 744.846 723.857 916.966 688.925 644.095 534.527 506.595 828.158 612.774 485.231 509.055 379.941 378.487 360.192 354.512 513.78 320.712 299.195 283.253 274.531 254.744 245.721 223.12 187.394 215.546 190.113 158.79 155.133 129.347 366.724 230.452 122.755 90.4586 69.5328 61.7895 16.0431 63.5704 4.92549 3.34005 3.95535 3.2768 1.71157 4.03154 0.842583 0.714634 0.254269
threshold=1.0000000180025095e-35 0.88521623611450206 1.063858211040497 -1.0624220371246336 -1.0583265423774717 1.0285885930061343 1.0000000180025095e-35 0.66891244053840648 0.90761891007423412 -1.0581017732620237 -1.0993595123291013 -1.0726821422576902 0.58148190379142772 0.60930654406547557 -0.90135103464126576 -1.2723373174667356 1.0000000180025095e-35 -0.40092705190181727 0.89590322971344005 1.0000000180025095e-35 -0.89951732754707325 0.013734091538935901 -0.75215142965316761 1.0301945805549624 0.72487547993659984 -0.75502237677574147 -0.9445340335369109 -0.54500570893287648 1.0000000180025095e-35 -0.3930284827947616 0.99112936854362499 -0.89141839742660511 -0.9298463463783263 -1.386580169200897 1.3391049504280093 0.64999249577522289 1.1258088350296023 -0.80564737319946278 -1.2189596295356748 0.9646798074245454 -2.2003928422927852 -0.4104329645633697 -0.92167145013809193 -0.88497853279113758 0.88853198289871227 0.82851555943489086 0.97702491283416759 1.1520469188690188 0.14496081322431567 1.4954686760902407 -0.77810573577880848 -0.25467003881931299 0.93785449862480175 1.110648572444916 -0.82057124376296986 -0.42060482501983637 -0.91090315580368031 -1.168465197086334
decision_type=2 2 2 2 2 2 2 2 2 2 2 2 2 2 2 2 2 2 2 2 2 2 2 2 2 2 2 2 2 2 2 2 2 2 2 2 2 2 2 2 2 2 2 2 2 2 2 2 2 2 2 2 2 2 2 2 2 2
left_child=5 2 3 23 17 9 7 26 -6 13 11 12 -11 15 34 31 -16 -5 20 -20 -12 22 -9 24 -2 -23 27 -7 -28 50 -13 -1 53 -17 -15 37 -37 -31 39 -4 41 52 -43 44 -42 -25 -45 48 -40 -49 51 -8 -34 54 -3 -52 -41 -56
right_child=1 32 38 4 8 6 29 21 -10 10 18 30 -14 14 16 33 -18 -19 19 -21 -22 25 -24 45 -26 -27 28 -29 -30 35 -32 -33 40 -35 -36 36 -38 -39 47 56 43 42 -44 46 -46 -47 -48 49 -50 -51 55 -53 -54 -55 57 -57 -58 -59
leaf_value=-0.15551509270601332 -0.12466975285673781 -0.3127574968089688 0.25197063448671903 -0.12868903839454077 -0.081996602238603028 0.037672486626245588 -0.1284742138518998 0.044729571035079463 0.048805606256565291 0.083612368288959016 0.020092822713320767 -0.006631643896405616 -0.014098068833585987 0.093395547346935781 0.0070849572483628696 0.17829256087831624 0.086189913272389229 0.064213790364622367 0.033248279396209626 0.070876369330881497 -0.080455649755984016 0.11034358359146948 -0.031224541738258584 -0.057978562650402188 0.093343269998855963 -0.0012987363799262606 0.084183996754664106 0.11274574301530145 0.1493010234402464 -0.15286224953511812 -0.09202631908868518 0.067961092173198082 -0.20891274222430412 0.041808714642823437 -0.031876939598117299 0.14248862312622698 -0.1022072151066076 0.29147856565283997 0.1367287652586425 -0.19215447018520643 0.086719675719648948 0.099124892585302007 -0.016638514894162262 0.11091479048583495 -0.15039446964277681 0.12542779575761298 0.15011477949093335 -0.17314738551005532 -0.1743775505609515 -0.14577780212515454 -0.11110217842262529 -0.16131443201526655 -0.29997644844275895 -0.18023261627754386 -0.22411606370714532 -0.12655159311521022 -0.14711109754519708 -0.19543203228499728
leaf_weight=55.895763993263245 130.36982103809714 5.3906681984663054 20.654770523309708 149.67010575532913 1556.6475977934897 2205.0904939360917 91.255918856710196 2766.1004754453897 556.82091800868511 1077.7769720051438 3043.4422639757395 526.63891489803791 2825.2594504635781 2652.2701786980033 6405.4973817523569 874.35318844020367 1226.3676354885101 3568.6400504559278 48085.516487007961 6659.1095346156508 756.83204546011984 1268.452173307538 1295.7354862950742 20.887898862361908 204.61029228568077 374.24927036836743 1616.9886373840272 1554.0749076902866 1421.0667542517185 12.647056043148039 1480.1036677733064 3320.1876801829785 32.967376679182053 155.34704165160656 150.22972995787859 51.198790907859802 121.25552877783775 40.349344126880169 9.3337151110172289 5.1818241178989437 40.161502942442894 4214.5211665183306 179.27921824157238 831.59352520108223 26.842762351036072 1990.299073792994 778.58358204364777 116.05743472278118 22.166371643543243 151.69710829854012 57.192945623770356 61.318863928318024 4.4896033257246009 6.391275778412818 5.9240923672914541 92.225055500864983 10.997935578227041 6.4607305079698527
leaf_count=259 415 25 4 527 13902 5875 659 4694 788 1636 10145 1795 10431 3937 24541 650 1468 7891 123570 14095 5426 1062 3751 90 190 960 2464 2178 1246 60 8042 6051 133 316 670 36 605 41 10 21 39 2235 394 434 89 1400 234 479 91 889 715 265 21 26 25 572 51 26
internal_value=0 0.0633712 0.0374085 0.044107 0.0187646 0.0384443 0.0609718 0.0663367 -0.047535 0.0347427 0.0307437 -0.0151302 0.0128835 0.0521114 0.0377603 0.0860997 0.0197964 0.056449 0.0353745 0.0378253 6.83982e-05 0.0390474 0.0205 0.1071 0.00849549 0.0849086 0.0892391 0.0687085 0.114643 -0.0661898 -0.0696158 0.0642611 0.0994157 0.157702 0.0866802 0.0209792 -0.0295611 0.185441 -0.125584 0.0703353 0.100698 0.0917453 0.0944014 0.124351 -0.00827127 0.123523 0.12987 -0.149699 -0.0821944 -0.157641 -0.131265 -0.141672 -0.219828 -0.224614 -0.240572 -0.120638 -0.161537 -0.209153
internal_weight=0 14646.6 8514.03 8177.95 5831.78 92324 13029.2 12501.8 2113.47 79294.8 64454.7 5909.78 3903.04 14840.1 10434.4 4405.78 7631.87 3718.31 58544.9 54744.6 3800.27 5704.54 4061.84 2346.17 334.98 1642.7 6797.22 3759.17 3038.06 527.444 2006.74 3376.08 6132.61 1029.7 2802.5 225.451 172.454 52.9964 336.089 36.8345 6108.44 4431.26 4393.8 1677.18 67.0043 2011.19 1610.18 299.255 31.5001 267.755 301.993 152.575 37.457 24.1668 17.7755 149.418 16.1798 12.3848
internal_count=268644 30429 26748 25203 23108 238215 25183 22230 14690 213032 175140 21904 12067 37892 30616 7276 26009 8418 153236 137665 15571 10467 8445 2095 605 2022 11763 8053 3710 2953 9837 6310 3681 966 4607 742 641 101 1545 76 3579 2783 2629 796 128 1490 668 1469 101 1368 2211 924 154 102 76 1287 72 51
is_linear=0
shrinkage=0.1


Tree=15
num_leaves=58
num_cat=0
split_feature=132 33 80 108 30 55 111 36 77 115 78 134 95 73 101 54 99 135 6 75 56 80 72 74 3 100 108 98 44 124 42 105 30 1 135 91 33 33 106 52 40 49 61 30 31 126 38 104 70 108 82 30 108 29 101 35 110
split_gain=732.189 1244.46 861.606 1180.95 812.142 635.385 736.949 654.097 629.505 577.602 514.583 527.087 500.401 720.533 1395.31 1394.06 1085.11 1651.87 796.827 576.497 474.936 450.761 425.925 423.57 373.284 490.666 348.14 318.226 283.37 283.148 277.515 252.206 246.562 284.608 203.059 151.935 146.297 145.03 146.61 140.378 133.165 125.543 122.631 104.109 65.4437 65.3196 312.568 74.2652 65.2407 55.349 37.566 26.0152 2.17818 0.980123 1.88384 0.678641 0.194453
threshold=1.0000000180025095e-35 0.88317698240280162 -1.1039814352989195 -1.0619550943374632 1.0673499107360842 1.0285885930061343 -0.9445340335369109 0.8959881365299226 -1.221834599971771 -0.99800357222557057 -1.2363578677177427 1.0000000180025095e-35 -1.0494865179061887 -0.82116031646728505 -0.87454217672348011 0.99679434299469005 -0.86261558532714833 1.0000000180025095e-35 0.61230370402336132 -1.2070105075836179 0.9568786919116975 -0.9893532097339629 -0.64496135711669911 -0.67792308330535878 0.58703497052192699 -0.96316975355148304 -1.0519383549690244 -0.823657065629959 1.1868309378623965 -1.1710646748542783 1.0381760597229006 -0.9298463463783263 1.0301945805549624 0.72487547993659984 1.0000000180025095e-35 -1.2700451016426084 0.95480889081954967 0.89189934730529796 -0.94142237305641163 1.1391292214393618 1.056632995605469 1.153617858886719 0.71076068282127391 1.0560387372970583 1.0040740370750429 -2.2515078783035274 0.96561443805694591 -0.88419592380523671 -0.2776710838079452 -0.89465513825416554 -1.3091397881507871 1.0676310658454897 -0.92768707871437062 1.113314211368561 -0.81854757666587818 0.85802209377288829 -1.168465197086334
decision_type=2 2 2 2 2 2 2 2 2 2 2 2 2 2 2 2 2 2 2 2 2 2 2 2 2 2 2 2 2 2 2 2 2 2 2 2 2 2 2 2 2 2 2 2 2 2 2 2 2 2 2 2 2 2 2 2 2
left_child=5 2 4 23 32 12 7 34 9 41 30 -12 19 14 15 -14 20 -18 -16 44 -15 22 -5 55 29 -26 -23 -11 -25 -21 -9 53 33 -2 35 -7 42 38 48 -36 -40 -8 -10 -34 51 46 -39 -47 -33 52 -38 -1 -6 54 -3 -4 -56
right_child=1 31 3 21 49 6 8 10 36 27 11 -13 13 16 18 -17 17 -19 -20 24 -22 26 -24 28 25 -27 -28 -29 -30 -31 -32 37 43 -35 39 -37 50 45 40 -41 -42 -43 -44 -45 -46 47 -48 -49 -50 -51 -52 -53 -54 -55 56 -57 -58
leaf_value=-0.12020785005925726 -0.10753243477197715 -0.25279558156792714 -0.16618888868016107 -0.088917860233780774 -0.14180044181799187 -0.21001542519070401 0.12046280022210912 0.12585999222766159 0.16506970042402988 0.078711328043502768 0.033691121980721432 -0.078787973057620461 0.010565023036904779 0.046480990374008012 0.034641461587510983 0.07576230361907943 0.017392759786582345 0.094904421261952338 -0.053701819854460348 0.12506406773811027 0.085927379421828154 -0.016073923590010884 0.077089322915732256 0.067248592443328578 0.08763454989401627 0.028181701428097568 -0.10475739130491163 0.0057018891032929783 -0.061929839240814827 0.0037555475675860889 -0.17466030844477023 0.031196754881509459 0.12429377283097581 0.09168537154979603 0.094200449789753393 0.11310182268270304 -0.18054177194413903 -0.20603709822888031 0.011663004775645238 -0.14999476572958387 0.086937201355123506 -0.15701766116145285 0.10941003484564658 0.0526168012067907 0.10405050340316387 -0.01426063776271635 0.09889526733259861 0.12534719193981508 0.10108371522235618 0.099024998644133708 0.042450621713045922 0.03899541800182818 -0.1669207116297195 -0.17032454468228 -0.20155791693525482 -0.18504120899548271 -0.17818787343313894
leaf_weight=209.96565140597522 113.82158968597651 7.2986615002155348 48.964287400245667 221.84026654995978 90.027709446847439 14.738636016845701 18.265940234065056 36.426077827811241 487.72251846268773 2554.203198518604 4926.6482623303309 455.10460546240211 12525.880735499784 12915.409882627428 1374.7782961260527 4442.8841496706009 29601.840597720817 3030.9482563957572 3967.2753339353949 1213.811750292778 3996.8068650811911 780.97908991575241 509.55439825356007 2758.0375636443496 2149.5420427322388 3919.1032622549683 1021.8347505107522 779.10886319354177 180.95595591608435 228.65804424881935 196.44886010885239 149.33501499891281 1549.7076274305582 193.83598195016384 42.018958687782288 1152.1717440374196 19.757254324853424 34.063531830906868 561.50698725134134 53.532107809558511 404.18915777653456 151.90399400889874 2101.1810698136687 233.12548922002316 14.908399671316145 39.177830815315247 2554.7293014973402 1389.6106349229813 1265.7271958515048 9.3910750746726972 12.231765478849409 10.79170687496662 55.982546612620354 7.9119157493114463 7.4112609773874318 31.301058858633041 6.8521601557731593
leaf_count=4134 344 31 208 1017 492 65 18 36 274 3213 11269 2860 42080 29289 4108 7399 81973 4669 18912 1233 5646 3569 601 4572 2793 10219 11343 1452 2068 542 937 223 893 162 107 1682 83 139 891 405 314 647 2111 441 14 73 1268 555 715 15 24 21 275 33 31 128 28
internal_value=0 0.0588433 0.031994 0.0108573 0.0842592 0.0344772 0.0549733 0.032506 0.0802019 0.0524723 0.0178819 0.0241794 0.0311296 0.0285263 0.0136039 0.0276354 0.035246 0.0245921 -0.0309667 0.0552767 0.0558032 -0.0394768 0.0267375 0.0531052 0.0601088 0.0492402 -0.0663397 0.0616465 0.059295 0.105834 -0.127653 0.0914216 0.100655 0.0179824 0.0975444 0.109021 0.117269 0.092766 0.0732082 -0.042609 0.0431688 -0.127233 0.119896 0.114921 -0.0987308 0.104356 0.0948829 0.121519 0.0937084 -0.136297 -0.0952753 -0.112425 -0.151432 -0.200429 -0.211475 -0.173541 -0.190331
internal_weight=0 14227.2 7799.36 5553.47 2245.89 92604.1 13001.5 6877.09 6124.37 3503.48 5614.63 5381.75 79602.6 71855.8 22310.8 16968.8 49545 32632.8 5342.05 7746.78 16912.2 2534.21 731.395 3019.26 7511.12 6068.65 1802.81 3333.31 2938.99 1442.47 232.875 6427.81 2090.49 307.658 1262.46 1166.91 2620.89 6398.34 2380.76 95.5511 965.696 170.17 2588.9 1782.83 235.666 4017.58 2588.79 1428.79 1415.06 155.401 31.989 220.757 146.01 29.474 21.5621 80.2653 14.2634
internal_count=268644 30429 26128 23506 2622 238215 25183 17361 7822 5330 15102 14129 213032 194076 72499 49479 121577 86642 23020 18956 34935 16530 1618 6976 14787 13012 14912 4665 6640 1775 973 4301 1840 506 2259 1747 2492 4178 2143 512 1205 665 2385 1334 4169 2035 1407 628 938 782 107 4155 767 123 90 336 59
is_linear=0
shrinkage=0.1


Tree=16
num_leaves=60
num_cat=0
split_feature=132 33 80 108 30 55 111 36 77 81 94 68 78 112 107 34 133 79 103 107 55 0 135 134 37 135 35 71 56 31 44 105 42 47 30 0 106 73 33 41 72 106 75 33 62 30 38 127 71 104 108 82 106 108 16 69 90 29 109
split_gain=679.584 1123.03 769.937 978.576 676.079 528.217 611.031 532.108 517.129 479.023 478.606 537.838 429.801 446.115 423.184 727.461 684.292 998.711 646.955 746.667 599.004 555.066 459.106 374.758 371.318 359.868 345.236 323.403 306.64 286.345 259.733 256.806 235.5 229.809 211.885 357.961 202.911 185.974 177.503 167.868 153.797 136.583 169.755 119.803 99.6353 86.8057 67.7002 53.6326 224.097 74.7859 48.0723 31.6689 3.68592 1.44219 1.07874 0.589609 0.837154 0.427094 0.12136
threshold=1.0000000180025095e-35 0.88108181953430187 -1.1039814352989195 -1.0583265423774717 1.0673499107360842 1.0285885930061343 -0.9445340335369109 0.8959881365299226 -1.221834599971771 -0.985948085784912 -0.96149528026580799 0.15600387006998065 -1.2363578677177427 -0.98907765746116627 -1.0008147954940794 0.85687649250030529 1.0000000180025095e-35 -0.97047719359397877 -0.89993458986282338 -0.97209590673446644 0.88052499294281017 0.32535800337791448 1.0000000180025095e-35 1.0000000180025095e-35 0.93344679474830639 1.0000000180025095e-35 0.89165556430816661 -0.51924937963485707 0.84897834062576305 1.0021581649780276 1.1847695708274844 -0.9298463463783263 1.0381760597229006 1.2151335477828982 1.0266087055206301 0.70698466897010814 -0.98219868540763844 -0.61982750892639149 0.89189934730529796 1.0678888559341433 -0.56129276752471913 -0.94142237305641163 -0.86547094583511341 0.95480889081954967 0.65425166487693798 1.0560387372970583 0.97912535071372997 -2.3682895898818965 -0.40591086447238917 -0.88419592380523671 -0.89465513825416554 -1.3091397881507871 -0.91254734992980946 -0.92768707871437062 1.2343825101852419 -0.22649310529232022 -0.7512913942337035 1.107876241207123 -1.1272913813591001
decision_type=2 2 2 2 2 2 2 2 2 2 2 2 2 2 2 2 2 2 2 2 2 2 2 2 2 2 2 2 2 2 2 2 2 2 2 2 2 2 2 2 2 2 2 2 2 2 2 2 2 2 2 2 2 2 2 2 2 2 2
left_child=5 2 4 24 34 14 7 39 10 27 29 -12 32 -14 15 25 17 21 20 -20 -18 -16 26 -19 37 28 -17 -5 -1 -8 -26 55 -9 -11 35 -2 -24 -4 41 40 -7 46 -43 44 -10 -36 -33 48 -40 -49 53 -45 -41 -6 -27 -3 57 -57 -58
right_child=1 31 3 9 50 6 8 12 43 33 11 -13 13 -15 16 22 18 23 19 -21 -22 -23 36 -25 30 54 -28 -29 -30 -31 -32 38 -34 -35 45 -37 -38 -39 47 52 -42 42 -44 51 -46 -47 -48 49 -50 -51 -52 -53 -54 -55 -56 56 58 -59 -60
leaf_value=0.042575408083900652 -0.16245217238628665 -0.15904842932729424 -0.16255456997562012 -0.083038004765095846 -0.13660464829654437 0.050314048828084261 0.074464778301737325 0.1130392488244648 0.13675233248479809 -0.10779977029480743 -0.081432550960329905 0.080750238218232143 0.0056639119680392744 0.073298609044210969 -0.01361219328977599 0.0015942072823698927 -0.02590057178010402 0.10995634000223636 0.0077220713041775864 -0.066911304009485334 0.081715973853040191 0.029449891129306058 -0.19926468405288431 -0.16105007750205144 0.071528479319688532 -0.19613488486815966 -0.12840438135837828 0.064725307584335173 0.11268379837844783 -0.12520740403438543 -0.039413033437915135 0.061386761796576039 -0.16453579950187039 0.0033138722741171012 0.11388455286643669 0.092406297330231979 0.10269008224269603 -0.0041080679428227695 -0.17545621235271958 -0.21885168801294197 0.12241860944786261 0.098479861411547631 0.018118399185894012 -0.16768572910266208 0.094998624281048161 0.04819191863884259 0.10242218371318634 -0.030741153529581258 0.09518636541845879 0.12319631843857544 0.089276610986708485 0.038134243472531811 -0.13578879170403232 -0.15762829203049833 -0.15799972216972979 -0.22681255861957889 -0.18307459718618885 -0.1882330268705216 -0.16568554131048005
leaf_weight=894.89766666293144 83.508678555488586 8.303886339068411 84.425570860505104 218.69311811216176 84.119134034961462 494.16830214671791 2546.005123320967 36.495308235287666 859.88300630822778 1016.3766730865464 517.24174962192774 338.15482098609209 4098.5374769018963 1279.7398670390248 3145.8201166447252 1152.6673587113619 796.98533675074577 1781.3793201707304 3747.0822695605457 2087.1302910633385 1473.4035354405642 61752.099067769945 23.310860469937325 52.530701726675034 2062.619353945367 37.366037867963314 248.29042365401983 458.98648916184902 2059.8541052937508 73.906355954706669 235.07875727396458 681.22055725753307 188.11071243137121 227.86746743507683 1491.3149830847979 162.06348159909248 491.19913592934608 604.38033147808164 30.945223718881607 7.3234011232852962 736.99198154360056 373.68571121990681 886.33292753249407 19.173774190247062 1704.1468160226941 232.50825484469533 981.02398806065321 32.548357799649239 2699.2569252625108 1038.8690948188305 9.3754083812236768 12.25334934145212 19.749031286686659 53.306551069021225 9.2548762559890729 6.5226889103651029 8.2632836103439349 5.1235014945268631 7.8038573563098934
leaf_count=1726 310 36 366 1034 491 1298 3021 36 632 6801 1657 325 12079 2050 11211 2621 2932 3327 9363 7909 1950 167669 95 268 3365 153 1236 583 2123 327 2556 796 937 6498 947 125 405 1631 114 31 756 236 1343 83 1753 438 433 67 1459 395 15 24 174 274 44 27 35 21 33
internal_value=0 0.0547912 0.0267912 0.00505303 0.0772119 0.0309936 0.0497411 0.0292944 0.0728499 -0.0506065 0.0476274 -0.0173186 0.0160973 0.0217573 0.0279537 0.0563724 0.0260866 0.029419 -0.00135221 -0.0189773 0.0439388 0.0273625 0.00822371 0.102194 0.040872 0.0871007 -0.0214453 0.0170408 0.0914503 0.0688321 0.060178 0.0838878 -0.119434 -0.0874507 0.0926438 0.00573974 0.0890094 -0.0235285 0.0853143 0.0880606 0.093477 0.0667825 0.0419513 0.106623 0.109001 0.105024 0.0856051 0.0995595 0.0921188 0.11852 -0.129813 -0.0874371 -0.158258 -0.14476 -0.188565 -0.182422 -0.189426 -0.20984 -0.174629
internal_weight=0 13784.5 7024.62 4908.43 2116.2 92685.2 12931.9 6861.12 6070.76 1921.92 3475.31 855.397 5602.88 5378.28 79753.3 4916.84 74836.4 66731.8 8104.6 5834.21 2270.39 64897.9 1915.47 1833.91 2986.5 3001.37 1400.96 677.68 2954.75 2619.91 2297.7 6759.9 224.606 1244.24 1969.4 245.572 514.51 688.806 6723.88 1258.23 1231.16 2922.26 1260.02 2595.46 2564.03 1723.82 1662.24 3801.62 2730.2 1071.42 146.801 31.4271 27.0724 137.426 46.6209 36.0172 27.7133 11.6462 16.0671
internal_count=268644 30429 25434 22834 2600 238215 25183 17361 7822 14916 5330 1982 15102 14129 213032 8403 204629 182475 22154 17272 4882 178880 4357 3595 7918 4046 3857 1617 3849 3348 5921 4995 973 13299 1820 435 500 1997 4843 2259 2054 2808 1579 2492 2385 1385 1229 2035 1573 462 780 107 205 765 197 152 116 48 68
is_linear=0
shrinkage=0.1


Tree=17
num_leaves=60
num_cat=0
split_feature=132 33 30 79 108 82 111 76 30 131 75 93 75 54 134 55 93 75 32 37 92 56 109 105 75 30 1 70 61 61 29 117 127 104 35 83 52 135 31 33 127 37 104 106 54 0 51 38 127 36 29 65 91 39 55 104 21 105 100
split_gain=628.754 1001.21 610.759 789.478 837.187 474.781 441.905 872.925 676.712 655.177 618.953 1468.51 897.446 834.465 510.445 1026.83 856.725 474.197 427.914 344.18 297.086 295.582 397.902 283.429 275.811 255.857 337.932 224.228 224.003 211.895 153.802 178.526 149.255 147.581 132.034 124.612 116.18 108.935 105.289 103.907 101.364 308.042 589.102 88.9033 88.3005 75.8878 71.8895 47.7648 160.564 29.2967 12.0783 49.6457 10.9757 10.5895 7.72092 2.16057 1.79404 1.49198 0.15097
