tree
version=v4
num_class=1
num_tree_per_iteration=1
label_index=0
max_feature_idx=136
objective=binary sigmoid:1
feature_names=Column_0 Column_1 Column_2 Column_3 Column_4 Column_5 Column_6 Column_7 Column_8 Column_9 Column_10 Column_11 Column_12 Column_13 Column_14 Column_15 Column_16 Column_17 Column_18 Column_19 Column_20 Column_21 Column_22 Column_23 Column_24 Column_25 Column_26 Column_27 Column_28 Column_29 Column_30 Column_31 Column_32 Column_33 Column_34 Column_35 Column_36 Column_37 Column_38 Column_39 Column_40 Column_41 Column_42 Column_43 Column_44 Column_45 Column_46 Column_47 Column_48 Column_49 Column_50 Column_51 Column_52 Column_53 Column_54 Column_55 Column_56 Column_57 Column_58 Column_59 Column_60 Column_61 Column_62 Column_63 Column_64 Column_65 Column_66 Column_67 Column_68 Column_69 Column_70 Column_71 Column_72 Column_73 Column_74 Column_75 Column_76 Column_77 Column_78 Column_79 Column_80 Column_81 Column_82 Column_83 Column_84 Column_85 Column_86 Column_87 Column_88 Column_89 Column_90 Column_91 Column_92 Column_93 Column_94 Column_95 Column_96 Column_97 Column_98 Column_99 Column_100 Column_101 Column_102 Column_103 Column_104 Column_105 Column_106 Column_107 Column_108 Column_109 Column_110 Column_111 Column_112 Column_113 Column_114 Column_115 Column_116 Column_117 Column_118 Column_119 Column_120 Column_121 Column_122 Column_123 Column_124 Column_125 Column_126 Column_127 Column_128 Column_129 Column_130 Column_131 Column_132 Column_133 Column_134 Column_135 Column_136
feature_infos=[-1.8014661073684692:2.1873281002044678] [-1.7160434722900391:2.0962586402893066] [-1.6382262706756592:2.0136351585388184] [-1.5680137872695923:1.9394575357437134] [-1.5054070949554443:1.8737261295318604] [-1.4504051208496094:1.8164401054382324] [-1.4123568534851074:1.7788288593292236] [-1.3844102621078491:1.77842116355896] [-1.3517893552780151:2.0758624076843262] [-1.3099035024642944:2.0974209308624268] [-1.2559221982955933:2.0165181159973145] [-1.1870334148406982:2.073509693145752] [-1.1039742231369019:2.1457490921020508] [-1.0067610740661621:2.2142360210418701] [-0.90047705173492432:2.2825961112976074] [-0.78966546058654785:2.3805651664733887] [-0.67814630270004272:2.4481546878814697] [-0.65591526031494141:2.4658794403076172] [-0.65910369157791138:2.4605560302734375] [-0.66488730907440186:2.4363620281219482] [-0.8555336594581604:2.3619022369384766] [-0.86833834648132324:2.2960772514343262] [-0.86565589904785156:2.1994528770446777] [-0.70636492967605591:2.1787192821502686] [-0.68053698539733887:2.1696581840515137] [-0.94777458906173706:2.0883691310882568] [-1.274228572845459:1.9448176622390747] [-1.700652003288269:1.7314887046813965] [-1.9454965591430664:1.5598906278610229] [-2.2033448219299316:1.3473584651947021] [-2.6534385681152344:1.1459542512893677] [-2.9375624656677246:1.0691677331924438] [-2.8964071273803711:1.0156075954437256] [-2.6209216117858887:0.99408984184265137] [-1.9672813415527344:0.99887841939926147] [-1.2877312898635864:1.0987448692321777] [-0.66409575939178467:1.3781088590621948] [-0.67049169540405273:1.4357191324234009] [-0.67192721366882324:1.5244829654693604] [-0.67710685729980469:1.427788257598877] [-0.67391806840896606:1.3506048917770386] [-0.77278417348861694:1.3033223152160645] [-0.78214722871780396:1.4334096908569336] [-0.67822211980819702:1.6771683692932129] [-0.67593681812286377:1.8418123722076416] [-0.67998087406158447:1.9795904159545898] [-0.67735743522644043:1.8671952486038208] [-0.68056988716125488:1.7601110935211182] [-0.67851173877716064:1.8138210773468018] [-0.68057990074157715:2.0951991081237793] [-0.67868822813034058:2.3221406936645508] [-0.68411111831665039:2.3866791725158691] [-0.6882440447807312:2.2922041416168213] [-0.69760811328887939:2.324758768081665] [-0.68820065259933472:2.0119130611419678] [-0.66498374938964844:1.7058380842208862] [-0.63047897815704346:1.5109990835189819] [-0.79989981651306152:1.3603483438491821] [-0.9627259373664856:1.3460699319839478] [-0.83332031965255737:1.3262704610824585] [-0.62303602695465088:1.3006186485290527] [-0.62908732891082764:1.6912268400192261] [-0.65896600484848022:1.8743280172348022] [-0.67422842979431152:1.7138135433197021] [-0.89532732963562012:1.3433690071105957] [-1.1747497320175171:1.0728911161422729] [-1.3727543354034424:0.99044626951217651] [-1.6710461378097534:0.88485002517700195] [-1.7223098278045654:0.75389385223388672] [-1.8947262763977051:0.60495084524154663] [-1.6767393350601196:0.45876148343086243] [-1.6314905881881714:0.33052113652229309] [-1.5802557468414307:0.23037496209144592] [-1.5674382448196411:0.15855956077575684] [-1.4517455101013184:0.30397361516952515] [-1.6804615259170532:0.78198343515396118] [-1.8599822521209717:1.2524018287658691] [-1.985605001449585:0.97948074340820312] [-2.0616223812103271:1.1285310983657837] [-2.1152210235595703:0.92254304885864258] [-2.168381929397583:0.73609095811843872] [-2.1978850364685059:0.28676301240921021] [-2.2107267379760742:0.33890664577484131] [-2.208972692489624:0.39074629545211792] [-2.1915850639343262:0.5232703685760498] [-2.1574652194976807:0.47703936696052551] [-2.1063995361328125:0.50853937864303589] [-2.0390708446502686:0.53271615505218506] [-1.9571486711502075:0.55223846435546875] [-1.8642418384552002:0.56802195310592651] [-1.767259955406189:0.65018975734710693] [-1.8478662967681885:1.0688302516937256] [-1.6520191431045532:1.4158432483673096] [-1.5958865880966187:1.6278220415115356] [-1.5394163131713867:1.6652539968490601] [-1.4922878742218018:1.6182962656021118] [-1.4547033309936523:1.5608183145523071] [-1.4384253025054932:1.5584532022476196] [-1.4264529943466187:1.5645072460174561] [-1.5819015502929688:1.5648646354675293] [-2.0638625621795654:1.5687597990036011] [-2.4619696140289307:1.5660412311553955] [-2.648137092590332:1.5686177015304565] [-2.5047333240509033:1.5662518739700317] [-2.1062953472137451:1.5674868822097778] [-1.4165751934051514:1.5623446702957153] [-1.2213733196258545:1.563502311706543] [-1.1215335130691528:1.561995267868042] [-1.168958306312561:1.5723429918289185] [-1.225764274597168:1.5757462978363037] [-1.369315505027771:1.5835809707641602] [-1.5990560054779053:1.5861003398895264] [-2.1418814659118652:1.5903582572937012] [-2.4733853340148926:1.5896482467651367] [-2.5047738552093506:1.5896980762481689] [-2.0072333812713623:1.5865405797958374] [-1.6131480932235718:1.5868538618087769] [-1.6321159601211548:1.7016431093215942] [-1.6862318515777588:2.5795986652374268] [-1.7458088397979736:2.8008601665496826] [-1.820858359336853:2.5472877025604248] [-1.9280952215194702:1.7180403470993042] [-2.15055251121521:1.6308574676513672] [-2.3786196708679199:1.6220458745956421] [-2.640228271484375:1.8138364553451538] [-2.9497678279876709:2.1645474433898926] [-3.3342947959899902:3.0688047409057617] [-3.8750591278076172:4.2020993232727051] [0:1] [0:1] [0:1] [0:1] [0:1] [0:1] [0:1] [0:1] [0:1]
tree_sizes=6570 5698 5444 6018 5288 6873 6621 6878 6866 6925 6571 6640 6013 6436 6323 6345 5904 6803 6468 6318 6782 6912 6667 6775 6136 6724 6914 6807 5908 6821 4359 6136 6910 6884 4231 5696 6895 6637 6821 6424 6824 6711 6562 6919 6238 5703 6955 6141 6353 6620 5561 5613 5979 6491 6243 4921 6682 6559 6677 5195 6096 6960 6919 6617 6372 6694 6813 6255 6133 6903 6650 5717 6920 6946 6443 6935 6895 5181 6894 6715 5230 6474 6570 6504 6905 6777 6435 5956 6382 4615 6055 6923 6020 5932 5852 6140 4523 6957 5630 6212 6682 6300 6925 6198 6041 5649 5671 6595 6936 6942 6259 6700 5587 6924 6940 6626 6916 6960 5346 6647 5992 4742 6951 6927 6112 6721 5265 6500 6695 6813 5535 5144 6816 6938 6849 6938 5911 5924 6933 6617 6685 5008 6232 6349 6483 6912 6847 6556 6878 5616 6479 6804 6707 6235 6462 6368 6917 6626 6298 6370 5999 5631 6831 6701 5909 6508 6734 5614 5630 6556 6533 6619 6790 6155 6668 6627 6924 5016 4460 6900 6705 5273 6408 6268 6664 6964 5797 6383 5159 6818 6365 4782 5964 6239 5860 4105 5297 6370 6255 6385

Tree=0
num_leaves=61
num_cat=0
split_feature=106 24 30 36 20 132 91 129 132 55 131 78 94 51 20 104 133 34 122 74 107 34 2 106 105 133 53 84 29 68 45 35 102 62 101 111 59 33 31 135 30 75 115 113 30 28 88 68 48 76 47 83 90 72 17 106 73 0 2 0
split_gain=100863 70028 65945.8 63196.5 34886.7 32977.8 31704.6 29095.5 27080.2 29224.3 22201 17603.3 15852.2 14491.1 10791.7 11845.6 11868.1 14517.1 9791.35 9313.73 7896.01 7593.72 7273.22 6294.54 6169.08 5765.19 4124.86 4010.7 3965.78 3927.42 3330.68 3307.21 2962.85 2736.84 2486 2452.8 2369.94 2021.98 2002.74 1447.78 1432.8 1277.42 1222.65 1408.76 951.772 654.47 608.742 596.29 761.299 549.197 434.804 372.014 637.628 298.289 483.799 169.544 141.75 7.10543e-15 8.88178e-16 4.44089e-16
threshold=-0.91015776991844166 1.1449041962623598 1.0572217702865603 0.91896492242813121 1.0053500533103945 1.0000000180025095e-35 -0.99703755974769581 1.0000000180025095e-35 1.0000000180025095e-35 1.0299879908561709 1.0000000180025095e-35 -1.2897982597351072 -1.0867435336112974 1.2324210405349734 1.436876714229584 -0.79843667149543751 1.0000000180025095e-35 0.87012082338333141 -1.029748737812042 -0.88376125693321217 -0.91721972823142994 0.8707091510295869 0.42492130398750311 -0.97888329625129689 -0.859179526567459 1.0000000180025095e-35 0.92902699112892162 -1.1424227356910703 1.2353702783584597 0.040426325052976615 1.1866810321807864 0.8492504656314851 -0.84095311164855946 0.5807279944419862 -0.82056209444999684 -1.0931189060211179 0.84142974019050609 0.87628942728042614 0.95435062050819408 1.0000000180025095e-35 1.0930750966072085 -0.52937784790992726 -1.4350937008857725 -1.3326317071914671 1.01696252822876 1.0350224971771242 -0.49453830718994135 0.16403451561927798 1.2275907993316653 -1.2147146463394163 1.220434367656708 -1.332000136375427 -0.77060046792030323 -0.35457614064216608 0.77876576781272899 -0.90937125682830799 -0.41124756634235377 -0.10267614200711249 -0.090990737080574022 -0.061052804812788956
decision_type=2 2 2 2 2 2 2 2 2 2 2 2 2 2 2 2 2 2 2 2 2 2 2 2 2 2 2 2 2 2 2 2 2 2 2 2 2 2 2 2 2 2 2 2 2 2 2 2 2 2 2 2 2 2 2 2 2 2 2 2
left_child=3 13 6 14 42 25 8 10 9 -3 12 -12 -4 37 15 16 21 -18 32 34 23 -1 -21 26 41 33 -16 -25 38 -27 -26 46 -9 -6 -8 45 -33 39 -22 55 -30 -7 53 50 -10 58 -17 59 -49 -20 -44 52 -37 54 -5 -2 -53 -55 -15 -39
right_child=1 2 7 4 5 24 19 18 44 -11 11 -13 -14 35 20 31 17 -19 49 22 28 -23 -24 27 30 29 -28 -29 40 -31 -32 36 -34 -35 -36 51 -38 47 -40 -41 -42 -43 43 -45 -46 -47 -48 48 -50 -51 -52 56 -54 57 -56 -57 -58 -59 -60 -61
leaf_value=-1.6433148337023606 -2.8862101605592172 -1.8989604106281126 -1.7898358378640533 -0.73521942776084881 -1.0669671465200818 -0.52461767325374087 -2.0872638513143587 -1.6691071207290982 -1.4078058686110919 -1.3185616157707258 -2.7161706627361979 -1.7052213813318673 -2.6322599868162491 -3.4751047337810648 -2.3592573307677052 -2.3423472427117047 -1.6579130755996176 -2.4005970539330335 -0.60161823887656407 -2.3396745430178436 -1.1043858486593874 -1.1867603306844865 -1.4614166251086118 -2.0203345708527438 -3.4751047337810648 -3.4751047337810648 -0.98224016697344396 -2.6607548608857448 -2.0040072867030796 -2.0363486619986748 -1.2539118248401322 -3.4751047337810648 -2.4063695777119847 -1.9011230039781062 -3.2066712472200005 -3.4751047337810648 -2.4808426744820484 -3.4751047337810648 -1.788808172069372 -0.96273946614405892 -3.4751047337810648 -1.4025608416244322 -0.73521942776084792 -3.4751047337810648 -0.51076012121554637 -0.7352194277608497 -0.60022337507272194 -1.0819747546111462 -3.4751047337810648 -1.5793233137593714 -2.3699326920041779 -0.92748035047954991 -0.60527332462542649 -3.4751047337810648 -3.4751047337810648 -3.4751047337810648 -0.37315382113603546 -3.4751047337810639 -3.4751047337810648 -3.4751047337810652
leaf_weight=790.2765057310462 4.9460760541260234 4590.4361572153866 243.69591518864036 1.0630800276994699 66.524211462587118 958.57005502283573 23.086141373962164 272.56361142918468 12.680535245686768 1069.708330694586 237.95014930143952 623.72464998438954 2678.258305657655 3.8188142739236377 36.544461857527494 2.5713512115180484 1089.9498613998294 346.97548227012157 88.187784992158413 720.8488739952445 100.74700292572379 675.88292617723346 108.48442719876766 144.15723825618625 7.4771741665899745 31.128149963915348 53.747403588145971 304.02285643666983 13.85973544418812 48.587260689586401 69.500500731170177 32.572239395231009 68.134685438126326 96.228119537234306 141.06036469712853 1.251544173806906 90.815330740064383 0.96272628754377398 74.273321054875851 2.3187053129076949 12.675896119326351 16.864592492580414 4.2523201107978821 5.8084486015140993 175.88252152130008 1.0630800276994703 9.1184479817748052 6.0855811685323715 1.7008164413273332 6.1456818096339694 2.6355329640209675 6.8598433099687144 2.0298874266445663 49.740858189761632 1.636634688824415 422.60474935546517 14.084929592907425 0.70599927753210678 1.0269080400466921 1.2194532975554446
leaf_count=10647 126 73177 3628 5 526 2559 410 3740 142 11057 5671 8776 61660 119 745 52 14838 7212 301 14559 833 6126 1271 2467 233 970 381 7083 235 839 675 1015 1420 1536 4030 39 1958 30 1105 16 395 188 20 181 446 5 31 49 53 79 54 45 7 1550 51 13169 17 22 32 38
internal_value=-3.37167 -2.08124 -2.03044 -1.54856 -0.964221 -0.850042 -1.83871 -2.34141 -1.75 -1.78927 -2.43046 -1.98439 -2.562 -3.27678 -1.75902 -1.67561 -1.63301 -1.83725 -1.56691 -2.36101 -2.10146 -1.43285 -2.22479 -2.3013 -0.607811 -1.90143 -1.53957 -2.45476 -1.56755 -2.59817 -1.46967 -2.59101 -1.81655 -1.56017 -3.04923 -1.15537 -2.74331 -3.42213 -1.39483 -3.45478 -2.70674 -0.539797 -3.20968 -2.32803 -0.571085 -2.98216 -0.98343 -2.01416 -1.60472 -0.665314 -1.36072 -0.709814 -1.69983 -3.4203 -2.39621 -3.46829 -0.554707 -3.4751 -3.4751 -3.4751
internal_weight=0 11530.8 11060.8 5138.91 1360.72 1294.88 6842.19 4218.66 5848.71 5660.14 3783.63 861.675 2921.95 469.973 3778.19 3038.16 2903.08 1436.93 435.032 993.48 740.028 1466.16 829.333 538.472 1052.41 242.468 90.2919 448.18 201.556 79.7154 76.9777 135.077 340.698 162.752 164.147 30.135 123.388 439.838 175.02 429.87 26.5356 975.435 65.8429 12.6963 188.563 5.9088 11.6898 9.96858 7.7864 94.3335 6.88785 24.2262 3.28143 53.1466 2.69971 427.551 20.9448 50.4469 4.84572 2.18218
internal_count=268644 204112 190367 64532 9409 7526 105092 85275 84822 84234 79735 14447 65288 13745 55123 41879 38823 22050 5540 20270 13244 16773 15830 10676 3655 3871 1126 9550 2568 1809 908 3056 5160 2062 4440 264 2973 13481 1938 13311 630 2747 1883 255 588 156 83 170 102 380 74 108 46 1628 56 13295 62 1572 151 68
is_linear=0
shrinkage=1


Tree=1
num_leaves=52
num_cat=0
split_feature=52 100 69 72 103 70 103 54 32 102 134 101 68 41 32 74 2 81 102 70 31 99 56 31 38 131 106 101 31 57 28 7 32 72 73 114 129 24 132 30 30 107 30 91 107 106 70 73 72 0 12
split_gain=6134.49 7069.86 12939.5 6691.42 5280.09 4875.59 7346.41 6581.86 4253.83 4443.76 2918.05 2426.37 3072.99 1874.17 1371.03 1357.12 1349.8 962.979 914.974 850.597 806.957 798.351 766.08 738.676 718.206 643.864 536.768 517.315 409.645 384.554 274.032 231.999 194.759 377.892 194.018 107.897 27.9904 0.943991 0.302906 0.282189 0.190837 0.0799254 0.0288045 0.0235474 0.0118182 0.0081063 0.000261047 0.000210247 2.60443e-06 1.42109e-14 1.77636e-15
threshold=0.78226491808891307 -0.83311706781387318 -0.10430375859141348 -0.61854669451713551 -0.8168949782848357 -0.31711257994174952 -0.85449713468551625 1.0007431507110598 0.96761181950569164 -0.65364369750022877 1.0000000180025095e-35 -0.83110055327415455 0.058603728190064437 1.0205600261688235 0.94807744026184093 -0.89506882429122914 0.45742511749267584 -1.3261502981185911 -0.81011432409286488 -0.29558224976062769 1.0020808577537539 -0.80639263987541188 0.96118423342704784 1.0045872926712038 0.94442638754844677 1.0000000180025095e-35 -0.90709376335144032 -0.81300288438796986 0.9984303116798402 1.0241479277610781 1.3925530910491946 0.85714176297187816 0.95292666554451 -0.62401422858238209 -0.91075524687767018 -1.0424481034278867 1.0000000180025095e-35 1.1449041962623598 1.0000000180025095e-35 1.0252514481544497 1.0572217702865603 -0.91609221696853627 1.0437781214714053 -0.99703755974769581 -0.91721972823142994 -0.91015776991844166 -0.67906436324119557 -0.85810568928718556 -0.79524564743041981 1.019419848918915 1.0733131766319277
decision_type=2 2 2 2 2 2 2 2 2 2 2 2 2 2 2 2 2 2 2 2 2 2 2 2 2 2 2 2 2 2 2 2 2 2 2 2 2 2 2 2 2 2 2 2 2 2 2 2 2 2 2
left_child=26 2 4 13 5 6 -2 -7 9 10 -5 16 17 18 28 27 29 -13 19 -3 -14 -17 -16 -18 -11 -20 30 -10 -6 -4 31 -1 33 -15 35 -33 -34 49 40 43 47 -36 -32 -40 48 -46 -42 -39 -44 -28 -51
right_child=1 3 11 8 14 7 -8 -9 15 24 -12 12 20 32 22 21 23 -19 25 -21 -22 -23 -24 -25 -26 -27 37 -29 -30 -31 42 34 36 -35 41 -37 -38 38 39 -41 46 -43 44 -45 45 -47 -48 -49 -50 50 -52
leaf_value=0.89737938414981899 0.32071074245271319 0.17240626676407267 0.34662609119713567 0.287343667071919 0.29300364349745628 0.58879699790944751 0.12472228704335649 0.34204544540636034 0.23654738132785735 0.23805418243666515 0.40002785189805945 0.12973901900942417 0.56352609788868446 -0.080638899783799678 -0.056603070098096467 0.31608071868343091 0.63785525369652296 0.38092578758387036 -0.024756157561186383 0.47052142400135089 0.29421729778656042 0.12512105969717499 0.18687200107584967 0.4589579117265305 -0.037711139833589598 0.64094422417645047 -0.10309585640254192 -0.032598179722194115 1.0461618601175429 1.0820682150052594 -0.12424517594625342 0.51433103503011157 -0.11420815700646068 0.17341895293949153 -0.11141492750822751 0.17397331748438111 -0.0088150802258165767 -0.11496479264545434 -0.12446795392105683 -0.15354423423223265 -0.10869077295394446 -0.12964933553238778 -0.10698953933503724 -0.11483999727193744 -0.11309966654950232 -0.1071915795979453 -0.10723114564824619 -0.11589743738502585 -0.10714611458246659 -0.10309585640254192 -0.10309585640254192
leaf_weight=5.7744116745889178 16875.842224903405 760.19566331617534 248.75277409702539 24668.593214871362 156.63818702287972 1437.6723415143788 2157.0129292923957 4357.4159167092294 82.75782423466444 118.63580392487347 2534.165079081431 333.10784496366978 869.74706041812897 167.57676812261343 504.95432144403458 350.06312236003578 1617.2380811925977 281.68945916742086 289.66354835778475 109.49526781216264 127.58386814594269 584.45826036855578 173.67946507781744 269.22855044715106 463.12683721259236 15.296251587569712 81.323145374655724 520.96771240234375 7.5706743523478499 7.3190340604633084 1.4901985563337827 18.131024979054928 327.71807488054037 89.98489186912775 3.3457895442843411 19.153040727600455 27.298152126371861 231.63923580944538 6.7912707179784766 3.4936152249574652 1.268301635980605 8.5381155014038086 7.449480913579464 4.0581791698932639 10.231076983734967 3.0043044090270934 36.119198098778725 2.4426024332642546 1.2390444763004813 1.135960841551422 11.213972410187123
leaf_count=12 81949 4294 744 66957 754 6298 19517 23747 465 254 11829 2145 1691 1882 4489 1630 2520 1143 2658 376 569 3500 1040 1021 12520 27 2792 4035 28 9 11 9 3240 620 47 65 214 2046 43 19 19 52 122 38 115 48 576 21 20 39 385
internal_value=0 0.304817 0.339956 0.271581 0.314595 0.322952 0.298499 0.403261 0.283031 0.291993 0.297841 0.513349 0.420675 0.0837266 0.0684464 0.121157 0.58308 0.244828 0.157677 0.209939 0.529075 0.196653 0.00570833 0.612324 0.0185242 0.00863421 -0.0626067 0.0042959 0.327727 0.367646 0.175678 0.297759 -0.0580772 0.00812186 0.227338 0.339487 -0.106104 -0.111808 -0.114663 -0.128826 -0.113915 -0.124516 -0.110792 -0.120867 -0.109877 -0.111759 -0.107281 -0.114975 -0.107012 -0.103096 -0.103096
internal_weight=0 60535.4 29425.5 31110 25670.8 24827.9 19032.9 5795.09 29322.8 27784.5 27202.8 3754.67 1612.13 1787.23 842.843 1538.25 2142.54 614.797 1174.65 869.691 997.331 934.521 678.634 1886.47 581.763 304.96 457.842 603.726 164.209 256.072 78.3565 54.9424 612.578 257.562 49.168 37.2841 355.016 379.485 285.812 14.3431 271.469 11.8839 23.4141 10.8494 21.9239 13.2354 37.3875 234.082 8.68853 93.6731 12.3499
internal_count=268644 262165 147664 114501 137822 131511 101466 30045 101190 91560 78786 9842 5548 13311 6311 9630 4294 3288 7355 4670 2260 5130 5529 3541 12774 2685 6479 4500 782 753 501 185 5956 2502 173 74 3454 5978 2762 100 2662 99 316 81 305 163 595 2067 142 3216 424
is_linear=0
shrinkage=0.1


Tree=2
num_leaves=50
num_cat=0
split_feature=52 102 32 99 70 100 103 104 69 29 69 57 102 31 36 106 100 104 60 39 31 80 98 84 98 32 32 107 105 117 126 43 24 30 132 30 30 29 27 33 72 91 107 30 30 72 117 73 80
split_gain=3520.7 2537.34 2394.6 1744.67 2492.61 5076.49 4529.72 1373.42 1327.13 1035.47 923.057 695.696 681.847 548.334 533.144 429.482 383.479 370.969 445.445 906.332 294.488 184.319 159.694 153.629 137.445 118.341 210.937 106.156 86.4422 62.6659 24.8228 3.07884 0.678794 0.256571 0.213531 0.192469 0.136173 0.104974 0.0428215 0.0341916 0.0192916 0.016274 0.0096848 0.00420891 0.0015268 0.00123511 0.000198392 0.000152546 1.61772e-05
threshold=0.78226491808891307 -0.65364369750022877 0.96650865674018871 -0.97271916270256031 -0.33086849749088282 -0.86111781001090992 -0.85449713468551625 -0.81774517893791188 -0.039093676954507821 1.230195999145508 -0.091645006090402589 0.84586504101753246 -0.77887868881225575 1.0083926320075991 0.86426720023155224 -0.90709376335144032 -0.95680758357048024 -0.76749706268310536 0.81639480590820324 1.0229514241218569 1.0009225010871889 -1.0926161408424375 -0.9646598994731902 -0.49730831384658808 -0.97775101661682118 0.89165055751800548 0.89278283715248119 -0.93765145540237416 -0.83230593800544728 -0.95740395784378041 -0.99742394685745228 1.1524176597595217 1.1449041962623598 1.0418738126754763 1.0000000180025095e-35 1.0252514481544497 1.0572217702865603 1.2353702783584597 1.0601131319999697 0.86638179421424877 -0.84008127450942982 -0.99703755974769581 -0.91961458325386036 1.0888257622718813 1.062736511230469 -0.60960662364959706 -0.89348042011260975 -0.85810568928718556 -1.0638770461082456
decision_type=2 2 2 2 2 2 2 2 2 2 2 2 2 2 2 2 2 2 2 2 2 2 2 2 2 2 2 2 2 2 2 2 2 2 2 2 2 2 2 2 2 2 2 2 2 2 2 2 2
left_child=15 2 3 9 6 -6 -5 10 13 11 16 -2 -10 -9 23 21 -4 18 39 -20 -12 22 37 38 -11 28 -27 -25 -19 -24 -31 -29 -17 40 36 41 47 -1 -3 -16 -23 -36 48 -39 -44 -40 -38 -34 -35
right_child=1 14 7 4 5 -7 -8 8 12 24 20 -13 -14 -15 17 32 -18 25 19 -21 -22 33 29 27 -26 26 -28 31 -30 30 -32 -33 34 42 35 -37 46 43 45 -41 -42 -43 44 -45 -46 -47 -48 -49 -50
leaf_value=-0.12976978188254915 0.29615016761846974 -0.13083434116285117 1.0192512283846837 0.2155302532890655 0.32152064244982165 0.22655135819562569 0.069946548610103992 -0.0045104376084198084 0.33158045135814285 -0.05034783216139032 0.53154124650346846 0.43208052360222393 0.13549726377908786 0.26000873340532216 -0.10750855273688134 -0.10279259612426622 0.15355602984772754 0.02083801675515809 1.1375007521205693 0.086668618616411272 0.30615342664036904 -0.1350887839156783 0.53436451963679221 0.57468462689589361 0.28230101389281043 1.0812158766093709 -0.11397285682490135 0.21639313840981755 -0.10425099724861955 0.16106704777332334 0.31019613726273537 0.17600935881298382 -0.11333961147861327 -0.1066674657909788 -0.12160438951610962 -0.1463225090833796 -0.10649622746365534 -0.11181101123502582 -0.10901923115669201 -0.11807811061758343 -0.12527425812460596 -0.11325902669956918 -0.11425788622066604 -0.10706581784969725 -0.11060285001336481 -0.11212671602624616 -0.10782818082925905 -0.11416883482885726 -0.10629993509404108
leaf_weight=3.9866168498992902 2358.9969476275146 1.297612790018319 5.1532652378082267 17846.414890516549 6575.8723694309592 39071.194743528962 2427.9641472231597 964.9205770753324 216.72884827107191 89.205081380903721 67.207400672137737 448.02808114886284 975.77227900549769 85.293688628822565 27.345044223591689 84.996225088834763 726.22320614010096 67.451960355043411 11.684398205950854 27.584092907607555 421.79218597710133 4.733951423317194 8.9439291916787607 8.4819496348500234 14.430305846035479 2.4467922467738381 3.7243106234818697 81.18952227011323 305.24524073302746 19.897406425327059 25.422465875744823 24.598544770851731 212.44669237732887 1.4487990625202645 6.2822019457817069 3.3089432120323172 32.894684702157974 4.2622398920357227 1.4383092857897271 3.4463263228535643 3.4713627509772795 3.7206154465675345 1.8257237970828999 3.3293051403015852 3.0556930750608444 11.551753692328928 1.1576253026723851 2.2418997362256041 6.9075865708291522
leaf_count=26 6196 17 2 74616 22012 110647 17490 6464 489 896 145 636 4348 515 535 3216 3573 1290 27 428 1266 28 25 33 55 4 65 58 10084 73 5 69 2046 25 43 19 576 49 20 65 25 38 18 64 39 120 19 21 124
internal_value=0 0.224869 0.226536 0.230619 0.227273 0.240233 0.198096 0.145398 0.0989436 0.306385 0.230769 0.317846 0.171134 0.0169726 0.0160878 -0.0606885 0.159656 -0.0353299 0.176063 0.399345 0.33713 0.137595 0.220524 0.19564 -0.00402944 -0.0744204 0.35991 0.234295 -0.081612 0.292462 0.244722 0.207003 -0.110558 -0.117043 -0.113077 -0.125416 -0.112416 -0.11663 -0.113513 -0.108692 -0.130937 -0.1185 -0.108431 -0.10973 -0.11197 -0.111783 -0.106542 -0.113348 -0.106364
internal_weight=0 72872.7 72295.2 68832.1 65921.4 45647.1 20274.4 3463.09 2242.72 2910.66 1220.38 2807.03 1192.5 1050.21 577.486 434.334 731.376 448.928 70.0599 39.2685 489 87.2851 65.842 128.558 103.635 378.868 6.1711 114.27 372.697 54.2638 45.3199 105.788 347.049 21.4431 262.053 13.3118 248.741 11.5782 14.2877 30.7914 8.20531 10.0028 13.2378 7.59155 4.88142 12.9901 34.0523 214.689 8.35639
internal_count=268644 262165 249350 232548 224765 132659 92106 16802 11816 7783 4986 6832 4837 6979 12815 6479 3575 12498 1055 455 1411 501 242 317 951 11443 69 160 11374 103 78 127 5978 259 2762 100 2662 139 157 600 53 81 206 113 57 140 595 2067 149
is_linear=0
shrinkage=0.1


Tree=3
num_leaves=55
num_cat=0
split_feature=52 104 69 70 103 1 32 136 122 72 61 33 55 54 57 69 62 69 134 52 68 129 48 101 63 105 56 132 55 38 106 87 80 98 84 79 8 24 30 132 30 30 29 72 91 107 30 30 117 73 80 0 0 14
split_gain=2296 1620.06 4397.31 3006.43 3157.46 2378 2055.54 1852.4 1691.17 1328.5 1325.65 1107.29 1076.12 1038.5 939.77 879.31 2014.21 754.292 659.527 801.137 597.788 1058.7 584.009 551.011 549.36 447.898 522.643 431.721 426.01 383.639 361.158 155.373 133.03 106.66 37.6249 102.138 20.3046 0.489643 0.181632 0.151329 0.132515 0.0975554 0.0748719 0.0133396 0.0113325 0.00703702 0.00303328 0.00110856 0.000148947 0.000111007 1.18166e-05 1.42109e-14 1.42109e-14 4.44089e-16
threshold=0.78226491808891307 -0.82156142592430104 -0.11345209553837775 -0.29735390841960901 -0.8356928527355193 0.42507493495941168 0.96761181950569164 1.0000000180025095e-35 -1.9842889904975889 -0.60704299807548512 0.66630271077156078 0.92519760131835949 0.97253674268722545 0.9585072696208955 0.86950495839118969 -0.11542453989386557 0.56450772285461437 0.002939878031611443 1.0000000180025095e-35 1.0897163748741152 0.011822356376796963 1.0000000180025095e-35 1.0914810895919802 -0.76757019758224476 0.49729435145854956 -0.83274179697036732 0.94019529223442089 1.0000000180025095e-35 1.0284789800643923 0.96123561263084423 -0.90709376335144032 -0.28382930159568781 -1.0926161408424375 -0.9646598994731902 -1.0836411118507383 -1.1277536153793333 0.62151744961738598 1.1449041962623598 1.0418738126754763 1.0000000180025095e-35 1.0252514481544497 1.0572217702865603 1.2353702783584597 -0.84008127450942982 -0.99703755974769581 -0.91961458325386036 1.0888257622718813 1.062736511230469 -0.89348042011260975 -0.85810568928718556 -1.0638770461082456 1.067361652851105 0.65095251798629772 1.1576601266860964
decision_type=2 2 2 2 2 2 2 2 2 2 2 2 2 2 2 2 2 2 2 2 2 2 2 2 2 2 2 2 2 2 2 2 2 2 2 2 2 2 2 2 2 2 2 2 2 2 2 2 2 2 2 2 2 2
left_child=30 3 11 4 7 18 8 12 31 14 -10 20 -2 -9 -6 16 -7 23 22 -20 21 -3 -5 -8 -17 26 -13 -11 -19 -22 32 -4 33 42 35 -35 -27 51 43 41 44 49 -1 -34 -41 50 -44 -47 -43 -39 -40 52 -32 -53
right_child=1 2 6 5 9 15 17 13 10 27 -12 25 -14 -15 -16 24 -18 28 19 -21 29 -23 -24 -25 -26 36 -28 -29 -30 -31 37 -33 38 34 -36 -37 -38 39 45 40 -42 48 46 -45 -46 47 -48 -49 -50 -51 -52 53 -54 -55
leaf_value=-0.12635288576428083 0.17701197686513714 -0.0094639063516860061 0.053989354203923583 -0.061843277218116735 0.12152005991758533 0.30591602168715082 0.070399593142370737 -0.035309884053107796 0.281206779952205 0.18760565444978644 0.17713558637727844 0.2468070853870879 0.22473311491058132 0.12876894714055676 -0.016524242730962646 0.41617392297372641 0.16684862091969188 0.42027202781901912 0.19224371148612207 -0.012584575715554436 0.1755889517017605 0.27446857999239638 0.20042728585038661 -0.082411129451592346 0.28748026527953502 -0.076718716945707796 -0.11956496336161998 -0.089080038145250034 0.13305132890496676 -0.003492028777569735 -0.10251979398053533 -0.094151262799151869 -0.13085339771154253 0.3104985738043482 0.35205961826215537 0.0042642987091696923 -0.12109569366658351 -0.11191025734252386 -0.10599393821784156 -0.11913066433078645 -0.14030038386160956 -0.10584049727530172 -0.11057914022949455 -0.12238266660846429 -0.11186298380905098 -0.11275910807844206 -0.10636143619993144 -0.10950357445700475 -0.10704962074423388 -0.11264918557097009 -0.10566470035527882 -0.10251979398053526 -0.10251979398053533 -0.10251979398053526
leaf_weight=3.6997306272387487 23417.193650908768 971.88798586837947 104.28633602708578 85.49671146646142 756.2575477771461 1986.9791573658586 1177.9998535253108 500.30558573827147 1300.9332791920751 936.42571396380663 20686.344820028171 85.643840592354536 5920.0123879164457 1684.646761175245 1417.5267481729388 373.66773384809494 2188.710953194648 80.860270939767361 441.56652730703354 336.44889900460839 644.63703438267112 151.84012047573924 12216.064400378615 295.07478378340602 2953.2087663821876 135.2876966111362 71.396071821451187 60.007311351597309 142.90383723005652 146.88266597315669 29.752352928742766 220.48077957704663 4.4148784279823303 25.378522844985127 17.53263646364212 19.079184303060174 433.42040989547968 194.55881612747908 1.3188321143388755 5.796304613351821 3.1158226132392874 29.939322687685493 3.8973947986960411 3.2113920524716404 3.4064100980758658 1.6728136427700491 3.0314110554754734 2.791239507496357 1.0546914935111988 2.0545140206813803 6.2858985438942909 0.69526046328246538 45.26385360956192 1.3905209265649316
leaf_count=26 84533 6494 2261 484 4401 3621 6403 3524 2701 2183 54504 229 15550 9307 10358 303 8055 170 1310 2023 2321 363 20599 2096 4347 1034 633 286 465 1061 1241 7346 28 13 5 85 3200 2046 25 43 19 576 49 25 38 18 64 39 19 21 124 29 1888 58
internal_value=0 0.178658 0.158406 0.188422 0.170459 0.218701 0.171878 0.180026 0.179947 0.0753293 0.183293 0.0359305 0.186642 0.0911985 0.0315012 0.263581 0.233023 0.0657753 0.192957 0.103667 0.0757895 0.0289016 0.198604 0.0397897 0.301935 -0.0692574 0.080241 0.170943 0.236843 0.142357 -0.0587661 -0.0465817 0.115303 0.177819 0.228001 0.179077 -0.110539 -0.109452 -0.115206 -0.11168 -0.122476 -0.111096 -0.114867 -0.127286 -0.116441 -0.107572 -0.108734 -0.110724 -0.105882 -0.111918 -0.105722 -0.10252 -0.10252 -0.10252
internal_weight=0 81924.4 26649.9 55274.5 34692.4 20582.1 24008.9 31522.2 22312 3170.22 21987.3 2641 29337.2 2184.95 2173.78 7502.57 4175.69 1696.84 13079.6 778.015 1915.25 1123.73 12301.6 1473.07 3326.88 725.748 157.04 996.433 223.764 791.52 409.342 324.767 92.3139 72.6189 61.9903 44.4577 568.708 317.028 19.6951 239.926 12.3185 227.607 10.6285 7.62627 9.20271 12.0688 6.92881 4.46405 30.994 196.613 7.60473 77.102 75.0162 2.08578
internal_count=268644 262165 91281 170884 130142 40742 75946 112914 66812 17228 57205 15335 100083 12831 14759 16326 11676 9134 24416 3333 10239 6857 21083 8499 4650 5096 862 2469 635 3382 6479 9607 501 242 103 98 4234 5978 259 2762 100 2662 139 53 81 206 113 57 595 2067 149 3216 3129 87
is_linear=0
shrinkage=0.1


Tree=4
num_leaves=48
num_cat=0
split_feature=53 31 103 68 103 102 32 71 103 98 55 71 72 56 102 99 99 31 103 68 67 20 34 105 58 32 69 113 76 31 93 120 82 24 113 80 122 72 31 111 30 106 106 72 73 50 72
split_gain=1608.92 1361.43 2380.18 1352.64 1615.07 1266.8 1117.58 1144.36 2915.05 1983.14 1072.76 935.202 781.504 597.728 544.953 534.253 464.074 457.341 600.698 443.373 414.256 412.891 372.185 218.372 403.619 178.729 261.142 148.052 121.849 120.616 67.5285 19.6128 8.74804 0.370546 0.199013 0.0646577 0.0487811 0.042833 0.0415867 0.0389383 0.0326297 0.0298539 0.00444731 0.00271259 0.000657562 0.000577985 0.000291145
threshold=0.73436948657035839 1.0034062266349795 -0.82526612281799305 -0.001016750175040215 -0.84878417849540699 -0.65364369750022877 0.96761181950569164 -0.42608845233917231 -0.79462566971778859 -0.86448761820793141 0.96360230445861828 -0.44464997947216028 -0.52949330210685719 0.90825575590133678 -0.84974911808967579 -0.81620603799819935 -0.78244337439537037 1.006949305534363 -0.80807262659072865 0.016810996457934383 0.14883615821599963 1.2298988103866579 0.78529778122901928 -0.83230593800544728 0.92831045389175426 0.96008718013763439 -0.1445435434579849 -1.0220332741737364 -1.2895488142967222 0.90334933996200573 -1.0081254243850706 -1.6194683313369749 1.0000000180025095e-35 1.1449041962623598 -0.94703811407089222 -1.0926161408424375 -1.1082348823547361 -0.31414750218391413 0.85492604970932018 -0.94778743386268605 1.0580980181694033 -0.89964520931243885 -0.91015776991844166 -0.52683162689208973 -0.85129767656326283 0.82459196448326122 -0.79524564743041981
decision_type=2 2 2 2 2 2 2 2 2 2 2 2 2 2 2 2 2 2 2 2 2 2 2 2 2 2 2 2 2 2 2 2 2 2 2 2 2 2 2 2 2 2 2 2 2 2 2
left_child=27 5 3 4 10 6 7 8 -2 -9 -3 25 15 -6 21 -8 -14 18 -13 -16 -19 -5 31 24 -24 26 -4 30 -27 -25 -1 -7 -33 37 35 39 46 43 -37 -35 44 -38 -42 45 -36 -29 -32
right_child=1 2 11 14 13 22 12 9 -10 -11 -12 17 16 -15 19 -17 -18 20 -20 -21 -22 -23 23 29 -26 28 -28 33 -30 -31 36 32 -34 34 40 38 41 -39 -40 -41 42 -43 -44 -45 -46 -47 -48
leaf_value=0.21186887385831232 0.14923676138487868 0.11656884483020775 -0.11423073963004045 0.13242662015390635 0.15438089762135704 0.2636530192924551 0.091014559160986053 0.22812763896891233 -0.01293765893254616 0.15942432603731038 0.19753137960371114 0.089211327891011147 0.25185872961805639 0.010702621590891314 0.12332719467167359 -0.070662660389245097 0.063566881582531515 -0.034634621263309157 -0.044678246626718932 0.21988536613832782 0.1884327167311981 0.36122481819230401 -0.055079246538101014 -0.096358627982334563 0.27452523515743044 0.35634301439963467 0.073860460779232015 -0.10227427008637452 -0.101810853354504 0.14871716980586869 -0.10507951971555084 0.10909391157652021 0.17722639131167484 -0.13331581539900356 -0.11064140947677099 -0.12018786596600746 -0.1290101016909711 -0.13182522250196213 -0.10791425160078241 -0.12054000945338975 -0.11013711839755172 -0.11482361133010116 -0.105287987752409 -0.1103798209646506 -0.11255892272485649 -0.10595045902397895 -0.10722261381940879
leaf_weight=22.584323734045032 38458.325014855713 5039.7340742535889 119.43801774829626 103.42781418561935 359.16702837496996 20.540529597550631 376.8168633133173 4953.6147220507264 1141.2529710195959 27669.737395156175 2423.6004444919527 981.72993013635278 267.03180564939976 1493.8001620434225 761.38604388386011 446.64554304257035 256.75131875276566 101.22673093155026 508.73597532883286 1266.6947820484638 468.8585638999939 332.22868274152279 103.40764831192791 294.34921927750111 57.985155317932367 5.8800811767578116 193.23669797927141 62.531281054019928 454.50048448890448 21.552184127271175 1.6561078056693097 28.082467511296272 57.292430877685547 4.5143919549882412 163.73201350867748 7.1926876492798311 3.0657340735197067 0.49697780609130759 4.4801933411508799 5.059053238481285 2.1888572238385704 2.8739546239376033 13.914635598659514 0.41820882260799308 1.8081300556659687 0.43062755465507407 1.0270254351198671
leaf_count=11 124347 16430 1221 261 1995 35 1832 7050 6707 51635 5692 3389 589 8935 3016 3034 1171 706 3044 2596 1524 558 1861 10197 502 1 1110 2876 3533 147 36 65 8 30 1884 63 20 3 76 46 33 27 293 8 19 9 19
internal_value=0 0.147643 0.119746 0.13954 0.122114 0.153141 0.154305 0.155988 0.144563 0.169856 0.14286 0.0374596 0.0640639 0.0385523 0.205433 0.00332093 0.159561 0.0726477 0.0435112 0.183635 0.148824 0.306907 0.00634042 -0.0312913 0.0633409 -0.0563332 0.00201186 -0.0851153 -0.0959592 -0.0796385 0.120974 0.175923 0.154815 -0.109224 -0.111315 -0.120473 -0.117091 -0.102582 -0.115477 -0.126564 -0.110244 -0.122146 -0.105947 -0.102353 -0.110662 -0.102299 -0.1059
internal_weight=0 88767 14613.6 11780 9316.3 74153.4 73570.2 72222.9 39599.6 32623.4 7463.33 2833.61 1347.25 1852.97 2463.74 823.462 523.783 2060.55 1490.47 2028.08 570.085 435.656 583.21 477.294 161.393 773.055 312.675 297.974 460.381 315.901 31.2071 105.915 85.3749 266.767 202.89 21.2463 8.62282 63.8771 11.6729 9.57345 181.644 5.93969 16.1035 63.3801 165.54 62.9619 2.68313
internal_count=268644 263191 54011 39483 33052 209180 196365 189739 131054 58685 22122 14528 6626 10930 6431 4866 1760 8663 6433 5612 2230 819 12815 12707 2363 5865 2331 5453 3534 10344 113 108 73 5340 2444 215 102 2896 139 76 2229 47 326 2893 1903 2885 55
is_linear=0
shrinkage=0.1


Tree=5
num_leaves=63
num_cat=0
split_feature=71 103 104 69 34 136 9 54 97 60 43 101 78 56 4 136 94 101 68 70 103 57 2 52 134 100 31 32 63 69 97 69 129 58 134 114 48 63 42 101 128 131 30 103 39 90 122 6 118 105 71 99 105 37 7 48 56 127 30 111 16 72
split_gain=1269.47 2531.78 1858.34 1606.92 2335.4 1293.09 1275.47 1251.42 1823.71 1237 2033.72 1365.4 1316.73 1164.24 1143.38 1122.59 1154.68 1102.35 1118.23 987.529 1286.06 1132.88 924.397 916.668 881.18 824.766 815.458 813.703 764.219 729.993 706.629 786.286 595.176 577.973 654.43 525.329 451.124 460.304 409.228 399.42 396.254 376.094 363.384 789.333 373.645 359.774 358.219 339.936 316.45 316.33 291.38 249.84 240.614 209.932 312.299 188.64 178.706 174.477 169.797 155.113 154.908 87.2796
threshold=-0.44209146499633784 -0.826257824897766 -0.81822046637535084 -0.025817376561462876 0.93254762887954723 1.0000000180025095e-35 0.22636167705059054 0.95082032680511486 -0.95083680748939503 0.71718567609786998 1.0490348339080813 -0.83812472224235524 -1.2536512613296507 0.95650687813758861 0.57433849573135387 1.0000000180025095e-35 -0.98870989680290211 -0.77804625034332264 0.087375801056623473 -0.30741867423057551 -0.84102943539619435 0.86711540818214428 0.46910806000232702 1.1180729866027834 1.0000000180025095e-35 -0.95360693335533131 0.99671098589897167 0.96252843737602245 0.45883418619632726 -0.14350624382495877 -0.86342346668243397 0.01016820687800646 1.0000000180025095e-35 0.87928432226181041 1.0000000180025095e-35 -1.0089793205261228 1.090786933898926 0.5164698362350465 1.1308459639549258 -0.82317692041397084 1.0000000180025095e-35 1.0000000180025095e-35 1.0542787909507754 -0.83219295740127552 0.97261047363281261 -1.0584390759468076 -2.0120221376419063 0.50120711326599132 -1.3855269551277158 -0.92464870214462269 -0.47751322388648981 -0.90763798356056202 -0.92464870214462269 0.95962461829185497 0.59483826160430919 1.0949278473854067 0.95429715514183056 -1.8844245076179502 1.0583269000053408 -1.0684627294540403 1.2991108298301699 -0.55692949891090382
decision_type=2 2 2 2 2 2 2 2 2 2 2 2 2 2 2 2 2 2 2 2 2 2 2 2 2 2 2 2 2 2 2 2 2 2 2 2 2 2 2 2 2 2 2 2 2 2 2 2 2 2 2 2 2 2 2 2 2 2 2 2 2 2
left_child=1 5 22 4 15 19 38 49 14 10 32 13 57 51 -9 27 -17 18 -6 20 25 24 33 -10 -21 -1 39 -4 -22 -14 40 -32 48 36 41 -23 52 -38 46 -13 -8 -35 53 45 -45 -44 -5 -19 -3 60 -15 -11 -2 55 -55 -24 -28 -12 -34 -40 -7 -36
right_child=2 9 3 6 17 7 30 8 23 11 12 26 29 50 -16 16 -18 47 -20 21 28 35 42 -25 -26 -27 56 -29 -30 -31 31 -33 58 34 61 -37 37 -39 59 -41 -42 -43 43 44 -46 -47 -48 -49 -50 -51 -52 -53 -54 54 -56 -57 -58 -59 -60 -61 -62 -63
leaf_value=0.1628756244482433 0.10499082806313849 0.23394400157515524 0.13615988531255152 -0.10322883682328031 -0.066564423767065506 0.21509918523155142 0.15649157570563421 0.45302930107193107 -0.042603532007934097 0.12163808298426988 0.49518077928695015 0.12106097097999263 0.10958473136704128 -0.12962762867276972 0.1279060699754109 0.14492423920528699 -0.056656910714257949 0.025753675306415976 0.11764304692747905 0.16358598935099133 0.098163619981676747 0.085522462806351604 0.14333292956376151 0.24756667666327736 0.36012263463193644 0.11972602291021793 -0.11908064850469841 0.068857587018285177 -0.017656456896292649 0.25406614895981344 0.12766308330079379 0.20090716517108473 0.26509679210926612 0.16999350346919026 -0.13071222091120238 0.17062503785652072 0.15670474863907774 0.11259437871455019 -0.087992487823113155 -0.004653317764762418 0.2723724725180629 0.30323916540912199 0.24981894622814793 -0.055471424469668365 0.11615558563060646 -0.14396848178140276 0.14365891225302924 -0.11533434623726456 -0.03109133149550479 -0.11269030950867863 0.2163631213285922 -0.049025436804778277 -0.1372956792021868 0.29571004342004137 -0.14702783647414505 0.21645873750703207 -0.045421881014228435 -0.12177428675516132 -0.12664294058157419 0.15524784483688164 -0.1341041747539635 0.071708080862244686
leaf_weight=5323.7669070977718 72.376532338559628 47.113982766866684 10046.981580847874 74.317320445552468 479.1478639729321 48.214854784309864 459.56037636101246 114.86447589844465 1024.6316999867558 112.78002790361643 4.7277462780475608 373.75496112555265 543.10661823675036 25.413968488574028 1855.0201323926449 467.72088414430618 724.05459472537041 229.2681913934648 1055.4776715487242 418.88303907960653 1378.4010038822889 1020.4257606938481 388.31109634786844 121.81242018565536 500.94857768714428 26377.827392999083 602.95061937719584 2187.5478136092424 971.04853735864162 981.9896122738719 4783.4145012553781 2113.1478146389127 100.40530426055193 5549.7123702093959 77.252839617431164 2508.3630184754729 4522.4882066696882 4960.6374651864171 280.70118414610624 780.51385865174234 824.50891559571028 220.23774199932814 517.92773156613111 177.68862304836512 443.35260546579957 24.288989044725895 280.90620634518564 669.32044382020831 1028.4728656094521 435.01134926825762 576.2743351906538 358.28584990277886 94.513694979250431 26.595112100243568 39.73783840239048 3854.2385831773281 725.92789167538285 150.61165425553918 12.434852786362169 28.917365938425064 17.247553324326873 29.410783343017101
leaf_count=12959 252 76 23981 3043 2906 65 744 74 6000 316 5 1084 2229 154 7325 912 3327 1028 2920 645 6484 3191 540 100 497 81190 4381 7268 5457 1376 8914 2626 106 6009 500 5739 8438 8836 7411 4913 887 393 638 866 1224 132 2163 3782 7745 3774 863 1905 518 20 189 3377 4596 1197 91 10 122 131
internal_value=0 0.11318 0.136403 0.117812 0.0987653 0.1221 0.151962 0.0649318 0.0885045 0.0547072 0.103558 0.0152945 0.174364 0.109572 0.146864 0.115101 0.0224551 0.0086241 0.0601289 0.127471 0.121682 0.17178 0.158274 -0.0117723 0.270622 0.126972 -0.0254345 0.124126 0.0502941 0.202614 0.162787 0.150106 0.00343966 0.145818 0.170542 0.146016 0.130762 0.133631 0.0187605 0.0360533 0.230899 0.175079 0.193616 0.14402 0.0670507 0.232179 0.0920068 -0.0793368 -0.019482 -0.0818496 0.201749 -0.00816611 -0.0322215 0.207006 0.0304807 0.209766 -0.078843 -0.102997 0.221928 -0.0652746 0.123094 -0.0748981
internal_weight=0 48541.2 45703.8 24705 15859.5 42116.5 8845.47 3616.8 3116.33 6424.76 2868.86 3555.9 1680.44 1072.75 1969.88 13426.3 1191.78 2433.21 1534.63 38499.7 34051 4448.62 20998.8 1146.44 919.832 31701.6 2483.15 12234.5 2349.45 1525.1 8180.63 6896.56 1188.43 15526.6 5876.61 3528.79 9650.02 9483.13 664.842 1154.27 1284.07 5769.95 5472.14 1163.26 621.041 542.217 355.224 898.589 1075.59 500.474 601.688 471.066 166.89 4308.88 66.333 4242.55 1328.88 155.339 112.84 309.619 65.4624 106.664
internal_count=268644 164659 103985 71922 46124 133622 25798 17460 13499 31037 12825 18212 4807 3238 7399 35488 4239 10636 5826 116162 106090 10072 32063 6100 1142 94149 14974 31249 11941 3605 13171 11540 8018 25077 7033 8930 18044 17274 12627 5997 1631 6402 6986 2860 2090 770 5206 4810 7821 3961 1017 2221 770 4126 209 3917 8977 1202 197 7421 187 631
is_linear=0
shrinkage=0.1


Tree=6
num_leaves=61
num_cat=0
split_feature=72 102 95 105 75 91 76 116 93 69 102 121 126 68 134 57 104 72 32 4 77 62 69 19 34 39 74 93 20 28 76 7 72 101 101 101 71 30 36 92 32 22 33 63 39 28 31 52 56 10 108 118 129 49 55 106 54 118 41 35
split_gain=1290.71 3326.89 1459.85 1067.54 937.152 1017 1162.04 1396.1 936.793 880.348 1643.39 936.641 844.257 703.198 585.682 510.454 797.503 507.421 468.57 428.818 468.679 467.264 409.58 375.58 313.827 273.983 318.923 406.374 269.439 291.063 264.07 262.684 255.65 247.939 242.05 224.035 381.296 204.837 203.211 194.7 172.459 146.031 144.308 143.173 114.12 113.177 112.948 107.701 80.2448 77.7241 51.8765 46.7645 5.57807 4.8513 0.587575 0.446575 0.0583824 0.0573842 0.0569017 0.00869503
threshold=-0.5858265459537505 -0.79016309976577748 -0.94049933552741993 -0.85365071892738331 -1.2074075341224668 -1.1995948553085325 -1.2073760032653806 -0.93760246038436879 -1.082964241504669 0.002939878031611443 -0.75515082478523243 -1.8122715950012205 -1.7169637084007261 0.090829979628324523 1.0000000180025095e-35 0.92414718866348278 -0.83238366246223439 -0.54330188035964955 0.96792456507682811 0.59371769428253185 -1.3213719129562376 0.64992213249206554 -0.078597087413072572 1.1842200160026553 0.87241202592849743 0.98581027984619152 -0.93371328711509693 -1.068443179130554 1.3155804276466372 1.1996046304702761 -1.1668534278869627 0.60726845264434826 -0.58491060137748707 -0.77922895550727833 -0.58226436376571644 -0.79863774776458729 -0.40926687419414515 1.0404964089393618 0.98076373338699352 -1.0721716880798338 0.96235474944114696 1.1854129433631899 0.91337713599205028 0.57180097699165355 1.0178840160369875 1.1422201395034792 1.0011346936225893 1.0541127324104311 0.98359206318855297 0.62222540378570568 -0.86607190966606129 -1.0155210494995115 1.0000000180025095e-35 1.1293504238128664 1.0299879908561709 -0.91015776991844166 1.0591229200363161 -0.85407614707946766 1.0741353631019595 0.93614691495895397
decision_type=2 2 2 2 2 2 2 2 2 2 2 2 2 2 2 2 2 2 2 2 2 2 2 2 2 2 2 2 2 2 2 2 2 2 2 2 2 2 2 2 2 2 2 2 2 2 2 2 2 2 2 2 2 2 2 2 2 2 2 2
left_child=1 4 18 14 42 19 7 -7 -8 10 12 34 -5 23 15 16 -4 -12 25 21 -21 -6 53 35 -17 31 27 -27 29 -25 32 49 -20 40 -11 36 -3 -24 -13 51 43 -34 50 -15 -41 -33 -28 -44 -37 -2 -1 -32 -52 -16 59 -30 -42 -49 -56 -35
right_child=2 13 3 9 5 6 8 -9 -10 11 17 38 -14 33 22 24 -18 -19 30 20 -22 -23 37 28 -26 26 46 -29 55 -31 39 45 41 54 -36 48 -38 -39 -40 44 56 -43 47 -45 -46 -47 -48 57 -50 -51 52 -53 -54 -55 58 -57 -58 -59 -60 -61
leaf_value=0.16239411928166625 0.19054598573630566 -0.11466953821726554 0.12703281875537717 0.10612310969195074 0.19678730970370606 -0.079270608492201577 0.14076576487309653 0.074818829827263358 0.099215592028018496 0.10682840418984854 -0.082322418830988398 0.16460812422700147 -0.077861891376222875 0.25736388886355682 -0.17490469034150749 0.19390364804627325 0.041044510259620359 0.029195125718561466 0.40165619736583746 0.077319461088428146 0.15622065900005688 -0.080977152474660113 -0.043807083208284414 0.028864952446852023 0.14134209975486081 0.20712470995735535 0.21658050400124487 0.089296268017207331 -0.12841610854279503 0.40354978172837397 0.28952346675296947 -0.14298312473979349 0.40505265383636407 -0.13932775838851882 -0.10281221222805581 -0.13258934013994783 0.12956740439479342 0.30268492510652956 0.058867238725040752 -0.077602369343579891 -0.14000359548889074 -0.12399137445515683 0.24953852083519942 0.10162726657936212 0.18376336200226082 0.16626094534770794 0.16384342710831443 -0.12618558288278661 -0.071656791271812667 -0.15573841907474109 -0.11196100799926022 0.11677043023145789 -0.17519625957006879 -0.13502682779539274 -0.17106195487698095 -0.11243557759923202 -0.15344071146173646 -0.14046391163812885 -0.15979129801671588 -0.1331688264868823
leaf_weight=6.8913040161132804 7.4559929668903342 138.36102410964668 8514.4372165612876 7342.4976062476635 1695.4120424240828 683.02868238836527 6194.148867527023 4225.9208258576691 43768.49795807153 78.442164577543736 544.22208536788821 2550.3283810988069 258.17736314609647 108.96164510026574 56.964286044239998 1344.1984780654311 1235.0329694412649 1630.3346029929817 11.164268769323824 1239.4787112250924 1917.5652647744864 62.806790471076965 30.407181993126869 468.38245053775609 7331.6701327059418 561.04182896018028 2373.9568043202162 611.97907871007919 92.171103648841381 21.69288120418787 60.409508906304836 12.910481011494992 5.4739070981740943 6.0455803275108355 184.88347505778074 529.91079653613269 118.80746837519109 38.874268546700478 195.69018798321486 45.263744235038757 14.458336144685747 111.38307082653046 21.165336325764656 128.82001858949661 26.478206552565098 142.02451390028 489.92555170506239 5.6800606548786146 365.00344853289425 49.603233069181442 220.2489853054285 21.158124938607216 14.892992665991185 65.681984543800354 12.606223165988924 21.581318745389581 4.1649291068315497 5.5797670185565948 6.9485624879598609 3.6921608299016953
leaf_count=1 2 779 13475 18957 1884 4197 17186 14248 131085 1180 2740 4617 1193 125 245 2103 3152 7551 25 3455 3664 223 133 2669 6513 549 2016 1386 560 26 54 134 5 33 8190 4126 447 21 583 238 71 766 8 203 61 170 688 35 2062 228 3629 41 114 383 52 263 19 29 32 20
internal_value=0 0.0985952 0.122408 0.114752 0.102862 0.103709 0.0998053 0.0533789 0.104367 0.092502 0.0779422 0.139797 0.0998736 -0.0269425 0.130031 0.131841 0.11614 0.00128585 0.175476 0.147286 0.125243 0.186865 -0.0437537 -0.0506156 0.149486 0.183751 0.18957 0.145652 0.0132674 0.0454501 0.0504909 0.0729394 -0.0555308 0.118553 -0.0403623 -0.0840979 -0.00183623 0.150612 0.157073 0.139024 0.150041 -0.0992095 -0.0814998 0.172992 0.0188614 0.140492 0.207559 0.116609 -0.107737 -0.110489 -0.10804 0.244712 -0.115966 -0.153548 -0.157063 -0.125384 -0.143009 -0.133261 -0.167057 -0.136993
internal_weight=0 62102.9 35932.1 31401.8 60061.3 59786.9 54871.6 4908.95 49962.6 12784.6 9775.23 3009.34 7600.67 2041.61 18617.3 18425.3 9749.47 2174.56 4530.23 4915.26 3157.04 1758.22 191.928 1755.91 8675.87 4248.9 4036.9 1173.02 603.828 490.075 281.331 211.994 128.021 285.697 263.326 1152.08 257.168 69.2815 2746.02 153.31 256.405 116.857 274.458 237.782 71.742 154.935 2863.88 32.4252 894.914 57.0592 242.033 81.5676 235.142 122.646 29.2925 113.752 18.6233 11.2598 19.5548 9.73774
internal_count=268644 191245 77399 71036 179758 175942 166716 18445 148271 45011 30441 14570 20150 11487 26025 25243 16627 10291 6363 9226 7119 2107 782 10932 8616 5173 4639 1935 3518 2695 1190 534 796 555 9370 7414 1226 154 5200 394 418 771 3816 328 299 304 2704 72 6188 230 3744 95 3743 628 137 823 90 64 84 53
is_linear=0
shrinkage=0.1


Tree=7
num_leaves=63
num_cat=0
split_feature=71 103 34 69 104 136 98 72 35 136 63 68 101 9 73 32 72 33 57 99 100 72 73 29 37 116 36 129 102 74 42 29 8 65 20 119 122 71 91 9 100 100 105 51 129 70 100 14 71 33 31 47 62 32 55 33 37 43 101 18 71 0
split_gain=1239.76 2287.24 1244.39 1334.66 1588.78 1355.41 1090.6 1103.35 1300.73 1370.71 875.367 1224.21 785.346 762.113 672.445 541.822 523.896 509.759 586.781 504.751 444.615 506.496 399.934 389.856 381.967 381.479 299.194 280.392 277.847 269.815 257.927 237.965 237.959 233.287 233.013 286.843 214.409 213.691 209.535 191.855 182.643 173.34 158.662 163.997 156.099 140.525 436.253 131.235 129.238 112.542 106.714 85.3448 69.7741 54.8608 53.2525 52.7634 2.69552 0.471133 0.31897 0.141813 0.0572938 0.0192942
threshold=-0.41676005721092219 -0.79236027598381031 0.9194190800189973 -0.11542453989386557 -0.82245817780494679 1.0000000180025095e-35 -0.86702960729598988 -0.55072280764579762 0.94126549363136303 1.0000000180025095e-35 0.51278260350227367 0.037276217713952071 -0.81922101974487294 0.22636167705059054 -0.77095681428909291 0.95678588747978222 -0.57334691286087025 0.95209577679634105 0.92414718866348278 -0.86808085441589344 -0.83594998717308033 -0.62556341290473927 -0.70302671194076527 1.088483512401581 0.93829694390296947 -1.0436264276504514 0.96084684133529674 1.0000000180025095e-35 -0.82663500308990467 -0.92601296305656422 1.1308459639549258 1.1125835776329043 0.54701334238052379 0.37040467560291296 1.2262874841690066 -1.0733217000961301 -2.0120221376419063 -0.42701882123947138 -1.0391674637794492 0.5685543715953828 -0.6721782088279723 -0.84314066171646107 -0.85510241985321034 1.0898110270500185 1.0000000180025095e-35 -0.22792678326368329 -0.8402515947818755 0.89980724453926098 -0.38757885992527003 0.94745242595672619 1.0044634938240053 1.1980416774749758 0.57357364892959606 0.96077322959899913 1.0361300706863406 0.92943468689918529 0.91959095001220714 1.0616007447242739 -0.83110055327415455 1.1650113463401797 -0.42517471313476557 0.7695918381214143
decision_type=2 2 2 2 2 2 2 2 2 2 2 2 2 2 2 2 2 2 2 2 2 2 2 2 2 2 2 2 2 2 2 2 2 2 2 2 2 2 2 2 2 2 2 2 2 2 2 2 2 2 2 2 2 2 2 2 2 2 2 2 2 2
left_child=1 2 3 4 5 -1 24 8 9 14 25 -12 -11 30 -8 -6 19 18 -15 33 21 38 -19 26 28 -5 -10 45 47 41 36 -23 39 44 54 -36 -9 -34 -4 -22 -32 -29 43 59 -3 46 -26 57 -25 -47 -31 60 -45 -49 -21 -35 61 -2 -58 -18 -44 -30
right_child=6 16 20 10 15 -7 7 13 23 12 11 -13 -14 17 -16 -17 42 22 -20 34 32 31 -24 48 27 -27 -28 29 56 50 40 -33 37 55 35 -37 -38 -39 -40 -41 -42 -43 51 52 -46 49 -48 53 -50 -51 -52 -53 -54 -55 -56 -57 58 -59 -60 -61 -62 -63
leaf_value=0.09409227083826685 -0.19898895727538152 -0.091821497147855202 -0.093513782621906683 0.22415485020085107 0.034116928200550782 0.03418742515150771 -0.0010433211420858254 -0.10299038453582283 -0.013843474525816406 0.15618726054533019 0.023711512993795651 0.13638969741603066 -0.079312209821055565 0.093863534846213834 0.11068371740857159 -0.074472909397487005 -0.16245554123207329 -0.064486395298191529 0.13176674525592433 -0.12622547232522824 0.0060664903265907812 0.067512499582795329 0.083303345156742661 0.058748054392348294 0.17518184213511928 0.14781617401360647 -0.13427196912692113 0.16315887762161846 -0.12260025488011246 0.2473115756531033 0.12646032588283143 0.21170822270154838 -0.10098056378401876 0.013517027324050877 -0.064315549835541594 0.14748065504842725 0.097851500658769922 -0.0026054469286483526 0.21604306264777617 0.27379737488498213 -0.083426399907350957 0.027017077930323208 -0.11692971483040915 0.21935409456840105 0.26460999396655699 0.18800158571474646 0.053196504631401055 0.17551612245232073 0.29091330601910304 -0.029966543525064067 -0.00050660791555551829 0.23445930382823585 0.093245501082225499 -0.011680758080046493 -0.060880980310223709 0.20282711190752931 -0.16598573025292385 -0.16044392155441528 -0.15042828134723102 -0.14146314230823728 -0.12449964721678869 -0.10265349609322537
leaf_weight=47781.561829099432 4.5355567187070838 77.314345167949796 253.27953653037548 966.91961716860533 1820.6244642212987 4101.1932572815567 590.09582920372486 62.841350510716438 598.2282588519156 177.41463008522987 1368.7424276918173 3262.5432502776384 701.58561753854156 5735.6977660208941 6183.9265466332436 614.6087839230895 4.1814944893121746 241.01003032177687 14186.504352150485 629.81127505935729 75.653215920552611 986.87857032567263 762.10528033226728 58.926770064979792 1281.6837858408689 2026.6665645986795 314.88435567170382 125.78869883716106 0.50686024874448676 131.57545731961727 48.69256155192852 129.4615480452776 434.0285601913929 17.147677823901176 285.1158672682941 82.433164816349745 344.80370240285993 449.47711505368352 23.932436436414719 41.419415786862373 279.13903722539544 364.59319108724594 22.492583684623238 109.61610686033964 14.608758762478827 2213.1745302528143 380.12164862453938 89.616767954081297 40.426359221339226 23.944322027266026 20.020116426050663 8.1456747129559499 73.153241913765669 18.969233646988869 155.51046623848379 104.10399499535561 21.025961235165596 10.540702536702154 35.311261378228664 13.966732859611509 17.99905596673489 11.209043394774197
leaf_count=131112 19 880 1311 681 8621 18568 1919 3049 2404 251 4388 4967 3163 9595 13325 4149 19 1249 18991 4887 383 2471 2073 210 948 3117 1800 160 4 100 103 228 2479 48 2213 257 2401 1633 28 55 7468 1035 187 115 23 1904 1004 80 36 106 73 27 188 55 1056 80 91 48 164 70 117 458
internal_value=0 0.0854661 0.0884171 0.0911513 0.0856517 0.089357 0.108738 0.101771 0.071614 0.085706 0.13033 0.103088 -0.0317797 0.113835 0.100951 0.00671082 -0.0320517 0.117352 0.120854 -0.0563909 0.0176765 0.0541925 0.0477952 -0.0349042 0.153385 0.172473 -0.0553729 0.159223 0.0151229 0.0979844 0.0137837 0.0842348 -0.0331809 0.0849697 -0.0825296 -0.0168143 0.0668903 -0.0509329 -0.0667889 0.100788 -0.0522521 0.061939 0.101179 0.14041 -0.0351761 0.169306 0.147279 0.104429 0.153215 0.185669 0.214584 -0.0608812 0.168879 0.142814 -0.113286 0.176054 -0.147159 -0.17204 -0.156235 -0.1463 -0.120295 -0.103516
internal_weight=0 65952.6 64337 61942.9 54318 51882.8 35058.9 30326.3 8665.49 7653.02 7624.87 4631.29 879 21660.8 6774.02 2435.23 1615.6 20925.3 19922.2 1366.05 2394.13 1393.55 1003.12 1012.47 4732.62 2993.59 913.113 4540.9 191.715 641.977 735.477 1116.34 1000.58 213.175 1152.87 367.549 407.645 883.506 277.212 117.073 327.832 490.382 249.555 200.918 91.9231 3898.92 1661.81 123.662 99.3531 2237.12 151.596 48.6373 182.769 108.586 785.322 121.252 68.0531 15.0763 56.3372 18.1482 40.4916 11.7159
internal_count=268644 194358 184191 175603 162450 149680 74286 68037 23108 18658 13153 9355 3414 44929 15244 12770 10167 31908 28586 9444 8588 4038 3322 4450 6249 3798 4204 5330 919 1368 13021 2699 4550 1031 8413 2470 5450 4112 1339 438 7571 1195 723 392 903 3962 1952 202 246 2010 173 331 303 135 5943 128 717 67 255 89 304 462
is_linear=0
shrinkage=0.1


Tree=8
num_leaves=63
num_cat=0
split_feature=72 102 69 70 35 100 132 30 104 28 136 100 34 35 96 105 56 36 57 32 63 38 4 105 72 37 135 100 101 107 56 129 133 31 2 57 3 30 32 31 82 100 33 62 79 109 46 99 97 102 53 19 78 33 133 69 36 62 55 111 126 55
split_gain=1174.5 1545.08 1254.43 994.385 1455.38 1097.43 1056.21 1663.57 945.641 865.768 745.158 1004.72 814.342 702.663 663.438 765.201 815.329 569.387 566.096 845.245 544.339 515.547 450.77 436.899 421.76 396.355 381.651 445.222 355.443 343.741 334.712 313.523 313.446 303.018 292.428 245.009 242.444 214.629 191.857 182.781 170.979 168.105 160.834 170.713 140.249 130.805 124.211 189.6 118.06 114.264 194.71 93.0058 82.3113 82.1701 80.9864 77.4219 60.5338 59.8937 56.415 51.9712 27.82 1.10817
threshold=-0.56132832169532765 -0.78498831391334523 -0.04871180281043052 -0.25652071833610529 0.91578787565231334 -0.84166646003723133 1.0000000180025095e-35 1.0637010931968691 -0.91389513015747059 1.1270744204521181 1.0000000180025095e-35 -0.83175817131996144 0.92171978950500499 0.94126549363136303 -0.89127331972122181 -0.85365071892738331 1.0009119510650637 0.94147294759750377 0.8971080780029298 0.90599054098129284 0.51739859580993663 0.95082429051399242 0.56947872042655956 -0.89808186888694752 -0.58491060137748707 0.91038829088211071 1.0000000180025095e-35 -0.73807665705680836 -0.76299133896827687 -1.0359955430030821 0.97395241260528576 1.0000000180025095e-35 1.0000000180025095e-35 0.99545893073081981 0.54054901003837597 0.92056289315223705 0.47499199211597448 1.0337467193603518 0.96936368942260753 1.005252003669739 -1.284753084182739 -0.81737008690834034 0.94623607397079479 0.6586308777332307 -1.4403547048568723 -1.0617853403091428 1.1295648217201235 -0.84344926476478566 -0.87257611751556385 -0.78302302956581105 1.104160010814667 1.2508406639099123 -1.3071640133857725 0.94100207090377819 1.0000000180025095e-35 -0.052297385409474366 0.95159882307052623 0.64318537712097179 1.0299879908561709 -0.9368072748184203 -1.656960070133209 1.0299879908561709
decision_type=2 2 2 2 2 2 2 2 2 2 2 2 2 2 2 2 2 2 2 2 2 2 2 2 2 2 2 2 2 2 2 2 2 2 2 2 2 2 2 2 2 2 2 2 2 2 2 2 2 2 2 2 2 2 2 2 2 2 2 2 2 2
left_child=1 3 9 4 6 34 8 -8 -1 49 12 -12 -7 28 31 18 26 21 19 23 22 -18 -6 -16 37 54 27 -17 44 -27 -22 38 -21 -19 39 -26 42 -11 46 -5 53 56 57 -44 -4 -28 47 -2 52 50 -3 -36 -40 -15 -20 -51 -38 -33 -48 -42 -43 -30
right_child=14 2 13 5 20 10 7 -9 -10 24 11 -13 -14 40 15 16 17 33 25 32 30 -23 -24 -25 35 29 45 -29 61 -31 -32 36 -34 -35 51 -37 41 -39 48 -41 59 60 43 -45 -46 -47 58 -49 -50 55 -52 -53 -54 -55 -56 -57 -58 -59 -60 -61 -62 -63
leaf_value=0.10303697277692819 0.14400891133138469 -0.098887870094559391 -0.022722170958272156 0.15357941655040447 0.071541329208544308 0.13204181982865626 0.13921184218699983 -0.098677445039657682 0.067477951419836091 0.033763186033014064 0.099665843377700139 -0.072550128384083201 0.060297682059650595 0.073587262369864709 0.047254185042851241 0.047765160271887139 0.1747098507324803 0.1243825090692473 0.067033691031277376 0.12025034820827821 -0.095005552135029273 0.0042723494365177394 -0.088458725943624361 -0.094393603623475431 0.11125895401700803 -0.063694133598037259 0.33770393557350892 -0.043882136201439492 -0.13543815236024945 0.11651840955627352 0.01464530552916516 0.29503294578917699 0.044585846027422972 -0.06005876716199237 -0.15495425747792013 0.015193510316651782 0.035752431558468009 -0.076935503664840893 -0.12595141982590419 0.083841648855243534 0.034454565459754956 -0.14653469723689169 0.20605970424858439 -0.11073757920070844 0.13096968508139367 0.029261675298414502 0.20216153475942988 -0.14252085287489391 -0.13029189847732611 -0.13265530550172924 0.20357871071579009 0.2361356499864451 0.15108478950180437 -0.12634243327651462 0.1977461507485056 -0.051491083319285751 0.33415906193985295 0.1372836986815387 0.16293861826643175 0.31100899877545002 -0.015491491686457992 -0.16552191599740634
leaf_weight=8995.9278524033725 140.97997931018472 67.325449217110872 62.225448997691274 4084.0248673930764 1026.2820186018944 3233.8477827906609 4345.1007808893919 315.29343359172344 44342.943498471752 262.57903125882149 691.10158887505531 664.4854909107089 3097.4901425912976 23.152800843119621 550.8416823297739 2960.2346028145403 220.60423496924341 3343.5551478173584 50.756808623671532 2210.639479264617 697.16545056179166 907.78644342906773 212.54970096424222 360.1033635661006 461.51359861344099 106.88974067941308 55.434113755822182 645.69620768725872 24.873265201225877 10807.643286949024 463.44469164311886 26.182250872254372 727.72224809974432 91.512214221060276 41.960949279367924 625.06275678426027 15.153277160599828 526.00741395168006 12.853511542081831 413.92369294166565 14.711843527853491 65.446381099522114 24.978943072259426 53.318143807351589 1295.8426084145904 18.28408657759428 975.43505350500345 27.618030406534672 29.334941141307354 634.23546161316335 31.121017567813396 7.1112685203552237 64.755800195038319 183.35167298465967 716.70940233021975 144.25769710354507 12.328946188092232 298.10450503230095 587.60725572705269 12.62778329849243 21.529969334602356 24.116335414350033
leaf_count=20210 151 336 402 3401 3020 5128 4468 1555 139456 1519 1099 2922 8240 40 1167 8779 343 4843 114 1935 3561 11748 1130 1320 933 446 49 5314 135 11529 1572 6 2548 388 643 2189 43 3502 84 859 43 325 37 217 1770 83 918 140 188 4789 23 1 106 999 486 582 6 301 323 2 73 105
internal_value=0 0.0760896 0.0185001 0.0795728 0.0743068 0.105571 0.0774641 0.123118 0.0734752 -0.0227621 0.0825356 0.0152485 0.0969423 0.0877045 0.100625 0.0956089 0.070983 0.0992238 0.108679 0.0754199 -0.00201197 0.0375935 0.0440897 -0.00874024 0.015594 0.119638 0.0359591 0.0313543 0.114382 0.114754 -0.0512207 0.151246 0.101511 0.119469 0.144513 0.0559964 0.0824502 -0.0400757 0.170592 0.147162 -0.0728139 -0.0459739 0.118962 -0.00967046 0.123928 0.261202 0.17862 0.0970725 0.0406061 -0.104779 -0.00327176 -0.0982797 0.105203 -0.103927 0.189101 -0.117615 0.169622 0.15002 0.187416 0.162191 -0.114096 -0.150248
internal_weight=0 77025.7 4393 72632.7 60398.7 12233.9 57999.3 4660.39 53338.9 2752.1 7686.93 1355.59 6331.34 1640.9 26130 23774.4 8243.11 4563.46 15531.3 3849.31 2399.44 1128.39 1238.83 910.945 1875.16 11682 3679.65 3605.93 1407.06 10914.5 1160.61 2355.63 2938.36 3435.07 4547.02 1086.58 517.042 788.586 1838.58 4497.95 233.844 114.459 402.584 78.2971 1358.07 73.7182 1731.64 168.598 106.944 876.94 98.4465 49.0722 77.6093 206.504 767.466 778.493 27.4822 324.287 1563.04 27.3396 86.9764 48.9896
internal_count=268644 214634 17369 197265 174972 22293 165689 6023 159666 13873 17389 4021 13368 3496 54010 51092 31547 17322 19545 6970 9283 12091 4150 2487 8143 12575 14225 14093 2412 11975 5133 2918 4483 5231 4904 3122 1008 5021 1910 4260 1084 447 561 254 2172 132 1532 291 378 5730 359 644 190 1039 600 5371 49 307 1241 45 398 240
is_linear=0
shrinkage=0.1


Tree=9
num_leaves=63
num_cat=0
split_feature=71 102 104 59 69 54 106 70 54 31 129 100 135 31 86 71 97 70 62 56 100 35 4 30 5 68 136 103 112 9 55 47 104 106 39 102 129 71 70 69 32 111 127 29 74 30 58 105 103 28 100 135 43 15 71 99 22 67 63 72 100 77
split_gain=1173.47 1755.8 1356.51 1274.48 1743.92 1246.63 2158.6 1739.02 1230.23 1166.01 1017.3 980.948 976.593 918.104 914.467 833.519 761.505 1173.96 1388.54 709.517 704.598 685.637 663.245 631.829 594.074 790.132 884.741 850.501 592.596 572.988 571.337 543.569 516.086 506.379 499.178 487.067 485.25 515.176 481.632 475.818 466.803 443.284 400.781 366.782 320.073 291.026 278.046 215.959 393.54 216.214 230.199 207.994 206.057 171.68 168.165 156.346 142.028 132.81 209.36 113.232 96.3394 63.0775
threshold=-0.44977512955665583 -0.83962741494178761 -0.81972175836563099 0.76784831285476696 -0.15150337666273114 1.0058152079582217 -0.8954268991947173 -0.32978083193302149 0.97630450129508983 0.99975764751434337 1.0000000180025095e-35 -0.88866162300109852 1.0000000180025095e-35 0.99735870957374584 -1.1820049881935117 -0.48883785307407374 -0.86553165316581715 -0.17148624360561368 0.60410884022712719 0.97962573170661937 -0.84166646003723133 0.90703618526458751 0.5801452398300172 1.1010890603065493 0.59302061796188366 0.048015359789133079 1.0000000180025095e-35 -0.83219295740127552 -0.93278726935386647 0.22636167705059054 0.99602204561233532 1.0833590626716616 -0.79237803816795338 -0.85097411274909962 0.93150642514228832 -0.82607296109199513 1.0000000180025095e-35 -0.47663095593452448 -0.2814145684242248 -0.078597087413072572 0.96383589506149303 -0.93174302577972401 -1.4980167150497434 1.2261243462562563 -0.94772255420684803 1.0624837875366213 0.82877281308174144 -0.83274179697036732 -0.82315745949745167 1.1685187220573428 -0.88048204779624928 1.0000000180025095e-35 1.0719608664512636 0.96664109826087963 -0.47223876416683191 -0.90857425332069386 1.2855353951454165 0.20103807747364047 0.55913156270980846 -0.54904431104660023 -0.83241254091262806 -1.3519425392150877
decision_type=2 2 2 2 2 2 2 2 2 2 2 2 2 2 2 2 2 2 2 2 2 2 2 2 2 2 2 2 2 2 2 2 2 2 2 2 2 2 2 2 2 2 2 2 2 2 2 2 2 2 2 2 2 2 2 2 2 2 2 2 2 2
left_child=1 5 24 4 12 6 14 10 -9 16 -8 21 15 36 43 -3 19 18 -18 20 -4 42 28 -16 25 26 31 -28 -13 -19 55 -2 39 45 -14 -32 37 -5 -24 40 -11 -41 -7 -1 -21 -6 -27 49 56 52 -51 -48 -26 -38 -35 -15 -49 61 -59 -23 -50 -34
right_child=2 3 9 13 33 11 7 8 -10 32 -12 22 34 30 23 -17 17 29 -20 44 -22 59 38 -25 47 46 27 -29 -30 -31 35 -33 57 54 -36 -37 53 -39 -40 41 -42 -43 -44 -45 -46 -47 51 48 60 50 -52 -53 -54 -55 -56 -57 -58 58 -60 -61 -62 -63
leaf_value=0.1290397936411144 -0.096702969323495022 -0.087261731023147396 0.1287579820248444 -0.070964826723432434 0.19577543814154363 0.15335038805512838 -0.0010216321980978699 0.23514616988832518 0.064411466370791384 0.035943885720567385 0.092434454736771074 0.06614939619006488 -0.13125165460514929 0.054933018829323138 0.075376383269610103 0.035123010947650975 0.13764690104403754 0.0051808550478393278 0.023655522208090893 0.086379959117217228 0.042293628053426839 -0.15890593818206758 -0.043174734877876174 -0.024182439662386573 0.15968091402340645 -0.19323663249037726 0.1051191395158758 -0.072168356164510186 0.15966966119413667 0.1034356178335195 0.076810878192916307 0.089492417561197246 0.13373655533972381 0.1251157948467333 0.15593922879878486 -0.062572722448913293 -0.020040291754146872 0.047496969533686262 0.18992736599804499 0.016190124376994488 -0.058546013496918972 0.12590145134553496 0.097500024484827474 -0.076506680302779587 0.14834249369208305 -0.13172556978450164 0.12139705943943412 0.1304868775387997 -0.13326426775956909 0.18552184502168914 -0.0029917477576005573 -0.0032731740310533485 -0.046325056302064509 0.19620622970408344 -0.13283244206716058 -0.083212012668984175 -0.14629533745417414 0.14663744914178187 -0.07413736334815442 0.2614519466098858 0.24743400721253558 -0.12496425127821156
leaf_weight=3959.5854383260012 159.08023755252361 795.10019048396498 1452.6653710883111 471.37938470765948 1063.1300914809108 3624.8188605457544 8834.6358383595943 577.48056128714234 1567.8051020205021 1701.8855022117496 1341.6289473026991 3493.9133796021342 66.664049297571182 85.672204427421093 13962.383727502078 1854.3951544724405 1246.8472313396633 652.74721370637417 7474.7131357695907 1153.702895693481 2683.4601482972503 93.51685918867588 711.72898235172033 667.93503385595977 2817.8591368868947 28.56015794724226 434.51121646910906 717.29155327007174 840.5668525621295 6541.7397123519331 567.43139286339283 10888.445727903396 9.7468428462743741 39.816419966518879 656.90173953771591 449.15518813021481 43.584533337503672 1659.6701291911304 101.24797767400742 649.5614669136703 754.67529346048832 850.46948319673538 1990.3620038107038 88.7596555352211 3005.2550586462021 27.844194874167442 8048.3603655770421 436.40019905567169 88.248248502612114 100.79620078206062 181.26913405954838 136.08393117785454 49.405625067651272 232.86328591406345 69.197719960473478 1872.952378988266 19.361978739500046 59.391636915504932 155.18682290613651 6.8795156478881827 7.1887433826923361 285.37937952950597
leaf_count=8447 684 5617 2444 2914 1286 5257 39804 1382 5098 4789 1918 8470 470 245 32214 6290 2126 12693 22834 1918 7201 439 3162 2975 2381 128 697 2779 1417 9359 1620 19991 14 108 766 2947 170 5579 133 2562 3834 1469 3439 426 2983 162 7657 465 389 106 614 353 170 316 502 11491 99 148 939 1 3 1750
internal_value=0 0.0622768 0.0834604 0.0245307 0.0633481 0.0712534 0.0610383 0.0285487 0.110371 0.0687614 0.0112995 0.100405 0.0265151 -0.00844782 0.0824703 -0.00160403 0.0774219 0.0646187 0.0399519 0.101988 0.0726611 0.128922 0.0687396 0.0708311 0.100942 0.0942588 0.0781157 -0.00528763 0.0842854 0.0945211 -0.0455987 0.0868113 0.0218136 0.166882 0.12948 0.0152275 0.0374637 0.0212937 -0.0141442 0.0340144 0.00691583 0.0783929 0.133554 0.124533 0.131154 0.187417 0.118237 0.137807 0.0800624 0.147913 0.0643737 0.119324 0.156131 0.162113 -0.0386192 -0.0771694 0.118728 -0.0728948 -0.0130307 -0.130102 -0.104588 -0.11642
internal_weight=0 51819 52790.3 9955.76 4573.05 41863.2 31000.2 12321.6 2145.29 28677.4 10176.3 10863 3373.06 5382.71 18678.7 2649.5 24211.1 15916 8721.56 8295.08 4136.13 5715.58 5147.46 14630.3 24112.9 20412.3 12199.3 1151.8 4334.48 7194.49 2975.21 11047.5 4466.3 1199.99 723.566 1016.59 2407.5 2131.05 812.977 3956.59 2456.56 1500.03 5615.18 4048.35 4158.96 1090.97 8213 3700.53 551.199 3149.33 282.065 8184.44 2867.26 276.448 109.014 1958.62 455.762 509.705 214.578 100.396 95.437 295.126
internal_count=268644 155065 113579 40483 15201 114582 92264 48202 6480 77063 41722 22318 13143 25282 44062 11907 61558 47012 24960 14546 9645 9136 13182 35189 36516 32289 24151 3476 9887 22052 16303 20675 15505 2058 1236 4567 8979 8493 3295 12654 8623 4031 8696 8873 4901 1448 8138 4227 956 3271 720 8010 2551 486 610 11736 564 2851 1087 440 392 1764
is_linear=0
shrinkage=0.1


Tree=10
num_leaves=60
num_cat=0
split_feature=71 103 35 69 63 69 102 104 32 69 99 36 30 100 37 136 101 31 56 105 135 22 104 38 133 69 63 31 133 104 1 104 67 53 28 135 72 59 60 67 31 99 35 30 91 56 64 130 32 49 19 106 99 33 99 35 72 55 37
split_gain=1034.67 1473.1 777.587 759.526 814.711 1670.01 1323.93 735.094 624.394 684.743 1014.6 600.202 536.687 532.627 488.914 458.509 531.694 438.323 424.424 470.615 436.522 422.582 417.478 370.917 361.953 345.508 324.048 322.793 320.983 569.655 552.181 508.807 274.797 237.789 224.537 221.564 213.641 212.259 240.148 211.439 206.699 199.28 188.167 174.064 161.731 152.439 142.315 138.239 107.456 129.537 105.425 104.597 91.2638 89.766 85.7311 55.7627 53.8529 22.5524 22.4764
threshold=-0.41676005721092219 -0.79236027598381031 0.92338883876800548 -0.09490457177162169 0.5118844509124757 -0.12523688375949857 -0.81853613257408131 -0.81721946597099293 0.96308162808418285 -0.032803313806653016 -0.81194850802421559 0.92637377977371227 1.0468671917915346 -0.78384336829185475 0.941646307706833 1.0000000180025095e-35 -0.81584751605987538 0.99560531973838817 0.97395241260528576 -0.85225677490234364 1.0000000180025095e-35 1.2701061367988589 -0.77793896198272694 0.97248005867004406 1.0000000180025095e-35 -0.02336254250258207 0.61255165934562694 1.0065905451774599 1.0000000180025095e-35 -0.85559907555580128 0.1927101016044617 -0.84488508105278004 0.17823844403028491 1.0680355429649355 1.14974582195282 1.0000000180025095e-35 -0.57334691286087025 0.79464623332023632 0.74534109234809887 0.18210605531930926 0.99943777918815624 -0.88044825196266163 0.91818180680274974 0.99801954627037059 -0.99703755974769581 0.92897611856460582 0.47390958666801458 1.0000000180025095e-35 0.87958127260208141 1.1197720170021059 1.1680256128311159 -0.93830338120460499 -0.86962723731994618 0.9279112219810487 -0.86885809898376454 0.8774143159389497 -0.53440064191818226 1.0589339733123782 0.95140087604522716
decision_type=2 2 2 2 2 2 2 2 2 2 2 2 2 2 2 2 2 2 2 2 2 2 2 2 2 2 2 2 2 2 2 2 2 2 2 2 2 2 2 2 2 2 2 2 2 2 2 2 2 2 2 2 2 2 2 2 2 2 2
left_child=1 2 3 4 5 -1 -6 14 11 10 22 18 -12 40 28 21 -17 -15 20 -20 -9 -13 -10 36 26 44 34 32 29 33 55 -32 45 -2 -16 -31 39 50 -39 53 -11 42 -5 -28 -26 -4 -34 -43 51 -50 -29 -38 -25 -3 -41 -30 58 -27 -54
right_child=7 23 27 41 6 -7 -8 8 9 13 12 15 -14 17 24 16 -18 -19 19 -21 -22 -23 -24 52 25 57 43 37 30 35 31 -33 46 -35 -36 -37 48 38 -40 54 -42 47 -44 -45 -46 -47 -48 -49 49 -51 -52 -53 56 -55 -56 -57 -58 -59 -60
leaf_value=0.057917268937109405 0.11468687866055911 -0.030329067590936256 0.11865313485122878 0.16076767741487041 0.064993296506110992 0.11658329527039689 -0.03232672927710166 -0.03442818176651348 0.053397494697954719 0.13092244985810617 -0.11997224603048025 0.091111040629055701 0.18635709775764431 0.055158259070424445 0.11961047596996709 0.14006732129415894 -0.055235933290817885 -0.10464815106927734 0.10101041645613414 0.017731766192579854 0.20070789368969666 0.20149445363958507 -0.091027016071168074 0.10963289346071821 0.18212002410791528 0.10712679143846418 0.040070839496881422 0.30097173594201587 0.16104671848171392 -0.011686739561141322 0.085304407731630047 -0.14932729507489645 0.087805481024842369 -0.047092988955763734 0.036808818227441704 0.10820452755367299 0.15640970884492378 0.14303615909330655 -0.028124772614508711 0.13622485040640986 -0.037298552985411092 0.069936378592688586 -0.029004978782822724 -0.17843718103400008 -0.027690652832679737 -0.092751367960322698 -0.12129656084593757 0.14080770512928614 -0.14045823109898195 0.14185067064316953 -0.11287520323411626 -0.13783897549792332 -0.069409048085814731 -0.11630054180007719 -0.025209993311447989 0.23046110672742548 0.16481548440001917 0.20367544554228095 -0.12482023427054917
leaf_weight=53652.30503924191 988.52555663511157 498.17469094041735 36.033658273518085 978.0511046089232 3294.7427020780742 5334.7649645041674 2427.9352972749621 879.52542655728757 2124.2932035773993 1274.5053152963519 681.28775867260993 10530.716106047854 62.434352971613407 1911.0077197812498 8794.0560702905059 205.48486439883709 433.38958086818457 188.57154422998428 1516.3709738701582 1228.1892374251038 86.739111373201013 358.6309652775526 220.96740769594908 19.313011214137077 40.342507719993591 32.711832016706467 213.19862637668848 6.6334159150719634 397.52752923965454 1225.3049899321049 568.67334409803152 110.35873853415251 173.76608239114285 100.04899176955223 340.16774429380894 176.32517443597317 17.8133195489645 248.5164233148098 122.31965945661068 96.947978481650352 77.483525916934013 895.37315391749144 55.197616562247276 43.976133644580841 411.42474806308746 638.58715955354273 40.050686635077 397.37442784011364 17.948821365833282 172.07640539854765 85.439348202198744 37.538553349673748 88.185277309268713 160.60625601559877 49.790917795151472 163.25801345705986 6.9499406814575186 92.908695422112942 430.88672485761344
leaf_count=151040 854 4749 43 505 6522 9055 9674 3794 6046 1619 4048 17149 153 3912 7089 167 1863 1051 2246 13734 86 215 1066 22 32 57 506 6 253 2869 1315 524 300 243 757 194 18 598 513 82 322 1641 144 190 1676 3068 140 464 96 281 478 235 622 988 234 199 1 57 2839
internal_value=0 0.0580156 0.0602322 0.0617461 0.0597281 0.063223 0.0237038 0.0789794 0.0675636 0.0417186 0.00751619 0.0786562 -0.0942564 0.0723281 0.0971293 0.0899158 0.00758058 0.0408054 0.0436765 0.0637433 -0.0133206 0.0947464 0.03979 -0.0369481 0.108685 0.0318366 0.11341 -0.0148708 0.0662448 0.0455459 0.107819 0.0471712 -0.0501495 0.099818 0.116527 0.00339559 -0.00222313 0.0528379 0.086579 -0.0271083 0.121282 0.117889 0.15063 0.00270661 -0.0089547 -0.0814596 0.0486379 0.0917213 0.0794695 0.115185 -0.0830594 -0.043144 -0.103865 -0.0512883 0.0814474 0.181255 -0.111704 0.178534 -0.115406
internal_weight=0 69983.3 68387.1 67035.7 64709.7 58987.1 5722.68 35478.4 21779.6 6540.55 3088.98 15239 743.722 3451.57 13698.8 11528.2 638.874 2099.58 3710.82 2744.56 966.265 10889.3 2345.26 1596.23 9968.79 577.388 9391.4 1351.35 3730.02 2490.2 1239.82 679.032 888.438 1088.57 9134.22 1401.63 1050.9 462.909 370.836 805.52 1351.99 2326 1033.25 257.175 451.767 674.621 213.817 1292.75 245.377 190.025 92.0728 55.3519 545.335 658.781 146.739 560.786 526.022 125.621 519.072
internal_count=268644 194358 184191 179045 176291 160095 16196 74286 57471 18217 11313 39254 4201 6904 16815 19394 2030 4963 19860 15980 3880 17364 7112 10167 10364 1822 8542 5146 6451 4160 2291 1839 3551 1097 7846 3063 6683 1595 1111 6053 1941 2754 649 696 1708 3111 440 2105 630 377 484 253 3484 5737 316 452 3462 114 3461
is_linear=0
shrinkage=0.1


Tree=11
num_leaves=60
num_cat=0
split_feature=30 104 68 35 104 70 102 55 5 103 54 99 69 54 134 69 56 30 54 30 103 80 114 69 35 103 129 72 69 35 5 99 71 56 1 30 125 103 83 37 58 100 70 30 72 110 111 135 129 127 104 102 104 40 30 3 3 52 136
split_gain=995.807 1091.05 996.451 1230.67 767.256 964.049 1589.29 1411.5 929.356 832.601 849.296 805.264 792.21 718.13 788.867 762.905 678.892 630.005 949.838 663.449 752.705 628.688 607.948 601.705 1422.56 1263.31 540.829 530.753 508.686 748.511 483.977 481.87 815.294 640.781 461.554 499.902 593.2 458.124 423.918 359.583 352.343 346.531 389.241 287.499 287.421 259.885 335.745 247.042 241.064 326.778 239.882 187.495 168.406 161.952 161.023 17.829 1.16402 0.0991343 0.0497927
threshold=1.0514863133430483 -0.81455817818641651 0.10452871769666673 0.93614691495895397 -0.89922359585762013 -0.33086849749088282 -0.83638495206832875 0.96494448184967052 0.63632160425186168 -0.85449713468551625 1.0013770461082461 -0.9163076877593993 -0.12623555213212964 0.97921374440193187 1.0000000180025095e-35 -0.12623555213212964 0.75477707386016857 1.0828918814659121 0.93405455350875866 1.1010890603065493 -0.93242037296295155 -1.2472399473190305 -0.84459298849105824 -0.071916136890649782 0.92451828718185436 -0.76785159111022938 1.0000000180025095e-35 -0.66788113117218006 -0.084870256483554826 0.9206925928592683 0.56738939881324779 -0.80035164952278126 -0.34507799148559565 1.0009119510650637 0.64424583315849315 1.0968086719512942 -1.1114538908004759 -0.71135488152503956 -0.91395217180252064 0.90205371379852306 0.85332629084587108 -0.79459848999977101 -0.21152406185865399 1.0624837875366213 -0.65354371070861805 -0.93256115913391102 -0.98067730665206898 1.0000000180025095e-35 1.0000000180025095e-35 -1.964835464954376 -0.84316471219062794 -0.95601904392242421 -0.81822046637535084 1.0609024167060854 1.0468671917915346 0.69268223643302929 0.74765294790267955 0.78226491808891307 1.0000000180025095e-35
decision_type=2 2 2 2 2 2 2 2 2 2 2 2 2 2 2 2 2 2 2 2 2 2 2 2 2 2 2 2 2 2 2 2 2 2 2 2 2 2 2 2 2 2 2 2 2 2 2 2 2 2 2 2 2 2 2 2 2 2 2
left_child=1 22 3 23 16 9 13 8 -8 10 21 -12 -9 14 -7 -15 34 18 43 44 -21 -6 28 24 -3 -25 27 -11 29 30 -1 48 33 -33 45 36 -36 -34 -20 -28 50 42 -5 -18 -19 46 -2 -42 53 -50 -30 -37 -31 -4 -43 -47 -24 58 -58
right_child=4 2 31 41 5 6 7 12 -10 26 11 -13 -14 15 -16 -17 17 19 38 20 -22 -23 56 25 -26 -27 39 -29 40 52 -32 32 37 -35 35 51 -38 -39 -40 -41 47 54 -44 -45 -46 55 -48 -49 49 -51 -52 -53 -54 -55 -56 -57 57 -59 -60
leaf_value=0.062567843357900804 -0.1315045305824418 0.042730410576722437 0.128078879448636 -0.083632000794311392 -0.0047550322540461775 0.060323451059571764 0.11680556518028368 -0.038042757233540725 -0.043061575769029026 -0.082062352646078002 0.12994871066057634 0.02490060426269378 0.03088376493370168 0.057743565878309672 0.24191866686757499 0.12914283675488922 0.053741127548676694 0.10086458932173054 0.049021947256071785 0.099884641299158583 -0.088331788859167371 0.045375217580248532 -0.16760528186206292 0.092297775719832553 -0.086525067071113432 -0.025199081328847725 0.13613514026009416 0.011900665397022463 0.075189960531822281 0.0042640259946278231 0.092442527162923782 -0.085901858376694562 0.085445399226684288 0.048690125610491929 0.091309671440252149 0.046814836154152044 -0.094186420101228865 -0.0015079884944645806 0.11778979485068719 -0.1560700513119348 0.10730874675013842 -0.1147878180758003 0.052637346488554608 -0.056933985423711433 0.17210787833010821 -0.13683868515252498 0.080148815733310619 -0.054032340723811738 0.16200309846887398 0.032124970966150065 -0.10506693870037812 -0.11117089858474116 -0.12210952337292143 -0.062104060375483584 0.19347260807802147 -0.064628961378758273 -0.11296976744080321 -0.12720316789950584 -0.10938887725852245
leaf_weight=11408.891445728019 116.5387707054615 6479.5449085943401 2250.3183525484055 383.89073301851749 5443.4813122153282 413.34061523526907 2127.0553842410445 2829.0026416033506 438.61791794374585 1477.1588712111115 1519.6924196481705 1403.8182566612959 4061.4690564889461 6229.3943332731724 567.87029698491096 1969.7176350578666 319.83300431072712 5391.621597610414 2433.8992926776409 467.32051964104176 389.62727691233158 4629.1545433551073 3.7832254618406287 4583.6374503690749 980.29494083486497 1143.3285699766129 280.91567625105381 1013.6630859598517 165.67011154443026 915.28637918457389 10335.067664083093 599.49645556509495 5734.7726072017103 862.84816018119454 1377.3610531911254 107.855165515095 197.06331963837147 677.49471012875438 1419.0699488148093 49.540675409138203 8077.7363916411996 628.96332102827728 461.73509862273932 881.91287116706371 632.73432476818562 240.93323899805546 210.00540313869715 96.031360551714897 261.23125739395618 749.62970984354615 133.17135919630527 247.49926419183612 119.18066663481295 45.684758529067039 17.414601478725672 39.848167054355145 73.89914427138865 3.9132687821984282 81.830601723864675
leaf_count=22296 665 21375 2272 1942 21521 931 3956 14387 1897 9471 2380 3458 11631 16928 650 2345 710 10660 4996 906 1636 13276 17 7793 4725 4272 338 4264 221 2680 14701 2577 8582 1858 3994 406 1271 12974 2056 233 7571 3862 1257 3386 579 1345 520 295 223 1543 447 1477 609 145 54 191 796 33 1060
internal_value=0 0.0670661 0.051854 0.0347217 0.0476395 0.0395232 0.0549337 0.0261602 0.0894753 0.0213662 0.0320559 0.0795065 0.00258479 0.0845716 0.165421 0.0748962 0.0669607 0.0769459 0.0501401 0.0966363 0.0143085 0.0182837 0.0795887 0.0444613 0.025745 0.0688408 -0.0278757 -0.0438232 0.0805947 0.0728136 0.0767675 0.0743449 0.0608922 -0.00648662 0.0199843 0.0439119 0.068092 0.0762582 0.0743495 0.0923289 0.101514 -0.0513599 -0.00922517 -0.0274789 0.108347 -0.0560458 0.00461288 0.105413 0.10638 0.0656887 -0.0051371 -0.06322 -0.0102954 0.124295 -0.106483 -0.126591 -0.112782 -0.111483 -0.111088
internal_weight=0 57274.7 25860.3 14678.8 48927 34453.9 18636.5 9456.15 2565.67 15817.4 12996.1 2923.51 6890.47 9180.32 981.211 8199.11 14473.1 11936 5054.72 6881.3 856.948 10072.6 31414.5 13186.8 7459.84 5726.97 2821.28 2490.82 31251 22778.4 21744 11181.5 7874.61 1462.34 2537.1 1929.78 1574.42 6412.27 3852.97 330.456 8472.61 1492 845.626 1201.75 6024.36 607.326 326.544 8173.77 3306.86 1010.86 298.841 355.354 1034.47 2296 646.378 280.781 163.426 159.643 155.73
internal_count=268644 126180 75454 45280 142464 107666 52725 31871 5853 54941 40635 5838 26018 20854 1581 19273 34798 24929 11148 13781 2542 34797 50726 38165 26100 12065 14306 13735 48820 40286 36997 30174 25991 4435 9869 7148 5265 21556 7052 571 8534 7115 3199 4096 11239 2721 1185 7866 4183 1766 668 1883 3289 2417 3916 1536 1906 1889 1856
is_linear=0
shrinkage=0.1


Tree=12
num_leaves=55
num_cat=0
split_feature=132 30 78 34 82 69 63 102 100 72 68 101 61 108 32 55 27 23 72 112 56 8 31 29 68 38 67 101 74 92 106 63 82 109 31 107 78 62 19 56 32 72 112 45 84 29 108 19 82 98 106 106 105 30
split_gain=936.448 1098.14 1268.49 1668.7 853.278 863.494 1360.47 1450.28 1136.83 981.201 927.472 920.587 907.817 767.031 862.18 629.145 606.725 541.802 392.589 303.371 403.619 271.786 268.016 282.924 241.215 221.01 198.536 535.942 183.529 179.77 134.229 132.67 126.55 126.082 117.045 108.409 108.148 103.203 93.6224 281.041 90.1244 74.2031 72.7266 64.3803 61.3904 61.1085 58.5126 3.21115 2.76769 2.09919 0.829064 0.799958 0.208596 0.0502811
threshold=1.0000000180025095e-35 1.067429840564728 -1.0400101542472837 0.88222041726112377 -0.82203471660614003 -0.11446211114525794 0.50188148021698009 -0.82903885841369618 -0.8402515947818755 -0.60625499486923207 0.010850572958588602 -0.87905439734458912 0.66630271077156078 -1.0661255121231077 0.90343004465103161 0.9995846450328828 1.1979399323463442 1.2877663373947146 -0.5320853292942046 -1.2520980238914488 0.85676905512809765 0.21371736377477649 0.95577389001846325 1.1170010566711428 0.020708649419248108 0.95975497364997875 0.16503198444843295 -0.84270370006561268 -0.81135940551757801 -0.75449445843696583 -0.97179359197616566 0.57315739989280712 -1.103436231613159 -1.1180593967437742 0.98415473103523265 -0.88335278630256642 -0.42387218773365015 0.59955832362174999 1.1732434034347536 0.74729105830192577 0.87676525115966808 -0.7161152958869933 -1.2803388833999632 0.94747698307037365 -0.73408964276313771 1.0640364289283755 -0.89472946524620045 1.4047385454177859 -1.1513308286666868 -0.77845054864883412 -0.97888329625129689 -0.91015776991844166 -0.90447738766670216 1.0828918814659121
decision_type=2 2 2 2 2 2 2 2 2 2 2 2 2 2 2 2 2 2 2 2 2 2 2 2 2 2 2 2 2 2 2 2 2 2 2 2 2 2 2 2 2 2 2 2 2 2 2 2 2 2 2 2 2 2
left_child=4 2 22 13 5 6 10 15 26 17 11 -1 -11 18 -15 -8 -12 -10 -4 25 33 42 23 35 -9 38 27 -7 49 -30 -23 -28 -25 34 -21 -2 37 -27 45 -40 43 -42 -5 -24 -35 -6 47 52 51 -22 -50 -49 53 -3
right_child=1 46 3 21 19 8 7 24 9 12 16 -13 -14 14 -16 -17 -18 -19 -20 20 28 30 40 32 -26 36 31 -29 29 -31 -32 -33 -34 44 -36 -37 -38 -39 39 -41 41 -43 -44 -45 -46 -47 -48 48 50 -51 -52 -53 -54 -55
leaf_value=0.05293312484500922 -0.14816007717446436 -0.16631387308663675 -0.18100383359467762 -0.14568162174745428 0.10292230295315419 0.11043620225509848 -0.059360896089159947 -0.097364176068892583 -0.054655006113320782 0.11394121291537661 -0.070400646438186595 0.024693016600435706 0.046783742339177432 -0.05360032514858859 0.053283183744807706 0.06440391916950608 0.12374889627450028 0.11061307177777623 0.075235241718099227 -0.15927684566662006 -0.18855273424371821 -0.11854350421059284 0.12783183053313849 0.11211857736704617 -0.027294656515617896 0.032491808889917415 0.11268104187369488 0.038965279926717826 0.16821179586410043 0.094076824359581923 0.1009491246420214 0.016210387507193735 -0.14265160845216948 -0.15477872405635137 0.23825472185967694 0.10940489426756515 0.13659662737569017 -0.13836313717111293 0.19202712629005142 -0.17615752020712966 -0.021391465727528272 0.15119153001088637 0.074181679344970802 0.34206798845827813 0.0093247215674117142 0.29604952179466398 0.10930633834649557 -0.15650910841283727 -0.16609705855930149 -0.1257450433289807 -0.12481898388159729 -0.12569156827428005 -0.14496764260607298 -0.17444311772873222
leaf_weight=25266.492049844004 63.773172438144684 48.954923614859581 61.586251214146614 57.434971591457725 99.453127503395081 2239.8337522856891 519.017389241606 1425.3235978316516 1297.323152275756 2228.1348913181573 175.49123070761561 21253.173290440813 20831.424998291768 1858.3360633179545 1270.7973697036505 1968.6089888550341 1943.9365053139627 234.1688703559339 2052.9931899867952 11.101676270365713 6.6956963688135138 27.98761773109436 21.066887393593788 985.24799980968237 749.72332553379238 47.624644972383976 3520.1775682121515 1973.7762840045616 352.04111678153276 4615.3731788191944 6184.8762125112116 148.57204478979111 19.890483558177948 90.858790988102555 22.251071497797966 21.97170577943325 22.776775661855936 137.21612000651658 39.03926694393158 44.209156051278114 25.203400701284409 2162.0648971647024 20.384472582489252 41.976614266633987 30.431585358455777 19.615187346935272 9.2945236489176732 70.955240182578564 5.1674499809741965 25.926630601286888 83.337438013404608 9.5576739311218244 4.3895444124937049 9.0087417811155301
leaf_count=69378 252 205 254 493 119 2833 1754 8372 5792 2824 727 68012 48604 15284 1858 3538 2968 378 4861 52 28 79 48 968 3414 107 3309 4774 300 8042 3611 262 110 1563 18 16 34 665 18 192 73 1073 53 19 83 5 16 327 26 189 545 59 23 37
internal_value=0 0.0751959 0.0786242 0.0629075 0.0483254 0.0458636 0.0380322 -0.0135678 0.0587181 0.048125 0.0429787 0.0400312 0.0532728 0.0212473 -0.010193 0.0385817 0.107673 -0.0293851 0.0677724 0.0862725 0.0928571 0.0976341 0.132881 0.0922027 -0.0732117 0.00347574 0.0917661 0.0769572 0.0977782 0.0993308 0.0999604 0.108774 0.107077 -0.0662562 0.105934 -0.0821603 -0.0690067 -0.094342 0.0778573 -0.00349769 0.1526 0.149203 -0.0880894 0.270478 -0.113605 0.134738 -0.136707 -0.14659 -0.139434 -0.138636 -0.127229 -0.152851 -0.165986 -0.167577
internal_weight=0 15116.3 14875.6 11534.4 91339.8 85775.2 53301.8 4662.67 32473.4 24591.1 48639.1 46519.7 23059.6 5243.71 3129.13 2487.63 2119.43 1531.49 2114.58 5564.61 5154.68 6290.68 3341.2 1090.88 2175.05 409.934 7882.36 4213.61 5000.04 4967.41 6212.86 3668.75 1005.14 154.643 33.3527 85.7449 207.618 184.841 202.317 83.2484 2250.31 2187.27 77.8194 63.0435 121.29 119.068 240.666 231.371 169.018 32.6223 88.5049 80.5129 62.3532 57.9637
internal_count=268644 30290 29052 26493 238354 226939 158163 17078 68776 57598 141085 137390 51428 22257 17142 5292 3695 6170 5115 11415 10275 4236 2559 1346 11786 1140 11178 7607 8559 8342 3690 3571 1078 1716 70 268 806 772 334 210 1213 1146 546 67 1646 124 1238 1222 957 217 571 386 265 242
is_linear=0
shrinkage=0.1


Tree=13
num_leaves=59
num_cat=0
split_feature=72 36 132 106 30 50 90 76 131 30 34 32 108 132 37 43 48 62 53 71 59 39 31 83 134 98 113 71 108 30 101 105 93 128 19 41 69 87 99 72 119 82 86 108 24 96 32 34 67 52 32 91 55 103 95 102 64 32
split_gain=904.741 939.837 806.643 1353.55 923.847 781.501 854.11 1348.56 678.266 418.011 377.409 436.21 515.716 891.889 507.069 459.684 374.422 320.177 317.039 312.547 307.783 269.216 246.719 262.915 239.065 218.36 215.65 201.322 153.154 136.234 127.667 112.178 158.892 102.888 92.9442 111.42 85.7385 85.7106 84.5646 126.036 75.0745 54.0044 154.024 49.7414 22.4367 33.2971 11.7702 9.74179 6.45112 6.40718 4.84604 1.96872 0.989067 0.892094 0.695125 0.67577 0.590569 0.141781
threshold=-0.54904431104660023 0.96084684133529674 1.0000000180025095e-35 -0.94968858361244191 1.067429840564728 0.82459196448326122 -1.2234070897102354 -1.2253143191337583 1.0000000180025095e-35 1.0252514481544497 0.95050999522209179 0.89688152074813854 -1.0601304769515989 1.0000000180025095e-35 0.95962461829185497 1.1663946509361269 1.1725096106529238 0.64446106553077709 1.0509368777275088 -0.3249992281198501 0.82536613941192638 1.0394299030303957 0.97292268276214611 -0.80906137824058522 1.0000000180025095e-35 -0.81873029470443714 -1.0251685380935667 -0.26556955277919764 -0.89877435564994801 1.0876488089561465 -0.74713274836540211 -0.77335032820701588 -0.95154091715812672 1.0000000180025095e-35 1.1264610886573794 1.077986001968384 0.017437477596104149 -1.1484130620956419 -0.78918603062629689 -0.5172288417816161 -1.6057495474815366 -1.1321400403976438 -1.0621039867401121 -0.89472946524620045 1.1878772974014284 -0.90178608894348133 0.96761181950569164 0.8707091510295869 0.26320695877075201 0.78226491808891307 0.95292666554451 -0.99703755974769581 1.0299879908561709 -0.80304455757141102 -0.85857126116752613 -0.78302302956581105 0.52156174182891857 0.96761181950569164
decision_type=2 2 2 2 2 2 2 2 2 2 2 2 2 2 2 2 2 2 2 2 2 2 2 2 2 2 2 2 2 2 2 2 2 2 2 2 2 2 2 2 2 2 2 2 2 2 2 2 2 2 2 2 2 2 2 2 2 2
left_child=1 2 5 22 9 28 8 -8 -7 -5 11 12 15 18 -15 20 21 33 -14 38 -2 25 23 -4 27 -13 41 -18 29 -1 -26 37 -33 34 -3 -36 -23 -28 39 56 -17 54 -43 -6 45 -19 50 -24 52 -30 -46 -50 -40 -35 -21 -48 -12 -55
right_child=10 17 3 4 43 6 7 -9 -10 -11 19 16 13 14 -16 40 24 44 -20 26 -22 36 47 -25 30 -27 31 -29 49 -31 -32 32 -34 53 35 -37 -38 -39 48 -41 -42 42 -44 -45 46 -47 55 -49 51 -51 -52 -53 -54 57 -56 -57 -58 -59
leaf_value=0.055526617393666079 0.021058278267771426 0.37494912979337708 0.017914866131528286 0.023672392994873753 -0.13947420044986356 0.085664623276655819 -0.055122976792908909 0.040047160771143696 0.001080744009532616 0.12176438869541902 -0.13320392822830368 0.092733632887818371 -0.1539073278254344 -0.092233949236321736 0.050352500794600991 -0.075613879843290432 0.097166821831099967 0.11286131839961432 0.096825880504765177 -0.18222816759480193 0.092884810696522935 -0.11414460201857726 -0.17013021020117697 -0.1782802652194147 0.089591883285413565 0.053826832922940104 0.089333745219475291 -0.01885395989286592 -0.10998510856064253 -0.12554130913369194 -0.1125729444731049 0.087273160695403043 -0.19797489501882892 -0.16989361525861052 0.15034742002026447 -0.13712664662871077 0.085367944984547819 0.24677463820879911 -0.12955322470809064 0.14815342492518394 -0.25794461564609306 0.28082772682832302 -0.11580489139259971 0.098072342345113028 -0.19233583881645641 -0.18167322885573664 -0.14594301892697417 -0.2462076159590954 -0.19538437653998106 -0.14265825646456726 -0.15897548152360083 -0.14421382944528688 -0.1490444503475192 -0.1379682053958419 -0.14210075709992429 -0.1201074483180693 -0.16241584436835166 -0.1144077496833002
leaf_weight=123.90839932858944 792.83507684804499 11.343700885772703 299.28170244395733 492.48497393354774 162.24325185269117 6483.6210849918425 1521.1222572922707 70301.640043219551 1110.3982743285596 3685.3430892750621 23.526842281222343 1918.9619570299983 53.741108221933246 865.39809048734605 350.39121363684535 102.10572847165167 7142.957295678556 7.8096844777464867 818.50732531584799 4.6817319244146338 2410.2252455465496 113.6395639590919 123.63546609133482 88.500792965292931 48.946743741631508 5809.9871241673827 173.95031349360943 152.75962716713548 282.65019078180194 62.519200552254915 86.332165591418743 54.507004842162132 30.430019751191139 3.9552821815013912 45.152942337095737 19.221867252141237 26.576937407255173 43.156699761748314 58.856878291815519 27.245848268270493 28.995375663042068 13.678521960973738 34.446382895112038 9.3214187100529653 57.286024183034897 7.5477985963225347 11.744451999664305 19.484247490763664 33.722910061478615 76.198580026626587 181.5154283605516 9.6760320663452131 46.684524990618229 3.0036334544420269 55.410828620195389 73.387928133830428 9.8049686029553396 17.06919819675386
leaf_count=462 1677 2 728 954 917 10007 6923 186282 4008 2852 142 2596 268 11574 1001 1894 7757 6 1417 20 3672 511 549 372 113 10076 238 492 5735 492 389 55 128 17 73 128 26 24 401 31 155 9 150 16 237 37 63 81 139 411 876 49 242 18 275 640 44 193
internal_value=0 0.0422382 0.0429934 0.0824622 0.100862 0.0405845 0.0414037 0.0380316 0.0732968 0.110201 0.0652602 0.06756 0.0431882 0.00421713 -0.0511404 0.067594 0.0761971 -0.103695 0.0813777 -0.011633 0.075106 0.0609954 -0.0682756 -0.0268613 0.0922952 0.0634867 0.0391151 0.0947375 -0.0787237 -0.0051952 -0.0394255 0.0825119 -0.0149214 0.0538051 0.111018 0.0645097 -0.0763286 0.12063 -0.111004 -0.0113868 -0.11594 -0.0820091 -0.00307017 -0.126568 -0.149998 -0.0318947 -0.155597 -0.180487 -0.15152 -0.116923 -0.166978 -0.183976 -0.138175 -0.126486 -0.145227 -0.123672 -0.141797 -0.117933
internal_weight=0 85281.4 84842.4 4880.29 4349.39 79962.1 79416.8 71822.8 7594.02 4177.83 21342.1 20722.4 5422.2 2088.04 1215.79 3334.16 15300.2 439.038 872.248 619.78 3203.06 7869.17 530.902 387.782 7431 7728.95 410.262 7295.72 545.276 186.428 135.279 302.044 84.937 99.7466 75.7185 64.3748 140.217 217.107 209.518 60.5777 131.101 108.217 48.1249 171.565 339.291 15.3575 323.934 143.12 148.94 358.849 238.801 43.3989 105.541 24.0281 60.0926 85.1324 33.3318 20.0728
internal_count=268644 223079 220789 6469 4739 214320 207220 193205 14015 3806 45565 43618 21658 14260 12575 7398 21960 2290 1685 1947 5349 13209 1730 1100 8751 12672 899 8249 7100 954 502 445 183 431 203 201 537 262 1048 217 2049 454 159 933 1859 43 1816 630 831 6146 1113 188 643 228 295 703 186 211
is_linear=0
shrinkage=0.1


Tree=14
num_leaves=58
num_cat=0
split_feature=132 33 79 108 30 33 50 99 71 102 54 99 63 74 73 57 43 10 6 101 104 131 29 30 0 79 127 37 26 120 37 77 104 30 105 32 33 22 0 108 36 38 125 106 52 105 34 105 29 82 99 30 105 51 52 24 109
split_gain=857.191 905.452 1050.93 992.501 831.896 690.383 676.937 731.48 912.275 1615.92 1571.43 820.663 811.018 760.55 450.957 402.731 340.021 331.723 329.549 263.956 241.884 240.781 211.099 202.172 331.718 201.455 163.902 515.159 145.87 145.232 128.888 122.033 148.536 126.893 111.186 104.761 97.8951 82.3511 70.5526 43.6591 43.1405 42.9714 128.29 17.5581 5.08974 2.91988 2.76709 2.18122 1.69361 0.776866 0.666092 0.607967 0.473422 0.348704 0.296903 0.256512 0.147647
threshold=1.0000000180025095e-35 0.8860076665878297 -1.0621094107627866 -1.0583445429801939 1.067429840564728 0.8755134940147401 0.82459196448326122 -0.97752344608306874 -0.4731017649173736 -0.84489762783050526 1.0051928758621218 -0.8781476318836211 0.45540066063404089 -0.95311340689659108 -0.61983820796012867 0.84118369221687328 1.1663946509361269 0.5873207449913026 0.61374762654304515 -0.94963854551315297 -0.88498082756996144 1.0000000180025095e-35 1.230195999145508 1.0303084254264834 0.70592555403709423 -1.0299335122108457 -2.3879179954528804 0.93660736083984386 1.2144529819488528 -0.93904945254325856 0.95182600617408764 -1.1041800975799558 -0.91116192936897267 1.0876488089561465 -0.92705139517784108 0.88086053729057323 0.88799029588699352 1.3263241648674013 0.37311147153377539 -0.89472946524620045 0.9126066565513612 0.93646466732025158 -1.7810412049293516 -0.91015776991844166 0.78226491808891307 -0.91912683844566334 0.87125912308692943 -0.92705139517784108 1.2196610569953921 -1.1548637747764585 -0.92798134684562672 1.0578778982162478 -0.92014029622077931 0.79332381486892711 0.78226491808891307 1.1449041962623598 -0.87657919526100148
decision_type=2 2 2 2 2 2 2 2 2 2 2 2 2 2 2 2 2 2 2 2 2 2 2 2 2 2 2 2 2 2 2 2 2 2 2 2 2 2 2 2 2 2 2 2 2 2 2 2 2 2 2 2 2 2 2 2 2
left_child=6 2 4 14 23 25 29 15 9 10 -9 18 -11 -13 46 19 -16 -7 -10 22 36 -21 -8 24 -2 -5 27 28 -22 31 -29 32 33 -1 -25 38 -3 -37 -17 49 45 42 -28 -43 52 -38 -4 -46 50 -6 -33 -49 56 -50 -34 -54 -31
right_child=1 20 3 5 39 17 7 8 11 12 -12 13 -14 -15 16 35 -18 -19 -20 21 26 -23 -24 34 -26 -27 41 30 -30 44 -32 48 54 -35 -36 37 40 -39 -40 -41 -42 43 -44 -45 47 -47 -48 51 53 -51 -52 -53 55 -55 -56 -57 -58
leaf_value=0.16645373675770647 -0.077966760645106881 0.062338561745274079 -0.16310191755197706 0.020340054340305405 -0.14132881672205697 -0.018107341745419125 0.084063029391969191 0.020530540821413864 0.10348063292687051 0.010725540963834759 0.071703444426164262 -0.0028734185624082254 -0.071256565116415427 0.044770877084597448 0.065425048513992459 0.10495577284437706 -0.10822549779913396 0.09361080104852712 0.059915949471258549 0.035265962790667592 -0.24908686892654297 -0.16271597843994157 -0.059407347428279217 0.040741199320077956 0.11574960770897438 -0.096324182582059548 -0.10047799394867141 0.058240105559751953 -0.029478518199327227 -0.13728778013579612 0.10448924276111549 -0.18734259459386859 -0.1117823206198255 -0.12879777039492252 0.12843284655041037 0.24704136045145325 -0.21031951502997234 0.14754635195170748 -0.22521898789052208 0.088341585670289921 -0.0049248183474313824 0.12882947816234511 0.11671664787094534 0.16092066337446542 -0.19581418532619885 -0.27498789963209175 -0.23767704616317675 -0.15179340000354749 -0.11461259566552112 -0.12714677835955407 -0.13465431294007132 -0.12851919467481102 -0.10225695329884142 -0.13315163198306335 -0.13225559216922397 -0.10986473112817581 -0.11489271809847364
leaf_weight=78.150452673435211 141.93189926445484 28.737689003348351 84.346940711140633 171.51264636218548 81.226148065179586 638.26527137123048 2492.608005983755 23606.104875437915 2868.6356031447649 2520.1709132995456 8046.3553133904934 3648.9261277839541 2315.2383174821734 40963.054380046204 3389.6801128415391 14.692897714674475 116.63967775087804 455.43332180380821 4399.3804319240153 219.02049812301993 37.884567126631737 85.373359024524689 106.95656997710466 155.82706110179424 234.35632308572531 1080.3101000254974 31.492222830653191 743.17393672466278 150.00759182870388 7.3000419680029154 3184.8917129002512 7.1406889259815216 9.6952356658875924 17.888269945979118 2004.7201823592186 99.015385121107101 25.006015807390209 520.46715645492077 11.5665270909667 9.3135135769844037 11.505587629973887 1052.4542921632528 199.31967470049858 203.45141167938709 6.2740612328052512 9.6866609603166598 5.287369340658187 14.65391901321709 17.963167322799563 73.645034521818161 3.6136996150016767 47.944888114929199 57.62540019582957 23.31315816193819 26.293421760201454 191.93554156273603 4.9333408381789905
leaf_count=128 418 37 366 440 429 1432 3524 71729 3418 9366 15078 11988 12661 92898 5916 11 2132 491 8650 433 159 412 532 361 176 12779 84 753 302 53 1456 34 111 122 1317 66 102 422 49 16 22 362 104 67 30 43 22 78 211 504 22 305 3212 141 148 2471 51
internal_value=0 0.0648701 0.0444893 0.0209775 0.0962083 -0.0296289 0.038577 0.0392174 0.0374294 0.0253139 0.0335392 0.0459504 -0.0285282 0.0408739 0.0539864 0.0837269 0.0596485 0.0284139 0.0771106 0.0678434 0.095894 -0.020262 0.0781601 0.110327 0.0426819 -0.08034 0.0982811 0.0880016 -0.073758 -0.075783 0.0957391 -0.00458599 0.0465302 0.11146 0.122108 0.155156 -0.0825794 0.163449 -0.0404768 -0.121939 -0.172726 0.12674 0.0870824 0.134028 -0.115413 -0.228376 -0.167501 -0.139602 -0.134293 -0.134585 -0.169638 -0.133968 -0.10905 -0.125084 -0.12674 -0.108108 -0.128257
internal_weight=0 14320.1 8642.5 5941.48 2701.02 2345.52 92432.3 91917.6 88367.9 36487.9 31652.5 51880 4835.41 44612 3595.95 3549.7 3506.32 1093.7 7268.02 2903.96 5677.61 304.394 2599.56 2536.84 376.288 1251.82 5602.68 4115.96 187.892 514.725 3928.07 184.058 132.027 96.0387 2160.55 645.742 74.936 619.483 26.2594 164.185 46.1983 1486.72 230.812 1255.91 330.667 34.6927 89.6343 68.8729 52.0307 154.871 10.7544 62.5988 261.794 41.2763 35.9887 249.561 12.2334
internal_count=268644 30290 26799 23578 3221 15142 238354 231237 225788 108834 86807 116954 22027 104886 8436 5449 8048 1923 12068 4901 3491 845 4056 2272 594 13219 3287 2670 461 7117 2209 917 509 250 1678 548 204 488 60 949 167 617 188 429 6200 145 388 413 408 933 56 383 5787 352 259 5683 104
is_linear=0
shrinkage=0.1


Tree=15
num_leaves=58
num_cat=0
split_feature=132 33 79 108 30 82 69 103 100 57 35 69 33 103 134 23 68 37 69 43 32 105 41 57 31 71 105 32 73 129 76 30 0 94 106 35 113 121 78 31 29 126 37 102 50 37 52 126 55 1 108 105 33 106 69 70 82
split_gain=801.506 827.048 889.383 818.102 699.015 640.15 695.573 1253.86 860.532 684.75 681.038 893.264 578.374 482.515 473.734 444.523 414.091 409.65 391.81 334.278 284.418 279.461 276.695 356.691 428.553 222.917 208.677 186.334 181.069 176.243 256.556 173.276 274.947 163.955 155.495 152.832 158.516 153.574 136.244 131.023 115.339 107.212 421.721 188.699 153.437 114.31 107.161 95.9579 94.2847 49.9793 38.5741 33.8014 28.8758 4.99886 4.1735 1.32035 0.527248
threshold=1.0000000180025095e-35 0.8860076665878297 -1.0621094107627866 -1.0583445429801939 1.067429840564728 -0.82203471660614003 -0.071916136890649782 -0.79236027598381031 -0.81737008690834034 0.938564032316208 0.9257217049598695 -0.10840230062603949 0.8755134940147401 -0.80984321236610401 1.0000000180025095e-35 1.2664547562599184 0.058603728190064437 0.9321693778038026 0.01016820687800646 1.1642169356346133 0.88328477740287792 -0.89554101228713978 1.0704852938652041 0.865474432706833 0.95435062050819408 -0.40458235144615168 -0.92220214009284962 0.89688152074813854 -0.7130809724330901 1.0000000180025095e-35 -1.1851509809494016 1.0303084254264834 0.70592555403709423 -0.76190945506095875 -0.99497944116592396 0.88516622781753551 -1.2778820991516111 -1.6031523942947385 -0.6169835329055785 1.0011346936225893 1.0895876884460451 -2.202020406723022 0.93829694390296947 -0.78398850560188282 1.0396348237991335 0.95182600617408764 0.82834020256996166 -2.7488536834716792 0.90823316574096691 -0.69153189659118641 -0.89472946524620045 -0.91532737016677845 0.88732120394706737 -0.91098546981811512 -0.14156681299209592 -0.31028549373149866 -1.1513308286666868
decision_type=2 2 2 2 2 2 2 2 2 2 2 2 2 2 2 2 2 2 2 2 2 2 2 2 2 2 2 2 2 2 2 2 2 2 2 2 2 2 2 2 2 2 2 2 2 2 2 2 2 2 2 2 2 2 2 2 2
left_child=5 2 4 17 31 6 7 10 29 14 11 -1 27 -12 -10 40 -17 20 -11 -19 -4 -14 23 24 38 -26 48 -5 33 39 -31 32 -2 -25 -30 49 47 -38 -7 -8 -9 42 43 -28 52 -44 -33 -37 -3 -24 56 -46 -43 -51 55 -50 -6
right_child=1 26 3 12 50 22 8 15 9 18 13 -13 21 -15 -16 16 -18 19 -20 -21 -22 -23 35 28 25 -27 41 -29 34 30 -32 46 -34 -35 -36 36 37 -39 -40 -41 -42 44 45 -45 51 -47 -48 -49 54 53 -52 -53 -54 -55 -56 -57 -58
leaf_value=0.027248464495975656 -0.069580787546703396 0.066600063480401636 0.043288227501343007 -0.10059189926824721 -0.13605823048688198 -0.13246443320584186 0.11043416165148148 -0.11282003396735887 -0.023708310744510762 0.040116806572793963 0.0099521057098611518 0.059392916687570199 0.079939894157028291 -0.094302699131070353 0.12353820947501314 -0.031782546517599611 0.12652731607595302 0.073607587588014209 0.090555715914366647 -0.078202124223535494 -0.088385812836632729 -0.021491810710053044 0.14153520053961599 0.17710578924484321 0.064662811106289367 -0.15886385396447925 0.011382119916280929 -0.015512625522254356 -0.17598859026101371 -0.0085230228165371312 0.1093436889117208 -0.071195538113767956 0.10728784331029793 -0.13345702576415783 0.098400337014166811 0.13713019337172036 0.10755499717812969 -0.0032555319740340291 0.11245794152944773 0.057879563119498025 -0.047651452511943568 -0.01736966813100959 0.054031082091905686 -0.18995699399745536 0.015978377818098743 0.10037246742658774 0.11597588586999222 -0.086885221495103124 -0.17979237837448681 -0.20051491758934537 0.079793903053312326 0.1211633226150082 -0.29015294677065923 -0.13992756689675029 -0.30147750861754957 -0.22410804301930631 -0.12392019249271052
leaf_weight=56216.640352541581 143.06814886629581 19.599503830075264 330.94665749091655 844.50249717850238 78.484056364744902 176.84605457540601 2696.3456119615585 738.20478255022317 2222.3258920293301 8247.6312087010592 1207.3185856714845 10216.097126074135 507.29802779853344 702.09723297320306 242.32131285965443 756.16608812846243 211.42410513758659 2733.40010894835 1893.6905753910542 153.17530074715614 325.27221629023552 584.6992785166949 6.0392870903015128 23.259940698742867 1160.1300077773631 46.399854838848114 149.25359266996384 370.29399343580008 20.780211254954338 390.79330583661795 350.12495040893555 31.047241404652596 227.89586126059294 63.15450269728899 3373.6155383847654 21.923166487365961 254.64478581398726 245.79432542622089 26.058944698423147 575.65637001395226 429.64373297989368 6.224882826209071 647.55276978760958 67.646967872977257 31.208389833569527 2990.3062089495361 2069.6187480390072 149.63454164378345 17.958053886890411 20.319470113143325 9.2816297784447652 1450.7117521092296 10.3043120726943 41.289287431165576 4.3515614792704573 10.74647229909897 65.780233945697546
leaf_count=159692 418 25 868 12269 445 1911 2895 4496 7990 17040 3213 17077 577 3429 332 4120 387 4183 1978 2364 1021 1346 1 9 2104 236 241 950 90 906 433 108 176 424 4644 36 346 605 30 999 1952 11 661 252 50 1452 1570 611 74 89 16 612 48 279 21 44 488
internal_value=0 0.0603591 0.0408639 0.019162 0.0892214 0.0345936 0.0324811 0.0281415 0.0508844 0.0380456 0.0304993 0.0321917 -0.0271837 -0.0283827 -0.0092312 -0.0473155 0.00280908 0.0493387 0.0495353 0.0655518 -0.0219795 0.0256293 0.0672741 0.0758959 0.0334536 0.0560666 0.0909219 -0.0746581 0.0930815 0.0912155 0.0471755 0.102083 0.0390757 -0.0498637 0.0967206 0.0102702 0.0246927 0.0531296 -0.101009 0.101188 -0.0888449 0.0928705 0.0840471 -0.0514115 0.115569 0.0921235 0.11321 -0.0582585 -0.107181 -0.132999 -0.11781 0.118948 -0.187423 -0.15991 -0.210218 -0.196383 -0.130524
internal_weight=0 13880.6 8474.76 5849.59 2625.18 92726.4 87096.5 70477.6 16618.9 12606 68342.2 66432.7 2306.79 1909.42 2464.65 2135.44 967.59 3542.79 10141.3 2886.58 656.219 1092 5629.89 4890.25 1409.43 1206.53 5405.86 1214.8 3480.81 4012.92 740.918 2471.63 370.964 86.4144 3394.4 739.645 671.997 500.439 202.905 3272 1167.85 5353.21 3854.76 216.901 1498.45 3637.86 2100.67 171.558 52.6556 67.648 153.546 1481.92 16.5292 61.6088 33.0561 28.7045 144.264
internal_count=268644 30290 26799 23578 3221 238354 226939 194366 32573 27340 183411 176769 15142 6642 8322 10955 4507 8436 19018 6547 1889 1923 11415 9448 4281 2340 3491 13219 5167 5233 1339 2272 594 433 4734 1967 1598 951 1941 3894 6448 3327 2606 493 721 2113 1678 647 164 369 949 662 59 368 139 118 933
is_linear=0
shrinkage=0.1


Tree=16
num_leaves=54
num_cat=0
split_feature=132 33 79 48 98 71 102 54 99 31 108 30 135 54 32 70 37 53 54 43 101 92 119 104 101 30 0 127 37 103 106 31 105 68 33 38 125 108 36 32 108 108 113 34 105 55 30 105 106 107 24 28 79
split_gain=743.251 753.452 764.364 551.293 632.543 645.307 1395.92 1247.29 769.71 758.896 537.007 489.241 489.082 488.735 404.032 413.745 397.521 301.629 255.526 237.718 200.246 240.806 184.369 184.126 157.281 142.737 264.278 117.231 360.592 161.791 116.642 111.775 98.2456 96.0886 71.5563 41.4125 108.455 35.7842 33.7021 13.9572 11.528 35.3819 5.54169 4.04599 2.23403 1.84988 0.452658 0.322064 0.317767 0.288837 0.221614 0.106289 0.0586587
threshold=1.0000000180025095e-35 0.8860076665878297 -1.1053446531295774 0.78258052468299877 -0.99896663427352894 -0.48123843967914576 -0.84690654277801503 1.0013770461082461 -0.8781476318836211 1.0029644966125491 -1.0640575289726255 1.067429840564728 1.0000000180025095e-35 0.98562267422676098 0.90343004465103161 -0.37369965016841883 0.94287195801734935 1.0036129355430605 0.9864369034767152 1.1663946509361269 -0.94963854551315297 -1.112119674682617 -0.89460468292236317 -0.88498082756996144 -0.93402591347694386 1.0252514481544497 0.70592555403709423 -2.3705073595046993 0.93704187870025646 -0.82315745949745167 -0.92283564805984486 1.0047125220298769 -0.91284665465354908 -0.11757715791463851 0.88799029588699352 0.93646466732025158 -1.7810412049293516 -0.89472946524620045 0.9126066565513612 0.91979154944419872 -0.90724560618400563 -0.90775802731513966 -0.96503072977066029 0.8707091510295869 -0.91912683844566334 0.67328178882598888 1.061768710613251 -0.937863528728485 -0.90709376335144032 -0.91721972823142994 1.1449041962623598 1.3925530910491946 -1.114820599555969
decision_type=2 2 2 2 2 2 2 2 2 2 2 2 2 2 2 2 2 2 2 2 2 2 2 2 2 2 2 2 2 2 2 2 2 2 2 2 2 2 2 2 2 2 2 2 2 2 2 2 2 2 2 2 2
left_child=3 2 11 40 17 6 7 -6 13 -10 18 25 -8 -7 16 -16 -12 20 43 -20 21 -5 -22 34 33 26 -2 28 29 -25 -30 -26 -27 -19 -3 36 -29 49 44 -37 41 46 45 -4 -36 47 -1 -42 51 -13 -50 -44 -48
right_child=1 23 10 4 5 8 12 -9 9 -11 14 37 -14 -15 15 -17 -18 24 19 -21 22 -23 -24 27 31 32 -28 35 30 -31 -32 -33 -34 -35 38 39 -38 -39 -40 -41 42 -43 48 -45 -46 -47 52 -49 50 -51 -52 -53 -54
leaf_value=-0.15176568479448452 -0.15295622639499731 0.055818396951335905 -0.16146029178218138 0.085666020451563615 0.01424073009088786 0.14254191246844991 -0.052932870384152168 0.0590898167760203 0.0369033793749938 -0.0001168284148213436 -0.070509328307917965 -0.12574393330091208 0.055740321143909269 0.056959805161268855 -0.16796849298633137 0.062742598654493387 0.013857145442763034 0.125595944938061 0.060272145370454777 -0.10926202136889451 -0.080732448315793431 -0.11507275930820041 0.077911947613178476 0.030411265932154263 0.15624032711763725 0.065276803052474686 0.09745427298378477 -0.097342106399614534 0.092184995863573482 -0.13871872189466891 0.015516370961772852 -0.14925350233278067 0.12170551130005608 0.21325748546225967 -0.17969648913457459 0.082231662719298992 0.10410158043848537 0.081054834955373786 0.0020584316937807177 0.12600543482852194 -0.17097971646390261 0.1385520125511458 -0.13758080545542178 -0.24930824230741946 -0.23556556188438582 -0.22580488726358106 -0.12557987768983198 -0.13303941876993189 -0.10234265320620357 -0.13828990590952206 -0.10963700151804695 -0.11710046891117232 -0.10928257143993536
leaf_weight=4.0032769590616288 61.067810460925102 28.012346729636192 44.536266095936298 1129.9780102670193 22890.341714715585 727.39728214591742 3189.6525865569711 8504.9832531139255 40001.829465420917 6427.0694907521829 1213.8345160484314 81.39448232576251 475.921471321024 8073.7758692465723 84.666217774152756 948.99323745071888 1034.460669609718 600.72526901960373 2753.7703362740576 85.269047382287681 179.41483244299889 63.096099235117435 123.80506934970617 133.76373147964478 18.956250637769699 394.01333521306515 136.02086126804352 31.325825840234756 3343.0067872852087 97.998004823923111 210.9580892585218 32.528550058603287 1422.3217440396547 157.91060648858547 24.523996144533154 78.629013687372208 182.03857660293579 8.82725792378187 11.425997771322725 989.32302324473858 3.7130852863192549 7.6005035862326613 4.4617931470274907 5.9423005133867255 10.106942117214205 4.5617318078875533 2.8787664379924562 5.62961871176958 53.331556460820138 23.691592413932085 190.16932853683829 5.8650815561413765 9.4857041556388086
leaf_count=23 242 37 201 1437 69148 800 16016 15902 88742 21832 9730 547 1514 14884 377 1225 6633 502 4550 1700 614 287 213 188 38 527 99 83 1825 321 382 166 779 88 102 61 104 13 22 323 17 10 31 25 43 21 26 39 3226 151 2576 64 138
internal_value=0 0.0562316 0.0375957 0.0310714 0.0315038 0.0301829 0.0195723 0.0263903 0.0369186 0.0317787 0.0197774 0.0892871 -0.0388232 0.064033 -0.00790107 0.0438452 -0.0316916 0.0832168 0.051215 0.0551803 0.0566074 0.0750499 -0.0159577 0.0863137 0.132364 0.100694 0.0198647 0.0886018 0.0797528 -0.0411036 0.0876341 -0.0367734 0.109465 0.143843 -0.0702126 0.114747 0.0745259 -0.112328 -0.146866 0.122783 -0.106187 -0.0397456 -0.112135 -0.171802 -0.196002 -0.173605 -0.12254 -0.148118 -0.108768 -0.128572 -0.108039 -0.125949 -0.113077
internal_weight=0 13439.9 8298.81 92889.1 92597.4 90291 35060.9 31395.3 55230.1 46428.9 6171.47 2127.34 3665.57 8801.17 3281.95 1033.66 2248.3 2306.41 2889.52 2839.04 1496.29 1193.07 303.22 5141.11 810.121 2013.42 197.089 5067.04 3785.73 231.762 3553.96 51.4848 1816.34 758.636 74.0693 1281.32 213.364 113.913 46.0569 1067.95 291.7 23.9683 267.732 50.4786 34.6309 13.9044 16.3677 9.3427 253.828 105.086 243.501 10.3269 12.3645
internal_count=268644 30290 26799 238354 232183 228838 102580 85050 126258 110574 24441 2358 17530 15684 17965 1602 16363 3345 6476 6250 2551 1724 827 3491 794 1647 341 3287 2716 509 2207 204 1306 590 204 571 187 711 167 384 6171 197 5974 226 145 77 187 56 5897 698 5802 95 164
is_linear=0
shrinkage=0.1


Tree=17
num_leaves=62
num_cat=0
split_feature=107 133 31 89 107 56 31 103 106 50 32 3 109 54 100 35 38 57 110 39 30 102 106 133 92 46 32 57 106 57 71 132 70 132 31 135 36 43 106 52 32 29 3 68 69 31 72 74 35 32 14 57 4 62 30 74 127 62 113 132 105
split_gain=712.5 589.258 779.684 735.644 882.546 753.203 626.522 521.498 492.25 1619.26 493.054 1048.06 457.325 434.761 442.62 377.662 536.944 403.663 363.04 343.326 330.974 326.781 321.947 298.934 276.914 428.844 279.243 275.621 298.466 294.525 263.103 246.529 244.573 241.177 230.206 200.251 198.832 192.193 156.05 213.782 154.764 144.059 140.333 133.585 121.449 118.149 197.933 114.033 99.1554 85.051 82.9485 81.1444 143.328 77.151 45.0798 31.9415 53.9425 8.26563 3.73957 3.65759 0.946838
threshold=-0.99719756841659535 1.0000000180025095e-35 1.0034062266349795 -1.1436373591423032 -0.96712198853492726 0.94308680295944225 0.9984303116798402 -0.82263988256454457 -0.9002576172351836 0.95819950103759777 0.90921613574028026 0.57866203784942638 -0.83582013845443714 1.0121024847030642 -0.95510712265968312 0.83298781514167797 0.97868940234184276 0.78315451741218578 -1.210656940937042 0.97947576642036449 1.0838460326194765 -0.85189685225486744 -0.95879849791526783 1.0000000180025095e-35 -0.96014830470085133 1.1521103978157046 0.94572481513023388 0.81437399983406078 -0.94487452507019032 0.93164572119712841 -0.4341625422239303 1.0000000180025095e-35 -0.37369965016841883 1.0000000180025095e-35 1.006949305534363 1.0000000180025095e-35 0.85805025696754467 1.1663946509361269 -0.9681522250175475 1.0290185809135439 0.93160340189933788 1.1706056594848635 0.56467488408088695 -0.12242536991834639 -0.31317184865474695 1.0103579163551333 -0.71445569396018971 -0.91981804370880116 0.83011421561241161 0.95991480350494396 1.095251262187958 0.92974042892456066 0.15097604691982272 0.43644542992115026 1.0993584394454958 -0.94851014018058766 -1.4314662814140318 0.66523981094360363 -0.97948038578033436 1.0000000180025095e-35 -0.90319874882698048
decision_type=2 2 2 2 2 2 2 2 2 2 2 2 2 2 2 2 2 2 2 2 2 2 2 2 2 2 2 2 2 2 2 2 2 2 2 2 2 2 2 2 2 2 2 2 2 2 2 2 2 2 2 2 2 2 2 2 2 2 2 2 2
left_child=15 2 8 45 5 6 -5 13 10 31 11 -2 -11 14 -4 17 27 20 51 49 32 -15 -12 48 26 -26 -6 40 36 -30 -7 -10 41 35 -21 -20 -29 -35 44 -40 50 -1 54 -42 -25 46 -3 -44 59 -9 -17 57 -53 -34 -22 56 -47 -18 -57 -19 -48
right_child=1 3 7 4 24 30 -8 19 9 12 22 -13 -14 21 -16 16 18 23 33 34 42 -23 -24 38 25 -27 -28 28 29 -31 -32 -33 53 37 -36 -37 -38 -39 39 -41 43 -43 47 -45 -46 55 60 -49 -50 -51 -52 52 -54 -55 -56 58 -58 -59 -60 -61 -62
leaf_value=-0.17515900270962118 -0.020045067151322017 0.15010453147441594 0.07051898410171413 -0.033282668410568733 -0.055693805660184698 0.019522494969698878 0.054897218512598711 -0.059867156465281873 -0.076339810179823997 0.030325471431327258 -0.15482895460530524 0.055968715989128649 0.060403767315812928 0.076495762398275144 -0.0019827379912475472 -0.098392381046359514 -0.24819903237070107 -0.20226783360285663 -0.060253601283370428 -0.030911700221994555 -0.23698219944028007 0.023723929450426159 0.070149073231371664 -0.079114472854231066 -0.11364765813594356 -0.0059488039553596099 0.045818571372020896 0.094419905949136629 -0.14568814140037023 0.027523368529803721 0.10030198664030399 0.076963456413239692 0.14762831955696096 0.092278748857681447 0.037692597553638442 0.072296508051830286 0.030865544622258118 -0.098283401815925264 -0.11776361414336589 0.10229453660126256 -0.19258985173691986 -0.019916752839646432 0.24184677651978187 0.056656847940716862 0.14970724400032817 0.0037923396313175963 -0.19273431096280325 0.080878118987434217 0.093504222467252041 -0.13929248746414197 0.25007334867252001 -0.1098529340091981 0.1183652118222312 -0.062630311551212944 0.0354700413878698 0.17638846699869032 0.15666862486319272 -0.15234110649244698 0.20529781648672746 -0.14537659893080798 -0.14589202297230283
