tree
version=v4
num_class=1
num_tree_per_iteration=1
label_index=0
max_feature_idx=136
objective=binary sigmoid:1
feature_names=Column_0 Column_1 Column_2 Column_3 Column_4 Column_5 Column_6 Column_7 Column_8 Column_9 Column_10 Column_11 Column_12 Column_13 Column_14 Column_15 Column_16 Column_17 Column_18 Column_19 Column_20 Column_21 Column_22 Column_23 Column_24 Column_25 Column_26 Column_27 Column_28 Column_29 Column_30 Column_31 Column_32 Column_33 Column_34 Column_35 Column_36 Column_37 Column_38 Column_39 Column_40 Column_41 Column_42 Column_43 Column_44 Column_45 Column_46 Column_47 Column_48 Column_49 Column_50 Column_51 Column_52 Column_53 Column_54 Column_55 Column_56 Column_57 Column_58 Column_59 Column_60 Column_61 Column_62 Column_63 Column_64 Column_65 Column_66 Column_67 Column_68 Column_69 Column_70 Column_71 Column_72 Column_73 Column_74 Column_75 Column_76 Column_77 Column_78 Column_79 Column_80 Column_81 Column_82 Column_83 Column_84 Column_85 Column_86 Column_87 Column_88 Column_89 Column_90 Column_91 Column_92 Column_93 Column_94 Column_95 Column_96 Column_97 Column_98 Column_99 Column_100 Column_101 Column_102 Column_103 Column_104 Column_105 Column_106 Column_107 Column_108 Column_109 Column_110 Column_111 Column_112 Column_113 Column_114 Column_115 Column_116 Column_117 Column_118 Column_119 Column_120 Column_121 Column_122 Column_123 Column_124 Column_125 Column_126 Column_127 Column_128 Column_129 Column_130 Column_131 Column_132 Column_133 Column_134 Column_135 Column_136
feature_infos=[-1.7844352722167969:2.1475074291229248] [-1.6962581872940063:2.0597634315490723] [-1.6161398887634277:1.9801409244537354] [-1.5440802574157715:1.9086390733718872] [-1.4800789356231689:1.8452587127685547] [-1.4241359233856201:1.7899996042251587] [-1.3852788209915161:1.7937201261520386] [-1.3575865030288696:1.9274762868881226] [-1.3260828256607056:1.9831451177597046] [-1.2853907346725464:2.0064544677734375] [-1.2320997714996338:2.0118343830108643] [-1.1626077890396118:2.073509693145752] [-1.0779223442077637:2.1457490921020508] [-0.97803342342376709:2.2142360210418701] [-0.86829191446304321:2.2825961112976074] [-0.75375783443450928:2.4052433967590332] [-0.63882678747177124:2.5269482135772705] [-0.65542465448379517:2.5277442932128906] [-0.65910369157791138:2.5653238296508789] [-0.66488730907440186:2.5221147537231445] [-0.8555336594581604:2.4413206577301025] [-0.86833834648132324:2.3840618133544922] [-0.86565589904785156:2.2409591674804688] [-0.70636492967605591:2.1797337532043457] [-0.68053698539733887:2.1614029407501221] [-0.94777458906173706:2.0620582103729248] [-1.2671374082565308:1.9191513061523438] [-1.6690099239349365:1.7312250137329102] [-1.8814246654510498:1.5516149997711182] [-2.2033448219299316:1.3473584651947021] [-2.6534385681152344:1.1444870233535767] [-2.9375624656677246:1.0414414405822754] [-2.8855924606323242:1.0182701349258423] [-2.3245775699615479:1.0153312683105469] [-1.6179424524307251:1.0222163200378418] [-0.85442560911178589:1.0987448692321777] [-0.66342759132385254:1.3781088590621948] [-0.67050886154174805:1.4357191324234009] [-0.67336314916610718:1.5244829654693604] [-0.67729061841964722:1.427788257598877] [-0.67375040054321289:1.3506048917770386] [-0.77278417348861694:1.3033223152160645] [-0.78214722871780396:1.4334096908569336] [-0.67806881666183472:1.6771683692932129] [-0.67593681812286377:1.8418123722076416] [-0.67998087406158447:1.9795904159545898] [-0.67735743522644043:1.8671952486038208] [-0.68031680583953857:1.7601110935211182] [-0.67687547206878662:1.7336448431015015] [-0.6802976131439209:1.7715651988983154] [-0.67868822813034058:1.8198304176330566] [-0.68411111831665039:1.9837290048599243] [-0.6882440447807312:2.3278176784515381] [-0.69760811328887939:2.41339111328125] [-0.68820065259933472:2.0181429386138916] [-0.66498374938964844:1.663224458694458] [-0.63047897815704346:1.3939603567123413] [-0.6819922924041748:1.3641012907028198] [-0.85317844152450562:1.3483799695968628] [-0.73171019554138184:1.3266682624816895] [-0.62303602695465088:1.3006186485290527] [-0.62908732891082764:1.6912268400192261] [-0.65896600484848022:1.8743280172348022] [-0.67422842979431152:1.7138135433197021] [-0.93073725700378418:1.3433690071105957] [-1.1305865049362183:1.0613176822662354] [-1.2290370464324951:0.98026233911514282] [-1.6538451910018921:0.87500208616256714] [-1.8910553455352783:0.74292320013046265] [-2.0949718952178955:0.59156680107116699] [-1.9126988649368286:0.44254273176193237] [-1.723555326461792:0.31167539954185486] [-1.5802557468414307:0.20973041653633118] [-1.5674382448196411:0.13722024857997894] [-1.4517455101013184:0.30397361516952515] [-1.6804615259170532:0.79505783319473267] [-1.8599822521209717:1.4404212236404419] [-2.0371255874633789:1.2026444673538208] [-2.1728529930114746:1.1285310983657837] [-2.2573421001434326:0.92254304885864258] [-2.3058340549468994:0.73609095811843872] [-2.3315773010253906:0.27998179197311401] [-2.3403120040893555:0.32789856195449829] [-2.3343968391418457:0.37759476900100708] [-2.3124566078186035:0.5232703685760498] [-2.2730567455291748:0.46151745319366455] [-2.2140905857086182:0.49370381236076355] [-2.1362462043762207:0.51996833086013794] [-2.0426793098449707:0.54197138547897339] [-1.9374580383300781:0.55988889932632446] [-1.8240519762039185:0.65060514211654663] [-1.7565661668777466:1.0689502954483032] [-1.6520191431045532:1.4168777465820312] [-1.5958865880966187:1.6287872791290283] [-1.5394163131713867:1.6652539968490601] [-1.4922878742218018:1.6182962656021118] [-1.4547033309936523:1.5608183145523071] [-1.4384253025054932:1.5595740079879761] [-1.4264529943466187:1.5645072460174561] [-1.5819015502929688:1.5648646354675293] [-1.8966314792633057:1.5687597990036011] [-2.4585905075073242:1.5680602788925171] [-2.604130744934082:1.5700795650482178] [-2.5047333240509033:1.5662518739700317] [-2.1062953472137451:1.5674868822097778] [-1.4073458909988403:1.5623446702957153] [-1.2213733196258545:1.563502311706543] [-1.1215335130691528:1.561995267868042] [-1.168958306312561:1.5723429918289185] [-1.225764274597168:1.5757462978363037] [-1.3042765855789185:1.5835809707641602] [-1.5627152919769287:1.5861003398895264] [-1.9859442710876465:1.5904537439346313] [-2.3280599117279053:1.5896482467651367] [-2.4821960926055908:1.5896980762481689] [-1.9469403028488159:1.5865405797958374] [-1.577265739440918:1.5868538618087769] [-1.6321159601211548:1.7016431093215942] [-1.6862318515777588:2.5795986652374268] [-1.7458088397979736:2.8008601665496826] [-1.820858359336853:2.5472877025604248] [-1.9280952215194702:1.7180403470993042] [-2.1567583084106445:1.6308574676513672] [-2.3918964862823486:1.6220458745956421] [-2.6616356372833252:1.8138364553451538] [-2.9659750461578369:2.1645474433898926] [-3.3559722900390625:3.0688047409057617] [-3.8750591278076172:4.2020993232727051] [0:1] [0:1] [0:1] [0:1] [0:1] [0:1] [0:1] [0:1] [0:1]
tree_sizes=5512 5778 5680 5582 6132 5917 5974 5875 6651 6372 6700 6329 6635 6871 6629 5709 5854 6037 6844 6657 5756 6147 5439 6224 6568 6511 6566 5961 5683 6685 6911 6611 6555 5972 6583 5889 5706 6502 6801 6462 6594 5039 5634 6694 6670 6516 5663 6837 6128 6989 6947 6741 6325 6570 5371 6972 6303 5448 6701 5875 5238 6836 6462 6527 6621 6968 6942 5766 5419 5069 6837 6936 6692 6243 5115 6969 5539 5975 6529 5549 6429 6579 5404 5665 6054 6603 5338 6256 6905 6806 6114 6863 5237 6949 5731 6396 5761 6105 6794 6940 5847 6512 5145 6472 6014 5672 6413 6327 6727 6172 6203 6813 6666 6947 6790 5414 6817 5819 6246 5931 4737 5692 5719 6919 6166 6959 4811 5483 6912 6493 6606 6918 6382 5943 6314 6950 6771 6635 5335 6650 6935 6944 6540 6914 5036 6946 6430 6368 6423 5266 6049 6798 6469 5375 6495 6920 6369 5333 6091 5310 6361 5820 6267 6940 6418 6691 6920 6041 5791 6579 5355 6119 6669 6265 6600 4682 6681 6394 6288 6003 6891 5864 5362 5332 5628 6296 5415 6715 6588 5685 6363 6465 6248 6676 6936 6384 6180 4313 4996 5189

Tree=0
num_leaves=51
num_cat=0
split_feature=106 130 131 129 103 118 30 55 136 53 36 33 127 89 35 134 31 79 36 53 70 79 31 81 109 112 103 31 31 34 59 55 101 97 2 51 29 35 31 6 24 25 107 125 57 41 31 97 0 0
split_gain=30091.8 16872.9 13957.6 10729.4 7066.98 10163.9 9900.3 3478.36 2138.81 1762.34 1672.3 1203.78 1178.46 944.986 1177.09 932.824 820.076 617.254 500.853 683.606 728.16 463.203 431.778 396.982 597.166 343.061 339.121 331.22 323.251 311.563 400.508 319.491 241.146 227.467 202.687 210.263 190.458 197.717 152.621 151.025 116.334 99.2144 94.9343 119.453 85.8117 69.9215 69.4997 19.0459 1.13687e-13 2.84217e-14
threshold=-0.83361971378326405 1.0000000180025095e-35 1.0000000180025095e-35 1.0000000180025095e-35 -0.83904242515563954 -1.5942649841308592 1.0864377617836001 0.88344642519950878 1.0000000180025095e-35 1.0500068664550783 0.966515213251114 0.93221715092659008 -2.042502641677856 -1.1630977392196653 0.94211840629577648 1.0000000180025095e-35 1.0127692818641665 -1.1451777219772337 0.92337027192115795 1.0249375700950625 -0.35854376852512354 -1.3684843778610227 0.97209906578063976 -1.2506774663925169 -0.91849213838577259 -0.99181661009788502 -0.80682727694511402 0.98690187931060802 1.0196578502655032 0.89867678284645092 0.76121565699577343 0.96705690026283275 -0.86559382081031788 -0.89415124058723439 0.50431942939758312 1.1165369749069216 1.1042404770851137 0.95028015971183788 0.99480286240577709 0.62433317303657543 1.6342547535896303 1.2228184938430788 -0.83580604195594776 -1.3600559830665586 0.96834957599639904 1.0193436741828921 1.0155376195907595 -0.90786746144294728 0.63716885447502147 0.47426155209541326
decision_type=2 2 2 2 2 2 2 2 2 2 2 2 2 2 2 2 2 2 2 2 2 2 2 2 2 2 2 2 2 2 2 2 2 2 2 2 2 2 2 2 2 2 2 2 2 2 2 2 2 2
left_child=1 2 3 4 6 -6 -1 40 9 29 15 17 -12 18 22 -11 23 -5 19 20 -3 42 33 24 -4 -25 -13 -21 -24 30 -9 -31 46 -15 35 -20 37 -16 44 -34 48 -40 43 -10 -23 -44 -18 -36 49 -2
right_child=7 13 16 11 5 -7 -8 8 21 10 12 26 -14 14 36 -17 32 -19 34 27 -22 38 28 25 -26 -27 -28 -29 -30 31 -32 -33 39 -35 47 -37 -38 -39 41 -41 -42 -43 45 -45 -46 -47 -48 -49 -50 -51
leaf_value=-1.3889744326593274 -1.950842732080611 -1.6794804184819885 -1.4611244854688004 -1.7220143959834893 -1.2634236398477978 -1.5282603757521152 -1.5752965507942362 -1.5578933508409647 -1.8735385767516397 -1.7603936428504237 -1.7405547990246151 -1.6841888853961255 -1.4932220125850868 -1.7989309762034822 -1.6330680520294063 -1.3454746391471588 -1.8084190178310044 -1.9175621164790659 -1.6919322492781939 -1.5940562315614666 -1.4386422125209406 -1.6619131048755658 -1.8097795855282761 -1.6693186339631001 -1.6573095899881047 -1.8123651863999237 -1.5339055228255503 -1.7969198432217395 -1.3773598278257813 -1.4230099534331773 -1.7546809624808435 -1.5950811808206207 -1.7590477368527317 -1.5901630954042127 -1.3052025851203766 -1.3866420319970971 -1.137301066966582 -1.3836774981846631 -1.7419668205183134 -1.4628701661009984 -1.4823641532998406 -1.3293455296547334 -1.9207332473419674 -1.3950725470959688 -1.1590029592653668 -1.4528937307438219 -1.9039409920876578 -1.129152381011342 -1.950842732080611 -1.950842732080611
leaf_weight=18166.497895471752 158.11944249272346 367.05033248662949 167.57261254638433 1133.3617963939905 1595.6681883707643 15778.711526468396 3382.8491447344422 173.7672465518117 8.1035476773977297 4499.7172846198082 333.64275694638491 227.87774437665939 455.84435887634754 78.350225038826466 74.910438157618046 54.84466315805912 145.14753448963165 188.22906278818846 41.131762325763702 100.07934920489788 190.79307805001736 23.849464863538746 1589.818295404315 398.30475027859211 2093.5816096588969 289.52005134522915 440.2252979055047 411.05146358907223 17.477428637444973 124.61518692970276 255.47808205336332 804.70225945115089 52.258957654237747 156.31437436491251 10.672844655811788 49.963968269526958 13.860239535570143 55.225344479084015 5.9981824010610572 25.675128154456615 5.3487005531787863 204.61378571391106 20.805334724485878 14.652986124157904 3.9555850178003302 3.7741088345646849 160.27667420357466 14.485164932906626 427.70596944540739 4.1547901555895796
leaf_count=67257 1332 2255 722 7368 4224 76886 17821 890 63 30704 2221 1409 2087 560 431 183 1049 1533 257 543 786 143 11508 2413 12472 2102 2166 2931 63 497 1731 4373 356 843 32 184 22 202 40 111 24 655 170 55 7 16 1287 22 3603 35
internal_value=-1.83488 -1.50006 -1.48409 -1.46806 -1.45648 -1.50394 -1.41822 -1.7146 -1.69483 -1.70625 -1.73211 -1.69456 -1.59775 -1.72288 -1.76505 -1.7554 -1.68089 -1.74987 -1.65222 -1.67366 -1.59711 -1.4269 -1.78658 -1.66301 -1.64277 -1.72953 -1.58516 -1.7572 -1.80508 -1.60455 -1.67502 -1.57201 -1.81848 -1.65987 -1.4551 -1.52449 -1.4897 -1.52723 -1.37017 -1.66147 -1.94663 -1.3411 -1.71263 -1.56545 -1.59037 -1.8489 -1.85855 -1.20384 -1.95084 -1.95084
internal_weight=0 47416.9 44245.8 40913.4 38923.7 17374.4 21549.3 7583.69 6988.36 6702.61 5344.05 1989.69 789.487 3171.18 1985.96 4554.56 3332.34 1321.59 1185.23 1068.97 557.843 285.753 1841.96 2948.98 2261.15 687.825 668.103 511.131 1607.3 1358.56 429.245 929.317 383.358 234.665 116.254 91.0957 143.996 130.136 238.417 77.9341 595.329 210.612 47.336 22.7565 27.805 24.5794 305.424 25.158 589.98 162.274
internal_count=268644 219815 199176 178664 166188 81110 85078 48829 43835 42686 35195 12476 4308 20639 13629 30887 20512 8901 7010 6515 3041 1149 12974 17709 13194 4515 3575 3474 11571 7491 2621 4870 2803 1403 495 441 655 633 845 467 4994 695 304 118 150 186 2336 54 4970 1367
is_linear=0
shrinkage=1


Tree=1
num_leaves=53
num_cat=0
split_feature=106 130 131 128 129 29 49 54 36 106 87 110 85 40 54 104 31 127 106 27 51 71 98 124 30 101 135 60 75 116 101 129 109 79 31 35 5 85 0 45 105 29 0 125 29 4 26 94 12 24 51 14
split_gain=13863.7 7802.63 5997.98 4946.69 4960.13 3361.47 2351.23 1011.43 1152.98 810.371 645.864 702.806 582.178 719.767 546.946 806.226 521.218 426.682 333.741 332.679 438.749 471.243 284.158 381.126 277.636 273.802 248.846 230.369 207.97 207.421 202.423 305.91 232.483 551.335 194.83 191.65 181.278 174.162 163.474 142.316 132.166 113.704 100.597 76.7083 74.2327 68.2154 64.6383 62.8565 59.7227 0.0166183 0.000476793 2.27374e-13
threshold=-0.83032286167144764 1.0000000180025095e-35 1.0000000180025095e-35 1.0000000180025095e-35 1.0000000180025095e-35 1.2072910666465761 0.92487198114395153 1.0232693552970888 0.97584751248359691 -0.87957045435905445 -1.2468182444572447 -0.90038743615150441 -1.2571310400962827 1.0487654805183413 1.1358166933059695 -0.75525417923927296 1.0116243958473208 -2.1386249065399165 -0.85937485098838795 1.1789084076881411 1.055794954299927 -0.53708639740943898 -0.99502751231193531 -1.3143654465675352 1.0568832755088808 -0.86237278580665577 1.0000000180025095e-35 0.82662671804428112 -1.0170949101448057 -0.96481147408485401 -0.82497188448905934 1.0000000180025095e-35 -0.82463854551315297 -1.4033430218696592 1.0196578502655032 0.94883325695991527 0.60344570875167858 -1.4286680817604063 0.39368925988674169 1.13798463344574 -0.78840398788452137 1.1972336173057558 0.33520284295082098 -1.5346476435661314 1.107812285423279 0.59552291035652172 1.6096552610397341 -1.1257181763648985 0.70579129457473766 1.6342547535896303 0.94202017784118663 1.1163560748100283
decision_type=2 2 2 2 2 2 2 2 2 2 2 2 2 2 2 2 2 2 2 2 2 2 2 2 2 2 2 2 2 2 2 2 2 2 2 2 2 2 2 2 2 2 2 2 2 2 2 2 2 2 2 2
left_child=1 2 3 4 5 -1 46 30 14 -6 11 -5 19 29 15 -9 22 40 -12 38 21 -21 47 -24 -22 45 -16 -19 48 34 32 36 33 -8 -14 -30 -32 -34 39 -3 -10 -31 -27 -40 -33 -18 49 -4 -15 50 51 -2
right_child=6 12 16 10 9 -7 7 8 17 -11 18 -13 13 28 26 -17 25 27 -20 20 24 -23 23 -25 -26 42 -28 -29 35 41 31 44 37 -35 -36 -37 -38 -39 43 -41 -42 -43 -44 -45 -46 -47 -48 -49 -50 -51 -52 -53
leaf_value=0.27210773657141862 -0.11421542468362622 0.061425911930545044 -0.049805622602320139 0.32515409655925231 0.0084975308458078835 0.15609403986466497 0.30696406151854733 0.081661114728696624 0.2626031268212542 0.14895112055980669 0.10274188229599104 0.11682155855732659 0.019090515357363589 0.39918715820210693 0.1946102232377491 -0.051596301919403856 -0.092571286802698535 0.37640958131851815 0.0019426351208170522 0.10343593853939628 0.14374658791591072 0.30315364511375043 0.10813491568872989 0.17907992104301956 0.032007691521770631 0.43227772718246538 0.51023371457372013 0.012863042532527784 0.10616084388032095 0.22154458111584163 0.16063347325349497 -0.068342951124231804 0.19487150318792421 0.1295124179692406 0.28886757162883164 0.27798528752605339 0.31075058517930576 0.0070541134031130506 0.6271398202430819 0.31805934171371963 -0.027802398897884734 -0.0084087517898360376 0.13234402478936089 0.34216388048229091 0.41306414418751097 0.011023103318765185 0.41224085764565432 0.064891167940067246 0.10811522001364236 -0.1223435576748708 -0.11568757764038207 -0.11421542468362622
leaf_weight=45852.697040624917 285.39459946006536 34.707464784383774 63.346295282244682 227.62300297617912 528.85481604933739 2641.4045468568802 241.86445310711861 4382.7206175774336 23.070462584495544 1840.0471670851111 844.51783457398415 561.05327091366053 1623.0319810062647 49.630188927054405 129.48566167801619 506.48727983236313 79.085409298539162 204.21712097525597 537.54419053345919 234.10702411085367 423.28800208121538 238.51043747365475 1416.7716610878706 1626.5926635116339 468.46230763196945 12.521849259734152 30.95091238617897 19.056783318519592 241.70325487852097 84.799731835722923 116.18069206923246 36.52597051858902 71.717056319117546 634.1662232875824 27.218789964914322 88.749648123979568 261.50894117355347 158.46330428123474 16.799593210220337 57.255092591047287 48.864163935184479 28.807743601500988 104.54187999665737 21.57731518894434 3.5109887272119513 323.86901114135981 2.3420390039682379 194.44165965914726 8.2161506414413434 2.5311909317970267 2.2091992720961562 243.33185971528292
leaf_count=146071 2619 210 435 631 3719 11497 862 26965 108 9661 3896 2564 11388 166 619 3612 646 607 3140 1330 2220 758 7861 8066 3107 39 84 124 1359 409 578 250 337 3215 75 268 915 1003 24 216 348 205 558 63 8 2325 5 1165 44 17 19 2233
internal_value=0 0.234764 0.243859 0.252577 0.258887 0.265789 0.0897999 0.105538 0.0850483 0.117595 0.104742 0.176949 0.0929688 0.0596715 0.0738183 0.0678566 0.122856 0.277141 0.0635367 0.140912 0.12633 0.204225 0.137514 0.146053 0.0850469 0.0298017 0.255499 0.34538 0.182927 0.0325377 0.177402 0.236711 0.155006 0.178505 0.0235401 0.152308 0.264573 0.0655722 0.29355 0.221204 0.0653348 0.163235 0.164427 0.466913 -0.0261266 -0.00930874 -0.111959 0.0367067 0.357845 -0.11426 -0.114222 -0.114215
internal_weight=0 60501.8 56854.9 53033.7 50863 48494.1 7404.6 6868.79 5344.85 2368.9 2170.74 788.676 3646.86 2152.16 5049.64 4889.21 3821.17 295.209 1382.06 1494.71 1364.37 472.617 3301.15 3043.36 891.75 520.018 160.437 223.274 388.299 1763.86 1523.94 417.727 1106.21 876.031 1650.25 330.453 377.69 230.18 130.339 91.9626 71.9346 113.607 117.064 38.3769 40.037 402.954 535.809 257.788 57.8463 533.467 530.936 528.726
internal_count=268644 224116 202274 181179 170948 157568 44528 39635 32467 13380 10231 3195 21842 13914 31280 30577 21095 1187 7036 7928 7415 2088 17527 15927 5327 3568 703 731 1837 12077 7168 1751 5417 4077 11463 1627 1493 1340 513 426 456 614 597 87 258 2971 4893 1600 210 4888 4871 4852
is_linear=0
shrinkage=0.1


Tree=2
num_leaves=52
num_cat=0
split_feature=106 130 131 128 103 129 49 70 34 56 36 102 54 83 85 40 30 108 107 32 5 97 114 53 84 35 56 57 116 125 126 77 2 30 74 31 31 32 129 75 45 125 45 30 53 26 33 39 24 53 50
split_gain=8169.66 4514.44 3349.91 2843.12 2773.24 2867.5 1710.37 875.085 571.763 756.367 501.16 1095.96 494.104 483.324 470.153 488.287 439.05 410.993 364.53 324.501 492.931 313.276 285.98 261.502 324.203 258.048 505.856 326.55 246.923 220.659 196.835 148.152 179.266 147.162 144.632 137.301 135.742 114.669 104.519 140.417 70.9184 87.4923 65.6555 56.8882 52.1458 47.5972 28.3491 7.44312 0.00893884 0.000341316 1.48077e-09
threshold=-0.82778319716453541 1.0000000180025095e-35 1.0000000180025095e-35 1.0000000180025095e-35 -0.61920434236526478 1.0000000180025095e-35 0.92487198114395153 -0.056540649384260171 0.95040091872215282 0.96598669886589061 0.95735135674476635 -0.75513672828674305 1.1358166933059695 -1.3015424609184263 -1.2787823677062986 1.0503072142601015 1.0887957215309145 -0.88134628534317005 -0.87441912293434132 0.96177479624748241 0.61736729741096508 -0.91632309556007374 -0.95345136523246754 1.0249375700950625 -1.3605085015296934 0.92165669798851024 0.95276519656181347 0.92171674966812145 -0.94095587730407704 -1.6534446477890012 -1.9467518329620359 -1.2432711124420164 0.49590925872325903 1.040397107601166 -1.0843236446380613 1.0052439570426943 1.0083696246147158 0.97491875290870678 1.0000000180025095e-35 -1.0392863154411314 1.1889255642890932 -1.8551055192947385 1.1274425983428957 1.0969360470771792 1.0914939045906069 1.6096552610397341 0.94568514823913585 1.0600777864456179 1.6083187460899355 1.023520350456238 0.84375417232513439
decision_type=2 2 2 2 2 2 2 2 2 2 2 2 2 2 2 2 2 2 2 2 2 2 2 2 2 2 2 2 2 2 2 2 2 2 2 2 2 2 2 2 2 2 2 2 2 2 2 2 2 2 2
left_child=1 2 3 4 5 -1 45 -6 9 19 12 -12 -11 17 21 22 25 -5 -15 20 -8 23 33 24 -3 26 -4 -27 -21 37 40 42 -33 -16 -18 -25 -24 -17 39 -32 47 -42 -23 -36 -40 48 -31 -10 49 50 -2
right_child=6 14 16 13 7 -7 8 -9 30 10 11 -13 -14 18 15 29 34 -19 -20 28 -22 31 36 35 -26 27 -28 -29 -30 46 38 32 -34 -35 43 -37 -38 -39 44 -41 41 -43 -44 -45 -46 -47 -48 -49 -50 -51 -52
leaf_value=0.20536290819853995 -0.11268109201050421 0.30036131980189473 0.11330711054480652 0.29826681221123591 -0.11285424247980375 0.099991600919270174 0.037481418053519254 0.21132903515748389 -0.1187832380106779 0.0064799627997625042 0.18160630129761079 -0.0030456653576537169 0.21606792255956961 0.078830153541179296 0.08528188717340332 0.11332130321511671 0.49802724668678949 0.1138383959658706 -0.04088033006965263 0.20373922715612483 0.1395793620071035 0.26829626083473695 0.18912056074321332 0.088719937014940367 0.10839105045097525 0.23617392365023684 -0.011675567999841636 0.071187165574340877 0.097649076463545967 0.40735133070728247 0.32392913768532661 0.096435421999891136 0.31577535154851422 0.016602312066942553 -0.0020816632858224014 -0.027767767907868515 -0.0020390845976959162 0.33288256076747902 0.095231738210740491 0.11074897942268309 -0.11743952254861996 0.25499650065123303 0.44271584372452177 -0.10355707911210688 0.31787541522523355 0.28998098990257087 0.25976254911451363 0.026609409268615155 -0.11935469803221628 -0.11398116027398027 -0.11267842883667432
leaf_weight=56151.526344738901 480.09663285315037 117.04373644292355 3114.2598825842142 137.15545296669006 373.69479540735483 2707.1148070171475 894.28219835460186 107.13875606656075 19.988202422857288 2140.6501539871097 689.94957864284515 601.78363225609064 118.72098150849342 951.05907356739044 377.37598190456629 366.99708437174559 5.0885761678218833 1015.2187601402402 347.24732866883278 578.71179106831551 1003.5331412479281 78.434288546442986 172.9696045294404 302.54249969124794 354.19320836663246 328.84879304468632 361.41971253603697 188.86036118865013 353.33490873873234 30.570076078176498 45.85684372484684 116.18743571639061 54.853531897068024 1800.6361302509904 144.52566370368004 152.03032442927361 47.30611813813448 25.435381799936295 11.398010410368441 94.715674541890621 9.1957747712731379 20.083360217511654 29.773834243416786 89.431870765984058 136.4981776252389 2.9529623240232459 22.662951916456223 4.2739058807492247 2.0187120884656897 2.0278655588626853 2.09702244400978
leaf_count=155628 4807 283 15353 276 2094 14092 5314 271 152 13921 3176 3869 383 4296 2212 1699 14 4226 2132 2534 4352 276 728 1655 1567 1254 2213 1009 1772 55 106 543 121 12116 953 1058 288 33 52 383 73 87 48 705 316 5 63 26 15 19 21
internal_value=0 0.182022 0.188308 0.194203 0.198563 0.200517 0.0702479 -0.0406201 0.0833842 0.0766326 0.0458983 0.0955819 0.017493 0.0886514 0.0795272 0.0573459 0.102241 0.135789 0.0468122 0.1152 0.0914691 0.131876 0.0394839 0.103873 0.156072 0.110121 0.100311 0.175987 0.163521 0.153468 0.209349 0.224713 0.166779 0.0285022 -0.0293998 0.049761 0.148067 0.127552 0.242033 0.180292 0.0332585 0.138025 0.316288 -0.0408713 0.300717 -0.110283 0.344518 -0.0931715 -0.112714 -0.112687 -0.112681
internal_weight=0 70071.6 66022.6 61790.2 59339.5 58858.6 7212.17 480.834 6722.98 6380.97 3551.1 1291.73 2259.37 2450.68 4049.01 2843.95 4232.43 1152.37 1298.31 2829.86 1897.82 1205.06 2398.29 925.81 471.237 3993.39 3475.68 517.709 932.047 445.665 342.01 279.249 171.041 2178.01 239.046 454.573 220.276 392.432 288.469 140.573 53.5412 29.2791 108.208 233.958 147.896 489.193 53.233 24.2621 486.24 484.222 482.194
internal_count=268644 227261 204516 183015 172085 169720 41383 2365 36516 35321 21349 7045 14304 10930 22745 17194 21501 4502 6428 13972 9666 5551 15344 4563 1850 19829 17566 2263 4306 1850 1195 988 664 14328 1672 2713 1016 1732 857 489 338 160 324 1658 368 4867 118 178 4862 4847 4828
is_linear=0
shrinkage=0.1


Tree=3
num_leaves=51
num_cat=0
split_feature=106 105 30 118 127 3 115 52 133 132 32 98 105 33 29 29 37 127 125 38 57 135 35 122 59 30 106 72 30 30 127 71 74 82 30 104 40 30 127 110 129 111 29 69 60 73 30 71 23 1
split_gain=5456.45 3149.87 3805.41 2798.98 3439.61 2306.95 2069.39 1109.49 1092.68 811.793 663.824 760.689 439.785 779.109 421.323 392.652 356.756 794.925 764.916 604.117 442.768 331.871 326.214 289.733 287.943 273.657 250.446 230.513 211.325 210.245 199.443 376.475 175.954 161.929 159.004 155.052 150.169 139.616 119.879 115.67 110.551 110.857 103.313 94.6247 75.1606 16.9442 24.9143 6.77014 0.025363 1.13687e-13
threshold=-0.81791117787361134 -0.92588832974433888 1.0915377736091616 -1.6105723381042478 -1.7435153722763059 -0.054288504645228379 -0.93170854449272145 0.80983811616897594 1.0000000180025095e-35 1.0000000180025095e-35 0.8917318880558015 -0.93043968081474293 -0.9465917944908141 0.86426374316215526 1.2072910666465761 1.2303991913795473 0.98575016856193554 -1.9488583803176878 -1.513618469238281 0.99652186036109935 0.92594879865646373 1.0000000180025095e-35 0.95824831724166881 -1.6514703035354612 0.64264506101608287 1.1107204556465151 -0.97899207472801197 -0.62158316373825062 1.0981189012527468 1.1107204556465151 -3.2304477691650386 -0.22009444236755368 -1.0090727806091306 -1.2882608175277708 1.1062256693840029 -0.75525417923927296 1.0881002545356753 1.070427477359772 -2.0368264913558956 -1.2006456255912779 1.0000000180025095e-35 -0.89267727732658375 1.1872022151947024 -0.063036859035491929 0.81856757402420055 -0.93605536222457875 1.0981189012527468 -0.68024033308029164 1.5963091254234316 0.63567253947258007
decision_type=2 2 2 2 2 2 2 2 2 2 2 2 2 2 2 2 2 2 2 2 2 2 2 2 2 2 2 2 2 2 2 2 2 2 2 2 2 2 2 2 2 2 2 2 2 2 2 2 2 2
left_child=1 8 3 30 5 -5 -6 48 9 23 11 29 34 -14 37 24 18 22 21 20 -20 27 38 36 28 -25 -13 -9 -4 -10 31 -3 -16 -24 -12 -21 -1 -11 -18 -32 41 -19 -26 -23 -42 46 -17 -47 49 -2
right_child=7 2 15 4 6 -7 -8 16 10 14 12 26 13 -15 32 45 17 40 19 35 -22 43 33 25 42 -27 -28 -29 -30 -31 39 -33 -34 -35 -36 -37 -38 -39 -40 -41 44 -43 -44 -45 -46 47 -48 -49 -50 -51
leaf_value=-0.13560772407761232 -0.11132973984389496 -0.038846010110651086 0.073834092733137555 -0.047755294530492522 0.183195971384982 0.12494734622881279 0.11997563544093917 0.23158003334306559 0.29362071880385038 0.1565643645793787 0.27620636323209424 0.14057757718509509 0.11353226480593122 0.23587376382143588 0.053598877778958401 0.068827167706286205 -0.096215927587990357 0.21223211912027545 0.086819850878670071 0.29466057447703936 -0.0092430507614634991 -0.049980968208663934 0.17815885487318228 0.11853096518653426 -0.011529264194615689 -0.089936458106471884 -0.044650381700551495 -0.035591560656010615 -0.014635523612723298 0.021978504717563779 0.25678058295849687 0.24392956527236334 0.33960457069161953 -0.030351278271400679 0.10806334651620873 -0.068280420988980586 0.18856651288214998 0.24668869209576949 0.02581079661088613 0.31579994983209669 0.32680539338129516 -0.0042298764632827902 -0.11094693012665585 0.33197698738726822 0.0192995369994894 -0.12588520526822219 -0.10219805876047482 -0.081806001425233574 -0.12314615608798996 -0.11132973982672395
leaf_weight=76.139020755887032 112.98374079167843 53.459076017141342 867.26821878552437 789.65147639811039 20930.355830587447 37727.568607360125 6879.3780251145363 33.161599114537239 207.04933367669582 798.36901594698429 2085.7797091007233 112.79033809900284 630.82639610767365 2977.2856530696154 23.512683242559433 12.635945260524748 140.47514904290438 213.29810068011284 1859.2513569667935 143.20898163318634 646.69314479082823 8.0365915745496732 167.9622890278697 1189.2665365338326 300.73114550113678 66.489934779703617 206.8971496373415 1233.5179819464684 392.05515047907829 33.039112329483032 641.46388718485832 394.66708340495825 252.6119792163372 47.857624210417271 57.799211397767067 12.824939012527464 17.591280534863472 219.05349142849445 188.5857740342617 688.48938876390457 113.21050794422626 26.610799483954906 160.21258674561977 33.615022487938404 8.5486612319946271 190.98595576733351 26.135810576379299 42.619872063398361 1.824203997850417 315.82429126650095
leaf_count=407 1236 205 3316 3883 55492 123085 23755 109 378 1922 3246 313 1856 5256 90 51 1050 663 8918 508 4283 46 463 4150 1663 381 924 8168 1875 145 814 561 333 307 208 98 52 372 1010 535 267 159 1014 51 44 1095 162 256 14 3455
internal_value=0 0.147225 0.140091 0.144076 0.140757 0.121407 0.167557 0.0424829 0.203075 0.149094 0.22568 0.121723 0.235797 0.214484 0.2057 0.00387602 0.0560691 0.112671 0.0431451 0.0739168 0.0620295 -0.0194641 0.0363805 0.0948339 0.0215395 0.107493 0.0207007 -0.028597 0.0462915 0.256239 0.267893 0.210196 0.31525 0.131922 0.271673 0.264829 -0.0747668 0.175968 -0.0262821 0.287334 0.227609 0.188222 -0.0460844 0.258279 0.305216 -0.107682 -0.0464599 -0.117843 -0.11138 -0.11133
internal_weight=0 79052.2 70097.7 68105 66327 38517.2 27809.7 5307.49 8954.5 2643.03 6311.47 559.776 5751.69 3608.11 1293.55 1992.64 4876.86 906.549 3970.31 2661.98 2505.94 1308.33 544.881 1349.49 1720.27 1255.76 319.687 1266.68 1259.32 240.088 1778.08 448.126 276.125 215.82 2143.58 156.034 93.7303 1017.42 329.061 1329.95 361.668 239.909 460.944 41.6516 121.759 272.378 38.7718 233.606 430.632 428.808
internal_count=268644 237795 217762 208330 206215 126968 79247 30849 20033 7707 12326 1760 10566 7112 2717 9432 26144 3963 22181 13807 13201 8374 2830 4990 7868 4531 1237 8277 5191 523 2115 766 423 770 3454 606 459 2294 2060 1349 1133 822 2677 97 311 1564 213 1351 4705 4691
is_linear=0
shrinkage=0.1


Tree=4
num_leaves=56
num_cat=0
split_feature=107 130 131 103 30 118 0 72 45 129 110 122 37 89 106 81 110 136 31 100 80 32 79 39 108 55 104 82 37 74 72 45 124 31 58 59 84 91 25 97 40 11 41 32 103 6 31 71 106 106 136 132 50 106 107
split_gain=4047.23 2867.22 1967.83 1980.29 3388.55 2438.32 2596.51 2020.92 1351.59 1333.8 621.334 412.756 398.256 446.406 362.225 392.424 819.511 327.801 289.133 287.977 241.919 228.549 227.78 219.567 203.036 175.596 164.362 246.315 154.606 147.783 143.65 139.507 291.294 138.446 151.262 114.36 104.447 99.7593 72.6289 72.1175 65.1953 61.0173 71.5068 57.2667 53.473 64.2151 36.3612 14.8109 6.26345 0.119681 0.112115 0.110207 0.0131337 0.0098368 8.59819e-06
threshold=-0.84196150302886952 1.0000000180025095e-35 1.0000000180025095e-35 -0.85005456209182728 1.0760307908058169 -1.5884828567504881 -0.19882142543792722 -0.77793025970458973 0.81359660625457775 1.0000000180025095e-35 -1.1972005963325498 -1.0548327565193174 0.97722899913787853 -1.1630977392196653 -0.78761234879493702 -1.3669593334197996 -0.87846654653549183 1.0000000180025095e-35 1.0155376195907595 -0.85367846488952626 -1.366997957229614 0.96648707985878002 -1.2616654634475706 0.92694854736328136 -0.89473980665206898 1.0768529772758486 -0.80598443746566761 -1.3987045884132383 0.94368427991867077 -0.91800919175147999 -0.54490649700164784 1.1429041624069216 -1.391565144062042 1.0075008273124697 0.81933394074440014 0.86103373765945446 -1.3627853393554685 -1.2301760911941526 1.6775771379470827 -0.65248107910156239 1.0824847817420962 0.63485229015350353 1.0906136631965639 0.9703117609024049 -0.85208132863044728 0.61352336406707775 0.99572446942329418 -0.55562379956245411 -0.83361971378326405 -0.82778319716453541 1.0000000180025095e-35 1.0000000180025095e-35 0.93176928162574779 -0.83032286167144764 -0.8302897810935973
decision_type=2 2 2 2 2 2 2 2 2 2 2 2 2 2 2 2 2 2 2 2 2 2 2 2 2 2 2 2 2 2 2 2 2 2 2 2 2 2 2 2 2 2 2 2 2 2 2 2 2 2 2 2 2 2 2
left_child=1 2 3 4 9 10 -7 -6 38 -1 -5 14 13 33 15 16 -10 -17 20 26 23 -22 41 -4 39 29 27 -13 -28 -15 -27 46 -33 36 -35 37 -3 -21 48 -24 -26 42 -14 -43 47 -46 -16 -20 50 53 51 -2 -51 -50 -52
right_child=8 12 18 5 7 6 -8 -9 11 -11 -12 19 22 25 31 17 -18 -19 44 35 21 -23 24 -25 40 30 28 -29 -30 -31 -32 32 -34 34 -36 -37 -38 -39 -40 -41 -42 43 -44 -45 45 -47 -48 -49 49 52 54 -53 -54 -55 -56
leaf_value=0.17933834823565953 -0.12903815896104548 0.22226761137511242 -0.027937519048257538 0.15403426492568123 0.038316594271085344 -0.062169211991162224 0.11411255526900624 0.1320875794453065 0.16584632732575993 0.014936762328116235 0.2381161581289323 0.14134671484989561 0.032417566031520538 0.025059175288475247 -0.077743969551404973 0.012723235661852473 0.052809991014178617 0.25612664273891655 -0.037389291368917041 0.063956578175798071 0.057905089012721456 0.13379830407601603 0.13698875156921572 0.24307496578911378 -0.089887188398718842 0.20550650866171197 -0.02481184980770107 0.03474739832471075 0.48566818155729446 -0.026851212008726151 -0.029306529976298797 -0.017401948448481121 0.20227853798706652 0.07069996873354345 -0.06155490160956939 0.62839846150984591 0.086001404499796874 0.30360518922263058 0.14609726482826776 -0.12947500541651885 0.31489001921357368 0.30161565582506067 0.27139142162971147 0.051114009087291648 -0.084032967416594218 0.20464455699259743 -0.0081288127142459792 -0.095115356554914307 -0.12565411962697409 -0.11022994212046287 -0.14545601439687922 -0.14738149454731345 -0.1187775477483783 -0.11848747200277295 -0.1453117625066446
leaf_weight=20839.518678456545 9.4413391351699811 58.86791142821312 38.015322506427765 1714.5032202005386 2969.2523649558425 856.69789364933968 33856.349480941892 10171.511604085565 821.78833873569965 505.45815978944302 1803.1742213368416 783.29544566571712 27.011591643095016 1321.6312775984406 269.13970172405243 1719.6013254001737 2921.6812914609909 57.168977499008179 79.516675397753716 23.2898288667202 3677.1167729645967 444.8003292158246 257.31561775505543 139.93929508328438 65.355564646422863 79.477111265063286 135.92273534834385 299.69633263349533 6.2037078291177741 937.40726280212402 38.758429706096649 287.8732899799943 76.373703330755234 241.33480770885944 134.77132124453783 8.3910239636898023 1264.7914143949747 68.339559510350227 10.884450271725653 10.574381798505781 4.2370640113949767 93.96617802977562 23.340903013944626 10.107677489519117 14.216044321656229 16.826150417327881 104.03030191361904 100.7761655151844 4.637673556804657 406.23008045554161 4.5113770812749854 5.0150932967662802 1.8056135699152935 3.2625997364521018 49.141094341874123
leaf_count=38670 55 126 198 3091 11008 4442 97059 25351 2996 2589 2301 2694 121 7757 1908 9311 14132 100 633 118 16239 1574 799 376 376 274 726 1304 13 5863 206 1774 275 960 870 12 5149 174 29 61 9 193 53 39 79 50 615 718 29 4833 21 23 14 25 229
internal_value=0 0.124945 0.129499 0.133475 0.15085 0.117801 0.109762 0.110899 0.0507482 0.175445 0.197135 0.0611986 0.0479714 0.0377162 0.0504623 0.0592557 0.0776244 0.0205549 0.0654107 0.111899 0.0710233 0.0660948 0.132968 0.18518 0.0869372 0.00973622 0.0985785 0.111847 -0.0025298 0.00351852 0.128533 -0.015365 0.0286597 0.0768487 0.0233087 0.275051 0.0920617 0.242693 -0.109363 0.126471 -0.0652428 0.233564 0.143194 0.277287 -0.0487835 0.0724422 -0.058337 -0.0696558 -0.115107 -0.110504 -0.143218 -0.135402 -0.110268 -0.122694 -0.145324
internal_weight=0 81796.6 77227.7 72716.5 34485.7 38230.7 34713 13140.8 8077.72 21345 3517.68 7582.8 4568.95 4077.04 6257.66 5520.24 3743.47 1776.77 4511.21 1325.14 4299.87 4121.92 491.909 177.955 337.483 2377.27 1225.12 1082.99 142.126 2259.04 118.236 737.417 364.247 1699.77 376.106 100.02 1323.66 91.6294 494.929 267.89 69.5926 154.426 50.3525 104.074 211.335 31.0422 373.17 180.293 484.045 415.936 68.1089 14.4564 408.036 7.90027 53.6525
internal_count=268644 227234 204378 184511 77618 106893 101501 36359 41410 41259 5392 36152 22856 21205 31111 26539 17128 9411 19867 5041 18387 17813 1651 574 1245 14100 4737 3998 739 13620 480 4572 2049 7105 1830 304 5275 292 5258 860 385 406 174 232 1480 129 2523 1351 5229 4901 328 78 4847 54 250
is_linear=0
shrinkage=0.1


Tree=5
num_leaves=54
num_cat=0
split_feature=107 130 128 131 76 114 45 135 83 109 122 35 127 116 127 32 89 52 38 107 34 82 31 35 83 79 44 73 78 105 37 31 51 101 74 39 31 82 107 29 31 95 95 37 92 27 32 80 81 25 106 106 136
split_gain=2988.45 2085.77 1684.41 1620.17 2130.06 1668.26 1092.35 877.584 367.028 302.314 299.016 327.057 636.196 485.927 404.232 290.542 304.328 307.633 255.836 252.924 321.386 289.779 235.739 232.161 216.988 215.115 208.782 174.81 138.336 191.6 158.419 135.709 149.679 123.319 121.779 115.413 109.125 200.419 107.087 128.427 119.948 103.846 102.16 71.4802 65.2863 63.5957 53.9664 30.5966 7.91153 6.16267 4.29068 0.0849347 0.0658282
threshold=-0.84098780155181874 1.0000000180025095e-35 1.0000000180025095e-35 1.0000000180025095e-35 -1.1879175305366514 -0.93492430448532093 0.81359660625457775 1.0000000180025095e-35 -1.3246054649353025 -0.88749757409095753 -1.0548327565193174 0.94883325695991527 -1.8261972069740293 -0.9438665211200713 -1.9918764829635618 0.96421286463737499 -1.1603264212608335 1.1261894106864931 1.0264890193939211 -0.87402421236038197 0.94405320286750805 -1.2858347892761228 1.0116243958473208 0.89822226762771618 -1.3384320139884947 -1.3215532898902891 1.0737242698669436 -0.79305645823478688 -1.2342254519462583 -0.8657163381576537 0.98434957861900341 1.0064253211021426 1.0423671007156374 -0.86237278580665577 -0.93032714724540699 1.0380073785781863 1.0023024678230288 -1.3987045884132383 -0.8680763542652129 1.1062613725662234 0.99794942140579235 -1.0462779998779295 -0.94818156957626332 0.84182110428810131 -1.1723310947418211 1.513387978076935 0.96758031845092785 -1.3318789005279539 -1.4183128476142881 1.6775771379470827 -0.83361971378326405 -0.82778319716453541 1.0000000180025095e-35
decision_type=2 2 2 2 2 2 2 2 2 2 2 2 2 2 2 2 2 2 2 2 2 2 2 2 2 2 2 2 2 2 2 2 2 2 2 2 2 2 2 2 2 2 2 2 2 2 2 2 2 2 2 2 2
left_child=1 2 3 4 7 -6 45 -1 9 47 11 12 23 -14 18 16 31 34 -13 21 -21 -10 25 -8 -11 -5 36 -19 38 46 -31 42 -33 -24 -18 -16 41 -38 39 -17 -40 -12 -3 48 -45 49 -30 -4 -28 50 52 -52 -2
right_child=6 15 8 22 5 -7 10 -9 19 24 26 14 13 -15 35 28 17 27 -20 20 -22 -23 33 -25 -26 -27 43 -29 29 30 -32 32 -34 -35 -36 -37 37 -39 40 -41 -42 -43 -44 44 -46 -47 -48 -49 -50 -51 51 -53 -54
leaf_value=0.17835272644896139 -0.13113447051675295 0.07132276978635381 0.25994046365352347 0.10520205611886867 0.1147823400550414 0.031716998831846463 0.16729159754791523 0.032731171957610876 0.14799026405573476 0.095465418570195762 0.026630226909131128 -0.067425514179894286 0.093414408601934798 0.024348858154274181 0.097555088879605734 0.36194089349368208 0.0077905428696198988 0.28610309221053742 0.12842872945784731 -0.058770743579334123 0.07943596732472466 0.02239827029213581 -0.027080227951338427 -0.044393786882268277 -0.03131651524489338 0.052227854532616469 -0.13024671101907453 0.054894794413880711 0.0010858479240968748 -0.029171034574366213 0.1190379370294074 0.094789459961127864 -0.02984129251475556 0.074952544048834224 -0.04800381648782405 0.19208096983833531 0.15803819162038429 -0.035154389212540507 0.19722671827327831 0.1127769435909376 0.075735003336944384 0.10265865345284378 0.19351738209475422 0.14857456049334203 0.25689722403719523 0.17845541682676114 0.25748442653413689 0.17512957819698369 0.05283592406676884 0.011088649448074342 -0.12009126541744726 -0.10919622070665198 -0.13919378779002198
leaf_weight=6651.359220802784 12.687633149325846 1218.4748743623495 70.17194689810276 1021.0046283900738 63818.953454144299 2513.0243494808674 54.507428765296936 441.30220673978329 223.16325926780701 522.9764811694622 483.65162459015846 178.8033222258091 1671.1536120399833 2609.2679588124156 219.69417450577021 39.958483591675758 881.77437148243189 34.877240166068077 106.37353677302599 681.82368846982718 223.37936059385538 1039.2791115939617 459.48633427917957 1046.635474331677 181.96680255234241 3075.8555309101939 7.514310896396637 524.04503433406353 9.845220208168028 219.92390775680542 107.31101742386818 147.06447742879391 279.51178351789713 159.59899216890335 703.13528756797314 313.47021861374378 287.68912775814533 66.02094217389822 111.13377566635609 42.890965282917023 302.35315091907978 285.82695268839598 72.489247351884842 151.03528552502394 88.091267295181751 7.6515753269195548 49.395594209432602 108.01394347846508 3.4411951974034292 4.0116345733404151 7.2953720390796652 372.64329383522272 50.370144307613373
leaf_count=11601 73 4792 111 3665 152225 8375 189 1377 475 1587 2072 1173 6977 12915 870 110 5281 93 351 3474 893 4050 2954 6940 769 12819 43 2406 54 1332 288 509 1571 598 4666 745 755 324 293 154 1290 987 206 543 193 15 72 209 15 15 54 4847 249
internal_value=0 0.106944 0.11071 0.113556 0.117205 0.111635 0.0431442 0.169292 0.0378139 0.0921548 0.0521825 0.0428307 0.0338744 0.0513133 0.10173 0.042494 0.0306612 0.00553316 0.00562988 0.0156747 -0.0246651 0.0445993 0.0567387 -0.0339152 0.0627392 0.0654299 0.094403 0.0693224 0.0942499 0.0493898 0.0194315 0.062026 0.0131258 -0.000776378 -0.0169623 0.153131 0.0760044 0.121978 0.129181 0.232949 0.108389 0.0548714 0.0781841 0.177036 0.188479 -0.107404 0.214874 0.208529 -0.0727393 -0.112297 -0.113415 -0.109405 -0.137572
internal_weight=0 85935.5 81191.4 78140.6 73424.6 66332 8027.84 7092.66 3050.77 883.129 7573.18 6199.91 5381.56 4280.42 818.341 4744.18 3861.37 2143.83 285.177 2167.65 905.203 1262.44 4715.95 1101.14 704.943 4096.86 1373.27 558.922 882.812 386.476 327.235 1717.54 426.576 619.085 1584.91 533.164 1123.19 353.71 496.336 82.8494 413.487 769.479 1290.96 250.082 239.127 454.66 59.2408 178.186 10.9555 447.008 442.996 379.939 63.0578
internal_count=268644 228299 205182 193614 173578 160600 40345 12978 11568 2676 35092 30160 27021 19892 3139 23117 19524 12446 1524 8892 4367 4525 20036 7129 2356 16484 4932 2499 3593 1746 1620 7078 2080 3552 9947 1615 4138 1079 1847 264 1583 3059 4998 794 736 5253 126 320 58 5238 5223 4901 322
is_linear=0
shrinkage=0.1


Tree=6
num_leaves=55
num_cat=0
split_feature=105 121 104 30 105 136 134 56 30 134 118 113 34 121 30 30 73 135 111 119 51 49 109 127 34 34 98 117 30 102 40 127 72 41 70 61 70 118 104 75 120 109 118 53 91 93 96 111 107 123 70 81 117 117
split_gain=2352.86 2191.6 2295.55 2113.8 1884.96 1693.68 1775.4 2232.79 1280.1 1217.08 1192.76 947.573 608.967 754.18 517.853 515.548 643.929 494.399 472.233 618.23 396.319 371.486 293.005 289.967 262.59 266.253 251.02 219.541 193.381 143.605 115.753 115.287 200.155 112.411 82.0843 160.567 70.7461 54.7765 41.2217 40.2751 36.9905 32.6991 32.2743 31.1129 21.7536 20.0354 15.6938 10.1516 7.47432 6.8107 5.29899 4.39069 0.554743 0.148532
threshold=-0.78566101193428028 -1.8434126377105711 -0.85683751106262196 1.0756200551986697 -0.93604207038879383 1.0000000180025095e-35 1.0000000180025095e-35 0.99747198820114147 1.0931467413902285 1.0000000180025095e-35 -1.5884828567504881 -0.86911556124687184 0.8374166488647462 -1.875860273838043 1.1062256693840029 1.0648614764213564 -0.78907501697540272 1.0000000180025095e-35 -1.2451164722442625 -1.6662258505821226 1.1651146411895754 1.1829550862312319 -1.1272381544113157 -3.2632040977478023 0.91144990921020519 0.94536080956459057 -0.91423001885414112 -1.5771127939224241 1.0711188316345217 -0.80475401878356922 1.0618484020233157 -3.2304477691650386 -0.32068741321563715 1.0964804887771609 -0.069557111710309968 0.80349650979042064 -0.2645516544580459 -1.6229190826416013 -0.87948790192604054 -0.46062636375427241 -1.7582082748413084 -1.110149562358856 -1.5942649841308592 1.1489750742912295 -0.2809480875730514 -0.50700628757476796 -0.44184064865112299 -1.2287543416023252 -0.86850830912590016 -2.2457855939865108 -0.20457806438207624 -0.25758700072765345 -1.542704105377197 -1.5558052062988279
decision_type=2 2 2 2 2 2 2 2 2 2 2 2 2 2 2 2 2 2 2 2 2 2 2 2 2 2 2 2 2 2 2 2 2 2 2 2 2 2 2 2 2 2 2 2 2 2 2 2 2 2 2 2 2 2
left_child=1 18 3 9 14 6 10 -8 -6 11 -4 -3 17 41 -5 16 -7 27 19 31 42 22 -21 34 29 -26 -11 -2 -17 -25 -23 32 -1 49 52 -36 48 -33 45 -35 -40 43 53 -14 -44 -29 50 51 -19 -22 -38 -43 -15 -20
right_child=12 2 5 4 8 15 7 -9 -10 26 -12 -13 13 23 -16 28 -18 36 20 21 33 30 -24 24 25 -27 -28 38 -30 -31 -32 37 -34 39 35 -37 46 -39 40 -41 -42 47 44 -45 -46 -47 -48 -49 -50 -51 -52 -53 -54 -55
leaf_value=-0.10089533852147679 0.21669349346651048 0.11725133704598292 0.14202482374287148 0.15447695723335308 0.072424146728300734 0.14858274101006577 0.080584264538854727 0.21956261006374309 -0.01511678935892885 0.20782251235148369 0.044039651225800364 -0.10727124072440604 0.0025973374625124289 -0.14830998152985692 0.0077547358537714568 0.056110714698480404 0.093791163820237292 -0.14219105996303924 0.22851777163017575 -0.1050520409202356 -0.0077280253540366441 -0.13371229473416182 0.24279269419217325 -0.08581742594180021 -0.0083851733081776493 0.075637545501803891 0.12864874933569884 -0.033447319696507029 -0.081828685280787225 0.14408586179288393 0.024982036941556936 0.21231682367871874 0.1561659629429458 0.21840833210294966 0.26825471187436228 -0.09560293477741981 0.22720649686076785 0.16562448369778429 -0.035962198480823125 -0.0039478223059416159 -0.11297413329114232 0.24439644230836433 0.29099600738616338 0.23140239255377387 0.19841030944774002 0.23392469193739257 0.15151994017803963 0.30100265662572528 0.044259990875978088 -0.14430571889402191 0.29978933054146623 0.19957282943006771 -0.13102739993695106 0.23608468610585454
leaf_weight=33.099211111664772 22.232077747583389 24862.7569495067 1308.7113786786795 3097.4830544814467 10810.274825930595 3889.6956221833825 10974.04541490972 1292.0950992107391 1975.6874147430062 1848.8090537637472 24486.74494715035 189.40381850302219 11.539116546511652 21.56550820171833 260.81029033660889 743.99261710047722 4781.7412344664335 5.4252850115299225 32.503434702754021 32.119388937950134 4.2442752569913891 102.96284481883049 98.415992259979248 30.601431250572205 1443.1398203149438 510.56593011319637 511.16512542963028 6.2265632599592209 117.71378235518932 242.24840124696493 83.025983810424805 779.4221498966217 356.83363336324692 22.359607860445976 16.650191739201546 44.655220165848732 18.351862505078312 370.76472628116608 69.14748889952898 12.814300402998922 636.3100693076849 96.965801924467087 473.51640912890434 12.254598975181578 26.814285725355148 5.0966899394988996 16.575327172875404 27.896727383136749 3.5613754987716657 26.127794846892357 22.256932914257053 28.211508959531784 133.82890866696835 128.47864151000977
leaf_count=127 17 52312 2007 5411 30027 7054 27234 1810 8663 1918 92500 1505 36 100 1005 1813 11678 27 22 121 14 432 80 179 8711 1948 936 31 421 673 221 575 463 20 21 218 27 415 309 44 5941 68 364 8 41 12 33 24 16 125 18 27 758 84
internal_value=0 0.0911004 0.0885261 0.105115 0.0764093 0.0733448 0.063904 0.095224 0.0588973 0.122021 0.0490108 0.115554 0.00672002 0.0300941 0.143082 0.111038 0.118369 -0.0693407 0.181926 0.155175 0.250256 0.027888 0.157202 0.0156591 0.0264064 0.0135727 0.190674 -0.0927883 0.0372674 0.118301 -0.0628707 0.181335 0.134345 0.0157103 -0.0947685 0.00321868 0.192528 0.197265 -0.102387 0.137401 -0.105426 0.229499 0.273503 0.12044 0.286034 0.086899 0.233518 0.246452 -0.0683013 -0.12522 0.266988 0.234294 -0.133426 0.234557
internal_weight=0 93734.6 91151.1 43556.4 16144.3 47594.7 38061.6 12266.1 12786 27412.1 25795.5 25052.2 3425.31 2620.12 3358.29 9533.14 8671.44 805.184 2583.5 1856.64 726.859 316.524 130.535 2443.26 2226.56 1953.71 2359.97 739.013 861.706 272.85 185.989 1540.12 389.933 65.546 216.7 61.3054 66.1708 1150.19 716.781 35.1739 705.458 176.868 661.313 23.7937 500.331 11.3233 57.1841 153.074 8.98666 30.3721 40.6088 125.177 155.394 160.982
internal_count=268644 249442 246294 101777 45106 144517 123551 29044 38690 56671 94507 53817 19202 12771 6416 20966 18732 6431 3148 2434 714 854 201 12608 11511 10659 2854 6310 2234 852 653 1580 590 203 1097 239 121 990 6293 64 6250 163 511 44 405 43 78 119 43 139 45 95 858 106
is_linear=0
shrinkage=0.1


Tree=7
num_leaves=54
num_cat=0
split_feature=105 120 104 133 30 105 136 30 39 134 129 96 34 121 127 30 105 135 110 117 124 35 82 122 46 121 117 134 104 0 90 103 41 51 39 123 76 119 69 53 104 120 86 90 118 49 116 96 47 61 109 111 56
split_gain=1802.88 1800.71 1923.79 1522.1 1460.6 1538.9 1091.46 1054.53 945.395 831.508 812.025 734.302 480.765 480.641 479.823 434.153 395.022 366.938 269.692 405.908 260.993 292.108 235.045 222.154 216.172 178.257 176.514 175.722 139.044 106.6 94.4201 80.6301 80.2336 74.3211 73.7238 70.1893 69.5671 62.118 56.9169 50.7919 37.2588 39.3308 20.9668 18.487 17.8979 16.3009 12.4514 10.1507 8.25628 5.39072 4.67876 1.51052 0.0341194
threshold=-0.78250092267990101 -1.7309200167655943 -0.84716355800628651 1.0000000180025095e-35 1.0748212337493899 -0.9328213334083556 1.0000000180025095e-35 1.0931467413902285 0.9904010295867921 1.0000000180025095e-35 1.0000000180025095e-35 -1.0627248883247373 0.8374166488647462 -1.875860273838043 -2.059766292572021 1.1107204556465151 -0.86321991682052601 1.0000000180025095e-35 -1.1972005963325498 -1.5649436712265012 -1.2201978564262388 0.94883325695991527 -1.3350649476051328 -1.2596538066864011 1.2206195592880251 -1.8506531119346616 -1.5771127939224241 1.0000000180025095e-35 -0.81661495566368092 0.4570006132125855 -0.22380147874355313 -0.65998476743698109 1.03459769487381 1.1529117822647097 1.0297684073448183 -2.1723427772521968 -0.44367502629756922 -1.6780187487602232 -0.072938900440931306 1.1249532103538515 -0.87948790192604054 -1.7582082748413084 -0.75139459967613209 -0.19050502032041547 -1.5942649841308592 1.2449946999549868 -1.5331199765205381 -0.44184064865112299 1.0966504812240603 0.75888440012931835 -1.0949729681015012 -1.2367196083068845 1.0519676804542544
decision_type=2 2 2 2 2 2 2 2 2 2 2 2 2 2 2 2 2 2 2 2 2 2 2 2 2 2 2 2 2 2 2 2 2 2 2 2 2 2 2 2 2 2 2 2 2 2 2 2 2 2 2 2 2
left_child=1 18 4 6 10 15 9 -7 28 -4 11 -3 17 43 -8 -6 -10 26 19 24 21 27 -12 -23 31 -26 -2 -15 -5 32 33 -1 -22 44 35 -21 -35 -32 42 -36 45 -42 -19 50 -20 -28 -45 -40 -31 -39 51 -14 -44
right_child=12 2 3 8 5 7 14 -9 16 -11 22 -13 13 20 -16 -17 -18 38 30 34 29 23 -24 -25 25 -27 40 -29 -30 48 37 -33 -34 36 39 -37 -38 49 47 -41 41 -43 52 46 -46 -47 -48 -49 -50 -51 -52 -53 -54
leaf_value=0.18028962058578682 0.19492674838304902 -0.10431464722446476 0.045909838472697494 -0.062561503151226605 0.1284481792209082 0.062364675604215269 0.007854712205153937 -0.018525154555744654 0.12500545055225046 0.079628481105543089 0.080974912789926079 0.10639001217302058 0.19028372891044842 -0.033027893125167754 0.10377063246634224 -0.05499236951184714 -0.024941786106963883 0.13267589960345791 0.20119794229483859 -0.13179001719254044 0.13741066653732967 0.015236245501835983 -0.033580638317072274 0.14350931741046427 0.11478548788787746 -0.066031073698684703 0.19973635858057429 0.18406615566398674 -0.13857165345586092 0.028909340755280899 0.17295842957260121 0.044522259714011525 0.35339465716558122 0.19152609436798895 0.12916652582315907 0.16368794866220807 0.12753639549893708 -0.020882334862095869 0.23092461888980292 -0.023869799519169302 -0.032350143391992194 -0.11286112143024185 -0.13193546386379204 0.20087632503922281 0.24151490374176274 -0.036530656146328451 0.074298698261461155 0.13707145191665587 -0.13755755365584224 -0.15022883100355766 0.25278910711212194 0.21716067137271919 -0.14527341657070936
leaf_weight=837.50558746606112 20.78435418009758 166.25160846114159 21658.265372417867 678.49037574231625 3809.555525586009 11813.33854008466 558.12668684124947 1866.2574672624469 402.55741477012634 11042.236429199576 266.73783387243748 32160.85399851203 35.942188382148743 1229.7356889992952 7959.3621690571308 133.54105799645185 311.74379371106625 4.5104578137397766 183.07874837517738 64.74923050403595 105.1559084802866 406.64599388837814 545.20201802253723 202.1249166727066 297.61917218565941 66.750024303793907 5.5607981011271459 38.450396984815598 372.94736979901791 3.9081017225980785 13.463248908519747 46.153385505080223 20.562633275985718 717.13950642943382 37.196430534124374 9.1790224611759168 222.64191389083862 4.3758872300386455 36.204009428620338 52.01384924352169 67.866309501230717 572.76578338444233 3.6682150065898878 14.06504273414612 276.26766572892666 6.1493774354457855 17.368095889687538 16.904626727104187 12.537682712078093 12.220087006688116 28.317143321037292 49.999816551804543 4.0193849503993988
leaf_count=739 15 1488 80251 2502 6766 32299 1677 8379 852 26100 936 64545 30 7627 16701 626 1060 12 129 263 294 1907 2594 558 447 201 15 57 1615 17 12 99 29 522 58 11 333 15 32 155 308 5848 22 9 194 27 38 31 67 59 19 35 19
internal_value=0 0.0796503 0.0772736 0.061706 0.0904557 0.0671946 0.0656009 0.0513292 -0.0292121 0.0572959 0.102826 0.105306 -0.000328139 0.0234386 0.0974855 0.122236 0.0595637 -0.0700035 0.158093 0.127083 0.0107814 0.000886757 0.00405306 0.0578256 0.146474 0.0816611 -0.0919604 -0.0264458 -0.0895225 0.141418 0.188712 0.173199 0.172737 0.19248 -0.021257 -0.0951031 0.176366 0.0133534 0.15631 0.039939 -0.101101 -0.104332 -0.0384855 0.198852 0.225446 0.0756652 0.130937 0.201051 -0.0979991 -0.116124 0.217536 0.20592 -0.138909
internal_weight=0 96585.8 93745.5 42983.7 50761.7 17622.7 41218 13679.6 1765.74 32700.5 33139 32327.1 2903.25 2164.81 8517.49 3943.1 714.301 738.433 2840.35 1411.17 2019.12 1876.96 811.94 608.771 1248.03 364.369 673.127 1268.19 1051.44 142.164 1429.19 883.659 125.719 1399.13 163.139 73.9283 939.781 30.0592 65.3067 89.2103 652.342 640.632 12.1981 145.692 459.346 11.7102 31.4331 53.1086 16.4458 16.596 114.259 85.942 7.6876
internal_count=268644 251628 248391 130758 117633 48070 124729 40678 6029 106351 69563 66033 17016 10687 18378 7392 1912 6329 3237 1973 10556 10149 3530 2465 1486 648 6213 7684 4117 407 1264 838 323 1178 487 274 855 86 116 213 6198 6156 53 131 323 42 47 63 84 74 84 65 41
is_linear=0
shrinkage=0.1


Tree=8
num_leaves=61
num_cat=0
split_feature=106 136 120 127 30 38 105 131 73 29 105 50 78 109 134 110 116 92 120 30 73 32 34 30 133 50 110 117 18 35 83 96 34 69 110 51 100 31 127 73 127 111 72 122 43 116 53 118 51 70 55 113 75 79 74 107 116 107 107 110
split_gain=1529.17 1674.63 1222.05 1950.91 1210.49 1080.97 985.96 833.387 1077.19 701.976 654.994 770.531 754.539 776.077 748.032 714.415 574.965 553.988 1013.23 377.596 340.05 526.926 323.898 311.119 300.533 232.034 208.022 373.113 237.113 195.383 184.442 170.833 165.063 149.545 134.629 110.158 107.62 98.2984 97.9729 140.172 88.006 70.6658 65.7636 64.4534 62.7199 60.9754 54.7983 113.956 53.078 30.272 22.3837 15.8685 13.9395 8.9536 8.27931 6.94853 6.70726 5.51868 0.797881 0.139193
threshold=-0.86084395647048939 1.0000000180025095e-35 -1.7309200167655943 -2.4668254852294917 1.0818837285041811 0.92195671796798717 -0.92983481287956227 1.0000000180025095e-35 -0.8411864936351775 1.2303991913795473 -0.76607269048690785 1.1586639881134035 -1.267180263996124 -0.90725001692771901 1.0000000180025095e-35 -0.9035179316997527 -0.89369508624076832 -0.31927284598350519 -1.6996872425079343 1.0691103339195254 -0.79720371961593617 0.96250471472740184 0.90645980834960949 1.1107204556465151 1.0000000180025095e-35 1.2387623190879824 -1.1825492382049558 -1.5649436712265012 0.82076022028923046 0.95824831724166881 -1.1589619517326353 -0.9902682602405547 0.83153343200683605 0.086760908365249648 -1.1936470270156858 1.1600626707077029 -0.9066108465194701 0.92343565821647655 -3.2632040977478023 -0.38026174902915949 -3.3037562370300289 -1.2635207176208494 -0.29886738955974573 -1.0967488288879392 1.1019411087036135 -1.5331199765205381 1.1164577007293703 -1.5942649841308592 1.0729409456253054 -0.17471483349800107 1.0088511705398562 -1.3621615767478941 -0.44956822693347925 -0.36754116415977472 -0.3976414799690246 -0.9493994116783141 -1.5007216930389402 -0.83146193623542775 -0.79430952668189991 -0.85338744521141041
decision_type=2 2 2 2 2 2 2 2 2 2 2 2 2 2 2 2 2 2 2 2 2 2 2 2 2 2 2 2 2 2 2 2 2 2 2 2 2 2 2 2 2 2 2 2 2 2 2 2 2 2 2 2 2 2 2 2 2 2 2 2
left_child=2 10 26 5 7 24 23 8 -5 -8 11 12 15 -14 29 -2 19 18 -7 20 22 -22 -3 -6 37 32 27 38 42 -13 -16 -9 45 -34 -30 -19 43 -4 39 -1 51 -40 -29 -21 -26 -12 53 52 -38 -42 57 -27 -48 56 -55 -49 -28 59 -59 -18
right_child=1 16 3 4 6 17 9 31 -10 -11 25 14 13 -15 30 -17 50 35 -20 36 21 -23 -24 -25 44 40 46 28 34 -31 -32 -33 33 -35 -36 -37 48 -39 41 -41 49 -43 -44 -45 -46 -47 47 55 -50 -51 -52 -53 -54 54 -56 -57 -58 58 -60 -61
leaf_value=-0.15811067118668351 0.093701349086285315 0.10158098658664219 -0.15663410870400096 0.11618884284103458 0.10594769528988322 0.11845296250949738 0.03972738528892765 -0.0065787230952539608 0.081315536368915808 -0.085670217451197975 0.17957570555723928 0.04647414988334389 0.031061769077287235 -0.039093805156423161 0.026300762850939033 0.035825876847202044 -0.17811465189034195 0.081189702418892479 0.030483352154907356 0.21415061284799541 0.04651229828539101 0.11802066924621293 0.17249509203538216 -0.049252052288196679 -0.11388712278891476 0.11731139089899252 0.19238968553871735 -0.10560351381321012 0.010084005446351475 0.12651798608210629 0.19949843630749059 0.049704344720457011 -0.031419541572748629 0.16783788543239281 0.16002314116459732 -0.092024146630966308 -0.13199578926989999 0.089218378824121147 0.13395206942296872 0.10748854248899653 0.080826413252803889 0.1753947154686939 0.023283920880100995 -0.0073660219382719761 0.16987954124719604 -0.10379986963099369 0.18536125805393361 -0.13909645250167008 0.088120691649792221 0.20931014272889287 0.07644085014003682 -0.10613057423279222 0.10646496314008276 0.12328327831592108 0.19080450928728065 0.0079404470996827636 0.21862438935428777 -0.12855539481146036 -0.11021136930224194 -0.16317740832447025
leaf_weight=22.471126720309258 2693.7482026815414 3042.7568443417549 18.940362691879272 12499.668343953788 2921.8404179513454 1622.777152210474 7326.2721861228347 749.7275477424264 30397.48621827364 475.38750043511391 7.7291786670684806 1738.9343332946301 4627.376150675118 2391.8578106053174 68.485371261835098 10243.276165675372 10.567087233066561 40.988474249839783 6777.9919441193342 17.630630895495415 2530.3740310668945 1738.4329552203417 817.03146524727345 135.13897008448839 626.65958289802074 3.8424540907144573 152.39574743807316 98.733713582158089 99.25263150036335 369.80307310074568 601.61291265487671 1921.2419279515743 524.07090298831463 40.582089744508266 150.97140496969223 352.21073447167873 103.21105974912643 115.04263612627983 956.41910088062286 171.69489005208015 30.352850057184696 722.08468572795391 66.085666760802269 51.513174176216125 7.8870475739240637 431.88455993682146 93.75252990424633 13.572829559445383 12.255775183439253 46.325001664459705 5.5900869295001021 18.391026712954044 29.421863079071045 22.365337714552879 96.577923014760017 4.2111297994852057 270.3026479780674 38.970257125794888 60.554586611688137 15.229394897818564
leaf_count=99 7759 5361 83 21548 5552 2939 22820 3067 66235 2387 5 6633 15286 10898 176 40808 43 91 19117 14 6283 3296 1027 653 2591 6 101 423 265 957 655 6787 3212 72 151 1521 398 249 1107 249 71 506 167 136 15 4981 63 73 25 59 16 99 46 40 63 16 176 232 871 65
internal_value=0 0.0503278 0.0766989 0.0738746 0.0809528 0.032107 0.0509487 0.0881026 0.0914772 0.0320864 0.0367722 0.0404236 0.0335539 0.00715572 0.0897586 0.0478767 0.0885959 0.0420464 0.0474764 0.0918704 0.0950822 0.0756334 0.116592 0.0990868 -0.0816252 -0.0384779 0.139444 0.124989 0.0392053 0.0605112 0.181797 0.033906 -0.0528709 -0.0170987 0.100549 -0.0739677 -0.049549 0.0544637 0.144001 0.0767503 0.107657 0.151781 -0.0539251 0.0491174 -0.11036 -0.0988176 0.187892 0.132351 -0.108632 0.15845 -0.119345 -0.0675147 0.166516 0.202346 0.178108 -0.104279 0.209166 -0.128078 -0.117394 -0.169296
internal_weight=0 32282.4 68959.6 65989.3 56426.8 9562.5 10858.6 45568.1 42897.2 7801.66 23838.3 22735.1 19956.3 7019.23 2778.84 12937 8444.12 8793.97 8400.77 8313.21 8128.6 4268.81 3859.79 3056.98 768.53 1103.18 2970.31 2287.71 415.043 2108.74 670.098 2670.97 1004.27 564.653 250.224 393.199 184.611 133.983 1872.67 194.166 98.9113 1678.5 164.819 69.1438 634.547 439.614 682.6 140.958 115.467 76.6779 130.911 22.2335 123.174 541.642 118.943 17.784 422.698 125.321 99.5248 25.7965
internal_count=268644 109444 159200 155655 129049 26606 31412 97637 87783 25207 91677 83172 74751 26184 8421 48567 17767 23668 22056 16540 15967 9579 6388 6205 2938 8505 3545 2967 1006 7590 831 9854 8270 3284 416 1612 573 332 1961 348 235 1613 590 150 2606 4986 578 198 423 130 1227 105 109 380 103 89 277 1211 1103 108
is_linear=0
shrinkage=0.1


Tree=9
num_leaves=59
num_cat=0
split_feature=106 118 5 30 96 0 122 133 31 134 34 32 99 109 5 33 75 94 33 79 119 55 29 29 113 73 107 115 93 107 127 72 74 31 110 30 111 28 51 35 105 27 41 37 41 40 106 42 60 103 118 117 26 113 110 120 121 110
split_gain=1357.02 1253.81 1448.08 1325.84 1157.9 1098.09 1264.6 858.913 729.264 719.805 541.232 368.792 404.53 360.728 356.828 463.417 318.325 296.48 289.279 198.801 313.565 196.776 194.816 149.044 149.029 145.788 141.783 137.89 134.622 124.793 104.889 102.231 93.0803 85.2131 77.2695 67.7164 66.5092 68.746 63.1874 44.8383 53.2609 42.0795 40.6711 37.1527 25.2151 20.5052 12.2071 8.74204 8.4289 8.07913 6.019 4.84198 19.2745 4.82105 2.48415 0.682783 0.449143 0.221801
threshold=-0.95739328861236561 -1.6012102365493772 0.61628365516662609 1.0915377736091616 -1.0627248883247373 -0.23845963180065152 -2.0236134529113765 1.0000000180025095e-35 1.0075008273124697 1.0000000180025095e-35 0.8842601776123048 0.88946208357810985 -0.92755007743835438 -1.1246417760848997 0.63158756494522106 0.86426374316215526 -1.0344156622886655 -0.34466402232646937 0.89067232608795177 -0.43470609188079828 -1.6662258505821226 1.0412807464599612 1.2262076139450075 1.1856892704963686 -1.3726954460144041 -0.43636325001716608 -1.0224628448486326 -1.4526744484901426 -1.0005812048912046 -1.014228284358978 -3.4944379329681392 -0.27313473820686335 -0.94025951623916615 0.98403754830360424 -1.1972005963325498 1.0949093699455263 -1.2635207176208494 1.0675467848777773 1.1305276155471804 0.91207441687583934 -0.9137510061264037 1.4550148844718935 1.0964804887771609 0.94247603416442882 1.0485646128654482 1.0086904764175417 -0.8133690059185027 1.0609742999076845 0.76122003793716442 -0.90467268228530873 -1.6105723381042478 -1.4007160663604734 1.2256383299827578 -1.3726954460144041 -1.1825492382049558 -1.7309200167655943 -1.828682482242584 -1.1972005963325498
decision_type=2 2 2 2 2 2 2 2 2 2 2 2 2 2 2 2 2 2 2 2 2 2 2 2 2 2 2 2 2 2 2 2 2 2 2 2 2 2 2 2 2 2 2 2 2 2 2 2 2 2 2 2 2 2 2 2 2 2
left_child=7 19 5 4 23 17 13 18 -6 -8 11 12 41 -7 15 -13 22 25 27 50 30 42 -5 -4 -23 -3 -14 44 -18 33 46 -19 -31 -29 -32 -16 -20 49 -39 40 45 -9 -22 -42 47 -12 -21 -1 -46 -38 56 54 -53 -52 -41 -55 57 -2
right_child=1 2 3 16 8 6 9 10 -10 -11 39 14 26 -15 35 -17 28 31 36 20 21 24 -24 -25 -26 -27 -28 29 -30 32 34 -33 -34 -35 -36 -37 37 38 -40 51 43 -43 -44 -45 48 -47 -48 -49 -50 -51 53 52 -54 55 -56 -57 -58 -59
leaf_value=-0.024987115892371164 0.17311930192308939 0.17921831267271388 -0.094716254029237446 0.0011548879667067306 0.08154963809330823 -0.12566402998177534 0.038102906154930546 0.14650272633892863 0.029996136315170598 0.068544669109873307 0.1482550971688775 0.016442132042196331 0.13999421587547445 0.17834647024158765 0.14975899821286862 0.10417210170877783 0.13348556800904796 -0.10275258534408332 0.16070992086290392 -0.15241908014634717 0.067699988767465052 -0.095202393923340456 -0.074542252665413089 0.25341576207895633 0.069815218675573637 -0.039243370635395597 -0.077003398851120758 0.017788578532163556 0.029549129067327481 -0.051915877864965355 0.1154446900078491 0.0126531563349784 0.079292568655387502 -0.17849258354705336 0.1595928473161522 0.10535469472102309 -0.0013520431349663719 -0.060754759370912105 0.04318625745442322 0.194685761380053 0.1077482801663346 0.029047859350304496 0.1729694032586922 -0.10960197917882289 0.20480144722615334 0.17637336922134253 0.05219053543846313 0.12756048849906851 0.14657743301642243 -0.15030787731221876 0.15431603230313673 0.10670904632723049 0.19870826999870184 0.18686138368921631 0.23381715932337196 0.20016479385788821 0.18111637711607431 0.16674987185958634
leaf_weight=8.7574239373207075 77.634846940636635 65.799983724951744 434.49650458246469 1855.0532073453069 31715.71761777997 40.916742235422134 40700.664116606116 171.56942614912987 3003.7719933837652 9599.3532636761665 658.07961817085743 740.56379000842571 33.710369065403938 846.58023013174534 1532.1811911165714 3220.5700295865536 221.2655856013298 675.05614807829261 15.25579960644245 14.353946059942247 75.88007178902626 137.86702515184879 416.2851771786809 12.655991211533545 90.754454031586647 57.016977205872536 281.93789109587669 541.79818150401115 285.30224837362766 58.011499159038067 1075.0469682514668 86.606169700622559 795.2156093120575 23.059525981545448 628.05144034326077 442.65440873801708 3.8563371598720542 203.36472679674625 82.097345963120461 25.276022166013718 23.255543485283852 37.097225531935692 71.081802383065224 11.883044287562369 54.30300161242485 428.04133720695972 3.6591333448886862 6.5787327587604514 45.86317765712738 65.281461820006371 30.55596125125885 25.006130248308182 254.9717682749033 51.288262844085693 45.293273508548737 155.69425609707832 32.382015705108643 184.83636510372162
leaf_count=27 53 105 4794 7347 67282 175 127562 251 9976 21341 777 1769 49 783 1767 5021 436 4860 22 69 140 468 2259 19 184 199 986 1418 854 239 1354 463 1546 96 504 793 11 670 202 25 46 113 65 45 47 439 22 13 60 309 33 46 194 33 37 102 21 123
internal_value=0 0.0569065 0.0549184 0.0697765 0.0750302 0.0440914 0.0460003 0.095973 0.0770895 0.0439125 0.110449 0.0979811 0.0175888 0.164331 0.105082 0.0877703 0.00326783 -0.0663813 0.0356477 0.124978 0.111121 0.0283368 -0.0127187 -0.0848629 -0.0296964 0.0777989 -0.0538286 0.0547925 0.0749479 0.0462348 0.129186 -0.0896302 0.0703716 0.00977567 0.131725 0.139806 -0.0437351 -0.0525308 -0.0308619 0.165176 0.155416 0.125621 0.118616 0.0342455 0.15986 0.159337 -0.110855 0.040451 0.178142 -0.141999 0.179548 0.196392 0.190491 0.191395 0.219801 0.196868 0.170005 0.168634
internal_weight=0 92645.6 90016.5 37944.5 35166.6 52072 51187.5 9835.53 34719.5 50300 7932.09 6460.28 524.315 887.497 5935.97 3961.13 2777.91 884.479 1903.44 2629.09 2096.69 375.583 2271.34 447.152 228.621 122.817 315.648 1533.59 506.568 1418.08 1721.11 761.662 853.227 564.858 1703.1 1974.84 369.856 354.6 285.462 1471.81 1121.26 208.667 146.962 35.1386 115.502 1086.12 18.0131 15.3362 100.166 69.1378 532.392 350.547 279.978 237.538 70.5693 206.983 294.853 262.471
internal_count=268644 251626 248455 92967 82071 155488 149861 17018 77258 148903 12358 10749 1399 958 9350 6790 10896 5627 4660 3171 2806 857 9606 4813 652 304 1035 3446 1290 3299 1949 5323 1785 1514 1858 2560 1214 1192 872 1609 1307 364 205 91 147 1216 91 40 107 320 365 302 240 168 62 135 197 176
is_linear=0
shrinkage=0.1


Tree=10
num_leaves=61
num_cat=0
split_feature=128 130 131 129 76 114 32 110 80 82 109 82 109 81 105 109 35 85 105 73 83 79 37 108 24 109 83 84 115 101 38 56 75 108 84 106 53 0 102 110 121 112 104 44 53 107 83 110 86 78 78 108 108 85 52 37 115 107 64 50
split_gain=1187.12 1299.35 1154.18 1204.73 1049.32 919.287 660.553 629.005 342.445 317.433 419.888 397.36 291.176 330.812 286.057 282.015 273.182 237.777 298.853 248.898 233.079 218.063 210.611 200.875 180.501 176.287 205.371 173.892 197.868 172.514 160.216 153.293 145.607 139.997 107.416 91.0521 89.108 84.4631 192.55 66.7288 104.304 66.1381 65.106 59.3049 71.4282 66.8359 49.561 39.5335 47.2143 28.5973 25.3668 40.0514 25.2176 48.898 22.8918 31.5508 17.8192 13.0362 12.9499 2.36714
threshold=1.0000000180025095e-35 1.0000000180025095e-35 1.0000000180025095e-35 1.0000000180025095e-35 -1.1879175305366514 -0.93406993150711048 0.96675249934196483 -0.85526254773139943 -1.1389063000679014 -1.3443341255187986 -0.87489229440689076 -1.3666320443153379 -0.85772740840911854 -1.4016598463058469 -0.79901468753814686 -0.88457030057907093 0.94211840629577648 -1.2787823677062986 -0.78703060746192921 -0.83282324671745289 -1.3027123212814329 -1.354712128639221 0.99130249023437511 -0.87383556365966786 1.2675983309745791 -0.90043926239013661 -1.2806795239448545 -1.3796820044517515 -0.96306124329566944 -0.75583183765411366 1.0085813999176028 1.0351120233535769 -1.0496962070465086 -0.83126401901245106 -0.89223983883857716 -0.87681084871292103 1.0431153178215029 0.32316610217094427 -0.77674916386604298 -0.8815549612045287 -1.0433711409568784 -0.94456955790519703 -0.78768029808998097 1.1021777391433718 1.0560460686683657 -0.84539157152175892 -1.2967489361762998 -0.90197682380676258 -1.2557814121246336 -1.3087033629417417 -1.3102681040763853 -0.86732137203216542 -0.84093651175498951 -1.2847758531570432 1.1173511743545534 0.99362412095069896 -0.89040464162826527 -0.88041937351226796 0.40211565792560583 1.0736018419265749
decision_type=2 2 2 2 2 2 2 2 2 2 2 2 2 2 2 2 2 2 2 2 2 2 2 2 2 2 2 2 2 2 2 2 2 2 2 2 2 2 2 2 2 2 2 2 2 2 2 2 2 2 2 2 2 2 2 2 2 2 2 2
left_child=1 2 3 4 7 -6 8 -1 -5 10 36 12 21 -14 27 20 17 18 19 -3 23 -12 -8 41 -20 26 -22 33 -29 37 -25 32 -19 -4 -33 52 50 42 -39 40 -13 -11 -18 45 -45 -38 -27 48 -37 -49 58 -52 53 -17 -31 -56 -41 -16 -2 -59
right_child=9 16 14 6 5 -7 22 -9 -10 15 11 39 13 -15 57 35 29 31 24 -21 25 -23 -24 30 -26 46 -28 28 -30 54 -32 34 -34 -35 -36 47 43 38 -40 56 -42 -43 -44 44 -46 -47 -48 49 -50 -51 51 -53 -54 -55 55 -57 -58 59 -60 -61
leaf_value=0.10548673973531358 0.17623846906168344 0.012428741731145053 0.13459814116524224 0.010645332041796535 0.065115025774494614 0.0039272950147194478 0.057450891212440902 -0.12236214827924362 -0.099743725328451369 0.15569576603191762 0.13497756667388464 -0.062821825677475532 0.03961813792496667 -0.05273154321975812 0.1097656105601586 0.14005799422375081 0.1157803784181166 0.0079575908861609541 -0.11294563837638633 0.072130135858316582 0.093731941813556222 0.026861793167230974 0.14363900311274319 -0.05780314611052062 0.25237113266107841 -0.024626345328749848 -0.015818653213597749 0.035321541404861843 -0.0015968611426700472 0.12667333790883539 0.1076331302089308 0.10729005616660899 -0.033427723904956831 0.030520842216330946 -0.11258885750485247 0.0073226276677253498 0.066776399341551704 -0.0051652258684181732 0.29290320206335096 -0.13147747174247623 0.10718733256201184 0.068066309593290172 0.024237767103852725 0.29015633068775976 0.098340621523660923 -0.13878207627894287 -0.12006144008056104 -0.0018982947909946754 -0.1331453543501103 -0.12131024021952318 0.18672939727890148 0.042596124340209901 0.18242664421945026 -0.1586938024585659 -0.12994546570148374 -0.0032037492031985158 0.041643687669252798 -0.1055421628849363 0.25568938931600083 -0.13068013498547876
leaf_weight=7552.427919536829 38.100163698196411 1545.8794438913465 239.07864519953728 4588.4651118144393 66602.677075847983 2549.3868589028716 1000.2500279173255 123.1356047205627 299.35460641235113 148.79654994606972 423.5793963521719 278.11458664387465 1413.5824675224721 534.58349822461605 2.6246138662099829 12.293541595339773 242.62418775260448 1761.1922677494586 187.27067648246884 1273.6725917607546 193.48720645159483 333.3837218657136 395.67532704770565 196.27855667471886 14.577952612191437 77.499827422201633 1480.514465585351 3094.9737361297011 2734.3136582970619 7.1048105210065833 83.417696438729763 171.23361974954605 1643.430664293468 281.32281848788261 25.530511543154716 67.566470354795456 75.579835638403893 32.79279887676239 63.911304607987404 132.90477057546377 41.468158721923828 204.50532987713814 114.28846491873264 21.887611538171768 171.7367530092597 20.004048436880112 182.68787057697773 21.504753425717354 37.049946449697018 297.55417082458735 62.62863589823246 27.853390917181969 12.977757111191748 9.8829341530799883 35.950116984546185 43.296168453991413 6.2239109724760047 100.43137867748737 44.447678878903389 59.742874540388584
leaf_count=11712 64 5886 605 18907 139370 7923 3455 1251 1623 286 1120 1414 6325 2675 10 21 501 7987 1765 4459 543 1173 824 877 39 323 5682 11007 10951 24 225 521 8955 1062 126 279 195 134 109 690 81 431 439 33 536 102 994 74 226 1580 72 74 20 43 224 165 17 2044 45 346
internal_value=0 0.0568574 0.060133 0.0633096 0.0667528 0.0628593 0.0212113 0.101831 0.00388455 0.0131856 0.0331411 0.0201342 0.0347278 0.0142771 0.0195931 -0.0107272 0.0158722 0.0102958 0.0309827 0.0393976 0.00217895 0.0873609 0.0818809 0.0548499 -0.0865617 -0.0150586 -0.0031564 0.0229489 0.0180044 0.0842668 -0.00846279 -0.00705953 -0.0120193 0.0783352 0.0787604 -0.0829382 0.122168 0.108928 0.191827 -0.0659273 -0.0407619 0.104972 0.0864671 0.0882073 0.120024 0.0237566 -0.091635 -0.0957702 -0.0424242 -0.113262 0.178932 0.14236 0.0717108 0.00691942 -0.0452834 -0.0607002 -0.123733 -0.111296 0.219019 -0.114918
internal_weight=0 96786.6 89623.9 83111.4 76827.6 69152.1 6283.75 7675.56 4887.82 6652.1 3626.08 3163.84 2705.13 1948.17 6512.49 3026.02 7162.76 6622.79 3021.4 2819.55 2567.19 756.963 1395.93 632.998 201.849 1934.19 1674 6349.69 5829.29 539.968 279.696 3601.39 3404.62 520.401 196.764 458.83 462.238 453.617 96.7041 458.711 319.583 353.302 356.913 289.208 193.624 95.5839 260.188 423.675 104.616 319.059 173.03 90.482 35.1542 22.1765 86.3511 79.2463 139.129 162.799 82.5478 160.174
internal_count=268644 242424 211090 185065 160256 147293 24809 12963 20530 26220 14616 13495 11293 9000 26025 11604 31334 29738 12149 10345 9361 2293 4279 1819 1804 7542 6225 23625 21958 1596 1102 17589 16942 1667 647 2243 1121 1183 243 2202 1495 717 940 866 569 297 1317 2159 505 1654 255 146 84 64 413 389 707 2400 109 2390
is_linear=0
shrinkage=0.1


Tree=11
num_leaves=58
num_cat=0
split_feature=104 118 134 114 32 136 134 53 121 136 129 30 55 112 77 120 127 30 72 26 116 59 52 75 36 79 135 33 30 30 100 110 74 103 31 111 110 95 25 110 32 69 79 118 45 33 123 44 113 118 39 30 115 107 30 30 0
split_gain=1123.07 1412.66 1351.01 1373.98 1181.02 855.829 831.94 1464.77 862.69 787.192 668.033 551.129 622.225 467.292 405.4 596.286 436.416 392.814 432.966 374.334 360.525 322.347 228.453 212.084 208.17 197.788 196.944 193.206 180.406 160.142 156.518 153.962 146.164 131.105 123.043 119.667 83.7844 77.1837 310.54 72.8437 55.7019 42.2267 33.6897 73.9751 33.4462 28.7991 113.489 28.5314 27.1248 13.6111 12.6763 10.8879 8.95376 3.8077 1.2677 0.361773 0.0911712
threshold=-0.85823825001716603 -1.583349287509918 1.0000000180025095e-35 -0.93318086862564076 0.8383467197418214 1.0000000180025095e-35 1.0000000180025095e-35 1.1022504568099978 -1.828682482242584 1.0000000180025095e-35 1.0000000180025095e-35 1.0949093699455263 0.89304170012474071 -0.98617047071456898 -0.49588379263877863 -1.7309200167655943 -3.4189962148666377 1.0638396739959719 -0.62394902110099781 1.4053226709365847 -0.89369508624076832 0.86103373765945446 0.80983811616897594 -1.0818010568618772 0.90646973252296459 -1.20525187253952 1.0000000180025095e-35 0.89002066850662243 1.0732724070549013 1.0714854598045351 -0.9629647135734557 -1.1972005963325498 -1.0376289486885069 -0.88850620388984669 1.0075008273124697 -1.2151442170143125 -1.2048828601837156 -1.0545614957809446 1.3844681382179262 -1.2181954979896543 0.92432537674903881 -0.05544877611100673 -0.48342218995094294 -1.5942649841308592 1.1889255642890932 0.83584171533584606 -2.2457855939865108 0.81895291805267345 -0.91716232895851124 -1.5942649841308592 1.0600777864456179 1.0790959596633913 -1.2779741287231443 -0.8400539457798003 1.0853481292724612 1.0756200551986697 0.53755515813827526
decision_type=2 2 2 2 2 2 2 2 2 2 2 2 2 2 2 2 2 2 2 2 2 2 2 2 2 2 2 2 2 2 2 2 2 2 2 2 2 2 2 2 2 2 2 2 2 2 2 2 2 2 2 2 2 2 2 2 2
left_child=2 14 3 10 26 6 8 -8 -6 22 11 12 -1 -13 36 16 35 18 -7 23 29 39 48 37 -23 33 45 40 -19 -11 -21 -18 -24 -12 -29 -16 44 51 -39 -17 -25 -28 49 -44 -2 50 -47 -27 -5 -38 -3 -4 -43 -22 55 -32 -56
right_child=1 4 19 9 5 17 7 -9 -10 20 25 13 -14 -15 15 21 31 28 -20 30 53 24 32 27 -26 47 41 34 -30 -31 54 -33 -34 -35 -36 -37 42 38 -40 -41 -42 52 43 -45 -46 46 -48 -49 -50 -51 -52 -53 -54 -55 56 -57 -58
leaf_value=0.085234321383467884 0.072163944136360472 -0.11167149247282747 0.17146322184730783 -0.076494788427183907 0.14246743938425982 0.097023187460788196 0.038174283482279914 0.13620190326949252 0.018473739709712843 0.11840290587652232 0.054345050354727586 0.05384336648086923 0.057310138838953785 -0.043424840376810027 -0.082337334569662635 0.16191228711640959 0.087478708546769146 0.017807877686234593 0.05245043702846959 0.18087972840523722 -0.16165875455299095 0.079394362008401886 0.015958795186232694 -0.15771590049826437 -0.089484567094237424 0.064234764146457055 -0.096433203593914829 0.1170371553207879 -0.15361936804939055 0.048895972257279464 -0.20398013892911929 0.13473300578248951 -0.025765370470214061 -0.036515683058998549 -0.078816627980730317 0.35388764851720339 0.18263671324254396 0.1465125443280586 -0.066411518560148097 0.047032880565809621 0.0042741141789470923 0.09945033991743206 0.17663083537803437 0.019999505285237126 -0.17369726129808172 0.19826701047905837 -0.12204248598542516 -0.087871455016876709 -0.14034977007683364 0.22495557330886209 0.12576845644803611 0.20317849220414522 0.19183653008203536 -0.11461831365708977 -0.16577532051288002 -0.18299380983200175 -0.15225292104327015
leaf_weight=12528.068351492286 19.074919641017917 630.77776929736137 273.75781482458115 148.7351196706295 572.23858045041561 3481.3083907812834 11841.469315111637 1749.5096444785595 28878.821786820889 670.90671180188656 349.14249487221241 1205.2351742461324 21979.34466675669 836.85275662690401 144.20140523463488 92.1425871104002 1361.7455745562911 1149.7325922399759 5826.9359983354807 15.426414057612417 23.864721193909645 92.846129134297371 1377.9504604376853 30.86859504878521 341.30896571278572 12.826091915369032 9.5527928024530393 531.5708094984293 64.851753741502762 655.17614574730396 12.957363098859785 1396.6706292927265 2148.9205278009176 291.30532579123974 34.136866703629494 6.5753195062279692 151.00905203819275 1623.1564201116562 71.514385193586349 137.65558704733849 67.962836623191833 26.907644569873806 209.51289583742619 35.221956491470337 7.7938530147075644 15.10758590698242 41.302476584911346 320.03711085766554 120.35313779860735 153.0118599832058 2.2564962208271018 179.03782476484776 17.193589910864834 61.686612375080585 10.186223194003107 22.439174816012383 9.7665130496025068
leaf_count=22077 36 6931 213 589 776 5452 27044 2342 103898 859 1189 2835 46112 3765 762 93 1997 2624 12796 16 104 200 5130 114 1170 52 39 719 258 1390 52 1420 7631 1193 106 20 99 1592 210 292 157 42 140 87 32 19 218 1724 792 111 5 131 13 798 43 91 44
internal_value=0 0.039137 0.0600734 0.0556033 0.0348403 0.0365773 0.0303274 0.050793 0.020883 0.0074695 0.0622835 0.0644609 0.0674481 0.0139826 0.0953806 0.082834 0.10235 0.0621415 0.0691208 0.126333 0.0712256 -0.0026765 -0.01624 0.13205 -0.053369 -0.0194812 -0.0903626 0.0826814 0.00865466 0.0840617 -0.100805 0.111405 -0.00946372 0.0130174 0.105219 -0.0633137 0.173263 0.147327 0.137527 0.0930963 -0.0463212 0.0941798 0.181705 0.154089 0.000846727 -0.104724 -0.0362581 -0.0820104 -0.105055 0.203936 -0.110825 0.184004 0.135469 -0.12774 -0.179314 -0.190676 -0.159156
internal_weight=0 58456.7 45613.2 42730.4 54308 53564.9 43042 13591 29451.1 5207.59 37522.8 36549.5 34507.4 2042.09 4148.77 3573.15 2909.19 10522.8 9308.24 2882.78 1411.63 663.953 3795.96 2812.01 434.155 973.311 743.098 664.539 1214.58 1326.08 70.7757 2758.42 3526.87 640.448 565.708 150.777 575.625 2147.47 1694.67 229.798 98.8314 53.654 548.756 244.735 26.8688 689.444 56.4101 332.863 269.088 304.021 633.034 452.796 44.1012 85.5513 55.3493 35.3965 19.9527
internal_count=268644 168916 99728 96240 162457 155190 134060 29386 104674 17293 78947 74789 68189 6600 6459 5954 4199 21130 18248 3488 3151 1755 14142 3242 1370 4158 7267 1096 2882 2249 246 3417 12761 2382 825 782 505 2146 1802 385 271 94 437 227 68 7173 237 1776 1381 210 6936 344 55 902 230 143 87
is_linear=0
shrinkage=0.1


Tree=12
num_leaves=61
num_cat=0
split_feature=106 118 5 30 0 122 96 108 133 73 56 104 134 32 88 107 110 95 32 110 54 120 80 34 54 36 32 110 52 118 24 106 73 53 72 17 105 135 31 108 6 112 126 120 35 105 50 22 54 72 56 113 33 52 20 36 110 55 120 107
split_gain=1016.59 963.263 987.194 990.86 767.753 887.123 745.845 609.494 536.876 491.353 973.084 462.121 405.537 322.612 380.002 370.222 294.843 232.799 195.505 166.214 384.907 174.404 155.499 154.342 138.738 143.495 134.751 131.537 286.621 108.862 99.5396 90.765 88.7737 87.1916 82.8722 75.7166 72.5394 71.6676 107.416 79.6357 67.5837 65.6772 61.5606 138.942 52.3204 46.5925 42.8611 67.4397 41.9684 40.6613 38.8789 38.3574 33.7136 26.9097 26.4247 17.2741 13.024 9.34891 3.40685 0.477983
threshold=-0.96474698185920704 -1.6012102365493772 0.62155485153198253 1.0764544010162356 -0.23845963180065152 -2.0236134529113765 -1.0627248883247373 -1.0567437410354612 1.0000000180025095e-35 -0.90544259548187245 0.81424745917320263 -0.85823825001716603 1.0000000180025095e-35 0.91330751776695263 -0.91128501296043385 -1.014228284358978 -1.1906098723411558 -0.36502417922019953 0.9148535728454591 -1.2006456255912779 1.0871522426605227 -1.742302358150482 -0.23503337800502774 0.88772168755531322 0.94780629873275768 0.83853453397750866 0.90541237592697155 -1.2181954979896543 1.1350663900375368 -1.4466990232467649 1.6083187460899355 -0.98237726092338551 -0.43636325001716608 0.9608217477798463 -0.27313473820686335 0.79141685366630565 -0.80222943425178517 1.0000000180025095e-35 0.96366003155708324 -1.0429127216339109 0.86159363389015209 -1.3353313207626341 -2.8855258226394649 -1.742302358150482 0.79238170385360729 -0.93977606296539296 1.1457776427268984 1.4096653461456301 1.0802909731864931 -0.78589770197868336 0.92148759961128246 -1.3789466619491575 0.94949105381965648 0.9885757863521577 1.188166677951813 0.9294220805168153 -0.8297390043735503 0.84546655416488659 -1.7309200167655943 -0.93305212259292591
decision_type=2 2 2 2 2 2 2 2 2 2 2 2 2 2 2 2 2 2 2 2 2 2 2 2 2 2 2 2 2 2 2 2 2 2 2 2 2 2 2 2 2 2 2 2 2 2 2 2 2 2 2 2 2 2 2 2 2 2 2 2
left_child=8 19 4 6 17 16 56 -7 18 12 -11 -8 -5 14 30 29 -6 32 37 20 27 36 42 24 44 -26 -17 48 -29 -16 33 52 -3 -10 -19 -23 -22 39 50 41 -32 -1 43 -21 -15 -40 47 -33 -2 -41 -39 -24 57 -25 -48 -55 -4 -20 -44 -53
right_child=1 2 3 9 5 7 11 -9 13 10 -12 -13 -14 23 15 26 -18 34 31 22 21 35 51 53 25 -27 -28 28 -30 -31 40 46 -34 -35 -36 -37 -38 38 45 49 -42 -43 58 -45 -46 -47 54 -49 -50 -51 -52 59 -54 55 -56 -57 -58 -59 -60 -61
leaf_value=0.14585858559475026 0.14775058641144218 0.14598320012940058 -0.054812233044107331 -0.0088653656976616906 -0.12957606703060826 -0.016275030729874049 0.077080595799177198 0.033032062050412057 0.11653958894726953 0.086259522046996495 0.017876946361209147 0.048981683682397754 0.15243477048130405 -0.048624910556260607 0.1942789981606198 -0.098179625758407316 0.14569841894901964 -0.098208875397797157 -0.023282883348216057 0.12636245568742524 0.066238691198283961 -0.11738956221864355 0.14641821717986278 0.0072075059816270829 -0.039725786182372269 0.085356061211975851 0.014767463760416703 -0.20194683864071339 0.11121609772911972 0.054621749916831441 -0.14150671976830614 -0.067079561566569801 -0.027137747939851249 -0.087965568698153959 0.0059405549007062941 0.13688955446011286 -0.06326319883449473 -0.18139361845751564 0.0011102357723195885 -0.094857491664233309 0.15210176486802429 0.021954216388381929 0.14812072078184882 -0.02368139648282825 0.12263554716942995 0.16394861095805549 -0.030617439485728006 0.071718006764266054 0.073711351790024013 0.1088377442349994 0.017818224150826272 -0.15410474021406687 0.109893368067353 0.13725377092912813 0.15243589785546724 0.16752078937500367 -0.11081386225228076 -0.13714069377066088 0.16406992075247717 -0.12191210871031724
leaf_weight=47.020160228013992 541.4912536740303 63.605145633220673 51.020481795072556 3500.7350763976574 40.835958689451218 2631.1332068443298 14146.727263029665 53128.207594681531 818.26579892635345 3188.7554970979691 5989.8111541867256 9983.4611453860998 163.13279949128628 18.06671516597271 64.77284674346447 267.86468511819839 824.92585185915232 631.90573802217841 7.7513067275285712 504.61331121623516 239.99690583348274 124.85407407581806 5.4254565238952663 14.196738287806509 97.308284923434258 1596.1191366314888 174.40244002640247 38.516134783625603 121.1666354984045 403.57842233777046 26.552671521902084 122.34776768088341 55.435550212860107 21.393145278096199 86.907802511006594 12.922360897064207 52.76271353662014 40.620716229081154 62.96090991795063 10.199556939303873 11.124298736453055 474.40331688523293 506.36889408528805 70.315750002861023 1411.8183585703373 24.3733921200037 11.696725502610205 49.037656053900719 89.166349068284035 250.06779822707176 12.910524949431418 19.397112026810653 6.2266174703836432 657.00008338689804 24.205066502094269 264.46550598740578 223.21561682596803 103.58674771338701 182.09010653197765 6.0508368760347322
leaf_count=51 435 93 279 12612 175 7650 25247 150350 1112 6313 16474 24070 176 53 57 886 783 4888 21 511 367 442 4 31 254 2400 379 154 146 745 112 398 184 65 463 12 166 169 176 46 15 1132 375 180 1639 24 35 91 131 380 32 88 10 695 31 213 4015 435 131 43
internal_value=0 0.0407007 0.0390787 0.0517597 0.030859 0.032265 0.0635915 0.0307054 0.079912 0.0292757 0.041634 0.0654551 -0.00168352 0.0926183 0.0572263 0.0119751 0.132714 -0.0641658 0.0203539 0.101781 0.0753125 -0.00076297 0.126749 0.108208 0.0975354 0.0781686 -0.0536404 0.116754 0.0356799 0.0739363 0.104194 -0.0463618 0.0653632 0.111329 -0.0856167 -0.0935402 0.0428992 0.0438459 -0.0218109 0.0556777 -0.0548175 0.0331275 0.132167 0.108012 0.120472 0.0465554 -0.00655397 -0.0273661 0.137282 0.100855 -0.133348 -0.0949837 -0.11655 0.143836 0.0927975 0.145941 -0.100395 -0.129214 0.152339 -0.14645
internal_weight=0 97225 94709.8 37246.9 57463 56625.1 24404.4 55759.3 7094.34 12842.4 9178.57 24130.2 3663.87 5846.93 1787.95 910.618 865.762 837.854 1247.41 2515.14 1220.88 430.536 1294.26 4058.97 3123.31 1693.43 442.267 790.34 159.683 468.351 877.336 324.852 119.041 839.659 718.814 137.776 292.76 922.556 140.866 781.691 37.677 521.423 1263.39 574.929 1429.89 87.3343 207.287 171.385 630.658 260.267 53.5312 30.8734 117.565 935.662 35.9018 921.466 274.236 111.338 688.459 25.4479
internal_count=268644 256957 253772 89186 164586 158958 53611 158000 11687 35575 22787 49317 12788 8656 3371 2067 958 5628 3031 3185 1853 987 1332 5285 4346 2654 1265 866 300 802 1304 1021 277 1177 5351 454 533 2010 401 1609 127 1183 1197 691 1692 200 555 489 566 426 201 135 466 939 66 908 4294 456 506 131
is_linear=0
shrinkage=0.1


Tree=13
num_leaves=63
num_cat=0
split_feature=106 136 134 32 118 135 121 60 133 34 104 56 103 74 30 114 31 97 110 116 32 52 113 33 53 54 116 72 33 79 93 75 28 124 30 37 29 111 69 34 30 68 72 54 103 16 35 112 69 35 115 44 127 57 34 49 52 113 34 40 1 2
split_gain=866.401 918.175 1027.63 1415.83 1301.15 1303.52 1217.21 761.827 665.581 665.465 606.372 573.892 1043.57 509.795 518.273 499.892 417.276 379.993 365.015 507.27 405.584 320.798 297.68 286.996 282.324 267.074 256.242 245.579 208.812 365.518 199.769 195.195 190.732 185.972 161.417 141.967 133.138 126.962 318.925 115.907 105.321 101.72 94.7023 90.7264 64.4622 52.1491 105.895 70.4714 51.1165 50.3261 39.0367 32.1508 35.281 28.3418 27.703 22.0282 20.1978 16.3247 15.1653 13.9148 5.05067 4.70271
threshold=-0.95092925429344166 1.0000000180025095e-35 1.0000000180025095e-35 0.9515770971775056 -1.583349287509918 1.0000000180025095e-35 -1.0193635821342466 0.82662671804428112 1.0000000180025095e-35 0.87419652938842785 -0.83278995752334584 0.97965726256370556 -0.85433092713356007 -0.98188862204551686 1.0646047592163088 -0.91484782099723805 0.97995623946189891 -0.81002700328826893 -1.1972005963325498 -1.5217922925949094 0.81033891439437877 1.08962619304657 -1.2402853369712827 0.89131823182106029 1.026321589946747 0.94780629873275768 -0.89369508624076832 -0.62394902110099781 0.85935246944427501 -0.96236568689346302 -1.1173108220100401 -1.0401624441146848 1.2389230728149416 -1.3143654465675352 1.0795584321022036 0.80336958169937145 1.201093375682831 -1.269257068634033 -0.10430221259593962 0.89989584684371959 1.1062256693840029 0.032807419076561935 -0.54679355025291432 1.0493459701538088 -0.9419690966606139 0.90893349051475536 0.9623503088951112 -1.2525531053543089 -0.12500269711017606 0.92221117019653331 -0.98317697644233693 1.0214490890502932 -2.2698447704315181 0.89287811517715465 0.88968944549560558 1.0902826786041262 1.1281996965408327 -1.3200885057449339 0.85854870080947887 1.0080921649932864 0.63988208770751964 0.074669223278760924
decision_type=2 2 2 2 2 2 2 2 2 2 2 2 2 2 2 2 2 2 2 2 2 2 2 2 2 2 2 2 2 2 2 2 2 2 2 2 2 2 2 2 2 2 2 2 2 2 2 2 2 2 2 2 2 2 2 2 2 2 2 2 2 2
left_child=8 2 4 11 18 7 -7 -6 23 16 24 12 -4 15 17 33 28 27 19 -2 -20 -12 -13 37 -5 36 30 -15 29 -10 -17 35 -27 50 -35 -16 -18 48 40 51 -39 -30 -19 -33 -40 46 53 54 55 -49 -3 -11 -53 -25 -47 -1 59 -48 -50 -41 -28 -58
right_child=1 13 3 10 5 6 -8 -9 9 39 21 22 -14 14 31 26 25 42 20 -21 -22 -23 -24 45 -26 32 60 -29 41 -31 -32 43 -34 34 -36 -37 -38 38 44 56 -42 -43 -44 -45 -46 47 57 49 58 -51 -52 52 -54 -55 -56 -57 61 -59 -60 -61 -62 -63
leaf_value=0.067103066380945348 0.086125592030224671 0.12247053427291528 0.11119483810149161 0.013889524855933498 0.014780045892231404 0.065475566766685159 0.00068340456712881394 -0.058426197610522514 0.070514092413442697 -0.062290830992549111 -0.029184947191416861 -0.1867506515297479 0.036819739831234315 0.08144174016012784 -0.15050140332694711 0.081544247285210078 0.10129769889584642 -0.13588552172968302 -0.056992233851738829 -0.026899847037426802 0.12084261193205209 0.028621362965160432 0.12754246242087863 0.099635810204855374 0.086311840581837718 0.060850479199956981 -0.15978848877588361 0.046903884557591341 0.043017164381955797 -0.065766591689362247 -0.014834343950371132 -0.12631545644639317 -0.017794844393990761 0.11196952242473163 0.039237764033821211 0.013178825205093654 0.040897607890661693 0.046455621637541203 0.11897516536231778 0.11252159484057023 -0.10810848933036793 0.18800414144070723 -0.014584432146270211 0.19012527745727059 -0.10097786419383677 -0.082535084222427779 0.17548315647126772 -0.053493030884960213 0.075539791190755878 0.068258562288973076 -0.16214217899731911 0.092416250876912742 0.1198792739604435 -0.14828462976882253 0.13863803886021522 -0.17548558364114306 0.23552009733624774 0.012567577553852472 0.15259584908626395 0.15015036298474677 -0.11232949712573259 0.18145991601020672
leaf_weight=7.3246698975563032 1164.1276068985462 5.6814629435539237 2982.9753243252635 891.79694692790508 40315.084405742586 10264.02904433012 4041.030812099576 1473.5000657215714 305.1568214148283 11.499587774276732 2512.9690533876419 30.583551377058029 5132.6036880463362 3215.8032623678446 54.743370592594147 495.01846273243427 2639.140013769269 103.04318025708199 137.20196370780468 602.65657114982605 1964.9354959800839 1553.5043806582689 2057.656433686614 4.8127271234989157 1357.8428484499454 1656.6908016204834 33.293909057974815 5721.7865124642849 878.13492868840694 554.28626520931721 380.276801019907 151.06730607151985 378.90186710655689 3241.3137092813849 336.85266728699207 1654.6573977023363 423.5085584372282 1847.5520609691739 14.280928626656531 115.90296033024788 45.163324922323227 51.211031958460808 171.45637014135718 9.6385148018598539 198.91758294403553 6.8514358550310126 11.79604332149029 318.00676441937685 32.24615390598774 38.00809733569622 31.74881212413311 987.32489484548569 888.96271294355392 110.05740655213594 32.654452323913574 7.6552737653255463 24.581084981560707 12.851754799485205 122.82989074289799 646.08491444587708 68.683091904968023 46.590849220752716
leaf_count=14 1560 7 3623 2085 137954 19765 11955 6855 564 31 7141 125 11103 5112 205 762 3465 399 739 1750 2322 3628 2698 10 2457 2805 147 12209 1725 1699 931 527 931 4066 788 3719 935 3819 23 141 240 45 481 7 734 23 11 988 53 80 118 1481 1045 510 53 33 17 39 130 618 1108 36
internal_value=0 0.0355894 0.0310706 0.0531544 0.0249864 0.0211178 0.0471725 0.0121987 0.0637257 0.0762477 0.0159445 0.0761871 0.0641572 0.0576376 0.0460279 0.0856509 0.0597056 0.0557715 0.0810764 0.0475722 0.109236 -0.00710135 0.122939 0.0209259 0.0576024 0.0742859 0.0221941 0.0593308 0.0181503 -0.0173783 0.039672 -0.00196894 0.0462116 0.102803 0.105122 0.00793698 0.0929455 0.0364182 0.0297066 0.118118 0.0427675 0.0510066 -0.0601191 -0.107337 -0.0862445 -0.044976 -0.0975414 -0.0264338 0.119533 -0.0404948 -0.118941 0.104406 0.105428 -0.137897 0.10028 -0.0568682 0.149185 0.0905364 0.136573 0.144427 -0.127824 0.200131
internal_weight=0 92157.6 76482.5 16519.9 59962.6 56093.6 14305.1 41788.6 12419 9607.98 6316.11 10203.8 8115.58 15675.1 11082.2 4592.87 6887.03 9212.09 3868.92 1766.78 2102.14 4066.47 2088.24 2811.01 2249.64 5098.24 977.272 8937.59 1788.79 859.443 875.295 1870.11 2035.59 3615.6 3578.17 1709.4 3062.65 2275.97 2105.91 2720.95 1892.72 929.346 274.5 160.706 213.199 535.039 139.518 395.521 170.056 356.015 37.4303 1887.79 1876.29 114.87 39.5059 14.9799 833.16 24.6478 155.076 761.988 101.977 71.1719
internal_count=268644 246346 215760 32860 182900 176529 31720 144809 22298 15538 15311 17549 14726 30586 22659 7927 12169 18201 6371 3310 3061 10769 2823 6760 4542 8136 2948 17321 4033 2263 1693 4458 3736 4979 4854 3924 4400 5046 4816 3369 4059 1770 880 534 757 1714 570 1144 230 1068 125 2557 2526 520 76 47 812 50 183 759 1255 53
is_linear=0
shrinkage=0.1


Tree=14
num_leaves=61
num_cat=0
split_feature=106 118 136 134 32 135 30 105 105 73 30 97 116 133 127 32 31 105 57 39 3 33 79 118 110 105 32 72 80 24 106 7 107 123 2 102 30 80 127 72 76 59 2 24 34 33 127 26 13 51 118 127 54 111 79 118 87 39 30 110
split_gain=734.443 761.126 792.592 877.314 1163.26 709.352 1044.55 992.814 593.125 438.965 547.25 429.65 403.611 387.053 328.914 237.916 211.823 188.39 165.458 163.912 195.245 268.4 153.586 252.07 173.165 170.064 139.97 122.21 115.767 101.372 72.3245 60.9705 60.9529 72.2028 64.3378 55.4654 52.7052 52.604 52.4591 171.582 40.2438 36.7902 36.6668 70.4238 45.8105 25.9861 25.0926 39.7029 18.6312 15.5199 8.59659 8.23249 4.99221 3.29251 3.07049 1.63798 0.505094 0.415336 0.364307 0.330337
threshold=-0.96474698185920704 -1.6012102365493772 1.0000000180025095e-35 1.0000000180025095e-35 0.94890314340591442 1.0000000180025095e-35 1.0711188316345217 -0.9106876254081725 -0.8396400213241576 -0.8466600477695464 1.0711188316345217 -0.96690168976783741 -0.89369508624076832 1.0000000180025095e-35 -2.0660804510116573 0.8917318880558015 1.0011357665061953 -0.95964378118515004 0.84266066551208507 0.9652601182460786 0.55681741237640392 0.86426374316215526 -0.43470609188079828 -1.6229190826416013 -1.1936470270156858 -0.8051759898662566 0.9148535728454591 -0.66083782911300648 -0.23503337800502774 1.6083187460899355 -0.98237726092338551 0.80706688761711132 -1.0122584700584409 -1.2035148143768308 0.57534968852996837 -0.97182017564773548 1.0915377736091616 -0.44469577074050898 -3.2304477691650386 -0.31395795941352839 -1.0191350579261778 0.74022004008293163 0.31939955055713659 1.3948625326156618 0.89204502105712902 0.94949105381965648 -2.2961521148681636 1.283961355686188 0.86163371801376354 1.0683804750442507 -1.2977125644683836 -2.2578308582305904 1.0768408775329592 -1.2635207176208494 -0.4500464648008346 -1.6105723381042478 -0.30173699557781214 0.78322312235832225 1.1107204556465151 -1.1972005963325498
decision_type=2 2 2 2 2 2 2 2 2 2 2 2 2 2 2 2 2 2 2 2 2 2 2 2 2 2 2 2 2 2 2 2 2 2 2 2 2 2 2 2 2 2 2 2 2 2 2 2 2 2 2 2 2 2 2 2 2 2 2 2
left_child=13 22 3 5 11 7 -7 -3 -6 12 14 -5 16 26 -11 17 -4 29 40 20 21 -17 53 38 25 -25 32 -12 -26 31 45 -15 34 41 37 -31 -22 -1 39 -24 -19 -34 44 -44 -32 51 47 -21 -14 -20 -48 -28 -40 54 -2 59 -57 -36 -35 -55
right_child=1 2 9 4 8 6 -8 -9 -10 10 27 -13 48 15 -16 19 -18 18 49 46 36 -23 23 24 28 -27 30 -29 -30 35 42 -33 33 58 57 -37 -38 -39 52 -41 -42 -43 43 -45 -46 -47 50 -49 -50 -51 -52 -53 -54 55 -56 56 -58 -59 -60 -61
leaf_value=0.01046367572200204 0.14313951355528259 0.04719171424534923 0.096545583130788273 0.11979818864842784 0.041017135893950799 0.076210101362092039 0.020945408349234904 0.0095340701668463739 -0.015116519220046013 -0.023299813867300592 -0.017614689196269084 0.063056614734870328 0.21917414495934029 0.04126494102634741 0.052485337545385272 -0.014977421865326888 0.016557179916099705 0.092860242355829195 0.20630749988515476 0.11361440936901546 0.11059673783441321 0.071571913660862324 -0.16162267561078625 0.028064393489202696 0.11257809909753952 -0.13589722948815255 -0.13314728356344915 -0.11421248327961453 -0.13824452365572809 0.088577924201003369 0.13441575551963028 0.14628071026146328 0.061764022786183564 -0.15491276965536088 -0.17639573679251755 -0.14080405910759047 0.070634881806863142 0.13210977704531571 0.14094086669812081 0.10262638049343341 -0.13608882325320973 0.15007167498250376 -0.092675779877762196 0.051717710016882794 -0.033821539478703463 0.092744132449668948 0.14860203097036065 0.020836488873954038 -0.12033537889109532 0.069124797638207336 0.10835231367205725 -0.066713058262174066 0.12272795094690361 0.14428125997571886 0.086489630174194948 0.15241412722455389 0.13888897004569042 -0.21107914737559189 -0.12508024509188481 0.13537101452899289
leaf_weight=482.5654698163271 17.978596776723862 8495.7023250460625 3154.351084575057 1679.5853591710329 5441.5689273327589 5404.159088537097 9315.4258197844028 39793.543303813785 2877.8503638952971 605.18451645970345 610.68890106678009 6494.7718232274055 1.643141746520995 123.70964519679546 10663.418121851981 435.78144727647305 369.89116238057613 8.1541078686714155 12.587361559271811 726.02258215844631 1266.9403333216906 2015.4321382194757 26.864970549941063 553.90039792656898 319.18242309987545 71.416141599416733 81.408263884484768 166.72743885219097 19.527163147926331 15.242772549390791 34.628402128815651 99.955021053552628 311.2565234452486 7.5301284790039071 5.9530985206365576 34.178676396608353 446.29696413874626 38.375570058822632 254.21060964465141 287.92238466441631 131.35968391597271 55.60589250177145 84.579483360052109 56.234944552183151 30.389155589044094 6.1988292485475531 265.88378502428532 49.253791511058807 99.149147942662239 23.916138961911201 66.29493747651577 24.197210229933262 368.89313252270222 55.739023685455322 20.451469525694847 165.52176022529602 33.139477849006653 8.2202798426151258 8.9690839797258377 164.12262070178986
leaf_count=1191 15 17562 4301 1812 11633 9183 23521 139946 7821 1723 1529 11619 2 252 20424 1074 845 13 9 856 1445 3050 105 1089 356 279 372 575 112 26 48 109 560 35 25 147 734 38 199 331 518 70 300 112 95 10 209 94 1276 45 75 84 348 42 27 118 28 33 58 136
internal_value=0 0.0328343 0.0314435 0.027392 0.0479238 0.0220174 0.0412353 0.0161593 0.0215994 0.0519981 0.0428169 0.0747153 0.0825074 0.0664642 0.0484153 0.0774281 0.0881503 0.00755887 -0.073114 0.0833801 0.0742871 0.056185 0.0889468 0.0764395 0.0405311 0.00933867 0.015721 -0.0383314 0.0981178 0.0595564 -0.0415003 0.0881962 0.0355098 0.0659455 0.0137054 -0.0700571 0.100187 0.0194248 0.113349 0.0800745 -0.122708 0.0751489 -0.00633202 -0.0350115 0.0557818 -0.106245 0.117573 0.10772 -0.114801 0.116429 0.140569 -0.117925 0.130158 0.141004 0.112992 0.143577 0.150158 -0.196511 -0.138696 0.13763
internal_weight=0 97532.5 95173.7 79502.6 16493.8 63008.8 14719.6 48289.2 8319.42 15671.1 12046 8174.36 3625.03 6957.12 11268.6 5721.01 3524.24 449.103 176.017 5271.91 4164.45 2451.21 2358.87 1901.92 964.026 625.317 1236.11 777.416 338.71 273.086 317.636 223.665 918.476 383.362 535.114 49.4214 1713.24 520.941 937.891 314.787 139.514 366.862 205.832 140.814 65.0176 111.804 1107.46 775.276 100.792 36.5035 332.179 105.605 623.104 456.953 38.4301 418.523 198.661 14.1734 16.4992 219.862
internal_count=268644 256957 253772 223097 32885 190212 32704 157508 19454 30675 24251 13431 6424 11687 22147 8656 5146 1119 585 7537 6303 4124 3185 2819 1836 1368 3031 2104 468 534 1021 361 2010 723 1287 173 2179 1229 983 436 531 630 555 412 143 466 1234 950 1278 54 284 456 547 366 42 324 146 58 93 178
is_linear=0
shrinkage=0.1


Tree=15
num_leaves=52
num_cat=0
split_feature=119 104 133 30 32 105 39 108 119 56 30 97 109 68 42 133 0 102 104 30 105 42 54 91 99 34 110 54 110 52 66 85 53 63 120 115 106 116 12 106 127 110 119 54 95 112 107 56 125 115 106
split_gain=640.894 777.319 853.178 825.325 761.078 700.493 672.863 623.031 885.704 524.57 543.264 414.157 451.559 395.951 326.035 606.998 268.372 255.162 236.833 189.948 167.142 233.474 166.555 151.141 148.808 142.101 139.207 256.088 130.142 215.168 129.465 123.406 114.752 98.7824 98.449 93.5777 77.8043 62.9538 46.7868 44.5815 39.6827 107.871 113.56 35.3309 30.9684 21.5042 13.3371 11.3634 0.515222 0.41755 0.241777
threshold=-1.6587418317794798 -0.84716355800628651 1.0000000180025095e-35 1.0721650719642641 0.8324621617794038 -0.92983481287956227 0.99897029995918285 -1.0567437410354612 -1.62692654132843 0.89811936020851146 1.0923038721084597 -0.94146353006362904 -0.8696637451648711 0.10436501353979112 1.0550423264503481 1.0000000180025095e-35 0.62541446089744579 -0.83371350169181813 -0.81555724143981922 1.1107204556465151 -0.86819386482238758 1.0575801730155947 0.94604662060737621 -0.14731958508491513 -1.0375103950500486 0.91935628652572643 -1.2006456255912779 1.0871522426605227 -1.2181954979896543 1.1350663900375368 0.18748066574335101 -1.2515512108802793 1.2003778815269472 0.55269694328308117 -1.742302358150482 -1.488268196582794 -0.88753527402877797 -1.4950749874114988 0.31941643357276922 -0.98685514926910389 -3.2041757106781001 -1.1877084970474241 -1.6780187487602232 1.0802909731864931 -0.36502417922019953 -1.2896075248718259 -0.90195077657699574 1.0020250082015993 -2.6187288761138912 -1.4700031280517576 -0.83032286167144764
decision_type=2 2 2 2 2 2 2 2 2 2 2 2 2 2 2 2 2 2 2 2 2 2 2 2 2 2 2 2 2 2 2 2 2 2 2 2 2 2 2 2 2 2 2 2 2 2 2 2 2 2 2
left_child=23 3 4 11 32 19 20 13 -9 10 -7 12 16 -6 17 -16 -2 -13 33 22 21 -4 -5 26 -14 -20 27 28 43 -30 -11 -22 37 -8 36 -25 -29 -3 -36 -21 41 42 -28 -1 -34 -43 49 -42 -49 -37 -51
right_child=1 2 6 5 7 9 18 8 -10 30 -12 14 24 -15 15 -17 -18 -19 25 39 31 -23 -24 35 -26 -27 40 34 29 -31 -32 -33 44 -35 38 46 -38 -39 -40 -41 47 45 -44 -45 -46 -47 -48 48 -50 50 -52
leaf_value=0.12977455709655175 0.079311461195212457 -0.01504741359129051 -0.097629111815224975 0.071003890841414716 0.020453407411778906 0.029810335430903435 0.14654216142367643 0.11096190169843707 0.02584234182498631 -0.034202424217135541 -0.025563452851763022 0.041692159095185727 -0.10295082662123263 -0.060291736375982764 0.022752134325583668 0.10295106837977042 0.012328371410769373 0.011796081607582911 -0.13573508480481683 0.13581442996520296 0.1533284821876332 0.031337159623560679 0.025491963248223434 0.15097679094484054 0.023509128686671252 0.03625394552807424 0.10881325886818843 0.044618901103054442 -0.20636371324977396 0.086216101345750959 0.047877222340083292 -0.12927657965489475 0.11593044286024101 0.045832118851159932 -0.11573051140737947 -0.155086553154964 -0.14235649795495528 -0.10754149460803722 0.097235211472338517 -0.074383250380132215 0.059545360429975804 0.11832477252860184 -0.065928915735049609 0.058181421864397932 -0.087217694154437211 0.22478903871729239 0.084761607924686774 0.12840595997013179 0.13527635453269879 -0.13325312602349662 -0.11691261291456537
leaf_weight=486.81347543001175 8160.8854072839022 85.645248651504517 372.66573657095432 3647.376339673996 1114.2084664106369 12199.637079745531 155.99198378622532 1258.0285310596228 43220.585909426212 2341.4585390388966 2072.7790636122227 13256.162476547062 99.645747549831867 1334.9064397886395 1688.5646570697427 2139.4938599169254 645.45318323373795 3638.4746401458979 97.049657389521599 10.955560669302939 15.838927209377287 225.20170266926289 1031.4984650462866 16.491039752960205 1405.8982345424592 95.12654884159565 74.979666322469711 238.03787596523762 34.276383385062218 94.254084572196007 209.35061386227608 632.05854412913322 34.780316203832626 259.27261011302471 86.346358075737953 6.9372207373380652 24.550729319453239 522.59922090172768 11.715466797351835 127.73783618211746 21.440051838755608 304.70905686914921 73.790919587016106 80.300920858979225 9.5684196539223176 20.231800392270088 2.9946316480636588 143.40006923675537 457.02817726135254 32.795265600085258 12.508584201335905
leaf_count=430 13293 281 1437 6052 2921 28356 217 1738 125460 8487 8596 26957 1429 4350 4545 3042 1390 8487 394 25 25 570 2119 12 3774 248 82 396 144 125 509 2629 47 586 311 31 102 6821 15 628 33 322 224 122 47 17 16 130 385 183 104
internal_value=0 0.0304685 0.0214619 0.0389208 0.0240546 0.023931 -0.0451054 0.0255461 0.0282499 0.0143033 0.0217684 0.0493734 0.0657496 -0.0235573 0.0412243 0.0675752 0.074402 0.0352537 0.041186 0.0575517 -0.0871815 -0.0490507 0.0609704 0.0847363 0.0151393 -0.0506011 0.0894962 0.0635931 0.099046 0.00819119 -0.027466 -0.122368 -0.0831947 0.0836633 -0.00479057 -0.0580642 0.0271376 -0.0945177 -0.0902875 -0.0577795 0.11447 0.0926647 0.0221403 0.119637 0.0721004 0.124954 -0.120475 0.131081 0.133636 -0.13224 -0.128741
internal_weight=0 102109 49433.5 52675.4 47580.3 21640.8 1853.21 46927.7 44478.6 16823.2 14272.4 31034.6 10311.9 2449.11 20722.7 3828.06 8806.34 16894.6 607.441 4817.57 1245.76 597.867 4678.87 2223.6 1505.54 192.176 2151.88 1056.3 695.645 128.53 2550.81 647.897 652.593 415.265 360.65 71.7267 262.589 608.244 98.0618 138.693 1095.58 473.711 148.771 567.114 44.3487 324.941 55.2357 621.868 600.428 52.2411 45.3038
internal_count=268644 265460 147771 117689 141665 54772 6106 134469 127198 45948 36952 62917 19886 7271 43031 7587 14683 35444 1445 8824 4661 2007 8171 3184 5203 642 2838 1645 821 269 8996 2654 7196 803 824 346 498 7102 326 653 1193 645 306 552 94 339 334 548 515 318 287
is_linear=0
shrinkage=0.1


Tree=16
num_leaves=54
num_cat=0
split_feature=118 1 122 127 118 128 24 54 77 120 109 59 127 96 49 124 71 76 124 120 111 117 119 70 110 32 120 76 82 51 69 42 111 118 62 33 130 52 33 96 78 119 34 46 110 49 50 66 111 118 73 118 72
split_gain=592.031 789.522 776.926 773.015 781.603 586.147 562.416 450.099 333.13 351.717 289.339 267.414 242.211 237.854 232.594 208.922 208.663 204.84 132.072 105.025 101.269 221.091 96.757 85.0369 80.0298 71.2157 70.6232 68.7381 67.7826 67.5629 82.5912 61.2615 121.987 49.7337 49.505 82.0468 45.4515 37.2901 37.01 36.0869 27.6689 54.1344 32.7889 27.0391 26.2902 25.2597 18.2491 7.36355 7.25124 7.04798 3.66971 0.23799 0.0319155
threshold=-1.583349287509918 -0.092117067426443086 -1.9939852356910703 -2.5109260082244869 -1.344321012496948 1.0000000180025095e-35 1.3249740004539492 1.0402545332908633 -0.49588379263877863 -1.7365934848785398 -1.1246417760848997 0.86103373765945446 -3.4189962148666377 -0.45655608177185053 1.1922610998153689 -1.8606142997741697 -0.22600893676280973 -0.49239894747734064 -2.3203626871109004 -1.7198178768157957 -1.248022675514221 -1.5649436712265012 -1.4496309757232664 -0.069557111710309968 -1.1655945777893064 0.87221938371658336 -1.7254475355148313 -0.53293678164482106 -0.17721566557884214 1.1584278941154482 0.044683935120701797 1.1275228261947634 -1.248022675514221 -1.6229190826416013 0.71362426877021801 0.8467853069305421 1.0000000180025095e-35 1.1197806000709536 0.95318213105201732 -0.42889946699142451 -0.49810089170932764 -1.6423471570014951 0.86246252059936535 1.1744091510772707 -1.1754757761955259 1.1989957690238955 1.1837943792343142 0.45831033587455755 -1.2592921853065489 -1.6012102365493772 -0.48078012466430659 -1.6105723381042478 -0.33371362090110773
decision_type=2 2 2 2 2 2 2 2 2 2 2 2 2 2 2 2 2 2 2 2 2 2 2 2 2 2 2 2 2 2 2 2 2 2 2 2 2 2 2 2 2 2 2 2 2 2 2 2 2 2 2 2 2
left_child=8 13 10 6 15 -6 7 -4 25 12 43 31 24 34 16 -5 36 19 23 -13 21 -14 -8 -16 33 40 -19 -20 -26 39 -31 32 -11 -10 -2 47 -15 -27 -37 -12 49 48 -43 -3 -18 -22 -33 -36 -42 51 -51 -1 -45
right_child=1 2 3 4 5 -7 22 -9 9 11 29 17 20 14 18 -17 44 26 27 -21 45 -23 -24 -25 28 37 -28 -29 -30 30 -32 46 -34 -35 35 38 -38 -39 -40 -41 41 42 -44 52 -46 -47 -48 -49 -50 50 -52 -53 -54
leaf_value=0.12833226524839167 0.19220289111220004 0.082011527050030286 0.042818364327340763 0.068495620939637042 0.030673685224819881 0.00029158199857032811 -0.0047897771717308971 -0.014277739574707446 0.094969840337738254 -0.0016244176175055757 0.22143088894832222 0.1105012621493749 0.086694857544608372 -0.10737468432978151 -0.1253192720360162 0.13567169719085501 0.012745604188428118 -0.033141459623072064 0.065376149252283397 -0.074744198883449756 0.13696489601397208 -0.040677729798943636 -0.11860059722607452 -0.035498332546235099 0.18539560691594378 -0.19083560261012877 -0.11103652859930831 -0.1283182359537913 -0.11502855315248831 -0.17826503878011676 0.16888956503021788 0.1655491026741541 0.15381222173827266 -0.12502325997303326 0.099358263178477207 -0.097819536955523353 0.30175144161561168 0.070804693386130879 0.18104399344579622 0.16129400874436664 0.090483525385657848 0.076850298693221561 -0.17482726611572977 -0.1672555391803289 0.15269497671793772 0.082843008933511403 0.05687466564035696 0.18385837151452744 0.1470869984505779 0.20336736162348101 0.1694894485548766 0.14128820820590396 -0.17426098541822299
leaf_weight=23.54047417640686 29.648612901568413 4.9408504366874686 2013.5081679075956 1559.4792891815305 82892.221686191857 6876.7474888935685 88.689948476850986 4393.067651450634 11.665830269455908 148.14562045037746 154.09561558067799 126.41083431243896 1350.1027305871248 72.540310204029083 595.82826159149408 658.45105937868357 16.078881114721298 309.27408804744482 71.149481937289238 40.382406011223793 401.86736461520195 151.57565527409315 473.52898573875427 128.05610296875238 21.612123139202595 8.9149326235055941 186.63000801950693 24.675834678113461 11.509758681058882 11.848179981112482 16.255424082279205 82.053741127252579 76.594885528087616 86.267717316746712 21.15557873249054 34.947391778230667 2.8210008293390265 14.004732668399809 5.5095114260911933 283.1242231875658 27.001457914710045 11.954756543040277 9.1298357099294645 10.251462712883951 81.266256760805845 109.79526264220476 19.037065967917442 20.121184423565865 139.86250208318233 37.384064882993698 220.94669988751411 35.649689435958862 17.786510333418846
leaf_count=22 37 10 4649 2717 206198 26034 252 12892 16 350 106 149 1749 1343 3397 666 43 921 158 133 335 465 1939 928 38 36 729 108 107 49 19 74 61 614 33 148 3 27 8 231 36 23 38 43 84 178 36 16 110 25 160 28 73
internal_value=0 0.0270562 0.0279897 0.0273625 0.0297952 0.0283463 -0.00474882 0.00366687 0.0679935 0.0556058 0.152542 0.00625666 0.0783549 -0.0570524 -0.0726039 0.0884386 0.0328658 -0.0302134 -0.0948256 0.0656514 0.0869295 0.0738382 -0.100647 -0.10943 -0.0533723 0.141443 -0.0624567 0.0154982 0.0809991 0.172828 0.0225329 0.0804319 0.0513507 -0.0988177 0.0815112 0.0413582 -0.0920599 -0.0309641 -0.0598433 0.182489 0.14926 0.11885 -0.0321286 -0.133689 0.129579 0.125351 0.145084 0.14055 0.137928 0.167261 0.174392 0.136136 -0.1717
internal_weight=0 100558 99454 98955.7 91986.9 89769 6968.79 6406.58 3661.31 3132.93 498.302 988.529 2144.4 1103.8 992.416 2217.93 172.706 662.697 819.71 166.793 2013.34 1501.68 562.219 723.884 131.055 528.389 495.904 95.8253 33.1219 465.323 28.1036 325.831 224.741 97.9335 111.382 81.7337 75.3613 22.9197 40.4569 437.22 505.469 187.949 21.0846 32.9788 97.3451 511.663 101.091 41.2768 166.864 317.521 258.331 59.1902 28.038
internal_count=268644 262184 255878 255347 235615 232232 19732 17541 6460 5955 531 2453 3502 6306 6064 3383 1473 1932 4591 282 2727 2214 2191 4325 775 505 1650 266 145 405 68 521 411 630 242 205 1346 63 156 337 442 207 61 126 127 513 110 49 146 235 185 50 116
is_linear=0
shrinkage=0.1


Tree=17
num_leaves=55
num_cat=0
split_feature=115 76 134 103 118 113 77 30 55 72 71 53 78 76 53 41 120 90 53 92 90 75 36 73 31 126 131 101 113 101 111 32 136 31 77 95 119 77 36 130 30 35 49 28 113 116 124 16 31 114 109 33 95 77
split_gain=560.641 854.877 830.148 641.094 730.994 542.548 669.566 514.554 566.923 699.297 523.826 460.698 403.253 333.294 307.164 347.133 300.003 280.11 285.95 244.361 239.505 222.256 210.872 206.859 154.316 139.218 165.47 147.059 131.736 121.749 114.931 124.233 113.252 85.4744 75.9976 66.5227 102.011 64.1695 110.576 78.2187 60.9649 59.6776 37.6519 33.8249 29.0442 18.0955 46.3837 15.842 14.0919 11.7466 10.0518 18.2459 3.27022 1.39251
threshold=-0.93074512481689442 -1.2035058736801145 1.0000000180025095e-35 -0.85433092713356007 -1.5786783695220945 -0.92286887764930714 -1.257677376270294 1.0725327730178835 0.86344423890113842 -0.77793025970458973 -0.59762379527091969 0.78744640946388256 -0.49810089170932764 -1.1832937002182005 1.0206900835037234 1.0137943625450136 -1.7254475355148313 -1.2048867940902708 1.0484930872917178 -1.1262584328651426 -1.1700326204299925 -1.0655531287193296 0.9542846977710725 -0.93605536222457875 1.0081412792205813 -1.4808097481727598 1.0000000180025095e-35 -0.86313173174858082 -0.91966533660888661 -0.94411388039588917 -0.91433164477348317 0.96421286463737499 1.0000000180025095e-35 0.97838336229324352 -1.2837941050529478 -1.0545614957809446 -0.94233858585357655 -1.275473892688751 0.86928948760032665 1.0000000180025095e-35 1.0640980601310732 0.8662765920162202 1.1795257925987246 1.2210833430290224 -0.93195003271102894 -0.92091482877731312 -1.0710954070091245 1.5482279658317568 1.0026398301124575 -0.92342835664749134 -0.87949493527412403 0.86100667715072643 -1.0587164163589475 -1.2325319051742551
decision_type=2 2 2 2 2 2 2 2 2 2 2 2 2 2 2 2 2 2 2 2 2 2 2 2 2 2 2 2 2 2 2 2 2 2 2 2 2 2 2 2 2 2 2 2 2 2 2 2 2 2 2 2 2 2
left_child=1 20 11 7 12 6 -6 14 9 -9 -10 44 42 -7 21 -16 -14 18 24 35 25 -3 -20 29 -13 26 27 -1 -28 -19 48 33 -25 -32 -33 50 43 38 -27 -39 -38 49 -5 -37 -2 46 -46 -47 -22 -21 52 -52 -4 -51
right_child=2 3 19 4 5 13 -8 8 10 -11 -12 17 16 -15 15 -17 -18 23 22 41 30 -23 -24 32 -26 37 28 -29 -30 -31 31 34 -34 -35 -36 36 40 39 -40 -41 -42 -43 -44 -45 45 47 -48 -49 -50 53 51 -53 -54 -55
leaf_value=-0.2037250952293721 0.043449254360088591 0.076854588596177859 0.15139424307966404 0.026751253104740219 0.069638672797592741 -0.092124839633288935 0.015068936605789843 0.0024952194661542965 -0.04707410730464863 0.071569708882271016 0.018698528881991992 0.03176971567068608 0.064685442456282688 0.070880861754889085 0.019576108469305728 0.070209703934758991 -0.010169918997755802 0.0092176502197238719 -0.025786383375990613 -0.091405652029865392 0.10609765415993436 0.047883212855020736 0.17233555662908479 -0.04202892057552568 -0.022879871747908356 -0.058536277304934242 0.053757671212937765 0.083912250475527639 -0.12744024851073296 0.12618884663995908 0.20840986534816383 0.18562017499809413 0.0071016279413376772 -0.063848587100920534 -0.090081074754652116 0.10828577705601961 0.048847309266547498 0.099537757641817645 0.15229702619126448 -0.15027589004935446 -0.23492927936309696 0.12437219525371486 0.1641506005258444 0.016443495233209867 -0.15989915043966962 -0.10037252055054294 0.019543979090381528 -0.14467722378883949 0.22236202039840025 -0.23833423513504559 0.026617708044748074 0.13477382320035153 0.12434267110136604 -0.18873405924977496
leaf_weight=18.012720808386803 13.403389647603033 4210.8808744996786 282.46188892424107 21.061554044485092 2361.9981353804469 698.17937777936459 46785.789340913296 2244.8075008541346 1396.0471958145499 4222.5245261415839 9128.5648665875196 4494.138464551419 2823.5423632338643 152.90771304816008 5410.6072207391262 1805.9314178973436 660.68158336728811 329.03701532259583 1842.4325391277671 9.2826192975044233 25.504570513963699 7134.4338677749038 55.335590958595276 2293.5038616880774 583.81979116052389 26.24577434360981 90.441176116466522 1344.6689414903522 72.118303835391998 121.96725491061807 12.121372133493422 40.308928959071636 589.84767489880323 236.82067640125751 13.296198874711989 321.3594314455986 15.025927156209947 762.86342164874077 476.68728698790073 12.743031769990919 15.257982656359671 7.4000089317560187 375.94871506094933 45.818041011691093 24.566242709755898 261.36567756347358 34.825842097401619 116.76186536066234 17.632119610905647 17.673297718167305 20.568564087152481 64.542419850826263 53.087051779031754 8.3270937353372592
leaf_count=79 30 6239 212 50 6030 3090 128114 6545 4733 7260 21626 11925 5324 399 12489 3295 1838 1232 8262 29 34 12548 169 8875 2272 72 267 3434 333 254 21 102 1322 1034 64 357 28 1136 553 59 61 9 308 87 112 5276 107 677 22 73 36 56 50 35
internal_value=0 0.0282468 0.00494532 0.0264436 0.019566 0.0163207 0.0176915 0.0368663 0.0242926 0.047594 0.00997405 -0.00261371 0.0613719 -0.062839 0.0483765 0.0322471 0.0504913 0.00171343 0.0131092 0.0994417 0.0794525 0.0586361 -0.0200095 -0.0221274 0.0254866 0.0891354 0.0687338 0.0801101 -0.0266294 0.0408507 0.000916014 -0.0208564 -0.0319783 -0.0505919 0.117235 0.111611 0.0822759 0.113474 0.141295 0.0954334 -0.0941282 -0.133821 0.156862 0.0968253 -0.101551 -0.105993 -0.0546788 -0.114053 0.153621 -0.187973 0.139329 0.108636 0.147114 -0.222449
internal_weight=0 92583.4 11621.8 89433.9 53880.1 49998.9 49147.8 35553.8 16991.9 6467.33 10524.6 10761 3881.23 851.087 18561.9 7216.54 3484.22 10310.1 6975.73 860.804 3149.46 11345.3 1897.77 3334.36 5077.96 2803.78 1525.24 1362.68 162.559 451.004 345.684 302.547 2883.35 248.942 53.6051 818.121 397.461 1278.54 502.933 775.606 30.2839 42.683 397.01 367.177 450.923 437.52 59.3921 378.128 43.1367 35.283 420.66 85.111 335.549 26.0004
internal_count=268644 227098 41546 219888 145153 137633 134144 74735 40164 13805 26359 40513 7520 3489 34571 15784 7162 34311 22628 1033 7210 18787 8431 11683 14197 5933 4113 3513 600 1486 1277 1221 10197 1055 166 887 533 1820 625 1195 89 146 358 444 6202 6172 219 5953 56 137 354 92 262 108
is_linear=0
shrinkage=0.1


Tree=18
num_leaves=62
num_cat=0
split_feature=130 128 131 129 76 33 113 114 124 83 109 81 124 109 109 32 83 76 43 105 50 127 117 114 24 73 51 48 109 109 125 32 108 36 125 53 72 0 2 101 0 105 31 111 85 59 46 56 61 109 77 77 29 114 4 31 48 66 110 53 106
split_gain=500.859 547.427 520.913 477.122 515.416 495.648 493.096 487.597 287.032 248.058 280.029 296.264 236.862 223.775 213.904 211.492 200.376 191.682 190.931 178.492 159.939 155.201 323.098 265.966 136.173 131.197 264.371 248.924 127.723 121.495 98.584 157.701 97.8605 91.2085 186.795 113.398 134.398 111.817 100.709 99.6734 85.5136 80.4973 80.3371 79.5097 78.2733 74.9308 74.9098 86.9354 79.0218 72.566 64.9748 64.2421 62.115 47.8881 37.1969 35.9455 30.6565 28.4017 14.912 11.33 2.15986
