tree
version=v4
num_class=1
num_tree_per_iteration=1
label_index=0
max_feature_idx=136
objective=binary sigmoid:1
feature_names=Column_0 Column_1 Column_2 Column_3 Column_4 Column_5 Column_6 Column_7 Column_8 Column_9 Column_10 Column_11 Column_12 Column_13 Column_14 Column_15 Column_16 Column_17 Column_18 Column_19 Column_20 Column_21 Column_22 Column_23 Column_24 Column_25 Column_26 Column_27 Column_28 Column_29 Column_30 Column_31 Column_32 Column_33 Column_34 Column_35 Column_36 Column_37 Column_38 Column_39 Column_40 Column_41 Column_42 Column_43 Column_44 Column_45 Column_46 Column_47 Column_48 Column_49 Column_50 Column_51 Column_52 Column_53 Column_54 Column_55 Column_56 Column_57 Column_58 Column_59 Column_60 Column_61 Column_62 Column_63 Column_64 Column_65 Column_66 Column_67 Column_68 Column_69 Column_70 Column_71 Column_72 Column_73 Column_74 Column_75 Column_76 Column_77 Column_78 Column_79 Column_80 Column_81 Column_82 Column_83 Column_84 Column_85 Column_86 Column_87 Column_88 Column_89 Column_90 Column_91 Column_92 Column_93 Column_94 Column_95 Column_96 Column_97 Column_98 Column_99 Column_100 Column_101 Column_102 Column_103 Column_104 Column_105 Column_106 Column_107 Column_108 Column_109 Column_110 Column_111 Column_112 Column_113 Column_114 Column_115 Column_116 Column_117 Column_118 Column_119 Column_120 Column_121 Column_122 Column_123 Column_124 Column_125 Column_126 Column_127 Column_128 Column_129 Column_130 Column_131 Column_132 Column_133 Column_134 Column_135 Column_136
feature_infos=[-1.8014661073684692:1.7600680589675903] [-1.7160434722900391:1.7309049367904663] [-1.6382262706756592:1.7044392824172974] [-1.5680137872695923:1.6806706190109253] [-1.5054070949554443:1.6595996618270874] [-1.4504051208496094:1.6412254571914673] [-1.4123568534851074:1.7937201261520386] [-1.3844102621078491:1.9274762868881226] [-1.3517893552780151:1.9831451177597046] [-1.3099035024642944:2.0064544677734375] [-1.2559221982955933:2.0165181159973145] [-1.1870334148406982:2.064321756362915] [-1.1039742231369019:2.1106562614440918] [-1.0067610740661621:2.1771299839019775] [-0.90047705173492432:2.2825961112976074] [-0.78966546058654785:2.3805651664733887] [-0.67814630270004272:2.4481546878814697] [-0.65620064735412598:2.4998569488525391] [-0.66012513637542725:2.5653238296508789] [-0.66667592525482178:2.5221147537231445] [-0.66607785224914551:2.4413206577301025] [-0.67377018928527832:2.3840618133544922] [-0.78228282928466797:2.2409591674804688] [-0.7797551155090332:2.1787192821502686] [-1.0841877460479736:2.1696581840515137] [-1.4308524131774902:2.0883691310882568] [-1.6366665363311768:1.9448176622390747] [-1.8254417181015015:1.7314887046813965] [-1.8748650550842285:1.5598906278610229] [-2.1252865791320801:1.3462176322937012] [-2.4037775993347168:1.1458766460418701] [-2.6881959438323975:1.0691677331924438] [-2.6397361755371094:1.0182701349258423] [-2.0424597263336182:1.0153312683105469] [-1.3594627380371094:1.0222163200378418] [-0.85442560911178589:1.096311092376709] [-0.66409575939178467:1.2162210941314697] [-0.67050886154174805:1.4357191324234009] [-0.67336314916610718:1.5244829654693604] [-0.67729061841964722:1.3697364330291748] [-0.67343896627426147:1.309401273727417] [-0.67713803052902222:1.2273765802383423] [-0.67526406049728394:1.2687077522277832] [-0.67815649509429932:1.5027958154678345] [-0.67593681812286377:1.6759111881256104] [-0.67998087406158447:1.7528411149978638] [-0.67735743522644043:1.7291663885116577] [-0.68056988716125488:1.8940913677215576] [-0.67851173877716064:2.0411467552185059] [-0.68057990074157715:2.1347439289093018] [-0.67868822813034058:2.1180493831634521] [-0.68411111831665039:2.1010029315948486] [-0.6882440447807312:2.2836933135986328] [-0.69760811328887939:2.324758768081665] [-0.68820065259933472:2.0119130611419678] [-0.66555494070053101:1.7058380842208862] [-0.63047897815704346:1.5109990835189819] [-0.61600887775421143:1.3603483438491821] [-0.88048118352890015:1.3460699319839478] [-0.65868782997131348:1.3262704610824585] [-0.62303602695465088:1.3006186485290527] [-0.62908732891082764:1.4134206771850586] [-0.65896600484848022:1.6471337080001831] [-0.67422842979431152:1.5433529615402222] [-0.93073725700378418:1.1429597139358521] [-1.1305865049362183:1.0751444101333618] [-1.2528316974639893:0.99085426330566406] [-1.6713657379150391:0.88485002517700195] [-1.8910553455352783:0.75389385223388672] [-2.0949718952178955:0.60495084524154663] [-1.9126988649368286:0.45876148343086243] [-1.723555326461792:0.33052113652229309] [-1.5550380945205688:0.23037496209144592] [-1.4075071811676025:0.15855956077575684] [-1.4517455101013184:0.30397361516952515] [-1.6804615259170532:0.9557119607925415] [-1.8599822521209717:1.3625956773757935] [-2.0371255874633789:1.0853415727615356] [-2.1728529930114746:0.99276179075241089] [-2.2573421001434326:0.52897804975509644] [-2.3058340549468994:0.2406151294708252] [-2.3315773010253906:0.28676301240921021] [-2.3403120040893555:0.33890664577484131] [-2.3343968391418457:0.39074629545211792] [-2.3124566078186035:0.43792322278022766] [-2.2730567455291748:0.47703936696052551] [-2.2140905857086182:0.50853937864303589] [-2.1362462043762207:0.53271615505218506] [-2.0426793098449707:0.67684948444366455] [-1.9374580383300781:0.56802195310592651] [-1.8240519762039185:0.65060514211654663] [-1.8478662967681885:1.0689502954483032] [-1.6520191431045532:1.4172115325927734] [-1.5958865880966187:1.6290324926376343] [-1.5394163131713867:1.6652539968490601] [-1.4922878742218018:1.6182962656021118] [-1.4547033309936523:1.5607637166976929] [-1.4384253025054932:1.5597559213638306] [-1.4264529943466187:1.5643377304077148] [-1.5819015502929688:1.563044548034668] [-2.0638625621795654:1.5685317516326904] [-2.4619696140289307:1.5680602788925171] [-2.648137092590332:1.5700795650482178] [-2.5047333240509033:1.5662518739700317] [-2.1062953472137451:1.5671930313110352] [-1.4475361108779907:1.5610309839248657] [-1.2213733196258545:1.5632989406585693] [-1.1215335130691528:1.5619508028030396] [-1.168958306312561:1.5693559646606445] [-1.225764274597168:1.5736351013183594] [-1.369315505027771:1.5827798843383789] [-1.6010570526123047:1.5861003398895264] [-2.1418814659118652:1.5904537439346313] [-2.4733853340148926:1.5886306762695312] [-2.5047738552093506:1.5883719921112061] [-2.0072333812713623:1.5865405797958374] [-1.6131480932235718:1.5868538618087769] [-1.6319060325622559:1.611059308052063] [-1.6864286661148071:2.4495923519134521] [-1.7459897994995117:2.6529664993286133] [-1.8207311630249023:2.5047237873077393] [-1.9280952215194702:1.7488086223602295] [-2.15055251121521:1.6308574676513672] [-2.3795907497406006:1.6220458745956421] [-2.6580204963684082:1.8138364553451538] [-2.9761693477630615:2.1645474433898926] [-3.3342947959899902:3.0688047409057617] [-3.8750591278076172:4.2020993232727051] [0:1] [0:1] [0:1] [0:1] [0:1] [0:1] [0:1] [0:1] [0:1]
tree_sizes=5614 5573 5673 6105 5468 6556 6477 6323 6686 5912 6897 6890 6014 6324 6676 6887 5804 6804 6128 6916 6406 6492 6817 5662 5905 6222 6539 6828 5830 6690 6709 5422 6464 5510 5412 5410 6811 5876 6814 6344 4913 6898 6587 6959 5537 6889 4905 6948 5649 6154 4664 5039 6617 6919 5662 5757 5420 6958 5838 6947 5583 6513 6418 5855 6800 6946 5955 5430 5874 6128 5413 6355 5122 6713 5815 6898 5939 5186 6720 6928 6965 6865 6551 5241 5812 5566 6249 6158 5487 6294 5650 5099 5585 6960 5769 6892 5929 5482 6801 6401 6339 6512 5582 6086 6928 5924 6967 6787 6936 6399 5901 6609 6199 6975 6162 6427 6827 6636 6587 6960 5712 6482 5746 6080 5689 6137 5748 4990 6601 6917 6288 5480 3975 5518 6788 6752 5276 6356 6603 5085 6707 6929 6859 6658 6925 6723 6346 5549 6809 6357 6253 5247 5268 5440 6936 6791 4736 6960 6240 6052 6067 6805 6087 4801 6818 5135 6260 5497 6639 6013 6736 6580 5512 5707 4899 6380 6391 5270 4608 6696 6142 6340 6986 5391 5895 6235 6780 6343 6925 6686 6345 6373 5736 6687 6803 6794 5621 6609 5363 6124

Tree=0
num_leaves=52
num_cat=0
split_feature=106 130 131 129 103 118 30 48 136 52 36 127 34 35 89 80 71 31 79 30 32 79 32 97 53 53 75 129 74 31 105 30 100 31 30 104 49 21 24 107 127 55 109 26 33 84 75 82 0 0 3
split_gain=30259.7 16315.4 13878.1 10352.4 6700.6 10219.4 9846.27 3663.14 2956.39 2086.61 1711.81 1303.84 1157.97 1091.35 1478.69 793.406 774.255 743.011 545.142 496.315 460.068 513.641 444.491 384.989 620.937 336.563 327.072 323.225 287.828 248.715 224.159 191.728 191.39 190.783 170.059 132.475 155.673 122.63 116.913 112.284 113.524 99.4438 81.0422 64.1481 37.3459 35.5569 33.9008 21.3363 1.13687e-13 2.84217e-14 2.84217e-14
threshold=-0.83536526560783375 1.0000000180025095e-35 1.0000000180025095e-35 1.0000000180025095e-35 -0.83872509002685536 -1.594921290874481 1.0838912725448611 0.9119950830936433 1.0000000180025095e-35 1.0678024888038637 0.96841955184936535 -2.0401259660720821 0.93737155199050914 0.9430290460586549 -1.1631093025207517 -1.1403785347938535 -0.36199736595153803 1.0135235190391543 -1.3683455586433408 1.0487629175186159 0.96547898650169384 -1.3189911246299741 0.95525842905044567 -0.90458333492279042 1.0238758921623232 1.0172288417816164 -0.9077712595462798 1.0000000180025095e-35 -0.92107439041137684 1.0195868015289309 -0.87290245294570912 1.0773848295211794 -0.75486189126968373 0.99435397982597362 1.0524558424949648 -0.81079337000846852 1.1611932516098025 1.3087866306304934 1.2384483814239504 -0.83601334691047657 -1.5906966924667356 1.0487586259841921 -0.94525590538978566 1.5071750879287722 0.95726889371871959 -1.0020626783370969 -0.86069771647453297 -1.4076741337776182 0.64458125829696666 0.51803070306777965 -0.18809784203767774
decision_type=2 2 2 2 2 2 2 2 2 2 2 2 2 2 2 2 2 2 2 2 2 2 2 2 2 2 2 2 2 2 2 2 2 2 2 2 2 2 2 2 2 2 2 2 2 2 2 2 2 2 2
left_child=1 2 3 4 6 -6 -1 43 9 22 16 -12 15 14 23 -5 -11 20 39 28 21 -4 25 24 -3 -9 -14 -24 -16 -21 -22 37 35 41 -25 44 -37 -19 -35 40 -10 -20 -33 48 -15 -34 -47 -41 49 50 -2
right_child=7 13 17 12 5 -7 -8 8 18 10 11 -13 26 32 19 -17 -18 31 33 29 30 -23 27 34 -26 -27 -28 -29 -30 -31 -32 42 45 38 -36 36 -38 -39 -40 47 -42 -43 -44 -45 -46 46 -48 -49 -50 -51 -52
leaf_value=-1.3855788072684356 -1.950842732080611 -1.5878753307767981 -1.6075219418123343 -1.6981957804967764 -1.2607252191595633 -1.5275747169800034 -1.5550450235880344 -1.5096876834768023 -1.8797841677056026 -1.7337902874867241 -1.7306607231804096 -1.4541689995397498 -1.4301777352705916 -1.3162425147660981 -1.6187529177399012 -1.9171369799841325 -1.8455958872957154 -1.7679306690295324 -1.6868765385536006 -1.8382611759434204 -1.3242755516559637 -1.7056917331404711 -1.5014364969991201 -1.3793874126565773 -1.7415747199169904 -1.6999528342892751 -1.8564922671568949 -1.6927982134399695 -1.7624810771027881 -1.4405471970536594 -1.5827242429168287 -1.7505551274276501 -1.950842732080611 -1.7173181999249465 -1.7055593240096687 -1.8342583386791691 -1.4175208931391552 -1.4911097933002402 -1.3307248500618196 -1.7596268760304481 -1.4489471589879341 -1.2946605085819227 -1.9132200641986559 -1.4367229516958466 -1.1084415352245405 -1.3812286983216182 -1.7705170130259746 -1.950842732080611 -1.950842732080611 -1.950842732080611 -1.950842732080611
leaf_weight=17315.968503601849 140.55061554908752 547.10372402518988 737.15580924600363 1512.4944975972176 1581.2594463229179 15529.670889392495 4274.9332656562328 122.11955930292606 8.8157974183559435 4424.4114150702953 315.80512947589159 370.81233210861683 186.4881956577301 38.498377025127411 186.74873558431864 185.85489698499441 720.20198864489794 99.319306991994381 26.104922376573086 1068.3462063744664 37.99215991795063 1924.1518371999264 571.50863157212734 73.446406804025173 505.89674656838179 389.51075577735901 19.918436296284199 104.38830555975437 548.74361182004213 15.958777315914629 287.59220096468925 37.532302178442478 6.05412279814482 8.0476072803139669 20.431480899453163 10.746514007449148 54.031434081494808 19.076576806604862 279.82308791577816 9.828231632709505 19.970302730798721 8.5920358300209028 166.50544568896294 2.4369336962699881 11.154505312442778 3.2992756739258775 6.9478487223386738 14.363703109323977 436.37167462706566 2.3741658031940451 11.277287565171717
leaf_count=63614 1184 2940 4083 9530 4150 75583 21793 576 69 29201 2076 1576 755 119 1052 1513 5430 684 162 7989 120 12245 2656 266 3372 2460 152 653 3754 66 1533 253 51 52 130 80 213 87 899 67 84 25 1350 10 15 12 48 121 3676 20 95
internal_value=-1.83488 -1.49907 -1.48342 -1.46738 -1.45617 -1.50291 -1.41913 -1.70959 -1.69042 -1.70504 -1.72965 -1.58134 -1.69497 -1.72089 -1.73335 -1.72216 -1.74944 -1.68034 -1.41706 -1.7894 -1.66477 -1.6785 -1.58422 -1.64442 -1.66172 -1.65454 -1.47132 -1.53099 -1.72599 -1.83241 -1.55257 -1.82456 -1.43812 -1.36823 -1.45038 -1.39246 -1.48666 -1.72333 -1.34153 -1.71435 -1.58089 -1.58975 -1.8833 -1.94873 -1.26956 -1.7587 -1.64518 -1.87316 -1.95084 -1.95084 -1.95084
internal_weight=0 47013.3 43915.9 40606.6 38701.8 17110.9 21590.9 7987.31 7394.3 7018.76 5831.23 686.617 1904.76 3097.41 2966.68 1698.35 5144.61 3309.33 375.546 1819.8 2986.89 2661.31 1187.53 1146.88 1053 511.63 206.407 675.897 735.492 1084.3 325.584 322.434 130.732 322.568 93.8779 114.431 64.7779 118.396 287.871 52.978 28.7861 34.697 204.038 593.011 49.6529 16.3012 10.2471 24.1919 590.574 154.202 151.828
internal_count=268644 217552 197445 177090 165140 79733 85407 51092 46107 44628 38283 3652 11950 20107 19569 11043 34631 20355 1479 12861 17981 16328 6345 6708 6312 3036 907 3309 4806 8055 1653 2374 538 1138 396 427 293 771 951 341 153 187 1603 4985 134 111 60 188 4975 1299 1279
is_linear=0
shrinkage=1


Tree=1
num_leaves=51
num_cat=0
split_feature=106 130 131 128 129 30 48 54 36 61 136 135 89 40 31 127 87 110 106 36 53 71 34 31 98 76 100 60 118 101 42 88 110 31 35 75 4 82 25 97 104 76 124 44 118 26 124 24 0 11
split_gain=13805.7 7437.12 5902.89 4597.67 4798.65 3484.45 2568.41 1299.34 1175.07 903.561 841.5 730.18 698.073 874.598 490.275 459.722 420.186 714.117 300.256 298.958 375.492 701.639 294.395 292.149 265.396 353.059 263.216 219.886 215.297 208.005 310.439 193.271 221.984 190.734 223.692 138.898 124.106 178.248 116.126 90.6773 90.1301 87.2567 84.8513 80.8449 68.2125 66.9793 45.2941 0.00335635 1.13687e-13 5.68434e-14
threshold=-0.8338487148284911 1.0000000180025095e-35 1.0000000180025095e-35 1.0000000180025095e-35 1.0000000180025095e-35 1.0915330648422243 0.9119950830936433 1.0255357623100283 0.97591623663902294 0.63812714815139782 1.0000000180025095e-35 1.0000000180025095e-35 -1.1658945083618162 1.0485361218452456 1.0116487145423891 -2.1429632902145381 -1.2470028996467588 -0.90028017759323109 -0.86062780022621144 0.92280906438827526 1.025285601615906 -0.51699125766754139 0.90827378630638134 1.0064373016357424 -0.99216723442077626 -1.1646282672882078 -0.77579548954963673 0.82631623744964611 -0.97553312778472889 -0.78719666600227345 1.1143330335617068 -1.1990314722061155 -0.8794780671596526 0.97897550463676464 0.91197830438613903 -1.0765969157218931 0.56267073750495922 -1.3199991583824155 1.4729335308074953 -1.0086550116538999 -0.83727380633354176 -1.1103518605232237 -1.1315923929214475 1.1777034401893618 -1.1014533042907713 1.6096401214599612 -1.4026842713356016 1.6339744925498965 1.0190449953079226 1.2267326116561892
decision_type=2 2 2 2 2 2 2 2 2 2 2 2 2 2 2 2 2 2 2 2 2 2 2 2 2 2 2 2 2 2 2 2 2 2 2 2 2 2 2 2 2 2 2 2 2 2 2 2 2 2
left_child=1 2 3 4 5 -1 45 26 10 -6 11 -9 19 33 24 43 17 -5 -18 20 21 -3 39 -22 42 -26 31 -17 -12 41 -31 32 -8 35 -35 -14 37 -21 -33 -16 -24 -15 -4 -10 -28 47 -38 48 49 -2
right_child=6 12 14 16 9 -7 7 8 15 -11 28 -13 13 29 22 27 18 -19 -20 36 23 -23 40 -25 25 -27 44 -29 -30 30 -32 38 -34 34 -36 -37 46 -39 -40 -41 -42 -43 -44 -45 -46 -47 -48 -49 -50 -51
leaf_value=0.27167851457105946 -0.11421542468362622 0.11913607070056875 -0.032960956687161549 0.32414061322734672 0.030325568215252154 0.14564573509175019 0.25598370938863496 0.065437430234885061 -0.051066979214856915 0.16353355715762674 0.31375100147828366 0.47107742235161815 0.26995702177137448 0.43934749671685758 -0.079766169832068828 0.36391418583426904 0.1075289712401816 0.099472308251707164 0.0085035413588437549 0.31353530688626663 0.11875147462928187 0.34613375119117701 0.19752588461871534 -0.048779099309631702 0.17848276879212571 0.10829988249504792 0.24976586999375266 0.041943684771101476 0.086375025761504021 -0.01106053724462658 0.22359454542057999 -0.1008900004885081 0.16664666482372736 -0.012560468382854085 0.068027033815009338 0.075364886221783695 0.52347736263084232 -0.01174131907579957 0.43917839080413335 0.02377407501622401 -0.073663630027545571 0.24892597822129661 0.083090457527513817 0.15810012730623388 0.58998374392134412 0.43197371543826374 0.32011583204550176 -0.11800474887371813 -0.11421542468362622 -0.11421542468362622
leaf_weight=45932.721669226885 318.08584796637297 468.13146492093801 87.796005114912987 204.28350979089737 811.12330184876919 2303.6692602187395 335.92667514830828 5125.2703518867493 37.5958132147789 1368.050438515842 182.49372823536396 44.763571746647358 43.635258629918098 38.044763654470444 119.67436607182026 233.72323778271675 829.57409843802452 460.16631745547056 485.33061478286982 61.868543989956379 364.85817335546017 192.02011324465275 112.70591931045055 145.64241719245911 1624.9978009462357 1282.4665295407176 8.4563323780894297 23.32837250828743 53.955893702805042 81.237664513289928 184.24436062574387 35.445263847708702 1616.7967308461666 983.03022357076406 530.22504364699125 230.17053319513798 24.221388876438141 23.150825381278992 4.4851706624031058 288.45229256898165 13.750494271516798 65.482976920902729 223.09754937887192 36.339354991912842 19.442735902965069 2.2544106543064109 19.99224790930748 2.3476338461041442 196.91028683632612 24.082553066313267
leaf_count=145924 2919 2386 602 561 5293 10838 1340 32289 273 7067 459 145 203 97 963 686 3787 2116 2775 204 2095 615 546 1061 8018 7208 34 143 279 543 840 265 7831 7284 3399 1427 30 149 12 1968 97 230 1282 200 31 4 79 19 1807 221
internal_value=0 0.235791 0.244555 0.253232 0.259102 0.265659 0.0981457 0.11287 0.0885841 0.113951 0.0773867 0.0689496 0.0934115 0.0585146 0.123404 0.271488 0.103731 0.168546 0.0709787 0.151294 0.13536 0.185164 0.0347208 0.0709561 0.138135 0.147525 0.181833 0.334694 0.261866 0.198674 0.15179 0.177562 0.182015 0.029573 0.0156763 0.106376 0.295631 0.224962 -0.040227 -0.00658688 0.168038 0.318903 0.0503177 0.0517393 0.486862 -0.111967 0.431523 -0.114232 -0.114215 -0.114215
internal_weight=0 59603.8 56147.9 52394.9 50415.6 48236.4 8301.7 7758.02 5737.47 2179.17 5406.48 5170.03 3455.96 2156.07 3752.94 330.987 1979.35 664.45 1314.9 1299.89 1170.65 660.152 534.583 510.501 3218.36 2907.46 2020.55 257.052 236.45 369.01 265.482 1992.65 1952.72 1787.06 1513.26 273.806 129.233 85.0194 39.9304 408.127 126.456 103.528 310.894 73.9352 27.8991 543.681 44.2136 541.426 539.079 342.168
internal_count=268644 219687 199045 178361 169122 156762 48957 43987 34474 12360 33172 32434 20642 14023 20684 1302 9239 2677 6562 6619 6157 3001 3574 3156 17110 15226 9513 829 738 1710 1383 9448 9171 12313 10683 1630 462 353 277 2931 643 327 1884 473 65 4970 109 4966 4947 3140
is_linear=0
shrinkage=0.1


Tree=2
num_leaves=52
num_cat=0
split_feature=106 130 131 106 30 127 48 133 32 54 37 126 36 33 112 79 35 55 71 30 51 72 30 97 57 31 117 9 107 102 30 77 62 4 109 129 40 74 103 97 88 29 104 30 4 103 26 35 25 22 16
split_gain=8015.65 4519.54 3436.05 2846.5 3296.17 3337.9 1748.72 1568.74 1000.33 728.297 833.603 830.2 616.632 613.521 555.913 528.564 551.068 439.772 594.284 384.09 288.263 506.918 432.871 236.165 282.324 233.614 231.664 231.253 204.054 190.432 181.144 176.507 175.908 291.908 357.296 242.952 148.401 145.913 138.372 129.757 126.888 116.877 110.764 92.472 64.5942 52.6814 48.9565 37.3597 0.0011169 1.02402e-08 1.13687e-13
threshold=-0.8279040753841399 1.0000000180025095e-35 1.0000000180025095e-35 -0.95613393187522877 1.0930870771408083 -1.7609481215476988 0.9119950830936433 1.0000000180025095e-35 0.88794380426406871 1.0230132937431338 0.98581638932228099 -1.8034084439277647 0.97591623663902294 0.89111512899398815 -0.98796477913856495 -1.2734152674674986 0.94204840064048778 1.1098681688308718 -0.36199736595153803 1.088217616081238 1.0561828613281252 -0.69942852854728688 1.0561366081237795 -1.0281071066856382 0.88117247819900524 0.97211176156997692 -0.90155580639839161 0.6272503435611726 -0.80109992623329151 -0.85897919535636891 1.0810020565986636 -1.1953448653221128 0.58803340792655956 0.6075386404991151 -0.82467296719551075 1.0000000180025095e-35 1.05013644695282 -1.0456909537315366 -0.77076229453086842 -1.0612966418266294 -0.26885941624641413 1.0892103910446169 -0.80250826478004444 1.0958778262138369 0.67664006352424633 -0.79647061228752125 1.6096401214599612 0.9583667814731599 1.4440442323684695 1.6862064599990847 1.5132319331169131
decision_type=2 2 2 2 2 2 2 2 2 2 2 2 2 2 2 2 2 2 2 2 2 2 2 2 2 2 2 2 2 2 2 2 2 2 2 2 2 2 2 2 2 2 2 2 2 2 2 2 2 2 2
left_child=1 2 3 7 5 -5 46 13 -9 32 17 12 -12 -1 -6 20 25 18 -11 23 21 26 36 44 -25 27 -3 -17 -13 -24 -23 -27 33 37 -35 41 -22 -8 45 -21 -19 -34 -37 -41 -4 -18 48 -40 49 50 -2
right_child=6 15 19 4 14 -7 9 8 -10 10 11 28 -14 -15 -16 16 38 40 -20 39 22 30 29 24 -26 31 -28 -29 -30 -31 -32 -33 35 34 -36 42 -38 -39 47 43 -42 -43 -44 -45 -46 -47 -48 -49 -50 -51 -52
leaf_value=0.18892298056882817 -0.11268109201050421 0.016375559295260751 -0.097524984204635137 0.16899715624085887 0.15472324885796054 0.22003431041136112 0.34093724541458448 0.11639634209803396 0.28476776396440018 0.055690679224836753 -0.010131241319848109 0.27677373650803944 0.18595456441362074 0.018196274207866365 0.013577807667875886 0.19586815467608629 0.28774250414839847 0.30863212455252509 -0.065786987796846955 0.40481405060138753 0.13614054293903952 0.2996988674522264 -0.073952178440278543 0.13949030130840004 0.085387959036519148 0.065411751583121944 0.2027388531376873 0.023370700282575343 0.093592332632622344 0.061065369800965032 -0.078475754082694985 -0.006217779644136283 0.14572408443140819 0.21051143462969424 0.043898344315599386 0.18250872878838026 0.36580221779880978 0.034011247427096443 -0.049381943018721251 0.022380740790199929 -0.11851431460292156 0.2607810126417982 -0.077198594598230807 -0.099747512409150529 0.037969249384921057 0.18205410982862272 0.30295300971328576 0.20217758377285844 -0.11500803729306862 -0.11267391579481359 -0.11268109201050421
leaf_weight=1240.2935762256384 470.30893366038799 175.2558838352561 57.334089070558548 30288.948282949626 359.50307343900204 22211.599178470671 16.259405627846718 376.1623107790947 5696.5806272029877 3631.6266926079988 381.19209268689156 384.72951883077621 276.84899511188269 253.51013036072254 1246.8197417855263 154.58771604299545 81.662158727645874 78.365297481417656 452.94624443352222 7.173210807144641 700.75844544917345 248.31215215474367 134.88618684560061 2060.5380276814103 1813.3585315570235 485.98079131543636 107.68741870671511 156.29330940544605 72.227405175566673 463.13542972505093 13.346777021884916 1177.6523650214076 127.39252565056086 452.35381879657507 179.89530282467604 26.763443320989609 29.312765970826149 326.9461711794138 26.168357364833355 155.35057314485312 7.6318062692880622 287.62270118296146 42.500861600041389 103.17264325916767 91.075288407504559 111.63922867178917 2.8502522408962241 7.6235684752464286 2.0714306086301795 1.9966106712818135 16.179666012525558
leaf_count=3622 4709 947 419 97609 1466 59343 49 1434 11590 21553 2417 1264 1012 1133 6547 700 150 245 3464 22 3367 620 920 9814 9124 2966 415 917 361 2687 78 8317 527 1598 932 114 68 1738 171 1003 59 897 277 798 536 414 4 26 19 20 162
internal_value=0 0.181975 0.188288 0.194306 0.186272 0.19059 0.0714404 0.251755 0.274338 0.0847336 0.0674655 0.144271 0.0723654 0.159949 0.0451669 0.0797618 0.0465429 0.0469316 0.0422198 0.10173 0.118815 0.180083 0.0936913 0.109422 0.114165 0.0295759 0.0873049 0.109146 0.24782 0.0306116 0.280409 0.0147067 0.14726 0.1228 0.163105 0.196528 0.145362 0.0485519 0.194066 -0.0147181 0.270725 0.225463 0.0231512 -0.0263588 -0.0143754 0.226703 -0.11029 0.00737071 -0.112691 -0.112681 -0.112681
internal_weight=0 70035.7 65961.4 61673.4 54106.9 52500.5 7238.71 7566.55 6072.74 6745.3 5285.57 1115 658.041 1493.8 1606.32 4074.3 2201.61 4170.57 4084.57 4288 1872.7 544.602 1328.09 4022.31 3873.9 1974.51 282.943 310.881 456.957 598.022 261.659 1663.63 1459.73 975.455 632.249 484.28 730.071 343.206 227.093 265.696 85.9971 415.015 69.2643 258.523 148.409 193.301 493.407 33.7919 490.557 488.485 486.489
internal_count=268644 227223 204460 182744 164965 156952 41421 17779 13024 36507 30375 5054 3429 4755 8013 22763 13661 25321 25017 21716 9102 2060 7042 19893 18938 12900 1362 1617 1625 3607 698 11283 6132 4317 2530 1815 3435 1787 761 1823 304 1424 391 1801 955 564 4914 197 4910 4891 4871
is_linear=0
shrinkage=0.1


Tree=3
num_leaves=56
num_cat=0
split_feature=107 130 118 3 105 30 52 30 56 37 126 117 81 111 37 35 89 82 109 136 82 104 35 127 53 73 127 71 114 109 124 27 108 38 37 78 106 110 58 52 30 122 26 25 75 100 40 127 106 136 99 106 106 51 0
split_gain=5406.78 3041.01 2566.37 3493.98 2204.3 2816.07 1717.4 829 720.806 911.296 699.834 474.24 512.401 480.723 412.109 389.603 559.46 329.703 472.594 441.722 375.117 271.133 264.52 261.164 212.557 237.71 203.416 460.702 190.445 170.673 167.776 157.329 229.911 211.585 145.591 129.136 220.805 117.603 445.182 108.569 104.327 94.6102 86.0817 73.1092 55.1516 52.0931 32.6571 10.7469 4.12631 0.101056 0.0646387 0.032221 0.00492095 0.000103587 1.42109e-14
threshold=-0.84464380145072926 1.0000000180025095e-35 -1.6112858057022093 -0.053798226639628403 -0.92460778355598439 1.0915330648422243 0.8910597860813142 1.1107133626937868 0.96524751186370861 0.98035779595375072 -1.7509296536445615 -1.5431708693504331 -0.48459540307521815 -1.2450770139694212 0.99388873577117931 0.9430290460586549 -1.1658945083618162 -1.3723644018173216 -0.85524335503578175 1.0000000180025095e-35 -1.4014009833335874 -0.75518321990966786 0.89021730422973644 -1.8119103312492368 1.0949239730834963 -0.8007245361804961 -3.2294554710388179 -0.21973752975463864 -0.92309612035751332 -0.86673420667648304 -1.5402183532714842 1.2637656927108767 -0.8817714750766753 0.81990915536880504 0.93165937066078197 -1.2383425831794737 -0.83812662959098805 -1.2051330208778379 0.92397144436836254 1.1043419837951662 0.88257983326911937 -1.3263095021247862 0.99892607331275951 1.6777399182319643 -1.0492815971374509 -0.75486189126968373 1.0823543071746828 -3.2037534713745113 -0.83536526560783375 1.0000000180025095e-35 -0.96900013089179982 -0.8279040753841399 -0.83304810523986805 0.83910438418388378 1.06945276260376
decision_type=2 2 2 2 2 2 2 2 2 2 2 2 2 2 2 2 2 2 2 2 2 2 2 2 2 2 2 2 2 2 2 2 2 2 2 2 2 2 2 2 2 2 2 2 2 2 2 2 2 2 2 2 2 2 2
left_child=1 2 26 11 7 -6 43 -5 17 22 14 13 -13 -4 -11 16 31 18 29 28 -20 -12 39 -24 30 -26 27 42 -19 -8 -18 32 -3 -33 -29 41 45 38 -28 -10 -21 -17 -1 48 -43 -37 -38 -39 49 50 -2 52 -50 -53 -51
right_child=6 15 3 4 5 -7 8 -9 9 10 21 12 -14 -15 -16 35 24 19 20 40 -22 -23 23 -25 25 -27 37 34 -30 -31 -32 33 -34 -35 -36 36 46 47 -40 -41 -42 44 -44 -45 -46 -47 -48 -49 51 54 -52 53 -54 -55 -56
leaf_value=-0.14404098258520928 -0.12629504594144869 0.21215537938218176 -0.038867539619631686 0.20240455837464252 0.15019086880853913 0.020273863676926372 0.27536121987508716 -0.053971524054155819 0.43729334360751715 -0.014310969072008095 0.24817557146850824 0.27368237936794521 -0.11022358149910803 0.23910594460736057 0.1284259228216362 0.53939039250685228 -0.052707199577504277 0.052296570232310616 0.12244599549330913 -0.069711392300712979 0.043493030736818997 0.038013892482916437 -0.044066171947070673 0.026759901035280604 0.32270835247255847 0.063011658981455262 0.29073842807320194 -0.033941113268688157 -0.061458830104879951 0.16122913268708261 0.024643852846051972 0.22258604616310992 0.10027257152422492 0.023742254238850458 0.26227987836272687 0.20253940717235813 -0.090642169217945934 0.28916838659665572 0.0065461210176625678 0.12808346907389337 0.26834849616968892 0.41363085368516472 0.19656769730721393 0.14811733958617257 0.18903942997658099 0.031675536547298683 0.22595929386991986 0.32355039609450464 -0.1207359237238298 -0.14090713057897936 -0.14033843072634145 -0.11132961028327291 -0.11570096334109353 -0.11209223354692884 -0.14090713057897936
leaf_weight=38.420536741614342 9.1334393918514234 241.04090668261051 157.47684048116207 9141.4506665542722 58028.957317404449 1717.8355524763465 164.99426993727684 127.88905885070562 13.48920141160488 411.34066879749298 364.42547249794006 36.839719399809837 617.75898326933384 102.84458684176207 397.97479192912579 12.335342496633528 347.45601097494364 701.14494486898184 1912.3756963312626 10.016925305128096 878.07333637773991 73.822109088301659 889.19104659557343 1256.0576552376151 37.904676482081413 502.59376418590546 472.51402767002583 17.308556959033012 186.2706216275692 636.37442028522491 1453.251935325563 63.070157423615456 771.64060997962952 353.15805800259113 400.90600349754095 164.36061533540487 40.518989406526089 105.56088829040527 62.399555444717407 71.780097976326942 102.94823130965233 13.92267821729183 9.1958591341972333 10.799041673541067 50.931749492883682 20.016525737941265 3.5428805053234091 655.11927981674671 3.2045684829354286 11.331716999411581 5.1119894981384268 443.42970058321953 4.9235130771994573 1.7882631570100773 37.497681707143784
leaf_count=181 56 816 621 19545 166394 8766 393 690 34 2622 1247 70 3501 218 1432 19 2561 3513 8140 54 4221 414 6006 7365 108 2752 498 69 1076 2322 9486 211 3435 1787 522 354 279 113 215 314 158 27 17 27 171 104 11 512 23 55 25 4851 42 19 182
internal_value=0 0.149147 0.153924 0.150921 0.153495 0.146456 0.065467 0.198867 0.0768905 0.0425501 0.110993 -0.043216 -0.088618 0.0709508 0.0558788 0.0651241 0.0563212 0.1029 0.11704 0.0521274 0.0976018 0.212774 0.00426866 -0.00259703 0.0262265 0.081224 0.273137 0.216464 0.028419 0.184728 0.00971856 0.10563 0.126903 0.0538726 0.25002 0.173714 0.135928 0.293514 0.257586 0.176999 0.238372 0.285537 -0.0782613 -0.109396 0.237254 0.18399 -0.0651852 0.318779 -0.114781 -0.138745 -0.131335 -0.111447 -0.117686 -0.111333 -0.140907
internal_weight=0 75768.2 71692.5 69931.1 69016.1 59746.8 8597.5 9269.34 8070.28 3478.08 1247.56 914.92 654.599 260.321 809.315 4075.74 3770.12 4592.2 3591.82 1000.38 2790.45 438.248 2230.52 2145.25 2341.21 540.498 1761.42 465.831 887.416 801.369 1800.71 1428.91 1012.68 416.228 418.215 305.629 228.439 1295.59 534.914 85.2693 112.965 77.1898 47.6164 527.22 64.8544 184.377 44.0619 760.68 516.421 63.0748 14.2454 453.346 8.12808 445.218 48.8294
internal_count=268644 224053 201932 199805 195395 175160 44591 20235 39311 19434 5715 4410 3571 839 4054 22121 21156 19877 15076 4801 12361 1661 13719 13371 14907 2860 2127 789 4589 2715 12047 6249 4251 1998 591 965 748 1338 713 348 212 217 198 5280 198 458 290 625 5253 318 81 4935 65 4870 237
is_linear=0
shrinkage=0.1


Tree=4
num_leaves=50
num_cat=0
split_feature=106 119 127 106 30 127 33 122 50 73 9 103 136 31 133 1 52 33 118 110 116 134 127 54 46 115 79 117 79 32 129 125 4 12 120 127 118 13 118 38 105 118 127 109 118 26 106 48 106
split_gain=3921.42 2020.29 2718.62 2110.77 2111.73 2660.17 1501.67 2253.51 1244.74 924.471 647.436 623.376 583.517 505.604 641.581 491.269 491.217 531.377 472.226 462.627 534.259 441.516 433.396 329.436 246.024 190.19 183.608 156.806 141.876 137.207 203.778 141.793 85.1411 73.6231 163.354 49.0375 92.6441 44.2153 125.501 40.7042 37.4598 34.5374 30.3884 10.3063 0.384672 0.0856171 0.0264055 0.0130736 0.00778008
threshold=-0.83536526560783375 -1.6526785492897031 -2.5047713518142696 -0.9497368037700652 1.0782750248908999 -1.665465712547302 0.83529987931251537 -2.0232696533203121 0.97313863039016735 -0.90578907728195179 0.17655578255653384 -0.60014715790748585 1.0000000180025095e-35 0.98003610968589794 1.0000000180025095e-35 -0.13648045808076856 1.0678024888038637 0.94740459322929393 -1.359203517436981 -1.1972241401672361 -1.52214640378952 1.0000000180025095e-35 -2.0401259660720821 1.1582234501838686 1.2228866815567019 -1.4882792234420774 -0.44865942001342768 -1.5374452471733091 -1.3683455586433408 0.95760780572891246 1.0000000180025095e-35 -1.2602669000625608 -0.087610833346843706 0.27429105341434484 -1.7426828145980833 -1.5906966924667356 -0.94244965910911549 0.864422768354416 -0.96826979517936695 0.93560844659805309 -0.94661343097686756 -1.594921290874481 -2.8175882101058956 -0.86368450522422779 -1.594921290874481 1.4639695286750796 -0.8279040753841399 0.89509043097496044 -0.8338487148284911
decision_type=2 2 2 2 2 2 2 2 2 2 2 2 2 2 2 2 2 2 2 2 2 2 2 2 2 2 2 2 2 2 2 2 2 2 2 2 2 2 2 2 2 2 2 2 2 2 2 2 2
left_child=1 11 6 13 5 -5 23 15 40 -6 -9 19 16 18 -15 -8 29 21 -4 20 24 -18 -19 27 -1 -13 -22 -3 35 31 -31 -10 44 34 -21 43 -37 38 -30 -39 -2 -35 -25 -14 -27 46 48 -48 -42
right_child=8 2 3 4 9 -7 7 10 12 -11 -12 25 28 14 -16 -17 17 22 -20 33 26 -23 -24 42 -26 32 -28 -29 37 30 -32 -33 -34 41 -36 36 -38 39 -40 -41 45 -43 -44 -45 -46 -47 47 -49 -50
leaf_value=0.22778594126917262 0.22812236687693291 0.064632902852296947 0.20290833707397807 0.1133917119116854 0.033443157724061277 0.16236142948927157 0.02622033739470131 -0.033504709669471722 0.052558725638246498 0.10008411262240323 0.076467711263966259 0.27467722960558877 0.073011871446358331 0.084794769140256909 0.19518728042353128 0.32813650584555082 0.031621138604661016 0.015246543933672335 0.11073600972720404 0.24617675962028979 0.28364375390957447 0.26950382708349724 0.12865127200027368 0.10478998781795142 0.11897668707083589 -0.14578910215509727 0.015149112339038699 -0.098819805238421987 0.178701729731639 0.15693157235491373 0.0065025707633215735 0.12996869105566486 0.17503675956252363 0.26914679008112924 0.049900598329447626 0.32458492637065417 0.012246337859096122 0.090846954961203916 0.00064349656320093307 0.26379645120704015 -0.12096029152115458 0.34213723570134308 0.29762107728952802 -0.122412904212996 -0.13054022182988809 -0.13180624366376789 -0.1101397606635965 -0.11903158890675472 -0.11402130571072788
leaf_weight=977.62417988479137 3.2948726937174788 64.715710490942001 765.92649820446968 31532.333372622728 2991.6096731722355 17113.754849053919 61.724158227443695 584.14200364053249 607.02170614898205 6843.8586609438062 6407.699771694839 15.953710198402403 3.1449983268976238 572.78088189661503 6511.225098028779 424.89028725028038 5619.0609106495976 459.95144206285477 2026.4475930780172 390.8403434753418 28.715061634778976 79.121335133910179 1260.6054151654243 12.736332044005392 263.8917600363493 46.189473316073418 225.34103514254093 630.55038531124592 439.67238083481789 715.77445968985558 103.01225282251835 387.79274374991655 9.7166881710290891 832.64682030677795 47.562935128808022 12.202612236142157 42.823752403259277 16.246584229171276 43.500828646123409 83.79633142054081 2.2703571170568466 70.300540208816528 22.806900516152382 19.013750292360783 25.774170577526093 1.856947436928748 407.80105495452881 1.6602699309587468 5.6046716645359984
leaf_count=1048 6 217 1260 94705 12162 39440 235 2386 2538 21954 19999 11 14 1743 10758 431 30686 2342 5061 389 22 221 5049 36 564 216 716 3146 830 1936 502 1359 20 657 141 15 183 53 158 99 16 64 27 129 144 12 4879 13 52
internal_value=0 0.125887 0.122766 0.129296 0.122075 0.130619 0.0683917 0.0817617 0.0603521 0.0798142 0.0672799 0.207314 0.0675308 0.172056 0.186261 0.28984 0.0610353 0.0496305 0.136018 0.215864 0.177621 0.0349242 0.0983351 -0.068425 0.204658 -0.041129 0.0454961 -0.0836055 0.158338 0.107688 0.138006 0.0827342 -0.102812 0.258505 0.224883 0.0309297 0.0815103 0.1752 0.162671 0.23571 -0.107742 0.27483 0.228523 -0.0946762 -0.140328 -0.110381 -0.110286 -0.110176 -0.116022
internal_weight=0 79501.8 76567.2 68357.9 58481.6 48646.1 8209.27 7478.46 10315.2 9835.47 6991.84 2934.56 9892.74 9876.38 7084.01 486.614 9232.34 7418.74 2792.37 2836.92 1495.57 5698.18 1720.56 730.809 1241.52 97.634 254.056 695.266 660.401 1813.6 818.787 994.814 81.6803 1341.35 438.403 77.1851 55.0264 583.216 483.173 100.043 422.488 902.947 35.5432 22.1587 71.9636 419.193 417.336 409.461 7.87503
internal_count=268644 217552 213560 187083 168261 134145 26477 23051 51092 34116 22385 3992 46114 18822 12501 666 44633 38298 6321 3601 2350 30907 7391 3426 1612 391 738 3363 1481 6335 2438 3897 380 1251 530 341 198 1140 988 152 4978 721 63 143 360 4972 4960 4892 68
is_linear=0
shrinkage=0.1


Tree=5
num_leaves=60
num_cat=0
split_feature=106 136 129 131 120 127 29 38 134 31 74 105 115 35 82 126 30 127 52 41 102 74 120 109 50 72 115 78 107 80 0 33 112 67 76 54 31 104 69 79 109 110 3 108 30 21 114 52 34 74 51 55 56 56 19 106 75 46 107
split_gain=3139.28 3130.59 1863.34 1597.31 1402.97 2849.27 1718.52 1216.07 1190.51 1942.39 990.936 853.361 837.986 653.188 731.476 648.592 485.951 423.706 363.687 336.765 334.084 305.758 297.26 289.261 273.769 295.098 271.249 487.828 259.912 257.367 366.309 250.898 216.67 191.759 144.511 131.378 113.412 110.788 93.8022 88.6963 108.068 81.0808 77.5798 69.6583 66.3975 49.6515 44.6186 40.9451 40.2305 56.9535 45.183 21.3182 8.22455 48.8217 7.84563 3.60673 3.58726 0.201925 0.151169
threshold=-0.86062780022621144 1.0000000180025095e-35 1.0000000180025095e-35 1.0000000180025095e-35 -1.7313434481620786 -2.4608368873596187 1.2030131816864016 0.92541921138763439 1.0000000180025095e-35 0.99241629242897045 -0.9429655373096465 -0.76602593064308155 -0.88712164759635914 0.9430290460586549 -1.3115184307098386 -1.8578725457191465 1.0692362785339358 -2.0572959184646602 1.2205000519752505 1.0209872722625735 -0.55728617310523976 -0.95821765065193165 -1.7583680748939512 -1.1246576309204099 1.1707596182823183 -0.57385909557342518 -0.96098449826240528 -1.2383425831794737 -0.88512757420539845 -1.1403785347938535 0.32005064189434057 0.89674949645996105 -0.96750158071517933 0.34699018299579626 -1.1863986849784849 1.0442462563514712 1.0121646523475649 -0.84863877296447743 -0.1265948489308357 -1.205715477466583 -0.9127979278564452 -0.9987192153930663 0.59771305322647106 -0.84840056300163258 1.0734164118766787 1.1652652025222781 -1.3226591348648069 1.0588972568511965 0.92358395457267772 -0.83498191833496083 1.1980082392692568 0.95998302102088939 0.98833090066909801 0.9915854036808015 1.221634089946747 -0.83463165163993824 -1.0212149024009702 0.96372222900390636 -0.83400228619575489
decision_type=2 2 2 2 2 2 2 2 2 2 2 2 2 2 2 2 2 2 2 2 2 2 2 2 2 2 2 2 2 2 2 2 2 2 2 2 2 2 2 2 2 2 2 2 2 2 2 2 2 2 2 2 2 2 2 2 2 2 2
left_child=2 8 3 4 20 7 -7 -6 11 24 31 13 16 14 -2 -15 17 35 22 -12 23 -19 -13 -1 25 -10 27 28 -5 30 37 -11 -29 -22 36 -3 -28 54 -26 40 -32 -41 47 -36 -44 -39 -20 -18 52 -50 -51 55 56 -54 -4 58 -31 -57 -14
right_child=1 12 29 26 5 6 -8 -9 9 10 19 18 51 15 -16 -17 42 21 46 -21 33 -23 -24 -25 38 -27 34 32 -30 48 39 -33 -34 -35 43 -37 -38 45 -40 41 -42 -43 44 -45 -46 -47 -48 -49 49 50 -52 -53 53 -55 -56 57 -58 -59 -60
leaf_value=0.16649734444451916 0.054656392365416057 0.24852251166816794 -0.1345454879620582 0.21996385999938287 -0.052322894264391552 0.13213335284805061 0.066310314895474218 0.076008305219998892 0.20691981825975719 -0.020072098527338291 -0.045614917158332241 0.11593942529169904 -0.15285489995207835 0.028001039007425999 0.0023084083852836857 0.13299339380334174 -0.12957799065078543 0.16454646502103853 -0.030376206512898098 0.045017145031045806 -0.11924972855917222 0.12308431483651699 -0.066924790265944042 0.23156951498042916 0.14908728247094455 0.012652775393218766 0.045278536665889137 0.055573604960608182 0.088190102148878693 -0.065503368920261901 0.056114924768866752 0.12130491793918462 -0.043674422177488771 0.20823004811847345 -0.076480503787075244 -0.03951488923679098 -0.043624014284365263 -0.13235088721480937 0.29812458853879875 0.31605490392726909 -0.021135858685645003 -0.069409822700965837 0.087827984055095232 0.13808565570048784 -0.12356812184799018 0.22739677613841258 0.24440983526676702 0.1288560193393844 0.17962071815292918 -0.12753065922028628 0.16657163037163145 0.067367679757675089 0.19902255739300076 -0.11132908579813872 0.03567112247333127 -0.10940632956914267 -0.12457237487971558 -0.1279608201479206 -0.14134639141793431
leaf_weight=1620.069954559207 9812.3084437549114 17.501527830958366 9.9051188230514509 258.59266886115074 814.55558006465435 43718.77020714432 4362.1890339925885 7898.6346569955349 513.51129142940044 134.01335228979588 662.8056803047657 97.297738187015057 16.267231121659279 915.29729881137609 3666.8306325748563 1647.3216104283929 74.028541669249535 3222.0935947299004 6.7239852473139754 1074.8048785924911 54.541959345340729 3970.017292805016 1029.3675466626883 1181.1872663497925 47.47024992108345 92.238078400492668 675.2056721970439 1235.3497745320201 355.39712959527969 11.001977011561392 331.8399450480938 1982.3969042599201 267.61738407611847 26.601729854941368 221.0454899892211 166.31841300427914 182.21685870736837 3.9813703000545493 382.56800307333469 5.6039491891860953 398.61688287556171 208.00969056785107 56.541352272033691 16.242175668478012 20.153949812054634 105.44164738059044 48.763499587774277 6.6841370910406104 12.024047031998633 28.184656888246536 6.4121132194995871 6.0155197381973258 5.771765172481536 41.617346525192261 3.726625755429267 68.694698825478554 156.93423338234425 6.4128815531730643 38.254137635231018
leaf_count=2184 42375 24 52 669 3287 96616 13823 22942 876 431 2579 311 72 4101 17749 5576 308 5777 41 3369 264 9499 8008 1053 116 316 2801 5030 1278 69 1339 4604 1408 27 1268 633 1149 22 424 10 1851 1086 130 52 83 231 87 14 35 169 23 20 19 247 15 883 995 38 186
internal_value=0 0.0746273 0.113907 0.116384 0.120081 0.116627 0.126161 0.0640112 0.0555345 0.0990812 0.0664074 0.0431718 0.129682 0.0492142 0.0404158 0.095493 0.134118 0.137828 -0.0388237 0.0104459 0.188142 0.14166 -0.0511328 0.193936 0.220656 0.177339 0.0476851 0.0685835 0.143689 -0.00326672 0.0185355 0.112353 0.0379016 -0.0118904 0.00727173 -0.0120908 0.0263852 0.180817 0.281673 -0.00261707 0.0139585 -0.0592975 -0.0397416 -0.0617936 0.0322774 0.214307 0.211111 -0.108176 -0.0920854 -0.00786266 -0.0730222 -0.116662 -0.110321 -0.0735298 -0.0880119 -0.125202 -0.120703 -0.110991 -0.14478
internal_weight=0 29782.7 64217.3 62888.2 59676.6 56794.1 48081 8713.19 22113.7 4889.81 3854.02 17223.9 7668.98 16041.8 13479.1 2562.62 7533.34 7375.93 1182.15 1737.61 2882.4 7192.11 1126.67 2801.26 1035.79 605.749 3211.67 2116.96 613.99 1329.07 1067.13 2116.41 1502.97 81.1437 1094.71 183.82 857.423 123.055 430.038 944.07 730.457 213.614 157.408 237.288 76.6953 109.423 55.4875 80.7127 261.946 46.6208 34.5968 135.644 215.325 47.3891 13.6317 129.629 167.936 75.1076 54.5214
internal_count=268644 108630 160014 153851 140196 136668 110439 26229 90963 12715 10983 78248 17667 69801 60124 9677 16468 15933 8447 5948 3528 15276 8319 3237 1732 1192 13655 8385 1947 6163 4606 5035 6438 291 5270 657 3950 320 540 4286 3190 1096 535 1320 213 253 128 322 1557 227 192 1199 1330 266 67 1179 1064 921 258
is_linear=0
shrinkage=0.1


Tree=6
num_leaves=59
num_cat=0
split_feature=128 130 131 129 76 114 110 32 105 125 35 43 106 85 81 37 35 127 77 56 31 114 57 74 121 51 38 116 36 112 101 78 63 53 127 52 58 125 105 57 30 107 102 119 103 29 27 102 48 31 36 126 63 13 45 54 71 94
split_gain=2548.82 2165.8 2244.63 2202.63 1356.93 1496.58 982.048 770.069 457.116 420.112 431.508 400.258 350.669 395.745 345.074 336.765 330.58 274.4 259.291 249.786 247.033 214.899 209.174 194.623 260.288 174.485 173.842 148.518 139.521 139.398 138.436 132.867 116.804 113.619 103.843 96.0277 86.6148 84.599 82.2925 68.6317 64.7884 60.1116 53.7185 50.9781 50.9395 37.5021 60.6961 32.6025 27.7945 20.4632 17.2523 14.8177 8.59732 35.4653 1.23756 0.0909916 0.0621895 0.0269519
threshold=1.0000000180025095e-35 1.0000000180025095e-35 1.0000000180025095e-35 1.0000000180025095e-35 -1.1882079839706419 -0.9352784752845763 -0.8555127978324889 0.96759819984436046 -0.79910901188850392 -1.5237755775451658 0.94631734490394603 1.1105442643165591 -0.79235887527465809 -1.2790217399597166 -1.1412597894668577 0.85519954562187206 0.94204840064048778 -1.9897443056106565 -1.3863886594772337 0.96415525674819957 1.0154492259025576 -0.95404261350631703 0.91515749692916881 -1.0199131965637205 -0.98968607187271107 1.0837181806564333 1.0225749015808108 -0.9818347394466399 0.97591623663902294 -0.94118890166282643 -0.75668999552726735 -1.3017806410789488 0.61831334233284008 1.1018626093864443 -1.9351762533187864 1.1098788380622866 0.92397144436836254 -1.6091020703315733 -0.90853244066238392 0.91119369864463817 1.0948572158813479 -0.87884038686752308 -0.75886127352714527 1.0000000180025095e-35 -0.75830587744712818 1.0922380685806277 1.1759904026985171 -0.86147090792655934 1.1522377729415896 1.007521450519562 0.97286272048950206 -1.6476522684097288 0.56972891092300426 0.78234565258026134 0.81261882185935985 1.0255357623100283 -0.36199736595153803 -0.99758300185203541
decision_type=2 2 2 2 2 2 2 2 2 2 2 2 2 2 2 2 2 2 2 2 2 2 2 2 2 2 2 2 2 2 2 2 2 2 2 2 2 2 2 2 2 2 2 2 2 2 2 2 2 2 2 2 2 2 2 2 2 2
left_child=1 2 3 4 6 -6 -1 14 20 10 27 15 13 23 -5 38 21 28 35 -20 22 -15 -4 24 -3 -25 -9 33 41 39 -18 -31 42 34 -2 -17 -30 -35 40 -19 -11 -12 44 45 -13 51 -47 -22 -44 -40 57 -14 54 -54 -10 -29 -57 -34
right_child=9 12 8 7 5 -7 -8 26 52 11 17 32 43 16 -16 18 30 29 19 -21 47 -23 -24 25 -26 -27 -28 55 36 31 -32 -33 50 37 -36 -37 -38 -39 49 -41 -42 -43 48 -45 -46 46 -48 -49 -50 -51 -52 -53 53 -55 -56 56 -58 -59
leaf_value=0.15248289570645329 -0.077790669755141206 -0.052170399776933232 0.054921960973987764 0.030825446290454042 0.10469995374782069 0.029308481110542173 -0.11032028452821428 0.099450350489631634 -0.10861099275310782 0.041949100192037479 0.035375096538756444 0.246696760598656 -0.025317328689582027 0.0016525215541038749 -0.086548912924685473 0.19360956510705216 0.12759043546390236 0.23998045585898686 0.058620272750237151 -0.017293501895122378 -0.073493905102764559 0.089422947749143084 -0.0040726506175439939 0.12055997655569797 0.075685790127848152 0.060871538569990426 0.20518744505600345 -0.1340739356727722 0.084406895247272462 0.069679603559193781 -0.027351969783904657 -0.13130562201097268 -0.12237722223905048 0.0094011216123876147 -0.015230982910132819 0.53362898653457769 -0.10949118338792262 0.16836959188617448 -0.11315800039128404 0.11713698122544246 -0.13254979163348699 -0.079164396313437871 0.24357946894525861 0.21510259728373696 0.43735990771499966 0.31569012673606855 -0.062392059888805113 0.016473497239806345 -0.12233815124469052 0.024826314536679061 0.10041378646843079 -0.11810869343673586 -0.12456900102811162 0.25141082117202235 -0.12759443989166391 -0.12175601593130643 -0.11704940501324597 -0.13333829685981688
leaf_weight=7077.0390349626541 428.80033959448338 266.92905475199223 4982.6949314400554 4400.5332982540131 62327.685599468648 2749.1569105535746 145.10622823983431 888.64587125182152 149.01258701086044 94.93124432861805 57.680133506655693 86.50642903149128 19.115512788295746 2991.3276152610779 265.59333523362875 62.134616136550903 362.57421298325062 56.64361384510994 2802.5380172133446 512.73837666213512 193.91182518750429 307.64670750498772 683.44844184815884 862.95471298694611 394.61509588360786 1132.4575064703822 188.46490846574306 5.3703171312808982 158.37353394925594 236.42434217780828 68.570096500217915 38.207344532012939 3.9443412125110617 167.97156276553869 696.00390756130219 9.5875833630561811 26.959757044911385 41.809380441904068 163.3675297126174 230.76379498839378 27.423576399683952 222.82165661454201 3.3892264366149885 5.4695768058300009 16.721245482563972 5.4866321831941631 18.779270343482494 50.839478299021721 5.3566824942827225 11.504515543580053 5.1363043785095206 172.59045873582363 9.9669394344091398 3.3528123497962943 44.625814110040665 148.802724391222 34.601892076432705 5.2015938013792029
leaf_count=11634 2096 1373 19160 19740 138697 8656 1262 3059 2044 284 205 231 116 16534 1646 198 971 83 9453 2864 1313 1090 3145 2553 1475 5066 369 29 495 880 379 225 27 696 3177 17 143 136 1288 647 150 1297 11 17 30 6 99 221 38 42 14 1580 65 12 272 1023 282 29
internal_value=0 0.0924429 0.0967714 0.101344 0.106079 0.101515 0.147203 0.0417375 0.0384424 0.0269654 -0.00444036 0.0479926 0.0373187 0.0416079 0.0241446 0.0419929 0.0205997 0.0456265 0.0509491 0.0468795 0.0435572 0.00983758 0.047806 0.0711014 0.0240966 0.086685 0.117951 -0.0382226 -0.0111266 0.0926652 0.102948 0.0417181 0.223069 -0.0264793 -0.0390801 0.239062 0.0562012 0.0410836 -0.0600667 0.141348 0.00283839 -0.0556114 0.25742 -0.0863952 0.277581 -0.0940307 0.0230941 -0.054806 0.0194627 -0.10408 -0.0462472 -0.108856 -0.10764 -0.0299284 -0.112986 -0.121244 -0.120868 -0.128611
internal_weight=0 90768.6 84160.1 78042.2 72299 65076.8 7222.15 5743.24 6117.85 6361.72 2551.23 3810.48 6608.52 6387.08 4666.13 3684.23 3730.12 1027.87 3387 3315.28 5910.89 3298.97 5666.14 2656.96 661.544 1995.41 1077.11 1523.36 465.835 562.039 431.144 274.632 126.256 1334.59 1124.8 71.7222 185.333 209.781 297.227 287.407 122.355 280.502 111.974 221.441 103.228 215.972 24.2659 244.751 8.74591 174.872 14.2822 191.706 206.958 13.3198 193.638 188.775 183.405 9.14594
internal_count=268644 242554 211295 185063 160249 147353 12896 24814 26232 26090 11414 14676 31259 29441 21386 14296 18974 3975 12532 12317 23839 17624 22305 10467 2848 7619 3428 7439 2140 1835 1350 1105 380 6105 5273 215 638 832 1764 730 434 1502 310 1818 261 1801 105 1534 49 1330 70 1696 2393 77 2316 1334 1305 56
is_linear=0
shrinkage=0.1


Tree=7
num_leaves=58
num_cat=0
split_feature=105 119 104 134 114 133 129 32 136 10 122 110 116 71 32 127 105 26 72 124 110 116 50 35 37 127 47 122 98 47 120 12 119 73 100 111 118 121 106 43 123 90 81 121 37 112 19 85 78 77 21 106 109 107 106 116 119
split_gain=2153.64 1807.73 2088.15 1946.5 2024.77 1188.83 1000.28 923.274 916.648 904.405 911.828 618.055 671.923 513.939 646.139 500.769 469.8 448.423 310.067 281.529 259.781 259.154 248.251 218.069 262.324 236.022 209.073 262.509 201.711 182.08 238.245 173.571 266.463 165.145 132.716 127.184 123.782 96.6932 177.666 89.9964 53.9378 53.889 50.1332 50.0228 59.6103 43.8805 24.521 21.0161 16.5492 13.0774 12.1887 6.94437 5.64788 0.653565 0.0760381 0.0532966 0.0478298
threshold=-0.78566941618919361 -1.6380652785301206 -0.85716381669044484 1.0000000180025095e-35 -0.93189772963523854 1.0000000180025095e-35 1.0000000180025095e-35 0.92046311497688305 1.0000000180025095e-35 0.21849011629819873 -1.994243264198303 -1.1972241401672361 -1.52214640378952 -0.17692961543798444 0.82582536339759838 -3.4923686981201167 -0.86572450399398793 1.4061980843544009 -0.30659177899360651 -1.2221326828002927 -0.97187519073486317 -1.4205440878868101 1.2389792799949648 0.95022037625312816 0.92677143216133129 -2.0242166519165035 1.2245656847953799 -2.0122780799865718 -0.92277109622955311 1.2223817706108095 -1.7426828145980833 0.2901096791028977 -1.6589629054069517 -0.37973298132419581 -0.97277539968490589 -1.2450770139694212 -1.6228187680244444 -1.8214399814605711 -0.91180121898651112 1.0757678747177126 -2.2458164691925044 -0.22302219271659848 -0.20713379234075543 -1.8761308193206785 0.94441622495651256 -1.2865374684333799 0.96457901597023021 -1.4538767933845518 -0.36874136328697199 -0.51008474826812733 1.6700718998908999 -0.84066820144653309 -1.0993076562881468 -0.92949360609054554 -0.8322528302669524 -1.4952485561370847 -1.6669513583183286
decision_type=2 2 2 2 2 2 2 2 2 2 2 2 2 2 2 2 2 2 2 2 2 2 2 2 2 2 2 2 2 2 2 2 2 2 2 2 2 2 2 2 2 2 2 2 2 2 2 2 2 2 2 2 2 2 2 2 2
left_child=1 11 3 4 6 9 -3 21 -6 18 -11 12 29 14 22 42 -9 20 -4 23 -5 -7 36 24 -16 -25 27 -14 47 40 -31 32 48 -28 -19 -34 -2 38 -33 -30 -1 46 -15 45 51 52 -24 -21 -13 -39 -38 -45 -17 56 -43 -55 -44
right_child=13 2 5 17 8 7 -8 16 -10 10 -12 31 26 15 19 43 -18 34 -20 28 -22 -23 41 25 -26 -27 33 -29 39 30 -32 37 35 -35 -36 -37 50 49 -40 -41 -42 54 53 44 -46 -47 -48 -49 -50 -51 -52 -53 -54 55 -56 -57 -58
leaf_value=0.045776180119347892 0.12288837110688022 0.098116294168212159 -0.10562272465917069 0.067933692087755529 0.00077352996370738236 0.20109464772457422 -0.008927956816922036 0.097897465680349793 0.096738060995658612 0.22647742705134757 0.066547498233513441 0.18170627104764492 -0.12405867497746022 0.29481488677223511 0.15390196264955402 0.19277878436126714 -0.029682431628526962 0.21393047255022998 0.13368642944129003 0.020733681303714904 0.18590984653321704 -0.080210357276467109 0.18374259561859776 -0.025295124784901524 -0.02313230068193171 0.098724175789588128 -0.11135813944296447 0.096360388897968385 0.16353824103454806 0.12044129797886492 -0.099865047585432729 -0.081169738775331179 -0.090402547719644302 0.13008490800541969 -0.15807351621242352 0.10748501429431018 -0.11787563884654612 0.27321809925051216 0.19906524043066495 0.38220249674142642 0.17399476798320576 -0.13879828465064856 -0.14857294627459702 -0.14404559840752804 0.21133929205947061 0.34364880089924382 0.016890813442132332 -0.13208386893724242 0.10442579113388062 0.1998073729886638 0.076202544890122528 0.020167638146237704 0.23381104281573034 -0.12593670646603172 -0.11963497800255558 -0.11761631803635603 -0.13529746317441513
leaf_weight=34.043165877461433 22.244904801249504 35624.967709489167 397.72299137711525 200.73593401908875 3584.9558621644974 33.761041596531868 894.89348014444113 815.64479680359364 1377.9500344321132 359.37613593041897 44467.247538469732 420.37100523710251 65.055702716112137 2.9890519082546225 88.301757097244263 108.52215021848679 446.71530385315418 11.742541000247 62.674258798360825 16.448519498109818 2659.0699358135462 1092.9684406220913 38.372749865055084 240.86381556838751 1605.918093457818 422.84310362488031 159.28541579842567 318.8475829064846 96.798949062824249 338.22992789745331 57.420793265104294 23.08025686442852 61.417175263166428 34.457706332206726 52.320910349488258 68.929093033075333 660.44031271338463 202.70003770291805 1143.2921926677227 23.365485340356827 904.91384963691235 4.3671855181455612 8.7334292083978635 7.8512881994247437 14.941824376583098 26.917397856712341 11.432075172662733 19.870886817574501 29.665571123361588 27.566438764333725 3.251903995871543 3.8322034403681773 48.554258346557617 9.3967422842979413 3.9373492375016195 42.601014718413353 3.9375151842832556
leaf_count=68 34 76587 1744 458 13802 51 4269 1839 3146 424 132525 329 257 9 212 84 1497 14 128 83 3017 4410 66 1259 9064 1190 648 682 285 503 199 84 252 63 229 139 6087 143 983 43 823 22 40 40 19 27 41 112 46 35 31 16 32 58 31 344 21
internal_value=0 0.0801245 0.0773039 0.0929073 0.0873489 0.0627706 0.0954933 -0.00598063 0.0274181 0.0663975 0.0678297 0.146905 0.106372 0.000665366 -0.0104747 0.131109 0.0527504 0.171767 -0.0730454 0.0137489 0.177629 -0.0717814 -0.0923353 0.00512882 -0.0139054 0.0537167 0.0162699 0.0590085 0.143638 0.145369 0.0884682 0.18611 0.140146 -0.0684169 -0.0898869 0.0142434 -0.109148 0.205211 0.19352 0.206057 0.169346 0.106121 -0.105576 0.20714 0.0790277 0.225678 0.145444 -0.0628751 0.176612 0.26443 -0.116925 -0.0901834 0.205462 -0.124083 -0.129713 -0.11912 -0.144448
internal_weight=0 95972 92082.7 44406.6 41482.8 47676.1 36519.9 2389.09 4962.91 45287 44826.6 3889.28 1912.25 3536.73 3258.46 278.277 1262.36 2923.87 460.397 2514.41 2859.81 1126.73 744.046 2357.93 1694.22 663.707 577.646 383.903 156.484 1334.61 395.651 1977.02 580.383 193.743 64.0635 130.346 685.937 1396.64 1166.37 120.164 938.957 58.1094 67.6578 210.619 26.6253 183.994 49.8048 36.3194 450.037 230.266 663.692 11.6835 157.076 64.6687 8.30453 51.9978 12.6709
internal_count=268644 249394 244140 101522 97804 142618 80856 7797 16948 134821 132949 5254 3243 19250 18560 690 3336 3718 1872 12248 3475 4461 6312 11725 9276 2449 1650 939 523 1593 702 2011 766 711 243 391 6152 1245 1067 328 891 160 472 218 75 143 107 195 375 178 6118 56 116 463 53 402 61
is_linear=0
shrinkage=0.1


Tree=8
num_leaves=61
num_cat=0
split_feature=128 130 131 129 76 118 93 33 83 109 81 109 80 105 109 83 124 106 79 108 41 79 115 125 52 31 71 109 84 111 109 78 117 80 84 109 13 74 112 112 112 76 81 83 84 91 25 25 53 63 96 31 33 56 4 22 77 36 116 45
split_gain=1827.64 1603.17 1633.8 1477.93 999.104 956.4 756.507 560.989 343.951 356.63 462.116 516.23 332.202 325.602 297.512 327.399 264.397 247.667 315.336 242.542 232.751 204.111 213.303 202.786 200.888 386.44 307.421 190.221 232.335 161.528 157.187 149.841 142.282 135.746 124.271 164.494 107.863 106.134 99.2362 96.0137 75.0787 70.0289 60.2808 58.4698 54.841 44.0126 42.8117 40.2382 26.7008 30.4174 24.1498 23.0677 21.6503 21.3107 16.0604 11.8709 9.82774 8.07427 39.2877 1.22181
threshold=1.0000000180025095e-35 1.0000000180025095e-35 1.0000000180025095e-35 1.0000000180025095e-35 -1.1882079839706419 -1.6019805669784544 -1.1471007466316221 0.94618353247642528 -1.3247168660163877 -0.8794005513191222 -1.3650860190391538 -0.86141151189804066 -1.3803280591964719 -0.79910901188850392 -0.89221003651618946 -1.280930161476135 -1.4648366570472715 -0.79235887527465809 -1.2734152674674986 -0.88366463780403126 1.0747984647750857 -1.3818374872207639 -0.96274432539939869 -1.6329585909843443 1.0413481593132021 1.0062708258628847 -0.53607270121574391 -0.91732242703437794 -1.2382268905639646 -0.83344417810440052 -0.87484210729598988 -1.3121033310890196 -1.0616363286972044 -1.369151711463928 -1.3296315073966978 -0.88796013593673695 0.75996148586273204 -0.92894327640533436 -0.93657222390174855 -0.95216605067253102 -0.97563108801841725 -1.1401504874229429 -1.2742891311645506 -1.3005635738372801 -1.2935791015624998 -1.1759004592895506 1.27544242143631 1.5936556458473208 1.0433722734451296 0.55462345480918895 -0.61820584535598744 0.99759662151336681 0.8858262598514558 0.89466387033462536 0.42019021511077886 1.3823348283767702 -1.2655318975448606 0.94390642642974865 -0.92945587635040272 0.81261882185935985
decision_type=2 2 2 2 2 2 2 2 2 2 2 2 2 2 2 2 2 2 2 2 2 2 2 2 2 2 2 2 2 2 2 2 2 2 2 2 2 2 2 2 2 2 2 2 2 2 2 2 2 2 2 2 2 2 2 2 2 2 2 2
left_child=1 2 3 4 6 -6 -1 16 9 34 11 33 -13 21 15 19 -5 18 24 43 37 29 -23 -9 26 -26 -3 28 -17 -4 31 -12 -21 -11 48 53 -22 -20 -37 41 -32 44 -29 -10 -16 55 50 -43 56 -50 51 -19 -48 -36 -47 -41 -2 59 -59 -15
right_child=8 17 13 7 5 -7 -8 23 14 10 30 12 -14 57 39 27 -18 46 20 32 36 22 -24 -25 25 -27 -28 42 -30 -31 40 -33 -34 -35 35 38 -38 -39 -40 45 -42 47 -44 -45 -46 54 52 -49 49 -51 -52 -53 -54 -55 -56 -57 -58 58 -60 -61
leaf_value=-0.092579939855531368 0.2631723509519136 0.020594599605658081 0.1143300430208246 -0.027482582116844612 0.13737880684905984 0.076780911344628347 0.12235249001605081 0.059393020072650363 0.18335986874347054 0.17205658344850272 0.16390048125798193 0.037477196396166972 -0.064359663410239368 -0.10694572619632513 0.14493943257535188 0.12088205419016199 0.028192634458029383 -0.11000800817512651 0.0094466376569415835 0.11382790774447267 0.044791861865307377 0.043188538865819047 0.0045189568964142633 0.13937374091543361 0.048444881806283716 -0.062713073633187885 0.1446931342150185 -0.038842584960858489 -0.016889694778005265 -0.059990153963275762 0.082272742371610461 -0.027195629726866868 -0.035217960269327324 0.078302271357432646 0.016788268257967785 0.080663051825398249 0.19423509071747613 -0.034198383869830186 -0.054018728348416159 0.12129404640536022 -0.092392742068347411 -0.091102266575138632 -0.11997795087010935 0.093020582455016404 -0.072175582525963441 0.12811567184627501 -0.012736688537593599 0.19361995544605481 0.077582368054543757 0.19963257884871122 0.12920897041873489 0.012903168028113013 0.2860427469487104 0.16722545407272685 -0.12661495716187776 -0.05448336263029864 0.19373845725955763 -0.12131768063216219 0.28510887314307881 -0.12662485596762038
leaf_weight=167.48145374655724 34.733808740973473 349.44458817690611 427.93224327266216 1134.9189153909683 2712.9314949661493 65164.804716095328 7370.6826469600201 940.65020159631968 126.48409166932106 291.52157139778137 54.389067009091377 1737.9599837400019 392.7057319432497 123.58903897926211 35.892266251146793 138.95890401303768 3433.4118820354342 172.17772874981165 1158.4859623238444 88.606827102601528 576.78559716790915 3092.3180551975965 2647.9113880321383 478.14400079846382 2712.395112849772 353.51448999345303 465.57628352195024 168.79982674866915 1027.4238156825304 60.695248164236546 26.069540470838547 167.08683557063341 231.0906924828887 328.41110570728779 10.059220328927038 130.79273328185081 52.710617765784264 1073.4143845513463 94.045799404382706 9.1007519811391813 439.4082068502903 76.964552849531174 200.14795522391796 165.23962177336216 17.21333172917366 2.4961389899253836 5.4358351752161962 5.3057617247104636 38.559872359037399 43.404470190405846 4.7491873651742926 16.755324199795723 4.3790935426950455 147.36982873082161 293.65112364664674 6.6488951146602622 49.345497086644173 10.918212674558161 3.0408686995506278 42.363814502954483
leaf_count=1331 34 1350 1221 5568 3185 144168 11565 3218 173 701 118 7848 2028 2044 85 328 14638 1681 5758 258 2180 11258 10998 1390 11068 1810 907 710 3810 362 65 697 971 1071 26 425 112 6256 376 20 2314 400 1036 401 77 12 39 7 108 88 15 77 6 253 1559 27 64 77 8 264
internal_value=0 0.0717566 0.0754148 0.0792421 0.0830386 0.0792029 0.117577 0.03142 0.0172543 0.0356988 0.0237524 0.0420756 0.0187075 0.0268014 -0.0110865 0.00437171 0.0143611 0.0255081 0.0287886 0.0662558 0.00360255 0.0306321 0.0253506 0.0863471 0.0473582 0.0356278 0.0914852 -0.0202726 -0.000476033 0.0926767 -0.0496146 0.0197329 0.00609134 0.12239 0.110595 0.0792188 0.0573054 -0.0115441 0.0243282 -0.0852807 -0.0826104 -0.0149548 -0.0828572 0.132189 0.0745651 -0.115805 -0.0831841 -0.07274 0.182829 0.142214 -0.0935093 -0.0991078 0.120569 0.157613 -0.124468 0.0470876 0.222422 -0.105825 -0.0327811 -0.111969
internal_weight=0 94757.6 87811.8 81403 75415.9 67877.7 7538.16 5987.12 6579.89 3985.86 3437.55 2750.6 2130.67 6408.77 2594.02 2146.75 4568.33 6945.82 6742.33 611.421 2861.4 6228.86 5740.23 1418.79 3880.93 3065.91 815.021 1535.33 1166.38 488.627 686.954 221.476 319.698 619.933 548.311 382.268 629.496 2231.9 224.839 447.273 465.478 135.376 368.948 291.724 53.1056 311.897 203.497 82.2703 166.044 81.9643 193.682 188.933 9.81493 157.429 296.147 15.7496 84.0793 179.912 13.9591 165.953
internal_count=268644 242554 211295 185063 160249 147353 12896 24814 26090 16216 14842 11648 9876 26232 9874 7687 20206 31259 29441 1803 14306 23839 22256 4608 15135 12878 2257 5884 4138 1583 3194 815 1229 1772 1374 1080 2292 12014 801 2187 2379 569 1746 574 162 1618 1818 407 294 196 1773 1758 45 279 1571 47 98 2393 85 2308
is_linear=0
shrinkage=0.1


Tree=9
num_leaves=54
num_cat=0
split_feature=105 119 104 30 105 133 108 30 134 34 96 128 69 30 110 116 105 71 93 127 99 0 124 60 52 47 122 46 120 74 98 12 119 111 116 103 111 52 121 37 81 99 111 127 89 120 127 114 109 1 107 116 114
split_gain=1513.53 1351.38 1568.94 1640.8 1490.21 1049.61 852.835 830.131 743.108 739.916 715.563 686.596 601.435 532.901 454.882 452.337 421.866 364.918 564.338 391.008 278.101 209.686 301.224 204.064 177.743 164.085 202.628 163.549 179.007 148.534 109.231 95.513 140.595 106.428 63.7406 50.7758 39.9943 78.3145 38.3144 46.0262 36.5265 20.0404 19.1122 16.2673 12.0743 8.29164 7.25972 6.1934 3.52516 1.56244 0.615698 0.0559215 0.0306431
threshold=-0.78566941618919361 -1.6427612304687498 -0.85515159368515004 1.0734164118766787 -0.93612244725227345 1.0000000180025095e-35 -1.0567152500152586 1.0958778262138369 1.0000000180025095e-35 0.90944257378578197 -1.0499344468116758 1.0000000180025095e-35 -0.018107871524989601 1.1062006354331972 -1.1972241401672361 -1.52214640378952 -0.86825251579284657 -0.17692961543798444 -0.25567160546779627 -3.4923686981201167 -0.89510318636894215 0.46478432416915899 -1.2102456688880918 0.81142857670784008 1.1840156912803652 1.2245656847953799 -2.0122780799865718 1.2204968333244326 -1.7426828145980833 -0.43353047966957087 -0.92277109622955311 0.2901096791028977 -1.6589629054069517 -1.2450770139694212 -1.5330569744110105 -0.66072404384613026 -1.2450770139694212 1.1468615531921389 -1.8761308193206785 0.94441622495651256 -0.20713379234075543 -0.85522872209548939 -1.2287999987602232 -3.2294554710388179 -0.26204539835453028 -1.7201251983642576 -3.304487824440002 -1.394625663757324 -1.1079465746879575 0.62048837542533886 -0.92949360609054554 -1.4952485561370847 -1.4027058482170103
decision_type=2 2 2 2 2 2 2 2 2 2 2 2 2 2 2 2 2 2 2 2 2 2 2 2 2 2 2 2 2 2 2 2 2 2 2 2 2 2 2 2 2 2 2 2 2 2 2 2 2 2 2 2 2
left_child=1 14 3 8 13 6 12 -6 10 16 -3 -8 -4 -5 15 27 -7 18 21 40 -10 22 24 -11 -2 26 -17 35 -29 -27 -24 32 43 -34 -20 -1 37 -33 42 47 -19 49 48 -16 -36 -38 -46 -40 -21 -23 52 -52 -42
right_child=17 2 5 4 7 9 11 -9 20 23 -12 -13 -14 -15 31 25 -18 19 34 38 -22 41 30 -25 -26 29 -28 28 -30 -31 -32 36 33 -35 44 -37 45 -39 39 -41 50 -43 -44 -45 46 -47 -48 -49 -50 -51 51 -53 -54
leaf_value=0.14619035660163357 -0.0048803051912078357 -0.082941432140708121 0.025836431238219056 0.11735419485733985 0.044735432732932123 -0.010583486223664867 0.058169446522317772 -0.037530525045960432 0.16155974878847534 0.11110773816836393 0.086015711637734901 0.015038656255203557 -0.088624562977398291 -0.024878522722495959 0.11752314676903404 -0.12004684675042382 -0.11169497503749293 0.1982974488475423 0.08812936188747432 0.13985281050965687 0.079632901221863575 -0.13565794687398122 -0.032014589753453247 -0.062209578570185844 0.098764574589110643 -0.13916635104058275 0.085474037942222192 0.091410982610029445 -0.10265672533373163 0.058148877800822597 0.19635444247245815 0.10063096663010535 -0.089207627399976758 0.10932780839879108 0.097177313957099165 0.046913787954651398 0.1914116616712313 0.17815463485585234 -0.14438118072716072 0.17258252314776459 -0.14671990212465377 0.25401596716835761 0.24592346582944047 0.16127953307138912 -0.12962145965543151 0.23468815843868707 -0.094662892943452703 0.0078592146901458344 0.17816406488119002 -0.10648266678614787 -0.12549815915681214 -0.11692027286020895 -0.13617265065462622
leaf_weight=894.32385212182999 2318.6084275394678 253.21705242618918 1427.7600029706955 3593.6607634499669 14295.210621938109 1054.0983264446259 40054.661512888968 1341.7390176132321 1826.5308272242546 449.45952874422073 24875.794181633741 4065.4620281308889 676.615723349154 284.25562632828951 115.2840576171875 58.59689325094223 678.0892288684845 3.7382857501506797 14.807127729058264 30.463638931512833 535.89851835370064 21.152616336941719 25.716495983302593 80.02934455871582 178.17627833038568 113.61735419929028 264.56799975037575 316.85814853012562 55.917269140481949 57.437654107809067 112.87498949468136 173.26994723081589 47.644116550683975 62.317845731973648 2.4816798567771903 54.667706206440926 478.27346542477608 525.55796054005623 7.4733670949935913 15.67900477349758 8.4142034053802472 1.5239508002996434 43.160913750529289 323.04770401120186 370.61494274437428 48.789043664932251 70.742465302348137 4.1594816222786921 113.50199222564697 138.82842655852437 9.3096034079790098 41.38798338919878 4.0952299088239661
leaf_count=820 11658 1737 3930 5797 37769 3364 110532 6034 1849 877 49450 15679 2590 1024 137 229 2862 9 24 30 1016 114 148 286 454 485 504 477 192 130 243 259 189 104 8 100 333 369 38 19 39 2 35 238 2263 32 1202 18 78 2444 58 344 22
internal_value=0 0.0628594 0.060595 0.0736131 0.051438 0.0479742 0.0512287 0.0376765 0.0893542 -0.0185417 0.0843132 0.0541951 -0.010966 0.106928 0.12309 0.0879069 -0.050165 -0.00371378 -0.0131571 0.105543 0.142975 0.00370304 0.0104813 0.0849118 0.00251603 0.00628778 0.0482086 0.118425 0.0623003 -0.0729109 0.153979 0.159102 0.124408 0.0233067 -0.115972 0.140471 0.174619 0.158933 0.171407 0.0607648 -0.105434 -0.106902 0.187556 0.149771 -0.122781 0.195418 -0.124018 -0.0899456 0.170057 -0.11034 -0.123398 -0.118495 -0.143267
internal_weight=0 99082.7 95492.5 47006.3 19514.9 48486.2 46224.5 15636.9 27491.4 2261.68 25129 44120.1 2104.38 3877.92 3590.17 1815.99 1732.19 3536.91 3255.53 281.384 2362.43 2796.88 2635.38 529.489 2496.78 494.22 323.165 1321.77 372.775 171.055 138.591 1774.18 548.294 109.962 458.646 948.992 1225.89 698.828 214.438 27.3119 66.9453 161.505 187.127 438.332 443.839 527.063 441.357 11.6328 143.966 159.981 63.207 50.6976 12.5094
internal_count=268644 249394 244796 104676 50624 140120 132731 43803 54052 7389 51187 126211 6520 6821 4598 2937 6226 19250 18560 690 2865 15063 12503 1163 12112 1348 733 1589 669 615 391 1661 668 293 3497 920 993 628 218 75 472 2560 143 375 3473 365 3465 56 108 2558 463 402 61
is_linear=0
shrinkage=0.1


Tree=10
num_leaves=63
num_cat=0
split_feature=106 136 119 127 30 105 74 118 29 38 8 122 131 50 134 78 111 112 2 77 77 30 30 112 110 117 127 47 32 122 133 118 135 74 91 76 34 120 83 24 36 126 70 105 72 69 12 120 31 100 123 52 111 69 80 107 64 40 48 106 47 74
split_gain=1291.39 1361.57 934.364 1716.87 1121.29 1127.94 981.593 839.702 724.023 635.756 641.533 930.057 617.751 566.105 868.014 590.59 694.41 575.955 515.342 508.663 473.636 397.81 390.691 376.276 366.353 411.77 287.129 270.424 256.121 251.68 239.344 227.413 221.372 209.898 173.153 164.097 161.018 157.621 134.567 111.036 109.078 104.474 97.8843 85.4703 112.456 84.4301 62.0308 185.736 59.5079 47.9398 87.3379 55.9961 47.3692 29.8406 23.3435 41.9077 17.9998 15.0116 5.56455 1.12843 0.341692 0.0773426
threshold=-0.86062780022621144 1.0000000180025095e-35 -1.6427612304687498 -2.4608368873596187 1.0757517814636233 -0.93282058835029591 -0.9805951416492461 -1.3512064814567564 1.2301676869392397 0.91512519121170055 0.13255391269922259 -2.0031113624572749 1.0000000180025095e-35 1.1582579612731936 1.0000000180025095e-35 -1.2664586901664732 -0.92765554785728443 -0.95412203669548024 -0.16079793870449063 -1.2413744330406187 -1.2090211510658262 1.1107133626937868 1.0683099031448366 -0.8643905222415923 -1.1972241401672361 -1.5769177079200742 -2.0572959184646602 1.2245656847953799 0.96195033192634594 -2.0352913141250606 1.0000000180025095e-35 -1.6019805669784544 1.0000000180025095e-35 -0.41282014548778528 -0.23251063376665113 -1.1684382557868955 0.91841024160385143 -1.7583680748939512 -1.1651747822761533 1.2794541716575625 0.83284860849380504 -2.6318806409835811 -0.20288642495870587 -0.80227887630462635 -0.30659177899360651 -0.1246383488178253 0.27429105341434484 -1.7426828145980833 0.99876922369003307 -0.90716862678527821 -1.1633091568946836 1.0588972568511965 -1.2450770139694212 0.056990070268511779 -1.3505792021751402 -0.86497345566749562 0.35908232629299169 1.0582070350646975 1.2488293051719668 -0.83536526560783375 0.97367152571678173 -1.0427975654602049
decision_type=2 2 2 2 2 2 2 2 2 2 2 2 2 2 2 2 2 2 2 2 2 2 2 2 2 2 2 2 2 2 2 2 2 2 2 2 2 2 2 2 2 2 2 2 2 2 2 2 2 2 2 2 2 2 2 2 2 2 2 2 2 2
left_child=2 13 24 9 6 21 12 -8 -7 30 41 -12 -5 15 18 16 36 20 31 -18 -17 -6 23 26 25 43 42 29 -28 -27 40 -15 -20 -29 46 -19 -2 57 39 -16 -4 -11 -3 53 -45 -40 47 -26 54 50 -50 -51 -48 -1 -24 -56 -32 -36 -39 61 -61 -25
right_child=1 22 3 4 5 8 7 -9 -10 10 11 -13 -14 14 38 17 19 35 32 -21 -22 -23 48 59 34 27 28 33 -30 -31 56 -33 -34 -35 37 -37 -38 58 45 -41 -42 -43 -44 44 -46 -47 52 -49 49 51 -52 -53 -54 -55 55 -57 -58 -59 -60 60 -62 -63
leaf_value=0.14340317733655303 0.061958198700487167 -0.092160561459520826 -0.11001728133382536 0.11278551978612657 0.097049860245863137 0.035058080760121534 0.14090963591551955 0.062483154488792464 -0.074518544435108844 -0.099519231063266489 0.17139079746648878 0.023186080773887521 0.028044066920523199 0.084666283579936427 -0.073495585233308125 0.07194202546597385 0.030236263446153502 0.026982566033319097 0.049417527292017885 -0.038542079582024442 -0.0039868408865592507 -0.073799681135429243 0.16715209400495526 -0.13006150308870496 0.14895382062721249 -0.16930981089780381 0.070323481673397331 -0.089567267448134771 0.1111284359694978 0.085158436312560773 -0.13537847500619277 -0.092437026620192833 0.17662474793731317 0.10650196861752698 0.047252456231709525 -0.07882469082252741 0.12888816052084917 -0.14180883236734315 0.08530776634090273 0.20777601024778103 0.12766845175102923 0.19929705927299951 0.053092004072561011 -0.1805711052827586 0.1413983069692627 0.19292414369539879 0.1413008906618782 -0.028459456928307664 0.19901918401867355 -0.12816652518773375 -0.072584787836420112 0.081236419857950548 0.1775667933021754 0.077088205487384598 0.15920205459816414 -0.13057306853964631 -0.09589852215363226 0.15953734888020069 -0.022761143784046575 -0.10708862915342242 -0.12900273618775712 -0.14243154049861043
leaf_weight=718.71721877157688 686.7047435939312 128.9862939119339 26.730257719755173 7912.3251320719719 3777.3289529383183 12671.574883937836 1429.0649017393589 30553.819198578596 633.12708692252636 435.01516006141901 449.18451453745365 7386.1767186373472 965.18008092045784 89.966637179255486 40.591882109642029 994.83505757898092 11246.379367802292 168.78167489916086 2205.8006604090333 1188.9743561372161 4716.3566356822848 141.38609394431114 13.924973025918005 31.274760007858276 265.22154767811298 41.411900326609612 5894.7179387435317 234.38300977647305 2081.3494056910276 632.49258805811405 185.10092698037624 373.53799806535244 145.84968654811382 71.181152045726776 17.360136762261391 1114.2471764050424 754.24733528494835 39.316912829875946 84.424309313297272 21.452174723148346 69.532296553254128 12.023813262581823 72.455462321639061 20.06975132226944 23.609548538923264 534.16407808661461 842.21561060845852 75.895945727825165 16.06250636279583 127.3395524173975 45.031170874834061 14.193392738699911 629.25676675140858 74.929528266191483 9.0192763805389387 11.173888608813288 307.03880342841148 37.900827690958977 4.3619441688060752 53.279916550964117 8.2118525430560094 6.0288347601890555
leaf_count=633 1842 479 108 12007 6515 35547 1721 67403 2728 1927 515 20293 3238 189 139 2792 43392 531 8171 5223 17086 636 14 176 213 173 11496 882 3660 1026 821 2400 210 107 32 6174 2080 211 175 20 130 16 178 82 23 539 806 236 12 470 144 26 453 114 10 40 1375 28 15 884 49 29
internal_value=0 0.0375988 0.0615877 0.0588746 0.0651326 0.0437321 0.0741533 0.0659874 0.0298437 0.0178991 0.0250346 0.0316823 0.103572 0.0255705 0.0628137 0.0193323 0.0312751 -0.00436202 0.038312 0.0236602 0.00923924 0.0908857 0.0720267 0.07565 0.110311 0.0781571 0.0779936 0.0341395 0.0809715 0.0695212 -0.0825404 -0.0580611 0.0573069 -0.043893 0.140871 -0.0649058 0.0969918 0.0120491 0.164155 0.0237561 0.0616677 -0.0914821 -0.0399155 0.129647 -0.0065401 0.178237 0.147903 0.109481 -0.054637 -0.0752097 -0.00117575 -0.107167 0.15681 0.137142 0.0675437 -0.00114502 -0.110748 0.124263 -0.12992 -0.118339 -0.110015 -0.132061
internal_weight=0 32879.4 70682.9 66954.6 58083.8 17223.4 40860.4 31982.9 13304.7 8870.8 8282.4 7835.36 8877.51 24366.3 3495.79 20870.5 13876.3 6994.22 2815.15 12435.4 5711.19 3918.72 8513.05 8276.3 3728.32 1816.79 8177.51 979.469 7976.07 673.904 588.402 463.505 2351.65 305.564 1911.53 1283.03 1440.95 98.9398 680.632 62.0441 96.2626 447.039 201.442 837.326 43.6793 618.588 1812.59 341.117 236.745 202.627 61.0937 141.533 1471.47 793.647 34.1181 20.1932 492.14 55.261 43.6789 98.7954 61.4918 37.3036
internal_count=268644 108630 160014 154980 129795 45426 84369 69124 38275 25185 22751 20808 15245 90963 11843 79120 52537 26583 10970 48615 19878 7151 17667 16951 5034 3040 15813 2188 15156 1199 2434 2589 8381 989 1994 6705 3922 286 873 159 238 1943 657 852 105 714 1708 449 716 652 156 496 1259 747 64 50 2196 60 226 1138 933 205
is_linear=0
shrinkage=0.1


Tree=11
num_leaves=63
num_cat=0
split_feature=128 130 131 129 103 30 117 35 5 82 109 82 109 82 110 90 32 76 106 71 105 51 31 57 113 89 31 79 53 35 29 31 104 92 72 77 106 78 108 108 81 36 69 28 84 110 121 53 76 88 28 32 0 31 41 93 51 36 126 74 73 45
split_gain=1105.27 1130.4 1168.87 1028.91 816.267 1263.34 958.309 492.392 392.993 304.106 364.381 394.142 374.324 316.197 245.04 264.455 228.604 271.411 231.54 227.922 225.277 189.174 171.954 158.069 149.294 183.891 148.644 145.526 133.371 188.393 187.946 117.015 113.079 101.046 90.9519 82.6676 77.1284 74.7652 77.9429 58.0145 108.597 81.4502 51.2419 62.82 44.4904 40.1091 72.2331 39.7249 33.7524 33.2443 31.1741 25.1288 31.7154 26.554 20.0877 19.1406 18.7619 14.7386 60.4402 7.83363 4.83232 1.36474
threshold=1.0000000180025095e-35 1.0000000180025095e-35 1.0000000180025095e-35 1.0000000180025095e-35 -0.84697324037551869 1.0730541944503786 -1.5374452471733091 0.92987340688705455 0.57192504405975353 -1.3443886637687681 -0.87484210729598988 -1.36650013923645 -0.85782107710838307 -1.3956376910209654 -0.90080377459526051 -1.173825681209564 0.96399545669555675 -1.1646282672882078 -0.79235887527465809 -0.41616100072860712 -0.80021524429321278 1.1397770643234255 1.0154492259025576 0.92210260033607494 -0.9557737112045287 -1.1567479372024534 0.99513348937034618 -1.3547119498252866 1.0597363114356997 0.94113096594810497 1.0951316952705386 0.97059381008148204 -0.84743624925613392 -1.0487772226333616 -0.64683949947357167 -1.2364187836647031 -0.87573271989822377 -1.3004626631736753 -0.87432226538658131 -0.86451777815818776 -1.3650860190391538 0.94780305027961742 -0.33344301581382746 1.2319546937942507 -1.2912392020225523 -0.88147053122520436 -1.0426488518714903 1.056747615337372 -1.1439753174781797 -1.2063585519790647 1.1366358399391177 0.9512867033481599 0.46916949748992925 1.0081380605697634 0.9175219237804414 -1.1420230865478513 1.1006191372871401 0.94390642642974865 -1.530464172363281 -0.95653793215751637 -0.94528678059577931 0.81261882185935985
decision_type=2 2 2 2 2 2 2 2 2 2 2 2 2 2 2 2 2 2 2 2 2 2 2 2 2 2 2 2 2 2 2 2 2 2 2 2 2 2 2 2 2 2 2 2 2 2 2 2 2 2 2 2 2 2 2 2 2 2 2 2 2 2
left_child=1 2 3 4 5 -1 -6 19 -9 10 39 12 27 -14 15 42 17 18 26 -5 22 33 23 -4 25 -17 -3 -12 30 32 47 -23 -30 -19 -32 -31 44 38 -38 51 56 -42 -11 -44 54 46 -13 -18 -24 -26 -20 52 -2 -53 -16 -47 -41 61 -59 -39 -46 -22
right_child=9 16 20 7 6 -7 -8 8 -10 14 11 45 13 -15 36 24 28 21 50 -21 57 31 48 -25 49 -27 -28 -29 29 35 34 -33 -34 -35 -36 -37 37 59 -40 40 41 -43 43 -45 60 55 -48 -49 -50 -51 -52 53 -54 -55 -56 -57 -58 58 -60 -61 -62 -63
leaf_value=0.086487998759484097 -0.06508857464764374 0.068164039722101985 0.024573931612418463 0.0051560447433068243 0.095552587483718948 0.050179754438350703 0.044531863729065632 0.042502958013377681 0.20938360326038749 -0.14938742142844774 0.12746032441696162 -0.071088465416866017 0.026765070041276203 -0.074113620754282281 -0.012116296089782673 0.050130381101953773 0.3012251530007638 -0.0068956419825501568 -0.1102763387894779 -0.06683247539186464 -0.10562558114865502 0.069772678622435677 -0.038916265355258384 -0.036416675881119243 -0.059095496818825158 -0.018922122773345998 0.0182569308376716 0.039446664073526254 0.27599490396374088 0.21643106519797031 -0.11530951943360968 -0.0066891067154643633 -0.014397203306922721 -0.051032855429111568 0.088638091003527583 0.068983070785476205 0.18823765812976936 -0.14871971600538464 -0.068270990196425255 0.2248162965843705 -0.030418603006222674 0.095420012014452951 0.077130417636672791 0.20098100227751947 -0.020516296023276603 0.054892332146782345 0.086336501312694672 0.1470490480223304 -0.11709683647304273 -0.13703188104946182 0.00011187325254000936 0.18266942315911514 0.13478393964682059 0.042378753798908791 0.17259203926217381 -0.12799028523250255 0.12182141082854531 -0.12148704096188685 0.32084257870531968 -0.11216916455635018 -0.14808354750630257 -0.12648640084338555
leaf_weight=21968.315871976316 10.883627682924269 828.40991051495075 5846.5846847891808 3240.2124767526984 4129.0244531333447 16998.340610072017 33957.913652099669 2411.4624287113547 149.88604551553726 7.1527005434036246 434.92375798523426 254.67480258643627 1594.5219785086811 385.91253340989351 8.6419164836406726 490.37792682647705 49.469560518860817 900.40245175361633 134.1765393987298 508.87530193477869 101.51234029605985 333.47277639806271 180.60595628619194 458.2380633354187 148.36537709832191 1805.9159955829382 2134.4793123826385 330.71256873756647 13.783242106437681 42.174996644258499 24.897131904959679 500.61788013577461 494.47554086148739 1223.5300186090171 179.62059937417507 386.32901136577129 14.204306676983832 148.17718598991632 71.350189030170441 45.499217003583908 86.384587079286575 127.13538948446512 108.9224928766489 65.631854131817818 4.3568652570247641 5.995409443974494 32.913514822721481 25.238061040639877 79.54154048115015 86.723212756216526 31.609662666916847 141.71944631636143 29.342973336577415 14.91144287586212 18.475402757525444 125.87945437803864 28.933885216712952 12.578713431954386 4.0946995913982382 97.037851862609386 9.3249766230583173 45.380619443953037
leaf_count=35873 35 2835 20308 12835 6403 37951 80022 8973 358 36 1122 1391 6997 2041 28 1448 66 3999 1511 2648 2051 1058 1101 1959 564 6992 7765 1137 28 96 124 2326 2509 7059 593 1070 18 700 298 51 344 360 194 59 15 16 73 63 433 428 157 190 41 36 26 688 65 89 5 652 45 286
internal_value=0 0.0509912 0.0540584 0.0572944 0.0604737 0.0706493 0.050063 0.0184734 0.0522685 0.00910371 0.0286372 0.0162728 0.0300637 0.00710759 -0.014012 -0.00358154 0.0131513 0.00524313 0.0257757 -0.00461518 0.0139654 -0.016474 0.0168536 0.0201411 -0.0119462 -0.00417583 0.0322107 0.0894433 0.0527359 0.0346546 0.113396 0.0238806 -0.00652219 -0.0323217 0.0638104 0.0834955 -0.0901722 -0.106173 -0.0256838 0.10937 0.0807677 0.044509 0.112948 0.123698 0.0395532 -0.0740114 -0.0530717 0.249141 -0.0628204 -0.0878459 -0.0892291 0.151207 0.0807068 0.169314 0.113728 -0.119676 0.18478 -0.101957 -0.0128586 -0.134256 -0.107461 -0.11207
internal_weight=0 97395.3 90092.6 83364 77053.6 38966.7 38086.9 6310.44 2561.35 6735 3650.34 3165.53 2746.07 1980.43 3084.66 2713.09 7302.69 6086.7 3128.68 3749.09 6728.54 2958.02 6564.97 6304.82 2531.38 2296.29 2962.89 765.636 1215.99 936.763 279.225 834.091 508.259 2123.93 204.518 428.504 371.569 330.77 85.5545 484.811 287.953 213.52 181.707 174.554 40.7992 419.463 287.588 74.7076 260.147 235.089 165.786 196.857 40.2266 156.631 27.1173 131.875 74.4331 163.566 16.6734 245.215 13.6818 146.893
internal_count=268644 242554 211295 185063 160249 73824 86425 24814 9331 26090 14587 13465 11297 9038 11503 9721 31259 26710 12268 15483 26232 14442 23801 22267 9432 8440 10600 2259 4549 3703 846 3384 2537 11058 717 1166 1782 1668 316 1122 820 704 289 253 114 2168 1464 129 1534 992 1668 302 76 226 54 704 116 2431 94 1352 60 2337
is_linear=0
shrinkage=0.1


Tree=12
num_leaves=55
num_cat=0
split_feature=105 120 106 5 30 41 135 134 96 72 133 32 102 71 91 127 32 109 116 39 0 127 105 35 118 71 135 42 51 126 110 101 106 116 106 121 37 81 59 99 110 79 106 127 69 118 109 117 119 115 1 107 116 56
split_gain=977.966 937.904 961.573 866.104 1084.15 718.21 802.917 747.543 660.223 514.433 510.742 340.176 310.428 261.209 444.838 299.288 237.029 234.908 351.258 230.069 163.769 223.673 162.276 159.228 143.069 134.429 108.222 82.1476 79.5953 108.531 158.091 76.1439 58.4558 51.1217 34.8468 29.4835 34.0404 28.1446 21.7068 16.4617 14.2301 11.4022 7.09525 6.36528 22.1451 5.31883 3.9805 2.55603 1.87006 1.49524 1.25783 0.643244 0.0813561 0.0228941
threshold=-0.78566941618919361 -1.7258520126342771 -0.96633830666542042 0.61786043643951427 1.0819300413131716 1.0312739014625552 1.0000000180025095e-35 1.0000000180025095e-35 -1.0639694929122923 -0.78611245751380909 1.0000000180025095e-35 0.88794380426406871 -0.93657371401786793 -0.17692961543798444 -0.23251063376665113 -3.4923686981201167 0.91691160202026378 -1.1246576309204099 -1.5139573812484739 0.97188395261764537 0.46478432416915899 -1.5568546652793882 -0.80227887630462635 0.95563140511512767 -1.6228187680244444 -0.21973752975463864 1.0000000180025095e-35 1.1342316865921023 1.15381395816803 -2.9255697727203365 -1.1802752614021299 -0.83184882998466481 -0.99491885304450978 -1.5330569744110105 -0.89169546961784352 -1.8761308193206785 0.94441622495651256 -0.20713379234075543 0.88051792979240429 -0.85522872209548939 -1.1595366597175596 -0.41877174377441401 -0.83942607045173634 -3.304487824440002 0.056990070268511779 -1.594921290874481 -1.1079465746879575 -1.5431708693504331 -1.6427612304687498 -1.470985412597656 0.62048837542533886 -0.93109261989593495 -1.4952485561370847 1.0115098953247073
decision_type=2 2 2 2 2 2 2 2 2 2 2 2 2 2 2 2 2 2 2 2 2 2 2 2 2 2 2 2 2 2 2 2 2 2 2 2 2 2 2 2 2 2 2 2 2 2 2 2 2 2 2 2 2 2
left_child=1 17 10 5 8 6 -4 -7 -5 -6 16 12 -12 14 20 37 26 18 22 -13 21 23 24 -2 -1 -24 -3 41 45 30 -30 -23 -18 -16 -29 40 42 -15 -31 50 46 -20 -37 47 -45 49 -17 -35 -47 -19 -22 53 -53 -39
right_child=13 2 3 4 9 7 -8 -9 -10 -11 11 19 -14 15 33 35 32 28 27 -21 39 31 25 -25 -26 -27 -28 34 29 38 -32 -33 -34 43 -36 36 -38 51 -40 -41 -42 -43 -44 44 -46 48 -48 -49 -50 -51 -52 52 -54 -55
leaf_value=0.12500440237845956 -0.014746237630662837 0.058306093101578152 0.014176923345481858 -0.098663887866871108 -0.018740381297523766 0.035784271154521916 0.072549315916428811 0.078417765114718527 0.06268753249897939 0.035807543354869957 0.093311472700598974 0.090020377700595136 -0.099813120967353883 0.14522149277173424 0.075173930905023723 0.11391619406372216 -0.14444751726757529 0.13075119638056934 -0.034804006428444091 0.14656065480839617 -0.13271458460284241 -0.022430001809537154 -0.17389138032830304 0.055084250102623446 0.064244469245535576 0.10462771977610355 -0.042352381651708085 0.056377457952481037 -0.068748046806414428 0.045742170631196115 0.11350973763360278 0.14909738091942992 -0.036809403156656262 -0.14449973668516483 -0.15093904515799905 -0.13996404618033806 0.14234176696320336 -0.14759171918394975 0.14338774624023407 0.21073510614143728 0.22663187635561455 -0.17180223234611713 0.031583506286497726 -0.1064855746751856 0.14961531673974846 0.16630254824312507 0.15559144438568981 -0.12216537425995738 0.18398888902072916 0.15348769548792351 -0.10574043150829049 -0.12562454707906126 -0.11523060216342332 -0.13842024595757504
leaf_weight=807.58865298330784 2157.2505175918341 732.30713572353125 22620.884897559881 255.79126337915659 2325.5460877865553 22296.691521599889 2630.45220297575 5042.9780208617449 29570.732544392347 6738.8833184167743 164.13944230973721 4191.5902783274651 168.85172198712826 4.2117414325475684 13.724835738539694 28.177591294050217 70.351947873830795 36.926577657461166 6.7194402068853369 868.86453205347061 20.108036234974861 32.111816540360451 41.77317014336586 384.7760501652956 745.06573632359505 29.615121647715569 125.04991698265076 37.387253507971764 71.514145597815514 23.984947547316551 142.27576963603497 133.36283739283681 178.38647308200598 63.147936701774597 10.352707520127295 7.6595021784305573 15.707572132349013 6.6978703886270505 448.02864068746567 1.6231544613838185 27.002815663814545 63.360563173890114 3.5185597240924853 51.670202501118183 3.612468644976615 288.27984973788261 122.78704254329205 271.76061297953129 75.424934327602386 133.47465312480927 123.23649811372161 9.3956829756498319 37.936510697007179 4.5847973525524139
leaf_count=772 10910 1492 63196 2072 8498 66422 4889 9880 61896 18196 304 6129 567 9 22 30 290 33 17 874 114 170 175 1186 1223 36 364 87 213 40 172 281 538 309 48 42 19 31 352 2 21 276 14 1190 4 197 92 1928 52 94 2444 59 349 24
internal_value=0 0.0451011 0.0434252 0.0407847 0.0520995 0.0324174 0.0202576 0.0436483 0.0613038 0.0218129 0.0805912 0.0932859 -0.00461731 -0.00848986 -0.0162956 0.0864683 0.0186904 0.100543 0.0769744 0.0997282 -0.00238744 0.00315699 0.0890697 -0.00417629 0.0958478 -0.0583489 0.0436245 -0.0897486 0.134195 0.111653 0.0525433 0.115811 -0.0672532 -0.114515 0.0114196 0.145026 0.04742 -0.104467 0.138426 -0.105938 0.159772 -0.158667 -0.0859654 -0.121187 -0.0897506 0.16314 0.147813 -0.126377 0.16997 0.148561 -0.109524 -0.122408 -0.117294 -0.143865
internal_weight=0 100943 97981.5 91482 38891 52591 25251.3 27339.7 29826.5 9064.43 6499.54 5393.45 332.991 3524.06 3256.38 267.68 1106.1 2961.77 1741.86 5060.45 2852.47 2707.5 1624.04 2542.03 1552.65 71.3883 857.357 117.82 1219.91 685.804 213.79 165.475 248.738 403.916 47.74 204.853 26.8856 62.8266 472.014 144.968 177.967 70.08 11.1781 390.191 55.2827 534.106 150.965 334.909 363.705 170.401 143.345 58.6149 47.3322 11.2827
internal_count=268644 249394 245607 235049 90662 144387 68085 76302 63968 26694 10558 7874 871 19250 18560 690 2684 3787 2634 7003 15107 12547 2206 12096 1995 211 1856 428 1153 777 385 451 828 3453 135 218 75 472 392 2560 143 293 56 3431 1194 376 122 2237 249 127 2558 463 408 55
is_linear=0
shrinkage=0.1


Tree=13
num_leaves=58
num_cat=0
split_feature=115 134 4 118 1 53 122 127 30 78 31 129 136 123 76 78 75 100 118 111 127 91 122 112 57 31 30 15 95 101 38 111 73 111 122 51 129 78 56 76 114 36 96 34 50 30 0 5 120 105 74 112 121 77 15 99 30
split_gain=898.418 1238.95 1091.81 913.429 951.263 709.079 663.349 855.039 587.583 506.498 575.21 446.132 385.325 373.745 367.108 365.416 328.815 339.448 299.211 464.744 297.043 266.844 253.343 241.542 219.013 160.407 149.987 140.46 135.468 120.784 109.479 104.678 102.389 101.129 140.734 98.5329 65.7272 99.8635 55.5062 54.3495 45.821 42.0509 35.7534 96.3293 34.1756 30.6203 16.7348 49.5972 14.4597 21.0901 12.9933 12.5463 3.55502 1.21464 0.237394 0.155526 0.133258
threshold=-0.93125060200691212 1.0000000180025095e-35 0.59948888421058666 -1.5837233662605283 -0.11802368611097334 0.7859722673892976 -2.0031113624572749 -2.6414526700973506 1.0981145501136782 -1.3046419620513914 1.0055333375930788 1.0000000180025095e-35 1.0000000180025095e-35 -2.1065230369567867 -1.2323427200317381 -0.49780544638633722 -1.0348986983299253 -0.92422983050346363 -1.6112858057022093 -1.2481778264045713 -1.5156022906303404 -1.1527931690216062 -0.99796265363693226 -1.3023275732994077 0.92034122347831737 0.99932560324668895 1.1062006354331972 1.0041227340698244 -1.0496553182601926 -0.89132526516914357 0.8875730335712434 -1.2640291452407835 -0.80808332562446583 -0.90125328302383412 -1.1231375336647031 1.1630908250808718 1.0000000180025095e-35 -1.1869226694107053 0.79514372348785411 -1.2220091819763181 -0.93443951010704029 0.84374216198921215 -1.032220661640167 0.82841676473617565 1.0520265102386477 1.0689294338226321 0.68487533926963817 0.79390963912010204 -1.7142361402511594 -0.86698719859123219 -1.0064923763275144 -0.89171975851058949 -1.8214399814605711 -1.2308426499366758 1.2626776099205019 -0.91777008771896351 1.0778390765190127
decision_type=2 2 2 2 2 2 2 2 2 2 2 2 2 2 2 2 2 2 2 2 2 2 2 2 2 2 2 2 2 2 2 2 2 2 2 2 2 2 2 2 2 2 2 2 2 2 2 2 2 2 2 2 2 2 2 2 2
left_child=2 5 3 15 13 40 23 -8 9 33 11 -11 14 35 24 48 36 26 31 -20 28 29 -16 -6 -7 -22 -18 -12 -14 42 45 -17 -19 39 -35 -5 38 -38 -10 -4 -2 -15 51 -44 -32 -31 47 -42 52 -50 -48 -3 -1 55 -55 -23 -56
right_child=1 21 8 4 6 12 7 -9 16 10 27 -13 20 41 22 18 17 32 19 -21 25 53 -24 -25 -26 -27 -28 -29 -30 30 44 -33 -34 34 -36 -37 37 -39 -40 -41 46 -43 43 -45 -46 -47 50 -49 49 -51 -52 -53 -54 54 56 -57 -58
leaf_value=0.13432224897458564 0.073886922681332942 0.18105777603470694 0.28562183315021 0.029872328142586752 -0.1525098318686797 0.028849441165719827 -0.0059283551637245614 0.036250274231256818 -0.040254530214890422 0.065553188010054275 0.11892988720802654 -0.060811464410956341 0.14747104236937761 -0.15699133685303271 -0.031410189269435972 0.080292227759153179 0.13168848725635415 -0.094481294810620522 -0.0012420101841778093 0.10087299315844674 0.1006124131937136 -0.21695404147529496 0.048560595581902261 0.16390810849578683 -0.037197632729805918 0.02660100925878129 0.012185453937680488 0.011304880793607079 -0.0037377027955447632 0.0029060103689809973 0.11670106167369479 0.12923641387114324 0.062660260319585437 0.016664014556901377 0.12602338185787129 -0.10970800594797576 0.22075352737782972 -0.12285601129861759 -0.10192150002019984 0.14475673148551479 -0.11649533818155174 0.10764060652034553 -0.072959210427576568 0.14141167236320715 -0.038489505090961898 -0.21003015675167425 -0.11428793149469255 0.0062125495516090609 0.022741678048756053 0.20724098635794752 -0.16187712024957271 0.119694704616342 0.16824760701406091 -0.14490580605543307 -0.18430445450606073 -0.1949800574436695 -0.16103688445368694
leaf_weight=42.238234668970108 13.690920792520044 293.7249318510294 28.616583034396172 54.633128598332405 25.410922661423683 3683.6064199954271 5277.8518185168505 53780.783200602978 346.21039716154337 22667.797637954354 126.97673860192299 282.87765422463417 63.037015229463577 6.3500230610370627 3521.349063500762 1008.7370892167091 303.97546428442001 177.58524899184704 1011.8388894498348 796.55560860782862 898.21694181859493 6.6711702644824982 446.35040169209242 476.7939530313015 581.29833260178566 434.48893886804581 160.46813696622849 2694.4457018151879 986.07532526552677 11.055767878890039 93.158651396632195 770.92159640789032 54.094273269176483 168.21939334273338 391.6524171680212 680.80304984748363 19.994374617934227 14.659572489559649 252.35067205131054 638.91701619327068 133.65282181277871 110.41497956216335 22.1027901917696 406.03317496180534 16.739958360791206 17.353006362915039 286.8101397678256 43.712098274379969 6.4252188801765433 173.44118511676788 71.718476608395576 37.583100765943527 114.94881820678711 4.4650189727544776 4.9374061524867994 6.2279243171215075 4.9085083305835724
leaf_count=38 26 207 22 167 100 12261 15367 141317 1425 42816 232 1253 61 30 13642 1395 440 635 2666 1359 1257 27 1383 433 3186 942 476 7894 2322 24 114 713 103 453 555 3894 71 100 1196 756 1527 211 60 369 48 70 4146 176 16 127 326 44 78 22 20 25 21
internal_value=0 0.013208 0.0421929 0.0349902 0.0319531 0.00399325 0.0334541 0.0324809 0.0585509 0.0617466 0.0587576 0.0639957 0.00972789 -0.0729514 -0.000520386 0.0817361 -0.00635441 0.0410797 0.0723844 0.0437373 0.0451504 0.124428 -0.0224138 0.147898 0.0198474 0.0764832 0.0903995 0.0161485 0.00534783 0.133778 0.0478273 0.101494 -0.0577907 0.124508 0.0931652 -0.099339 -0.058501 0.0753972 -0.066253 0.150795 -0.106763 0.0932491 0.149432 0.130345 0.0930621 -0.127162 -0.111378 -0.0862536 0.181288 0.20065 -0.123807 0.174097 0.159131 -0.18409 -0.164032 -0.206345 -0.172705
internal_weight=0 12089 92667 64338.1 60413 11164 59560.8 59058.6 28328.8 26999.5 25772.1 22950.7 10614.4 852.201 8232.6 3925.11 1329.34 696.123 3588.05 1808.39 2381.82 924.961 3967.7 502.205 4264.9 1332.71 464.444 2821.42 1049.11 897.751 138.307 1779.66 231.68 1227.41 559.872 735.436 633.215 34.6539 598.561 667.534 549.584 116.765 759.444 428.136 109.899 28.4088 535.894 177.365 337.053 179.866 358.529 331.308 157.187 27.21 14.3109 12.8991 9.84591
internal_count=268644 42306 226338 167911 161519 41255 157217 156684 58427 53981 52195 44069 35054 4302 30472 6392 4446 1654 6133 4025 4582 1051 15025 533 15447 2199 916 8126 2383 936 256 2108 738 1786 1008 4061 2792 171 2621 778 6201 241 680 429 162 94 6175 1703 259 143 4472 251 116 115 63 52 41
is_linear=0
shrinkage=0.1


Tree=14
num_leaves=61
num_cat=0
split_feature=106 136 134 32 117 135 122 56 103 3 105 133 32 97 127 33 30 73 72 34 82 110 117 35 33 81 28 98 32 124 55 30 118 54 31 41 70 5 107 110 23 112 30 45 32 126 41 35 103 105 31 38 34 104 69 112 113 50 3 27
split_gain=856.098 857.13 1133.16 1471.05 1117.53 969.733 1170.62 825.108 869.245 774.885 513.522 497.953 554.498 668.222 478.633 459.774 446.744 585.602 461.995 811.822 470.303 370.452 375.474 292.764 277.618 275.081 249.203 405.046 237 211.578 204.493 197.869 190.643 174.803 172.137 155.437 152.472 138.968 131.328 124.374 188.589 112.43 101.786 99.2913 102.115 89.7318 134.962 74.8442 68.1085 77.8844 58.8755 51.7754 30.7848 56.2302 24.6645 20.822 15.6809 12.2349 11.2243 6.10869
threshold=-0.95353102684020985 1.0000000180025095e-35 1.0000000180025095e-35 0.9508509933948518 -1.5374452471733091 1.0000000180025095e-35 -1.0662006735801695 0.98989018797874462 -0.85844221711158741 -0.016939962282776829 -0.84053179621696461 1.0000000180025095e-35 0.91470769047737133 -0.86167225241661061 -2.0572959184646602 0.84837040305137645 1.0627636909484866 -0.84504318237304676 -0.62183555960655201 0.91253235936164867 -1.3985817432403562 -1.1972241401672361 -1.5769177079200742 0.89602410793304454 0.89111512899398815 -0.20713379234075543 1.3045952916145327 -0.9209117293357848 0.88303861021995556 -1.5609320402145384 0.92191842198371898 1.0708935856819155 -1.4448257088661192 0.99515897035598766 1.0006270408630373 0.98294931650161754 -0.22410208731889722 0.63106036186218273 -1.0225944519042967 -1.2182158231735227 1.2321327924728396 -1.3151627182960508 1.1062006354331972 1.1383413672447207 0.96503135561943065 -1.9510101675987241 1.0555156469345095 0.96237131953239452 -0.92677897214889515 -0.92986395955085743 1.0077182650566103 0.96840858459472667 0.91539961099624645 -0.86212104558944691 -0.055812271311879151 -1.3353065848350523 -1.3197693824768064 1.1487086415290835 0.15809664875268939 1.1614129543304446
decision_type=2 2 2 2 2 2 2 2 2 2 2 2 2 2 2 2 2 2 2 2 2 2 2 2 2 2 2 2 2 2 2 2 2 2 2 2 2 2 2 2 2 2 2 2 2 2 2 2 2 2 2 2 2 2 2 2 2 2 2 2
left_child=11 2 4 7 21 9 -7 8 -4 -6 33 24 13 26 36 38 18 34 20 -20 -16 22 -2 30 39 -23 37 -28 -9 -12 50 -19 -17 -5 -18 -32 45 -13 -15 51 41 -41 -42 54 -45 59 -47 48 -26 -50 -14 55 53 -25 -38 -1 -49 -53 -54 -3
right_child=1 14 3 10 5 6 -8 28 -10 -11 29 12 23 15 16 32 17 31 19 -21 -22 25 -24 52 47 -27 27 -29 -30 -31 35 -33 -34 -35 -36 -37 43 -39 -40 40 42 -43 -44 44 -46 46 -48 56 49 -51 -52 57 58 -55 -56 -57 -58 -59 -60 -61
leaf_value=0.070464025053419574 0.098121432841070236 -0.069375795278150867 0.1109687181136072 0.0060219821030777733 -0.095461386230580508 0.057858009992299723 -0.0057444901585074091 -0.16619555503271694 0.040093656259691003 0.011921316620874126 -0.063765370575542921 -0.042410005508394646 0.10417728605027157 0.054735204021293463 -0.073390508573277113 0.16559005709831656 0.083423511314828724 0.016477214990432646 -0.01914389699492812 0.070828672697814704 0.09462074676109869 0.10989517912822613 0.0043669541910433991 0.13304998122738365 0.13121651195144443 -0.1016589100380027 0.087017509505124505 -0.10844547484513865 0.14528316947374276 -0.001219538131330903 0.021232284228873077 -0.044792773880155692 0.010499883212889506 0.050716045859896412 0.014750171552223685 0.07508905161728531 0.040763939305255931 0.12126102229932845 -0.11944686195241372 0.075678793929709332 0.043097607480489256 -0.13239838788692268 -0.11250555336722952 -0.048624179973871688 0.063147351754855197 -0.1754991851566706 0.061901007201068281 0.19201362075456754 -0.12827937397155451 -0.036516733850490972 0.04317938347653337 0.20445907723810489 0.2188909051331332 -0.0028174688228678052 0.20170617927566151 -0.10998808619030592 0.038087575420361834 0.13474163913573733 0.15874729153709846 -0.17580818310082966
leaf_weight=18.420950308442119 697.74989096820354 5.711624637246131 2541.5659735947847 1246.8431084603071 682.8185886181891 10411.076235413551 4007.746046744287 24.803032949566841 5422.0842294842005 42408.136892303824 748.36736816167831 54.97355455160141 2256.5035296529531 48.819661483168602 172.27021682262421 87.006556987762451 1719.3162501305342 1742.3042175918818 1366.0746401324868 3771.8341030478477 5070.8964614421129 1944.2051697000861 1101.5220513790846 723.96774531900883 17.842596754431725 63.470081299543381 331.29602289199829 155.90908499062061 1616.6700330078602 1950.4269178509712 752.40011160075665 755.70550924539566 890.16959846019745 2934.949257850647 463.37721861898899 1862.2617569863796 14.46182708442211 920.79488421976566 381.91127333045006 34.402881160378456 1675.2251814752817 105.91074174642563 43.120771400630474 268.41036626696587 117.53009422123432 40.817373245954514 57.938672855496407 12.929019093513491 141.71081328392029 266.32834865152836 170.16885283589363 39.25354790687561 35.823614671826363 31.798549801111221 27.877483725547791 9.7942116707563383 13.559193924069403 70.168365821242332 231.89317207038403 96.553529590368271
leaf_count=33 817 18 3010 2954 5133 20288 11640 108 11256 141565 2327 139 2832 88 1394 96 2622 3717 3613 7077 7384 2429 2715 750 26 334 615 557 1951 5210 1482 2037 1912 6107 1068 2856 33 1069 1272 70 3459 410 207 811 244 168 122 11 585 809 329 31 24 82 24 35 34 72 186 397
internal_value=0 0.0317623 0.0274624 0.0507371 0.0212047 0.0177312 0.0401795 0.0760197 0.0627131 0.0102197 0.0154433 0.0608064 0.0717546 0.035548 0.0530831 -0.0136315 0.056653 0.0310048 0.0682175 0.0469066 0.0891005 0.0736761 0.0407245 0.0888935 0.0208544 0.103207 0.0828764 0.024468 0.140577 -0.0185633 0.0789939 -0.00205837 0.0243089 0.0373901 0.0688444 0.0595911 -0.0323614 0.11204 -0.0997048 0.0368829 0.0300905 -0.0813809 0.0391928 0.0013614 -0.0145865 -0.104208 -0.0362201 -0.0498791 -0.0600232 -0.0683856 0.0998998 0.128607 0.137656 0.127333 0.146733 0.00782444 0.11322 0.159752 0.166795 -0.169864
internal_weight=0 93493.5 77802.4 16485.7 61316.7 57509.8 14418.8 9605.12 7963.65 43091 6880.59 11384.4 8935.7 2870.88 15691.1 1407.91 15061.8 4680.7 10381.1 5137.91 5243.17 3806.95 1799.27 6064.82 2448.67 2007.68 1462.97 487.205 1641.47 2698.79 5041.33 2498.01 977.176 4181.79 2182.69 2614.66 629.301 975.768 430.731 1996.3 1858.66 140.314 1718.35 428.28 385.94 201.021 98.756 452.37 425.882 408.039 2426.67 137.637 1023.48 755.766 42.3393 28.2152 26.4882 109.422 267.717 102.265
internal_count=268644 248573 217844 32923 184921 178626 31928 16325 14266 146698 16598 20071 14289 5748 30729 3368 28912 9444 19468 10690 8778 6295 3532 8541 5782 2763 2380 1172 2059 7537 7499 5754 2008 9061 3690 4338 1817 1208 1360 4317 4146 480 3666 1112 1055 705 290 1465 1420 1394 3161 171 1042 832 57 68 45 103 210 415
is_linear=0
shrinkage=0.1


Tree=15
num_leaves=63
num_cat=0
split_feature=106 136 134 32 118 135 30 55 103 60 32 133 97 78 104 75 117 120 34 33 74 113 52 30 132 53 112 34 100 32 34 4 116 111 23 0 55 25 102 53 73 76 114 31 121 31 33 34 41 132 105 31 104 32 38 49 34 23 55 127 102 0
split_gain=723.587 719.232 956.914 1207.49 969.265 892.284 1052.02 703.504 839.941 631.334 505.945 583.297 449.376 444.101 432.604 422.623 474.736 406.088 385.936 365.693 360.859 486.109 292.73 263.284 252.188 247.271 232.839 227.292 223.506 198.534 190.113 172.239 155.13 144.599 423.809 124.483 123.269 123.012 122.658 122.067 118.004 112.132 97.8452 85.2069 81.9187 78.4037 75.8909 68.9997 54.0421 50.0357 54.3553 47.7271 45.7596 44.0165 41.9005 40.3318 33.4498 29.7762 29.0534 23.7552 18.1669 7.26752
threshold=-0.9497368037700652 1.0000000180025095e-35 1.0000000180025095e-35 0.95107579231262218 -1.5789815187454221 1.0000000180025095e-35 1.0712533593177798 1.0232686996459963 -0.85765686631202687 0.82937011122703563 0.92740756273269664 1.0000000180025095e-35 -0.86271491646766651 -0.49780544638633722 -0.83302465081214894 -1.0424230098724363 -1.0357715487480161 -1.7201251983642576 0.8308958411216737 0.93091431260108959 -0.96151942014694203 -0.91000825166702259 1.0894299745559695 1.1062006354331972 1.0000000180025095e-35 1.0266549587249758 -1.205541670322418 0.9121585786342622 -0.77421644330024708 0.89248222112655651 0.89414903521537792 0.59948888421058666 -1.0035940408706663 -1.2697169184684751 1.2234023213386538 0.40587960183620458 0.92043218016624462 1.6777399182319643 -0.94338649511337269 1.0857156515121462 -0.91241556406021107 -1.1417005658149717 -0.99891364574432362 0.97486403584480297 -1.1567769050598142 1.0091094374656679 0.89111512899398815 0.94284999370574962 1.0562329888343813 1.0000000180025095e-35 -0.91631790995597828 0.99003723263740551 -0.88726466894149769 0.90059742331504833 0.82338604331016552 1.1662034392356875 0.91539961099624645 1.3768187165260317 1.0281815528869631 -1.9013491868972776 -0.80314686894416798 0.38433936238288885
decision_type=2 2 2 2 2 2 2 2 2 2 2 2 2 2 2 2 2 2 2 2 2 2 2 2 2 2 2 2 2 2 2 2 2 2 2 2 2 2 2 2 2 2 2 2 2 2 2 2 2 2 2 2 2 2 2 2 2 2 2 2 2 2
left_child=10 2 4 7 13 9 -7 8 -4 -6 12 49 23 58 25 16 41 -15 24 32 21 -18 -16 31 29 -5 -9 -22 35 -14 36 43 39 48 -35 -21 45 -33 40 -17 -25 59 -43 -1 -34 -13 -38 -30 -20 50 57 52 -51 -26 -40 -52 60 -12 -2 -3 -32 -53
right_child=1 15 3 14 5 6 -8 26 -10 -11 11 30 18 17 22 19 20 -19 33 28 27 -23 -24 38 53 -27 -28 -29 47 -31 56 37 44 34 -36 -37 46 -39 54 -41 -42 42 -44 -45 -46 -47 -48 -49 -50 51 55 61 -54 -55 -56 -57 -58 -59 -60 -61 -62 -63
leaf_value=0.13977242211698937 0.061937538511451243 0.074070689940726214 0.10137506936474477 0.0098049745343521191 0.009789467866700173 0.072737901609058367 0.016261409450754674 -0.16285392033080032 0.031336020808166963 -0.064333905697382177 -0.10373049162877934 0.11153339475077335 -0.1147210710957639 0.065833944095636712 -0.026531729015478952 -0.056034396806246084 0.076915070544400221 -0.048322404570742203 -0.035798826429915311 0.046066193112714177 0.0076902433564854031 0.012058418474281227 0.026670891392612278 -0.13507270901869103 0.075144945189606835 0.075299345883741708 0.12504214557568225 0.057768954019284183 -0.10017402170584287 -0.018649290639431916 0.12166436357686468 0.093339551032295243 0.19094364345789172 -0.085524666798393087 0.041540167798818042 0.17074813575719558 0.027854155492008537 -0.17396762493645734 -0.15227117165830453 0.018339443484706248 0.078296873768526287 0.11295836814423398 -0.080677080877953222 -0.00997223203414512 0.026587379338261344 0.02864924047449894 0.074187117283387519 0.065066392525612859 0.13850484026871257 -0.18196195716972413 0.044435312838934767 0.1817849592202927 0.047155385798488839 -0.05362779327446944 0.11316348044003666 -0.12878428084029939 0.15517146212470412 -0.033699031934607361 0.1731239677574804 0.18302631525591057 0.077154919648887502 0.088570289223718401
leaf_weight=44.359575159847736 25.07806521654129 21.230806514620781 2559.7419893592596 1001.0078959614038 40360.993770908564 5160.232333317399 9140.946662530303 28.496507927775383 5171.6719137579203 1182.7489827424288 140.23435418307781 1099.930733397603 319.65523236989975 3265.0454988330603 2638.1243918985128 859.82908277213573 6185.9177520573139 344.49504981935024 19.796621084213257 2010.0205896645784 2336.1315834075212 1421.1412279680371 1701.0280522406101 34.701015643775463 232.00398084521294 1359.1660303324461 1979.6363048404455 1480.7955864518881 135.44263227283955 657.63866700232029 741.55423367023468 2169.2146208435297 40.352241650223732 282.19663017243147 3759.5895294547081 83.398362338542938 481.14715686440468 17.353419631719589 74.316975802183151 296.86963807046413 102.42961301654577 232.9973955899477 29.387117877602577 265.01053906977177 122.04670783877373 127.34114702045918 1332.6994877904654 31.066915512084961 175.28313072025776 13.485618487000464 79.79901310801506 14.776406988501547 24.651474341750145 29.973407164216042 6.4643788635730735 16.164507746696472 296.91519738733768 107.06644792854786 373.79565770924091 348.16952806711197 104.64171734452248 19.273934841156006
leaf_count=49 49 38 3118 2310 137174 8580 23012 123 10934 5713 536 1267 1126 5866 7485 2524 9549 1136 57 4139 5389 3920 3947 188 372 2463 2531 2781 486 1558 786 3097 37 1043 7282 82 920 72 323 702 230 342 92 614 263 256 2007 64 194 55 178 12 53 79 12 65 242 317 286 309 180 30
internal_value=0 0.0283785 0.0243742 0.0457443 0.0185049 0.0150956 0.0366396 0.0682219 0.0545248 0.00767918 0.0537649 0.0803049 0.0388595 0.0660037 0.013066 0.0479177 0.0568758 0.0549388 0.0223696 0.0177428 0.0522091 0.0647986 -0.00567532 0.0721337 -0.0267166 0.0475216 0.120957 0.0271185 0.042164 -0.0500726 0.0915259 0.081337 -0.0240965 0.0367272 0.0326685 0.0510333 0.0784574 0.0912181 -0.0332797 -0.0369462 0.0243035 0.141258 0.0912712 0.0114992 0.067426 0.102933 0.0618967 -0.0693439 0.120817 -0.0327081 -0.0486227 0.0429688 -0.0338626 0.0604118 -0.13103 0.0152575 0.126293 -0.0734111 0.166133 0.176764 0.11616 0.129022
internal_weight=0 91927 76292.2 16438.9 59853.3 55844.9 14301.2 9739.55 7731.41 41543.7 12789.7 4599.68 8189.99 4008.41 6699.33 15634.8 12055.8 3609.54 5476.14 3579.03 11424 7607.06 4339.15 2713.85 1239.27 2360.17 2008.13 3816.93 2259.93 977.294 4184.23 2495.94 1319.1 4236.87 4041.79 2093.42 3041.12 2186.57 217.912 1156.7 137.131 631.785 262.385 309.37 162.399 1227.27 1813.85 166.51 195.08 415.452 343.264 72.1874 38.1371 261.977 80.7814 95.9635 1143.11 247.301 398.874 369.4 846.196 34.0503
internal_count=268644 245444 214727 32911 181816 174479 31592 16706 14052 142887 23200 6904 16296 7337 16205 30717 22420 7002 11711 8297 21639 13469 11432 4585 3135 4773 2654 8170 4771 2684 5658 3832 3526 8576 8325 4221 4450 3169 753 3226 418 781 434 663 300 1523 2927 550 251 1246 1096 150 108 451 335 243 1208 853 335 347 966 42
is_linear=0
shrinkage=0.1


Tree=16
num_leaves=53
num_cat=0
split_feature=52 5 73 30 118 0 122 136 132 31 134 132 109 119 53 30 126 29 110 55 123 96 128 100 62 81 69 120 95 29 110 126 115 108 112 98 110 114 109 25 10 127 23 108 39 93 105 93 83 30 0 107
split_gain=675.503 669.139 679.738 688.806 659.193 646.078 679.773 502.086 466.604 421.613 411.044 362.873 323.437 311.771 243.079 446.154 221.761 196.919 174.495 318.114 166.464 140.98 114.386 110.619 109.471 108.35 106.257 103.045 99.1579 95.6487 86.7883 62.8422 56.5519 53.3257 40.9034 33.9817 97.0463 29.6087 49.6838 28.1633 22.7558 15.6623 15.0361 12.4206 11.7976 10.2254 9.06628 7.38757 16.3392 6.09184 2.68595 0.860117
threshold=0.7798239290714265 0.66024312376976024 -0.89347487688064564 1.0712533593177798 -1.6019805669784544 -0.2384030073881149 -2.0232696533203121 1.0000000180025095e-35 1.0000000180025095e-35 1.0088468194007876 1.0000000180025095e-35 1.0000000180025095e-35 -1.1246576309204099 -0.94185379147529591 0.93525195121765148 1.0765590071678164 -2.8659174442291255 1.2197324037551882 -1.2009362578392027 1.0516833662986758 -1.1021906733512876 -1.0071641802787779 1.0000000180025095e-35 -0.91504737734794606 0.53525939583778392 -0.20713379234075543 0.086900800466537489 -1.7426828145980833 -1.0452125668525694 1.1815670132637026 -1.2182158231735227 -2.8844077587127681 -1.4882792234420774 -1.0584906935691831 -1.0288397073745725 -0.95577722787857045 -0.95429867506027211 -0.92401558160781849 -0.90033909678459156 1.6456893682479861 0.99496465921401989 -1.0578128695487974 1.7609736323356631 -0.89346864819526661 0.63014540076255809 -1.0566918849945066 -0.92853835225105275 -1.0291554927825926 -1.153578460216522 1.0686249732971194 0.48240357637405401 -0.85014635324478138
decision_type=2 2 2 2 2 2 2 2 2 2 2 2 2 2 2 2 2 2 2 2 2 2 2 2 2 2 2 2 2 2 2 2 2 2 2 2 2 2 2 2 2 2 2 2 2 2 2 2 2 2 2 2
left_child=11 4 3 13 18 16 12 -8 10 14 -5 35 -7 23 17 -16 26 -4 19 30 -15 -10 24 -3 -11 31 -6 -21 -24 34 -2 -20 -27 -18 -13 36 -1 38 -38 51 44 42 46 -43 50 -39 -31 48 -42 -49 -37 -36
right_child=1 2 9 8 5 6 7 -9 21 22 -12 29 -14 20 15 -17 33 -19 25 27 -22 -23 28 -25 -26 32 -28 -29 -30 41 -32 -33 -34 -35 39 40 37 45 -40 -41 47 43 -44 -45 -46 -47 -48 49 -50 -51 -52 -53
leaf_value=0.15971775561708176 0.10384654511612819 0.11198591017908088 0.083202843205510385 -0.01131670842052363 -0.10440773964337356 -0.15854488007446566 0.019331202890755135 0.041008688280560313 -0.037915451636159926 -0.036557896110922597 0.097671046201012024 0.11283311870128153 0.13121655736763851 -0.043313335951789822 0.065582101913794086 0.019557004233829389 -0.14553315579943996 0.0088061490399406091 0.086470111837101502 0.0074984347955256801 0.048006888606409323 0.16417784060168403 -0.10435328186765305 -0.048043093852223141 0.14236325071468231 0.14250150038730222 0.0056105504308363967 -0.11097579960414522 0.13202039333849336 0.028185522368759465 0.028651623576762222 0.13506700498130156 -0.14894258357452123 0.09747775095445238 -0.2286373555843576 -0.10338638797557922 -0.11487987885989173 -0.10913053673712332 0.057332586966329813 -0.014055648814532216 -0.2013925523744797 -0.035714836298398639 0.17390514385745026 0.097038515135605366 0.064016063466757742 -0.15482847363680874 0.14001652782593979 -0.21700903411700245 0.016952230683059417 -0.16236695375240628 -0.21108578005415812 -0.17885879537341032
leaf_weight=14.401183739304541 597.94541820883751 1000.4111505299807 4737.6629000529647 5289.7206662297249 578.59443067014217 40.611578583717346 62766.783805266023 12876.598062098026 40.932523369789124 685.24414681643248 370.26782639324665 9.3014672696590406 748.68106800317764 228.14791937172413 6488.5660358816385 3118.4141676649451 10.05497584491968 384.66621381789446 505.09337835013866 220.10235975682735 1595.911353956908 220.29484379291534 22.408963605761528 45.143897265195847 35.992309287190437 9.1308621168136579 103.48798180371523 110.15593554079533 85.309514001011848 14.92391322553158 206.49929673969746 562.35163331031799 24.58267916738987 88.578686058521271 11.559841796755792 37.411975055932999 42.014909490942955 239.80739222466946 27.862410351634026 12.348797768354414 8.4916479885578138 10.062691673636435 47.398235261440277 23.522901073098183 4.3148679584264746 61.528016339987516 14.097397059202192 43.381729010492563 5.7465825676918021 38.518966883420944 2.4684226959943762 4.9607348367571857
leaf_count=17 664 1197 7470 17316 3620 175 174812 25195 116 2474 474 13 761 729 11209 7328 50 1017 682 457 3709 220 87 118 62 7 612 380 136 29 387 486 124 168 47 1182 163 4041 57 30 35 25 34 32 7 291 15 181 13 158 10 22
internal_value=0 0.029055 0.0435583 0.0213306 0.0246102 0.0230602 0.0239846 0.0230213 0.00184384 0.0561176 -0.0041869 -0.0713717 0.116307 0.06154 0.0600228 0.0506424 -0.0674483 0.077616 0.0781387 0.0506184 0.0365848 0.132511 -0.0132733 0.105076 -0.0276291 0.106497 -0.0877154 -0.032018 0.0828469 0.0668543 0.0845442 0.112072 -0.0700088 0.0727046 -0.0695384 -0.110314 -0.0949803 -0.104861 -0.046213 -0.128297 -0.15245 0.114181 0.139196 0.0572638 -0.0930579 -0.118461 0.0825086 -0.179752 -0.113268 -0.19131 -0.110053 -0.21369
internal_weight=0 103798 24349.1 8790.83 79449.3 77213.4 76432.7 75643.4 5921.22 15558.3 5659.99 674.124 789.293 2869.61 14729.3 9606.98 780.716 5122.33 2235.86 1134.7 1824.06 261.227 828.955 1045.56 721.236 1101.16 682.082 330.258 107.718 148.176 804.445 1067.45 33.7135 98.6337 38.1708 525.948 385.614 371.213 69.8773 28.8694 140.334 110.005 76.4195 33.5856 44.1953 301.335 29.0213 96.1389 14.2382 81.9007 39.8804 16.5206
internal_count=268644 262242 53662 23879 208580 205393 200943 200007 18126 29783 17790 6402 936 5753 27024 18537 4450 8487 3187 1888 4438 336 2759 1315 2536 1299 4232 837 223 247 1051 1168 131 218 112 6155 4569 4552 220 99 1586 135 78 57 1199 4332 44 387 48 339 1192 69
is_linear=0
shrinkage=0.1


Tree=17
num_leaves=62
num_cat=0
split_feature=106 30 5 41 135 36 52 30 32 133 118 71 105 1 97 34 132 31 132 30 103 111 34 92 75 30 111 23 4 55 31 102 2 130 73 18 74 26 125 38 33 30 44 103 108 5 5 132 31 105 36 34 34 80 104 129 98 56 30 132 104
split_gain=616.487 587.165 645.09 702.48 642.372 716.987 583.012 501.941 460.922 489.639 455.367 646.605 446.537 406.011 336.467 312.902 305.88 302.639 219.429 196.191 184.521 181.597 181.392 164.259 144.579 154.65 136.576 301.308 121.475 120.288 105.276 103.466 102.173 106.831 97.2781 90.3559 89.0982 85.0327 84.7339 87.9531 79.6136 77.5346 74.8414 59.2136 58.4388 51.9488 47.6287 51.7331 75.9551 42.3276 37.1296 36.5771 29.467 26.9481 21.5231 17.0205 54.2446 15.9442 6.20354 0.957916 0.192316
threshold=-0.9497368037700652 1.0930870771408083 0.61786043643951427 1.0312739014625552 1.0000000180025095e-35 0.85053741931915294 0.7798239290714265 1.0708935856819155 0.92556068301200878 1.0000000180025095e-35 -1.6019805669784544 -0.41076105833053583 -0.86151549220085133 0.58975401520729076 -0.86271491646766651 0.81963157653808605 1.0000000180025095e-35 0.98663794994354259 1.0000000180025095e-35 1.1062006354331972 -0.90493783354759205 -1.2640291452407835 0.89414903521537792 -0.84251153469085682 -1.0348986983299253 1.0981145501136782 -1.2697169184684751 1.2234023213386538 0.59948888421058666 0.92191842198371898 0.96467268466949474 -0.94338649511337269 0.64503511786460888 1.0000000180025095e-35 -0.91241556406021107 1.5437470674514773 -1.0322915911674497 1.5359495282173159 -1.4157572388648985 0.81990915536880504 0.89111512899398815 1.0753562450408938 0.94921216368675243 -0.91299569606780995 -1.0797316431999204 0.72861400246620189 0.64467304944992077 1.0000000180025095e-35 0.98819744586944591 -0.93282058835029591 0.79267814755439769 0.85882771015167247 0.91539961099624645 -1.1237087249755857 -0.86212104558944691 1.0000000180025095e-35 -0.94953620433807362 0.8437294363975526 0.98517414927482616 1.0000000180025095e-35 -0.93865749239921559
decision_type=2 2 2 2 2 2 2 2 2 2 2 2 2 2 2 2 2 2 2 2 2 2 2 2 2 2 2 2 2 2 2 2 2 2 2 2 2 2 2 2 2 2 2 2 2 2 2 2 2 2 2 2 2 2 2 2 2 2 2 2 2
left_child=8 2 3 4 5 -2 16 12 14 46 21 -12 -8 -9 19 18 53 -6 23 28 24 -5 29 -16 25 35 51 -28 41 42 -30 34 55 45 -21 -3 -27 -18 43 -40 -31 -1 -11 -26 -20 -34 47 49 -49 -10 -33 -17 54 -4 -24 57 -57 -22 -54 60 -48
right_child=1 20 6 10 17 -7 7 13 9 22 11 -13 -14 -15 15 26 37 -19 44 31 32 -23 52 -25 38 36 27 -29 30 40 -32 50 33 -35 -36 -37 -38 -39 39 -41 -42 -43 -44 -45 -46 -47 59 48 -50 -51 -52 -53 58 -55 -56 56 -58 -59 -60 -61 -62
leaf_value=0.076894293340696418 -0.074936723204988884 0.019923276682485221 -0.099719027319157938 0.042556683957841429 0.085544600392299427 0.0025802942516357382 0.062637103889063989 0.0080468968983640789 -0.091898903410555899 -0.13187627780034922 0.042230065173994774 0.011990650590290898 0.032778734011463265 0.042224334499273354 -0.010009323047684145 0.013996678278418244 -0.11759312220360546 0.015035559614615815 -0.17030842704167568 -0.13056431118136425 -0.089836830556326575 0.10162242862389362 0.10907474848713879 -0.11662271363470061 -0.097608264836055267 0.0057731527645147745 -0.078979274318286496 0.029927391283223442 0.012869056330189952 0.021996314360608588 0.085322783958038328 -0.14456131420695748 0.16387780789914 0.26842001442867858 0.068323784333643819 -0.083593432800885936 -0.074127584419265896 0.093471971072474902 0.040027529136615107 0.20973970073402848 0.065951967061943992 -0.033931034164755791 0.093207424600225228 0.057050592380162551 0.069560752899932396 -0.093330803599157727 -0.15248818433196931 -0.043775088673177504 0.14181479190273635 -0.015652550338304812 0.10907681957818396 0.12937742508962111 -0.21072853415902709 -0.17447488023907451 0.028944207365883812 0.14088725301620572 -0.12485738223428314 -0.13161857031511429 0.14350896871983945 -0.21567170073276945 -0.17450801201232369
leaf_weight=99.214042261242867 1275.2057336978614 695.88838056474924 362.79161029309034 1047.9198621362448 1278.2365229576826 18557.116178534925 9206.626242980361 8540.1595702692866 101.4085233733058 14.929480165243147 11436.307309985161 18525.974862661213 10984.800203442574 5861.4332300648093 249.55198484659195 33.269680052995682 22.698535762727261 1162.2539839893579 10.815176948904989 32.220540754497051 212.17965764552355 1034.2461587786674 793.83075970411301 343.33087134361267 41.384094268083572 182.28460782766342 271.81609273701906 3884.5323218256235 225.17598740756512 592.71056698262691 1833.1798268556595 70.664571508765221 9.994682699441908 15.024100750684736 103.87236236780882 95.946825474500656 595.4695098400116 119.98893840610981 66.588514395058155 56.402757242321968 1351.9353351593018 173.55771985650063 1404.8132802844048 61.609708555042744 166.81891156733036 36.635576039552689 7.4761986583471307 44.447153553366661 43.766133725643158 258.16727159917355 6.2848558723926535 157.75452235341072 0.4952244907617559 55.612984508275986 34.998236909508705 11.667824998497961 22.480616748332977 160.36177509278059 285.94913594424725 4.6707916110754004 8.4484627693891525
leaf_count=150 5676 2428 4563 1828 1983 52668 15998 22183 405 51 30869 57773 25546 12950 617 76 81 2465 39 188 859 1288 897 1180 148 886 1015 7769 500 1146 2567 320 20 16 229 467 2810 161 178 46 2072 441 1788 146 258 162 36 129 45 716 11 179 2 230 78 43 143 830 241 19 36
internal_value=0 0.0227525 0.0240252 0.0171941 0.00355341 -0.002404 0.0345799 0.0362201 0.046334 0.0701249 0.0266752 0.0235327 0.0463932 0.0219571 0.0309702 0.0161953 -0.0665379 0.0519655 -0.0425375 0.0606917 -0.0275423 0.0718956 0.0802967 -0.0717478 -0.0129618 -0.0237288 0.0266049 0.0228051 0.0690867 0.068711 0.0773966 -0.0311663 -0.0834423 0.0365173 0.0212362 0.00738014 -0.055401 0.059896 0.0618214 0.117856 0.0525547 0.00637896 0.0908405 -0.00509311 0.0549564 -0.038201 -0.0271593 -0.0203205 0.0483035 -0.0371557 -0.123845 0.109282 0.115247 -0.109655 0.105691 -0.101628 -0.0340579 -0.107822 0.142897 -0.17585 -0.16417
