tree
version=v4
num_class=1
num_tree_per_iteration=1
label_index=0
max_feature_idx=136
objective=binary sigmoid:1
feature_names=Column_0 Column_1 Column_2 Column_3 Column_4 Column_5 Column_6 Column_7 Column_8 Column_9 Column_10 Column_11 Column_12 Column_13 Column_14 Column_15 Column_16 Column_17 Column_18 Column_19 Column_20 Column_21 Column_22 Column_23 Column_24 Column_25 Column_26 Column_27 Column_28 Column_29 Column_30 Column_31 Column_32 Column_33 Column_34 Column_35 Column_36 Column_37 Column_38 Column_39 Column_40 Column_41 Column_42 Column_43 Column_44 Column_45 Column_46 Column_47 Column_48 Column_49 Column_50 Column_51 Column_52 Column_53 Column_54 Column_55 Column_56 Column_57 Column_58 Column_59 Column_60 Column_61 Column_62 Column_63 Column_64 Column_65 Column_66 Column_67 Column_68 Column_69 Column_70 Column_71 Column_72 Column_73 Column_74 Column_75 Column_76 Column_77 Column_78 Column_79 Column_80 Column_81 Column_82 Column_83 Column_84 Column_85 Column_86 Column_87 Column_88 Column_89 Column_90 Column_91 Column_92 Column_93 Column_94 Column_95 Column_96 Column_97 Column_98 Column_99 Column_100 Column_101 Column_102 Column_103 Column_104 Column_105 Column_106 Column_107 Column_108 Column_109 Column_110 Column_111 Column_112 Column_113 Column_114 Column_115 Column_116 Column_117 Column_118 Column_119 Column_120 Column_121 Column_122 Column_123 Column_124 Column_125 Column_126 Column_127 Column_128 Column_129 Column_130 Column_131 Column_132 Column_133 Column_134 Column_135 Column_136
feature_infos=[-1.8014661073684692:2.1873281002044678] [-1.7160434722900391:2.0962586402893066] [-1.6382262706756592:2.0136351585388184] [-1.5680137872695923:1.9394575357437134] [-1.5054070949554443:1.8737261295318604] [-1.4504051208496094:1.8164401054382324] [-1.4123568534851074:1.7788288593292236] [-1.3844102621078491:1.7939627170562744] [-1.3517893552780151:1.9694005250930786] [-1.3099035024642944:2.0549979209899902] [-1.2559221982955933:1.9997674226760864] [-1.1870334148406982:2.073509693145752] [-1.1039742231369019:2.1457490921020508] [-1.0067610740661621:2.2142360210418701] [-0.90047705173492432:2.2759943008422852] [-0.78966546058654785:2.3805651664733887] [-0.67814630270004272:2.4481546878814697] [-0.65542465448379517:2.4658794403076172] [-0.65910369157791138:2.4605560302734375] [-0.66488730907440186:2.4363620281219482] [-0.66501742601394653:2.3619022369384766] [-0.67313039302825928:2.2960772514343262] [-0.78228282928466797:2.1994528770446777] [-0.7797551155090332:2.1797337532043457] [-1.0841877460479736:2.1696581840515137] [-1.4308524131774902:2.0883691310882568] [-1.6366665363311768:1.9448176622390747] [-1.8254417181015015:1.7314887046813965] [-1.9454965591430664:1.5598906278610229] [-2.2033448219299316:1.3473584651947021] [-2.6534385681152344:1.1459542512893677] [-2.9375624656677246:1.0433628559112549] [-2.8964071273803711:1.0182701349258423] [-2.6209216117858887:1.0153312683105469] [-1.9672813415527344:1.0222163200378418] [-1.2877312898635864:1.0987448692321777] [-0.66342759132385254:1.3781088590621948] [-0.6696123480796814:1.4172744750976562] [-0.6713901162147522:1.4686216115951538] [-0.67615479230880737:1.427788257598877] [-0.67391806840896606:1.3506048917770386] [-0.67713803052902222:1.3033223152160645] [-0.67526406049728394:1.4334096908569336] [-0.67822211980819702:1.6771683692932129] [-0.67593681812286377:1.8418123722076416] [-0.67998087406158447:1.9795904159545898] [-0.67735743522644043:1.8671952486038208] [-0.68056988716125488:1.7601110935211182] [-0.67851173877716064:1.8138210773468018] [-0.68057990074157715:2.0951991081237793] [-0.67868822813034058:2.3221406936645508] [-0.68411111831665039:2.3866791725158691] [-0.68785721063613892:2.3278176784515381] [-0.6967010498046875:2.41339111328125] [-0.68777680397033691:2.0181429386138916] [-0.66555494070053101:1.663224458694458] [-0.63047897815704346:1.3939603567123413] [-0.79989981651306152:1.3641012907028198] [-0.9627259373664856:1.3483799695968628] [-0.83332031965255737:1.3266682624816895] [-0.62303602695465088:1.2987289428710938] [-0.62908732891082764:1.6912268400192261] [-0.65896600484848022:1.8743280172348022] [-0.67422842979431152:1.7138135433197021] [-0.80786275863647461:1.3433690071105957] [-0.97404611110687256:1.0751444101333618] [-1.2528316974639893:0.99085426330566406] [-1.6713657379150391:0.88485002517700195] [-1.706031322479248:0.75389385223388672] [-1.8203862905502319:0.60495084524154663] [-1.6767393350601196:0.45876148343086243] [-1.7446892261505127:0.33052113652229309] [-1.674402117729187:0.23037496209144592] [-1.5674382448196411:0.15855956077575684] [-1.4517455101013184:0.30397361516952515] [-1.6804615259170532:0.9557119607925415] [-1.8599822521209717:1.3625956773757935] [-1.985605001449585:1.0853415727615356] [-2.0616223812103271:0.99276179075241089] [-2.1171634197235107:0.52897804975509644] [-2.1664650440216064:0.2406151294708252] [-2.193009614944458:0.28676301240921021] [-2.2026488780975342:0.33890664577484131] [-2.2012209892272949:0.39074629545211792] [-2.1849808692932129:0.43792322278022766] [-2.1524448394775391:0.47703936696052551] [-2.1025960445404053:0.50853937864303589] [-2.0367574691772461:0.53271615505218506] [-1.9560787677764893:0.67684948444366455] [-1.8642418384552002:0.56802195310592651] [-1.7650643587112427:0.65060514211654663] [-1.7074116468429565:1.0689502954483032] [-1.6520191431045532:1.4166257381439209] [-1.5958865880966187:1.6290324926376343] [-1.5394163131713867:1.6649528741836548] [-1.4922878742218018:1.6171708106994629] [-1.4531639814376831:1.5604556798934937] [-1.4315723180770874:1.5597559213638306] [-1.414076566696167:1.5643377304077148] [-1.522296667098999:1.563044548034668] [-2.0638625621795654:1.5685317516326904] [-2.4619696140289307:1.5680602788925171] [-2.648137092590332:1.5700795650482178] [-2.4631106853485107:1.5659784078598022] [-2.0341367721557617:1.5655697584152222] [-1.4475361108779907:1.5589512586593628] [-1.1194825172424316:1.5613385438919067] [-1.1215335130691528:1.561995267868042] [-1.168958306312561:1.5723429918289185] [-1.225764274597168:1.5757462978363037] [-1.369315505027771:1.5835809707641602] [-1.6010570526123047:1.5857315063476562] [-2.1418814659118652:1.5901247262954712] [-2.4733853340148926:1.5896482467651367] [-2.5047738552093506:1.5896980762481689] [-2.0072333812713623:1.5865405797958374] [-1.6131480932235718:1.5868538618087769] [-1.6321159601211548:1.611059308052063] [-1.6864286661148071:2.4495923519134521] [-1.7459897994995117:2.6529664993286133] [-1.820858359336853:2.5047237873077393] [-1.9280952215194702:1.7488086223602295] [-2.1567583084106445:1.6308574676513672] [-2.3918964862823486:1.6220458745956421] [-2.6616356372833252:1.8138364553451538] [-2.9659750461578369:2.1645474433898926] [-3.3559722900390625:3.0688047409057617] [-3.8750591278076172:4.2020993232727051] [0:1] [0:1] [0:1] [0:1] [0:1] [0:1] [0:1] [0:1] [0:1]
tree_sizes=5734 5777 5687 5705 6022 5680 5674 6002 6901 6544 6775 6913 6611 6415 6532 6522 6922 6405 6464 6041 6145 6795 6014 6223 6904 6004 6040 6049 6382 6366 5867 6373 6695 6117 5883 6583 6954 6375 6380 6116 6940 5727 6943 6062 4757 6977 4802 6936 4731 6973 6602 6523 6700 6965 6007 6742 5653 6965 6735 6957 4527 6844 6056 6669 6631 5686 5572 6732 6602 6260 5659 6926 6973 5275 6615 5888 4343 6958 6847 5257 5673 5165 6945 6159 6305 5113 5973 6841 5784 5756 4464 5926 6921 6831 5812 6681 5067 6151 6945 6961 4711 6720 5734 6922 5945 5875 4875 5482 6967 6625 6102 6349 6910 5536 5734 6933 5964 5350 6277 5411 5251 5301 5082 6541 6149 6743 6852 6497 6212 5158 6929 6858 6944 6581 6701 4458 6933 5364 6902 6815 6924 6462 6264 5412 5288 6831 6128 6136 5707 6677 6695 4198 6813 5899 6929 6552 6277 6849 6812 6586 6634 5688 5353 5190 6405 5399 5335 4823 6833 5379 6175 6518 6496 6940 6253 6445 6553 6799 6708 5456 6728 5515 6489 6911 6887 5376 4495 6345 6884 6945 6715 6818 5134 6012 5255 5620 5723 6794 4769 6689

Tree=0
num_leaves=53
num_cat=0
split_feature=106 130 131 129 103 30 118 55 54 35 136 33 89 35 31 71 127 97 53 70 30 37 80 80 108 116 34 30 112 129 64 105 80 74 31 31 4 131 36 30 86 26 100 40 118 115 125 56 61 53 0 13
split_gain=30263.4 16859.1 13242.1 10139.8 7186.2 10082.2 10031.5 3344.2 2029.7 1547.18 1504.68 1486.02 1079.67 1080.52 854.008 789.958 777.88 629.38 647.302 661.345 551.099 540.182 523.227 480.852 753.785 442.084 432.531 372.982 365.128 323.225 519.452 326.039 392.532 306.063 293.312 275.276 260.918 253.037 218.893 218.342 153.141 142.095 141.561 144.087 132.915 100.004 86.3229 51.5865 16.2476 12.6276 1.13687e-13 2.84217e-14
threshold=-0.83288720250129689 1.0000000180025095e-35 1.0000000180025095e-35 1.0000000180025095e-35 -0.83897364139556874 1.0853452682495119 -1.5946066379547117 0.84532344341278087 1.0233564972877505 0.95357269048690807 1.0000000180025095e-35 0.93227124214172374 -1.1647935509681699 0.94205546379089367 1.0116256475448611 -0.36165863275527949 -2.0416393280029292 -0.90536177158355702 1.0249993205070498 -0.35575599968433375 1.0486946105957033 0.99963921308517467 -1.1446551680564878 -1.2569895982742307 -0.90211713314056385 -0.94757059216499318 0.93661367893219005 1.0681648850440981 -0.98091673851013172 1.0000000180025095e-35 0.42065800726413732 -0.80514869093894947 -1.4063373208045957 -0.91999089717864979 1.0069510340690615 1.0198619961738589 0.60807555913925182 1.0000000180025095e-35 0.97583478689193737 1.0539664626121523 -1.2582004666328428 1.6099625229835512 -0.7541535198688506 1.0686401724815371 -1.0167515277862547 -1.0885621905326841 -1.4869937896728513 1.0442538261413576 0.62327659130096447 1.0505805611610415 1.068479120731354 1.1782892942428591
decision_type=2 2 2 2 2 2 2 2 2 2 2 2 2 2 2 2 2 2 2 2 2 2 2 2 2 2 2 2 2 2 2 2 2 2 2 2 2 2 2 2 2 2 2 2 2 2 2 2 2 2 2 2
left_child=1 2 3 4 5 -1 -6 41 29 10 15 22 17 20 23 -10 21 18 19 -3 33 -11 -5 24 -4 -12 -13 45 -25 30 36 32 -31 -14 -20 -22 -9 -32 -18 40 -19 48 43 -15 -29 -16 -41 -44 50 -33 -2 -52
right_child=7 12 14 11 6 -7 -8 8 9 16 25 26 13 42 27 -17 38 39 34 -21 35 -23 -24 28 -26 -27 -28 44 -30 31 37 49 -34 -35 -36 -37 -38 -39 -40 46 -42 -43 47 -45 -46 -47 -48 -49 -50 -51 51 -53
leaf_value=-1.3871772294944993 -1.9508735937850306 -1.6694520374765609 -1.3923462105772249 -1.7230606180677854 -1.2640645485625055 -1.5679256738367329 -1.5288665833394719 -1.6879075303718298 -1.7379084310621233 -1.8632059999849391 -1.3570007845285221 -1.629114767890925 -1.6209328383865564 -1.5394113766047863 -1.3631146784264287 -1.8505280079218343 -1.5141789586442136 -1.3113839535079734 -1.7042731054038045 -1.4343063504174594 -1.8368282454164258 -1.5741709445284395 -1.9081177587571387 -1.6689535292341557 -1.642866709010546 -1.7359105183110217 -1.4678056752314501 -1.7530521239032377 -1.8105092497719957 -1.4540861585788598 -1.4607706637583289 -1.938195585269689 -1.7728786588351435 -1.7602211077004406 -1.8743566909613374 -1.40394631262947 -1.5755620721422401 -1.7626794808053918 -1.3267764743587969 -1.8992681791049508 -1.608878716375703 -1.1894796661086573 -1.8595130017116854 -1.3123162088055373 -1.8707282115840829 -1.6495585102167776 -1.2854789931063053 -1.4367358448032017 -1.6904484105451807 -1.7138420908888481 -1.9508735937850306 -1.9508735937850306
leaf_weight=17769.19349335134 493.45911933481693 373.97585955262184 127.86510179936886 1165.9476393163204 1572.5081431120634 3734.7182537913322 15854.159929767251 340.66536381840706 3853.4912477731705 107.18742062151432 125.52931755781174 440.01716481149197 218.35016463696957 86.783376127481461 14.921773999929426 742.91706825792789 183.62159724533558 81.308551982045174 373.43502630293369 175.84611864387989 1093.1182573735714 162.97427169978619 175.82373484969139 517.75175848603249 1978.9921147227287 40.799591660499573 267.14722788333893 145.6719906181097 281.17415383458138 66.833916887640953 378.35202254354954 49.412930220365524 91.507639288902283 568.45393623411655 139.18203637003899 14.890367388725279 525.78755754232407 29.95905590057373 94.355522364377975 12.139376342296599 21.98129591345787 2.4683315455913535 13.713955566287042 41.204154431819916 281.39452560245991 66.530494809150696 2.8244483023881903 3.6553874015808097 2.4055183231830588 2.64292949438095 7.1223351359367362 83.450026676058769
leaf_count=65516 4157 2266 477 7590 4171 19443 77333 2117 25566 824 431 2517 1234 431 52 5632 873 248 2372 718 8161 857 1418 3135 11549 270 1166 985 2037 284 1629 411 634 3878 1083 57 2771 205 300 97 122 5 105 126 2181 392 8 15 15 17 60 703
internal_value=-1.83491 -1.50045 -1.48442 -1.46866 -1.45725 -1.41857 -1.50497 -1.71802 -1.69821 -1.72711 -1.74542 -1.68548 -1.72136 -1.76541 -1.67363 -1.75611 -1.56801 -1.64526 -1.66961 -1.59425 -1.78557 -1.68885 -1.74731 -1.65271 -1.62766 -1.44995 -1.56818 -1.79319 -1.71877 -1.59487 -1.57591 -1.7097 -1.63832 -1.72157 -1.75045 -1.83101 -1.61973 -1.48292 -1.45057 -1.42641 -1.37469 -1.94662 -1.50266 -1.4663 -1.83059 -1.59708 -1.78341 -1.77054 -1.94981 -1.9268 -1.95087 -1.95087
internal_weight=0 47614.7 44393.8 40979.5 38930.6 21503.9 17426.7 7384.94 6796.04 5310.88 4762.74 2048.94 3220.86 2040.17 3414.3 4596.41 548.139 1180.69 1062.44 549.822 1894.81 270.162 1341.77 2905.78 2106.86 166.329 707.164 508.519 798.926 1485.16 1274.76 210.397 158.342 786.804 512.617 1108.01 866.453 408.311 277.977 118.254 103.29 588.905 145.357 127.988 427.067 81.4523 14.9638 17.3693 586.437 52.0559 584.031 90.5724
internal_count=268644 220883 199962 179154 166463 84959 81504 47761 42821 34753 31899 12691 20921 14007 20808 31198 2854 6914 6439 2984 13330 1681 9008 17198 12026 701 3683 3610 5172 8068 6722 1346 918 5112 3455 8218 4888 1834 1173 475 370 4940 677 557 3166 444 105 120 4935 428 4920 763
is_linear=0
shrinkage=1


Tree=1
num_leaves=53
num_cat=0
split_feature=106 130 131 128 129 29 55 54 38 127 136 33 36 134 89 38 31 126 34 32 123 36 53 69 30 81 136 80 74 124 76 33 60 5 37 60 103 33 117 105 6 1 79 24 6 44 0 91 98 61 0 18
split_gain=13891.4 7553.14 5537.63 4948.37 4632.85 3520.85 2451.23 1123.53 937.968 1030.57 829.093 813.766 729.783 718.334 651.993 729.676 555.184 509.304 470.065 347.065 561.292 290.328 449.402 504.612 264.323 256.882 241.991 348.419 227.6 227.488 223.741 204.246 280.539 242.837 192.899 191.152 186.218 185.587 174.167 139.513 121.883 120.972 158.044 95.432 83.2072 62.2013 46.8801 35.1195 34.7551 0.00252824 1.13687e-13 1.42109e-14
threshold=-0.83288720250129689 1.0000000180025095e-35 1.0000000180025095e-35 1.0000000180025095e-35 1.0000000180025095e-35 1.2115827798843386 0.84532344341278087 1.0233564972877505 1.0097845792770388 -1.9690909981727598 1.0000000180025095e-35 0.93227124214172374 0.97583478689193737 1.0000000180025095e-35 -1.1629247665405271 0.99723088741302501 1.0135386586189272 -1.6239215135574339 0.90994560718536388 0.96488061547279369 -1.2714436650276182 0.92296877503395092 1.0150509476661684 -0.23142685741186139 1.0486946105957033 -1.2752425670623777 1.0000000180025095e-35 -1.3803595304489134 -0.91999089717864979 -1.4413656592369077 -1.1081593632698057 0.91832125186920177 0.69694516062736522 0.6043871045112611 0.98929566144943248 0.80973488092422496 -0.86513724923133839 0.95208126306533825 -0.95306465029716481 -0.8718799054622649 0.53641980886459362 0.46080632507801061 -1.3111007213592527 1.6667225956916811 0.62424537539482128 1.0628958940505984 0.44418755173683172 -1.1231359243392942 -0.98175898194313038 0.56059041619300853 1.068479120731354 1.1695010066032412
decision_type=2 2 2 2 2 2 2 2 2 2 2 2 2 2 2 2 2 2 2 2 2 2 2 2 2 2 2 2 2 2 2 2 2 2 2 2 2 2 2 2 2 2 2 2 2 2 2 2 2 2 2 2
left_child=1 2 3 4 5 -1 43 26 10 12 13 -6 -10 -9 21 24 19 37 -19 20 -4 22 23 -3 28 -24 31 46 -16 -26 40 32 -8 -33 -32 -11 48 -5 -12 -21 -17 42 -23 49 -38 -29 -28 -43 -18 50 -2 -52
right_child=6 14 16 17 11 -7 7 8 9 35 38 -13 -14 -15 15 30 36 18 -20 39 -22 41 25 -25 29 -27 27 45 -30 -31 34 33 -34 -35 -36 -37 44 -39 -40 -41 -42 47 -44 -45 -46 -47 -48 -49 -50 -51 51 -53
leaf_value=0.27143742824041994 -0.11421498839217425 0.10769155843577312 0.052742014001643439 0.022555289862340684 0.073624051784064268 0.14041502838059725 0.19158944235788722 0.055278746980041885 0.019191552418519595 0.33389693095114248 0.30233146108847314 0.19715895343153145 0.22447948420626374 0.43151246349179195 0.15872701006275791 0.40735482846039944 -0.094624377830370643 0.11641816003254346 0.293435911113058 0.38001927821817616 0.15241827510716355 0.36506092023110481 0.065597780903017253 0.30593491735467782 -0.045042196199991419 0.36697742896724078 0.33671373535244853 0.59743962488778501 0.038140718633960041 0.046928513491676475 0.085763166908976229 0.08203234162818944 0.039204106401961619 0.21243701632695325 0.26589340917976373 0.15812927296473972 0.020086393780803777 0.15577915385526589 0.065332055615825502 0.20278757358136679 0.11495527582132076 0.26624397056936405 0.13419821214259592 0.28105212851300138 0.1984429239277522 0.39165558693057334 -0.031883282580404251 0.48697581089738584 -0.014590622823091998 -0.11747782486451595 -0.11421498839217425 -0.11421498839217425
leaf_weight=46070.167709395289 450.80186788737774 273.85051791369915 747.97843444347382 734.68430656194687 1429.0988765954971 2146.5183605402708 246.79405881464481 4350.1564266234636 440.23113299906254 321.85283830016851 177.22505120933056 850.6312218606472 285.45231512188911 51.346024885773659 240.68701267242432 60.577780678868294 90.432198867201805 1010.4699701815844 176.16442446410656 50.109677359461784 2308.6707772314548 48.727702565491199 683.13150043785572 241.74363642930984 537.77701263129711 29.50311454385519 4.1143834143877056 22.734018906950951 447.61058355867863 537.99113467335701 174.86411461979151 166.11659917235374 236.66330201923847 1017.3600029498339 90.074403837323189 76.59805603325367 49.383505567908287 121.91641825437546 37.583579331636429 390.84563885629177 18.64303269982338 9.7423671409487707 75.751243002712727 6.1780967563390723 55.612829357385635 41.504476919770241 21.385254830121994 27.709184005856514 135.64670498669147 2.3854093402624121 3.4869856834411612 79.655829206109047
leaf_count=147266 4137 1537 4534 4030 9008 9632 1098 28196 3030 1165 465 3683 1106 168 1183 170 766 4429 558 153 11898 125 4163 801 4193 86 14 33 2989 3780 1042 868 1419 4388 307 389 310 548 234 1826 97 41 364 21 303 108 140 43 1018 19 32 731
internal_value=0 0.235535 0.244384 0.252845 0.259018 0.265605 0.0955386 0.110392 0.0889772 0.170891 0.06903 0.119718 0.0999429 0.0596677 0.0929563 0.0579004 0.128276 0.100279 0.142698 0.139991 0.128027 0.14612 0.129526 0.200641 0.031915 0.0780749 0.180372 0.340337 0.0803079 0.000952312 0.191094 0.17176 0.116993 0.194133 0.147004 0.300107 0.00450547 0.0415165 0.260865 0.222928 0.338544 0.27198 0.22457 -0.109728 0.114556 0.464483 0.0275901 0.429556 -0.0466044 -0.11423 -0.114215 -0.114215
internal_weight=0 59866.7 56368.3 52539.7 50496.4 48216.7 8039.63 7497.12 5740.45 1124.13 4616.31 2279.73 725.683 4401.5 3498.38 2108.23 3828.68 2043.24 1186.63 3497.6 3056.65 1390.16 1228.23 515.594 1764.07 712.635 1756.67 89.7381 688.298 1075.77 344.159 1666.93 483.457 1183.48 264.939 398.451 331.075 856.601 214.809 440.955 79.2208 161.93 124.479 542.508 104.996 64.2385 25.4996 37.4516 226.079 536.33 533.945 83.1428
internal_count=268644 220883 199962 179154 169589 156898 47761 42821 34753 5690 29063 12691 4136 28364 20921 13761 20808 9565 4987 18411 16432 7160 6587 2338 12145 4249 8068 295 4172 7973 1616 7773 2517 5256 1349 1554 2397 4578 699 1979 267 573 489 4940 613 141 154 84 1784 4919 4900 763
is_linear=0
shrinkage=0.1


Tree=2
num_leaves=52
num_cat=0
split_feature=106 130 131 128 104 129 49 72 53 38 127 71 135 36 78 41 87 110 30 42 97 80 111 53 12 30 105 17 6 109 129 116 31 30 127 28 108 96 57 74 31 82 30 79 104 26 27 105 115 51 23
split_gain=8236.54 4533.22 3200.46 2944.37 2757.13 2649.23 1632.39 1438.92 594.474 637.34 570.681 546.501 915.837 683.275 501.761 435.236 421.017 683.601 414.608 406.391 327.014 352.721 317.279 311.903 476.058 405.167 300.888 184.67 226.991 392.215 220.576 184.518 188.714 181.31 158.317 152.544 118.928 137.195 95.0457 94.9145 78.9765 67.6498 66.3554 55.8696 50.7759 45.7931 13.4571 9.58319 0.00748471 0.000209044 3.29449e-05
threshold=-0.82611471414566029 1.0000000180025095e-35 1.0000000180025095e-35 1.0000000180025095e-35 -0.70005291700363148 1.0000000180025095e-35 0.92524316906929027 -0.27311302721500391 1.0505805611610415 1.0131049752235415 -1.9776388406753538 -0.36165863275527949 1.0000000180025095e-35 0.95726794004440319 -1.2303034067153928 1.0821557044982912 -1.2469618916511533 -0.90037927031517018 1.0907002687454226 1.0950089097023012 -1.0269168615341184 -1.3803595304489134 -0.93232187628746022 1.0249993205070498 0.84686225652694713 1.056273400783539 -0.78965672850608815 1.0807431340217593 0.64777529239654552 -0.82506465911865223 1.0000000180025095e-35 -0.96481958031654347 1.0198619961738589 1.0539664626121523 -1.5368030071258543 1.1326865553855898 -0.8947816491127013 -0.82530507445335377 0.9720384180545808 -1.0846155285835264 0.99983891844749462 -1.4112027287483213 1.0957080721855166 -1.2616462707519529 -0.79678064584732045 1.6099625229835512 1.1289201974868777 -0.80964902043342579 -0.95593956112861622 0.88816052675247203 1.5167133212089541
decision_type=2 2 2 2 2 2 2 2 2 2 2 2 2 2 2 2 2 2 2 2 2 2 2 2 2 2 2 2 2 2 2 2 2 2 2 2 2 2 2 2 2 2 2 2 2 2 2 2 2 2 2
left_child=1 2 3 4 5 -1 45 -6 27 11 26 13 -13 -10 19 31 17 -5 20 23 41 -22 -18 24 -3 -25 -11 30 33 -30 35 32 -16 -29 -33 -8 37 -17 -12 -20 43 -4 -41 -21 -42 48 -38 -32 -2 50 -50
right_child=6 14 18 16 7 -7 8 -9 9 10 38 12 -14 -15 15 36 22 -19 39 40 21 -23 -24 25 -26 -27 -28 28 29 -31 47 34 -34 -35 -36 -37 46 -39 -40 42 44 -43 -44 -45 -46 -47 -48 -49 49 -51 -52
leaf_value=0.20542606431796384 -0.11759000822956273 0.31649638280853787 0.32253318143573706 0.28008969033672043 -0.096034716769219014 0.10668317063276174 0.14621931314815492 0.27675623313642533 0.045431098197154678 0.19105218036753968 0.24595878738064433 -0.070294995442880676 0.60597693638532535 0.17872882801600756 -0.0021273118010051036 0.26776201029284274 0.075381793991095625 0.09074106952096507 0.40447132299247779 0.38238447840425382 0.23380662972206961 0.11053766914280932 -0.050621100179299709 0.1157236847440299 0.11521753401366729 0.013556003378449508 0.026359637422425898 0.092235474403926376 0.20791175683429436 0.035417493053084274 0.10587660181853585 0.57063343862156535 0.32175331596412571 -0.080438570217959818 0.10905890656394442 0.29328086442267992 0.12395462574506536 0.115860835524288 -0.12121898900780151 0.017788501618772667 0.22728470619828386 -0.029492008472227872 -0.1001395005102044 0.15799947495000782 -0.12369159394851781 0.280817383622957 -0.12213567609544501 -0.091060081211372434 -0.11268069596398761 -0.11371097011909768 -0.11308431756642932
leaf_weight=55938.928600400686 3.1334479600191107 142.49453271180391 5.6327084451913825 256.95422698557377 471.25015049427748 2855.8347748667002 121.60309189558029 132.69372910261154 3099.0454582870007 157.71488213539124 350.51753147691488 532.78484147042036 20.807198733091354 439.0238765925169 1221.9441948160529 87.262227855622768 1323.2171787545085 739.11643527448177 4.7721329033374777 69.313036024570465 247.41900308430195 3755.5356538072228 235.38827688992023 962.95983501523733 670.09409085661173 650.2731582224369 373.9748445302248 306.79383569955826 436.33181785047054 188.87960118800402 2.7594306915998486 8.1749646887183172 18.258910298347473 75.841429717838764 81.645673997700214 167.94993929564953 2.5532618910074261 186.61460231244564 7.1945457309484473 86.860563457012177 14.086727917194368 177.09211124479771 105.86850693821907 13.211644150316713 5.8269840702414504 2.975104331970214 17.131773434579372 23.631867952644825 475.19132879376411 1.984192021191119 2.0309126377105704
leaf_count=155214 25 339 17 674 2602 14661 454 263 18895 675 1016 4068 44 2139 8597 253 6260 3195 13 168 882 18482 1337 4908 3038 4284 2129 1433 1510 983 14 14 48 495 419 388 13 928 51 558 42 1099 823 51 39 4 121 182 4758 19 20
internal_value=0 0.181738 0.188083 0.193925 0.198446 0.20063 0.0664189 -0.0141281 0.0800222 0.0641924 0.140915 0.0475151 -0.0448768 0.0619714 0.0803705 0.0369894 0.0888055 0.139587 0.105504 0.108229 0.112185 0.118157 0.0563522 0.09999 0.150514 0.0745412 0.0752123 0.139586 0.118674 0.1558 0.206294 0.0126648 0.00264103 0.0580101 0.151069 0.23152 0.147195 0.164259 0.238574 -0.0360824 0.30333 -0.0186404 -0.0469908 0.346462 0.124585 -0.110306 -0.0902164 -0.0704687 -0.112719 -0.112687 -0.112682
internal_weight=0 70488.4 66336.6 61953.4 59398.7 58794.8 6790.17 603.944 6304.85 4981.06 889.402 4091.66 553.592 3538.07 4151.85 1623.59 2554.68 996.071 4383.18 2528.26 4185.68 4002.95 1558.61 2425.82 812.589 1613.23 531.69 1323.79 1007.85 625.211 315.944 1330.02 1240.2 382.635 89.8206 289.553 293.562 273.877 357.712 197.501 102.438 182.725 192.729 82.5247 19.9137 485.315 19.685 26.3913 482.34 479.206 477.222
internal_count=268644 229342 206080 184206 172740 169875 39302 2865 34476 29017 3871 25146 4112 21034 23262 10393 11466 3869 21874 12869 20480 19364 7597 12569 3377 9192 2804 5459 4421 2493 1038 9078 8645 1928 433 842 1315 1181 1067 1394 300 1116 1381 219 81 4826 134 196 4822 4797 4778
is_linear=0
shrinkage=0.1


Tree=3
num_leaves=52
num_cat=0
split_feature=106 106 30 127 118 3 134 115 133 55 103 32 102 110 112 104 33 34 4 6 36 126 56 125 104 102 35 30 41 7 30 37 132 29 92 35 87 73 55 103 104 77 105 52 101 36 26 135 115 113 50
split_gain=5525.32 3086.99 3577.06 2727.2 3610.27 2749.99 2009.88 2488.1 1538.06 1139.07 905.448 826.16 792.021 649.778 608.914 458.369 445.711 433.288 706.652 372.692 523.489 544.108 453.832 587.366 350.743 310.105 232.918 217.083 213.322 201.575 196.725 183.856 180.651 160.436 142.18 140.484 138.086 132.526 131.206 122.613 99.0113 90.2858 81.1197 59.9598 53.4027 50.6607 37.3853 0.00816232 0.00589897 0.000292837 1.62101e-05
threshold=-0.82020285725593556 -0.9561612308025359 1.0922133326530459 -1.7434560060501096 -1.5888773798942564 -0.017526877112686631 1.0000000180025095e-35 -0.93150418996810902 1.0000000180025095e-35 0.7505188286304475 -0.85736271739006031 0.89160081744194042 -0.93609631061553944 -1.1968170404434202 -0.98796361684799183 -0.91564548015594471 0.89061942696571361 0.8862782120704652 0.58609881997108471 0.61737188696861278 0.95726794004440319 -1.8591404557228086 1.0669043660163882 -1.51349401473999 -0.75497505068778981 -0.80754363536834706 0.96234694123268139 1.0978486537933352 1.030208468437195 0.64899668097496044 1.1059706807136538 0.9255678951740266 1.0000000180025095e-35 1.2498689293861391 -0.43904870748519892 0.91766464710235607 -0.28236748278141016 -0.93264752626419056 0.85984352231025707 -0.92661279439926136 -0.79412126541137684 -1.3840243220329282 -0.92972537875175465 1.0708393454551699 -0.89841932058334339 0.92942082881927501 1.6099625229835512 1.0000000180025095e-35 -0.95252981781959523 -0.81656599044799794 0.84469303488731395
decision_type=2 2 2 2 2 2 2 2 2 2 2 2 2 2 2 2 2 2 2 2 2 2 2 2 2 2 2 2 2 2 2 2 2 2 2 2 2 2 2 2 2 2 2 2 2 2 2 2 2 2 2
left_child=1 8 3 4 13 -6 7 -5 16 46 -8 12 33 -3 15 32 30 18 -13 20 22 26 23 -11 -23 29 -22 38 -14 35 34 -31 -4 -10 -1 -21 -24 -29 -16 -18 43 -42 -41 -27 -17 -19 48 -32 -2 -50 -51
right_child=9 2 14 6 5 -7 10 -9 11 19 -12 17 28 -15 27 44 39 45 -20 25 21 24 36 -25 -26 40 -28 37 -30 31 47 -33 -34 -35 -36 -37 -38 -39 -40 42 41 -43 -44 -45 -46 -47 -48 -49 49 50 -52
leaf_value=0.14162518852141839 -0.1158582012045689 0.18409663403997709 0.16021938029497157 0.17538356016167489 -0.076611092985217635 0.1224725089647289 0.27836430913038507 0.10159777262282288 0.26831184239610323 -0.056481528267668037 0.18509763319123262 0.19559998814775026 -0.029910107861739439 0.27409520001597659 0.0504431125392713 0.035705496811235853 0.26151491365362245 0.2804592649781954 0.27339857499221915 -0.030231971972737692 -0.078287894169184746 0.15161583823075153 0.32178513861071423 0.045731720831898359 0.018290675182912882 0.19628545026631891 0.11826058784061629 0.022188306082843466 0.35287943715001902 0.059934751821135626 -0.12511485044673817 0.16552506717088514 0.40812267331289576 -0.015817075554345774 0.28023297998884178 0.14123567493596254 -0.11946541132515559 -0.07098273878660348 -0.023378065612883459 -0.058413975935025821 0.29698629334252424 0.13502194263967646 0.045470408698909254 0.37828285762501995 -0.076474649237234862 0.32981153112772243 0.22664870183609187 -0.12975456199087251 -0.11255528797695578 -0.11132938354003052 -0.1116251235418539
leaf_weight=1252.7071555554867 2.9041178598999968 1598.7151985019445 299.98453143239021 18695.240454345942 707.82692275196314 35115.449063561857 2113.765684813261 6048.6593745425344 209.09301444888115 890.10930905491114 2050.8016354739666 3197.9199458360672 264.50584331154823 1610.2093238383532 634.58570074290037 89.922601737082005 18.792078860104084 862.16794240474701 1838.8537128269672 232.18720706552267 229.50297732651234 899.07559224963188 60.118464842438698 1526.1261916086078 252.79820016026497 36.393396362662315 81.775856956839561 205.30805661529303 15.406449407339094 391.3339062705636 4.6178645417094257 284.99930695444345 32.58844119310379 21.960601478815079 78.651707023382187 60.162512734532356 8.0407566428184492 595.39454890787601 387.95530501753092 137.72468829154968 39.67831788957119 259.5894920527935 165.48362763226032 36.017067678272724 80.357393153011799 274.13069444894791 3.2968387007713309 21.193217277526855 1.9614903405308712 429.71140706539154 1.8614110350608815
leaf_count=3451 25 3094 908 52095 3806 116178 2915 22285 424 6210 4680 6754 1126 2107 2552 378 32 1209 3018 1433 1676 3662 151 9026 1399 110 322 1010 17 1859 30 974 36 103 102 226 62 3245 2023 648 96 934 606 75 420 287 4 120 20 4701 20
internal_value=0 0.147544 0.140709 0.144884 0.127641 0.118539 0.168164 0.157347 0.204977 0.0458121 0.232436 0.226472 0.104273 0.229257 0.0187707 0.116195 0.119417 0.236587 0.224003 0.0586721 0.0432025 0.0906546 0.0152561 0.00807771 0.122355 0.104232 -0.0266528 -0.00809901 -0.00884127 0.0744378 0.144512 0.104429 0.184511 0.241307 0.149814 0.00505428 0.269731 -0.0470928 0.0224351 0.0136459 0.181884 0.156496 -0.00171644 0.286811 -0.0172338 0.292365 -0.108832 -0.128924 -0.111366 -0.111336 -0.111331
internal_weight=0 78630 70266.8 67940.7 39032.2 35823.3 28908.5 24743.9 8363.21 5727.64 4164.57 6684.04 510.966 3208.92 2326.1 502.853 1679.17 6173.07 5036.77 5287.91 3947.55 1463.15 2484.39 2416.24 1151.87 1340.36 311.279 1823.24 279.912 968.683 1357.17 676.333 332.573 231.054 1331.36 292.35 68.1592 800.703 1022.54 322 371.678 299.268 303.208 72.4105 170.28 1136.3 439.735 25.8111 436.438 433.534 431.573
internal_count=268644 235659 217732 207160 125185 119984 81975 74380 17927 32985 7595 12938 1670 5201 10572 1742 4989 11268 9772 28215 22508 7059 15449 15236 5061 5707 1998 8830 1143 4492 3703 2833 944 527 3553 1659 213 4255 4575 1286 1215 1030 1254 185 798 1496 4770 150 4766 4741 4721
is_linear=0
shrinkage=0.1


Tree=4
num_leaves=55
num_cat=0
split_feature=107 130 30 103 117 33 30 105 75 52 129 56 37 125 100 36 36 30 37 89 127 29 56 82 109 136 81 69 104 96 119 42 116 2 111 55 78 124 77 108 31 118 110 30 26 124 122 76 106 130 106 35 106 103
split_gain=3904.68 2817.52 1840.88 2450.87 2415.01 2072.07 1933.77 1660.38 1600.53 1385.03 1071.78 586.778 596.459 543.606 452.869 382.162 356.783 325.922 291.242 463.405 268.155 262.38 264.12 255.529 489.405 339.529 300.178 250.242 249.218 242.07 208.542 188.123 161.883 156.811 153.742 143.611 156.008 134.121 131.926 126.11 105.652 89.8488 80.1355 75.0492 64.5921 63.4301 63.2356 68.3521 5.82755 0.148051 0.0408138 0.0215855 0.00301979 0.000362145
threshold=-0.8446354568004607 1.0000000180025095e-35 1.0914401412010195 -0.84995698928832997 -1.5651987791061399 0.82629963755607616 1.0732267498970034 -0.93606704473495472 -1.0346735715866087 0.78216642141342174 1.0000000180025095e-35 0.96592992544174205 0.97913387417793285 -1.6335217952728269 -0.92359641194343556 0.90643590688705455 0.97583478689193737 1.1104845404624941 0.97803804278373729 -1.1647935509681699 -1.8124850392341612 1.2298977971076968 0.80351835489273082 -1.372365355491638 -0.85519424080848683 1.0000000180025095e-35 -1.4111315011978147 -0.37941357493400568 -0.75497505068778981 -0.94985073804855336 -1.0473690032958982 1.0704792737960818 -0.88749253749847401 0.59888261556625377 -1.2637752294540403 1.076700806617737 -1.1293718814849851 -1.5407468080520628 -1.1905853152275083 -0.89638647437095631 0.72377848625183117 -0.96011638641357411 -0.89981710910797108 1.0539664626121523 1.5482173562049868 -1.5476860404014585 -1.3264666795730589 -1.145389676094055 -0.83288720250129689 1.0000000180025095e-35 -0.82611471414566029 0.64279276132583629 -0.82020285725593556 -0.96873721480369557
decision_type=2 2 2 2 2 2 2 2 2 2 2 2 2 2 2 2 2 2 2 2 2 2 2 2 2 2 2 2 2 2 2 2 2 2 2 2 2 2 2 2 2 2 2 2 2 2 2 2 2 2 2 2 2 2
left_child=1 2 3 6 34 -6 10 -8 21 44 -1 23 15 16 17 41 -14 -10 19 30 -17 22 -4 24 31 29 -26 -16 -15 -25 42 -11 -23 -32 -5 37 -37 -21 46 43 -27 -13 -3 -40 48 -41 -20 -48 49 51 53 -2 -52 -50
right_child=9 18 8 4 5 -7 7 -9 14 11 -12 12 13 28 27 20 -18 -19 38 35 -22 32 -24 25 26 40 -28 -29 -30 -31 33 -33 -34 -35 -36 36 -38 -39 39 45 -42 -43 -44 -45 -46 -47 47 -49 50 -51 52 -53 -54 -55
leaf_value=0.17569157290714216 -0.14446663416877512 0.17635872640083983 0.055054053215470113 0.20150660533794926 -0.053611640574673769 0.11399855468113057 0.2023202226033991 0.10744127944911164 0.22451468832702554 0.14994560256255612 0.016296359389101955 0.28058800025652719 -0.039846207286338864 0.16754355539679941 -0.061876788273091655 -0.054706984666182817 0.12801718070766138 -0.014665434936863562 0.37604719529849268 -0.034910733540392626 0.020065392101496288 -0.086909602387706078 -0.022585089661794754 -0.034467301755543814 0.1089388350806052 -0.13508160540323469 0.04552531438212265 0.11110246321098625 0.0239238188338637 0.066727072575262961 0.053570450973573894 0.3005337262479722 0.39261760477778168 0.13850204254462717 0.25910711243306822 0.31153999695192991 0.046250323170619952 0.020398469489107257 0.11160897030738054 -0.086267943784672563 0.23040866592613152 0.074584578313481226 0.47900209885743783 0.32677331990039732 0.17969206066430365 0.13004201940186982 0.32606329631270509 0.13035074254127438 -0.1184082719185045 -0.12697542619905516 -0.11254084744323543 -0.13729801018049323 -0.11014817969635245 -0.11696490967495646
leaf_weight=19884.27238330245 55.35203617811203 135.30633334815502 952.15729749202728 1060.068510979414 752.61449497938156 36896.759060189128 2213.093639343977 11073.164690256119 606.64373161643744 743.43628439307213 430.99226061999798 55.480587869882584 406.08041796088219 626.3835467249155 98.53886391222477 783.71590639650822 183.98381027579308 62.877241283655167 21.120010428130627 588.00319958478212 1236.1194008737803 331.79345752298832 811.69470326602459 403.09184291958809 1653.366034001112 8.5218165740370733 1360.9054410681129 552.8262163028121 149.69888777285814 571.59703055769205 1135.5701280385256 93.37851656973362 7.1926557272672644 268.85924242436886 823.24536484479904 31.599610403180122 74.259871818125248 1723.5900332331657 216.49694015830755 49.403072148561478 109.99696677923203 34.237529695034027 9.3539216816425306 17.522923141717911 7.5676881894469252 18.682995736598969 24.543160513043404 65.385758265852928 2.5803214460611343 5.6402479857206336 5.3468785881996146 4.5453248322010031 391.66072060912848 5.3271576091647139
leaf_count=39243 260 360 3704 1463 3954 106371 3708 31247 1141 2453 2217 172 2690 2038 489 5446 596 273 36 3834 7107 1846 4106 2101 6594 53 6117 1604 792 2699 5024 310 9 954 648 86 393 9913 749 314 169 158 13 22 14 54 42 199 20 34 54 24 4684 43
internal_value=0 0.125235 0.129698 0.133053 0.116176 0.110648 0.152909 0.123245 0.0580296 0.0554452 0.17231 0.0648456 0.03336 0.0848373 0.144298 2.33534e-05 0.0124941 0.202052 0.0472289 0.0389063 -0.00894702 0.00384045 0.0193258 0.0869791 0.0990915 0.0443105 0.0803084 0.0849341 0.139841 0.0248772 0.0816051 0.166749 -0.0767349 0.0698295 0.226685 0.0115452 0.125441 0.00632939 0.12713 0.0928704 0.204129 0.201975 0.195928 0.12772 -0.110138 -0.0269119 0.220334 0.183764 -0.1148 -0.142464 -0.110322 -0.143923 -0.11018 -0.117436
internal_weight=0 80937.6 76557.9 73134.2 39532.7 37649.4 33601.5 13286.3 3423.72 8898.01 20315.3 8419.99 3475.7 1366.15 1320.89 2109.55 590.064 669.521 4379.7 3966.54 2019.84 2102.84 1763.85 4944.29 3851.09 1093.21 3014.27 651.365 776.082 974.689 1549.09 836.815 338.986 1404.43 1883.31 2417.45 105.859 2311.59 413.155 302.106 118.519 89.7181 144.66 234.02 478.02 68.0861 111.049 89.9289 470.453 65.5376 404.915 59.8974 397.008 7.90748
internal_count=268644 224016 202023 188851 112436 110325 76415 34955 13172 44628 41460 39495 18999 6116 3507 12883 3286 1414 21993 20577 12553 9665 7810 20496 15474 5022 12711 2093 2830 4800 6351 2763 1855 5978 2111 14226 479 13747 1416 1139 222 330 373 771 5133 368 277 241 5119 318 4801 284 4738 63
is_linear=0
shrinkage=0.1


Tree=5
num_leaves=52
num_cat=0
split_feature=106 130 131 128 76 105 93 49 85 83 127 35 35 31 37 32 54 32 58 36 127 97 84 52 114 31 109 129 6 39 108 29 53 53 111 126 36 31 20 32 17 76 117 87 26 112 112 111 52 26 23
split_gain=3003.71 1849.24 1864.07 1969.09 1468.09 1447.24 892.166 729.159 405.181 367.638 340.976 440.197 340.13 242.625 220.458 207.302 205.743 233.959 333.057 268.873 224.492 205.436 210.222 295.04 168.12 177.553 163.078 162.842 160.553 125.677 127.154 108.627 107.491 90.5506 107.114 87.8918 118.328 83.3279 76.4513 73.8395 68.0112 64.8173 50.1381 43.4586 11.5493 6.24182 0.0122087 0.00498119 0.00262202 0.000244587 1.9046e-09
threshold=-0.81692185997962941 1.0000000180025095e-35 1.0000000180025095e-35 1.0000000180025095e-35 -1.1880041956901548 -0.92576324939727772 -1.1526537537574766 0.92524316906929027 -1.2788323760032652 -1.3896604180335996 -1.7469961643218992 0.91171771287918102 0.94205546379089367 1.015579402446747 0.9583972990512849 0.96899047493934642 1.1599853634834292 0.96403357386589061 0.87918123602867138 0.93881088495254528 -1.5630376935005186 -0.90875640511512745 -1.3602287173271177 1.0461674332618716 -0.95411020517349232 0.97209846973419201 -0.89324256777763356 1.0000000180025095e-35 0.59979647397995006 0.97109535336494457 -0.86171865463256825 1.1113425493240359 1.0570740103721621 1.0459568500518801 -0.85261428356170643 -1.8544831275939939 0.96657580137252819 1.0083813667297366 1.2003665566444399 0.97033745050430309 1.5360009670257571 -1.0718444585800169 -0.97062480449676503 -0.31739702820777888 1.6099625229835512 -0.99612513184547413 -0.88705730438232411 -1.0452352762222288 0.78216642141342174 0.90828406810760509 1.4927803277969363
decision_type=2 2 2 2 2 2 2 2 2 2 2 2 2 2 2 2 2 2 2 2 2 2 2 2 2 2 2 2 2 2 2 2 2 2 2 2 2 2 2 2 2 2 2 2 2 2 2 2 2 2 2
left_child=1 2 3 4 6 -6 -1 44 21 33 14 -12 24 15 -5 -11 17 18 19 -9 -20 22 23 -3 25 -10 -24 28 -19 31 -31 -23 -29 34 -4 36 -14 -26 -35 -37 41 45 -15 -43 46 -18 -2 -42 50 -50 -48
right_child=7 8 9 10 5 -7 -8 16 12 13 11 -13 35 42 -16 -17 40 27 20 -21 -22 29 26 -25 37 -27 -28 32 -30 30 -32 -33 -34 38 -36 39 -38 -39 -40 -41 47 43 -44 -45 -46 -47 48 -49 49 -51 -52
leaf_value=-0.087824848505270794 -0.11489553582895431 0.21596957460938571 0.24879066312745701 -0.037133168737222964 0.14792376318624872 0.10625019350986316 0.16362979034015235 0.035441716376035118 0.076854175891182319 0.046819111658389562 0.046053186926332715 0.16191903157040682 -0.015306981840060234 -0.011937129526862607 0.037667816504092656 0.1316681868826666 -0.13690394007441337 0.021323804730149831 -0.021205993442945135 0.16106005935934439 0.24406889316543978 0.31483002246781955 0.16426107266022907 0.061355775976412064 0.12342100169322862 0.0013458709501312227 0.027898534011954114 -0.079013856497581914 0.11499431966377927 0.15879423882469329 0.024158796787452481 0.040763887184581127 0.11823382790979027 0.29015099937448074 0.12028046706469529 0.20572320363514965 0.14043984708345661 -0.0082555454033798742 0.031972046037657763 0.046278047260293026 -0.12697832909636078 0.21736021422802115 -0.10643436387935511 -0.040925220851053962 0.12986670301304157 0.028730849163184038 -0.10907863095416576 -0.12188207047195676 -0.11084519003284155 -0.11228984034356244 -0.10907552331848916
leaf_weight=143.83014379441738 3.6861074492335311 198.18163688480854 127.08180712163448 645.61212679743767 9773.6861962601542 56546.207181960344 7432.9664424434304 1541.6340680867434 356.16163513064384 4744.9854333251715 1602.6729298979044 412.23703411221504 85.037804119288921 127.59025172144175 1011.0566791519523 306.54804189503193 5.686546728014946 809.149623952806 1441.477671250701 191.5614430308342 32.623338207602501 66.95169772207737 97.307549938559532 327.16431468725204 209.27990390360355 2478.6628665104508 888.3803735524416 29.074592344462872 236.45691135525703 243.56680620461702 98.521887578070164 18.446401700377464 555.2196868956089 13.370157793164251 132.46658781170845 135.42832832783461 114.41227133572102 62.38490979373455 80.680362239480019 36.974339216947556 3.4149390012025833 106.52101971209049 100.2740079164505 6.9387733936309806 2.0326090455055228 3.7924832701683027 352.061438113451 4.3750666677951804 3.2538341209292403 1.8316671326756475 1.983308508992194
leaf_count=751 34 427 248 3104 18368 142432 14379 7120 1651 19423 5676 1106 406 704 4325 950 31 4138 9061 749 129 111 271 1439 736 14428 4065 191 832 682 485 84 2440 28 412 292 296 310 344 134 21 267 781 39 3 15 4614 30 37 19 26
internal_value=0 0.105885 0.109571 0.113604 0.117156 0.112392 0.158856 0.0286094 0.0492705 0.0540266 0.0421257 0.0697586 0.0288532 0.0474151 0.0085175 0.0519681 0.0386303 0.0352847 0.019607 0.0493257 -0.0153352 0.085906 0.0685908 0.119682 0.0180342 0.0108326 0.0413603 0.0661352 0.0425068 0.14711 0.120019 0.25563 0.108419 0.15274 0.183202 0.119236 0.0740354 0.0931829 0.0686746 0.171528 0.162421 0.180577 -0.0535216 0.201564 -0.107838 -0.0706348 -0.10917 -0.124116 -0.109111 -0.111366 -0.109079
internal_weight=0 88618.1 83201.3 77568.3 73896.7 66319.9 7576.8 5332.78 5416.86 5633 3671.58 2014.91 3478.34 5279.4 1656.67 5051.53 4967.93 4837.2 3207.3 1733.2 1474.1 1938.52 1511.03 525.346 3106.49 2834.82 985.688 1629.9 1045.61 427.487 342.089 85.3981 584.294 353.599 259.548 371.853 199.45 271.665 94.0505 172.403 130.729 122.939 227.864 113.46 364.849 9.47903 362.816 7.79001 359.13 5.0855 354.045
internal_count=268644 238848 213031 190141 175930 160800 15130 29796 25817 22890 14211 6782 18253 21858 7429 20373 25063 24660 17059 7869 9190 7564 6202 1866 17125 16079 4336 7601 4970 1362 1167 195 2631 1032 660 1128 702 1046 372 426 403 352 1485 306 4733 46 4730 51 4696 56 4640
is_linear=0
shrinkage=0.1


Tree=6
num_leaves=52
num_cat=0
split_feature=105 121 103 30 105 131 129 30 136 134 30 127 30 33 121 111 119 127 135 52 49 109 36 126 38 32 130 115 113 71 127 72 41 40 70 53 127 118 127 37 0 72 69 36 120 118 79 57 127 118 119
split_gain=2343.65 2187.95 2077.77 1750.49 1365.74 1333.71 1303.3 1136.39 1023.49 1271.54 904.075 679.508 508.138 473.376 658.283 471.138 593.231 421.232 398.833 398.277 277.73 252.436 248.892 229.776 262.649 224.501 226.152 205.108 178.927 137.685 127.698 260.869 125.35 111.687 91.3091 153.925 82.7516 76.0481 74.3075 50.2163 36.9436 29.9949 26.5359 25.4913 20.4785 12.2998 11.2901 8.87956 3.73657 0.231473 0.143937
threshold=-0.78573539853095997 -1.8438852429389951 -0.82929107546806324 1.081886410713196 -0.93269371986389149 1.0000000180025095e-35 1.0000000180025095e-35 1.0598292946815493 1.0000000180025095e-35 1.0000000180025095e-35 1.0957080721855166 -2.0652103424072261 1.1104845404624941 0.81587910652160656 -1.876343250274658 -1.245090067386627 -1.666556119918823 -3.2674291133880611 1.0000000180025095e-35 1.1437952518463137 1.1794931888580324 -1.1267824172973631 0.93646666407585155 -1.59624308347702 0.96133151650428783 0.93157336115837108 1.0000000180025095e-35 -1.4882531166076658 -0.92806431651115406 -0.19082558900117871 -3.2335052490234371 -0.32046000659465784 1.0989262461662295 1.0628338456153872 -0.069441780447959886 1.1347196698188784 -2.7143700122833248 -1.6227518320083616 -3.3592264652252193 0.9513528347015382 -0.18161553144454953 -0.30712181329727167 0.087418839335441603 0.83161950111389171 -1.7491801381111143 -1.5946066379547117 -0.31265376508235926 0.95972663164138805 -3.0333805084228511 -1.5888773798942564 -1.6590061783790586
decision_type=2 2 2 2 2 2 2 2 2 2 2 2 2 2 2 2 2 2 2 2 2 2 2 2 2 2 2 2 2 2 2 2 2 2 2 2 2 2 2 2 2 2 2 2 2 2 2 2 2 2 2
left_child=1 15 3 5 12 6 -3 8 9 -4 -6 -10 -5 18 29 16 30 34 27 40 21 -18 -7 24 -9 36 -27 -2 -25 38 31 -1 49 -22 47 -36 -19 -32 50 42 41 -17 -29 -20 46 -42 -31 -16 -45 -21 -15
right_child=13 2 7 4 10 22 -8 23 11 -11 -12 -13 -14 14 17 19 20 25 43 32 33 -23 -24 28 -26 26 -28 39 -30 44 37 -33 -34 -35 35 -37 -38 -39 -40 -41 45 -43 -44 48 -46 -47 -48 -49 -50 -51 -52
leaf_value=-0.13669191740137968 0.22066574947289133 0.1175645795098474 0.052685211017322764 0.13451733582331837 0.056956982664151092 0.048656992726195641 0.021730881109488159 -0.06409663520567048 0.0051331266971494901 0.10029536368961639 -0.036775742878290794 0.12571361581048515 -0.065292781880268366 -0.14851450167458924 0.02449882681758064 0.13938145527287629 -0.13395244530121084 0.06157759387450517 0.073488730748056466 -0.16080673280610894 -0.095070098372937006 0.24844979294378208 0.17511881339184865 0.11750060561982528 0.055241456830826721 0.027450045466848556 -0.088508053995818681 -0.11461043031282225 -0.025143135665755351 0.23231896750574368 0.21532228640949078 0.15716749393730886 0.15960705852883128 0.051945544811022773 0.22091242638273886 -0.097135556208978055 0.204492370980176 0.15795054172206824 0.2359489949994974 0.20038758061275819 0.23501412355051599 0.25356200996723438 -0.051663643278966803 0.23458305430305654 0.30213662118343487 0.29550308886147669 0.16908991601799275 -0.12947616995332883 0.30155683616569284 -0.140061059310848 -0.12841712515693224
leaf_weight=32.887253314256668 20.25048840045929 40248.193299561739 20580.400170892477 2576.9802054092288 6531.0522142425179 3843.5919164717197 1470.9429429620504 879.27976296842098 518.69369381666183 7711.5171625465155 1221.4663643240929 4721.1405956447124 133.88887017965317 5.0105138272047087 3.8052416518330565 26.041484549641609 21.988817274570465 74.763054013252258 8.689499728381632 7.0189221501350429 124.81555250287056 80.317520454525948 162.19703632593155 195.39541393518448 233.37235008180141 1915.9927116110921 184.37355587631464 491.3643441349268 159.8983951061964 101.67347013950348 801.37885344028473 371.01378954946995 24.584763988852501 88.182251155376434 22.105967372655869 48.827634885907173 88.446587584912777 324.63793756067753 7.8882215321063986 5.3990403339266768 36.745846152305603 197.45665566623211 77.539291046559811 17.925713852047917 33.134151846170425 394.66894938051701 39.100051328539848 237.92202889919281 15.562437832355501 23.00949265062809 12.340982839465141
leaf_count=124 16 83730 72638 4943 20142 14777 6430 4011 1670 18708 5893 10250 636 23 15 56 89 235 29 30 475 61 409 518 776 9873 1241 5140 720 72 603 478 36 205 38 251 235 396 8 11 24 144 552 25 26 293 44 1338 21 113 73
internal_value=0 0.0910938 0.0885367 0.10045 0.0635526 0.108894 0.114186 0.0694108 0.073181 0.0656623 0.0421887 0.113777 0.124649 0.00672181 0.0245623 0.182367 0.155738 0.0110217 -0.0710415 0.251621 0.0308396 0.16626 0.0537775 -0.0167093 -0.0390662 0.0260499 0.0172711 -0.0921212 0.0533044 0.199729 0.181479 0.13324 -0.00782818 -0.0342048 -0.0977782 0.0019819 0.139026 0.198782 -0.0185307 -0.10315 0.273256 0.240258 -0.106031 0.226106 0.231405 0.290351 0.214757 -0.127052 0.265707 -0.14491 -0.134221
internal_weight=0 93742.8 91188 56188.3 10463.4 45724.9 41719.1 34999.7 33531.8 28291.9 7752.52 5239.83 2710.87 3412.11 2775.38 2554.75 1845.22 2576.24 636.731 709.526 315.304 102.306 4005.79 1467.95 1112.65 2263.58 2100.37 594.553 355.294 199.147 1529.92 403.901 54.6132 212.998 312.661 70.9336 163.21 1126.02 25.2397 574.303 654.913 223.498 568.904 42.1777 173.908 431.415 140.774 241.727 33.4882 30.0284 17.3515
internal_count=268644 249378 246251 136960 31614 105346 90160 109291 103266 91346 26035 11920 5579 19266 13472 3127 2431 13226 5794 696 830 150 15186 6025 4787 11584 11114 5719 1238 246 1601 602 179 680 1642 289 470 999 104 5703 517 200 5692 75 142 317 116 1353 46 143 96
is_linear=0
shrinkage=0.1


Tree=7
num_leaves=55
num_cat=0
split_feature=107 130 118 127 30 32 34 121 135 114 52 123 109 79 81 32 79 119 56 89 52 3 100 81 5 41 103 39 44 76 59 73 8 32 90 82 109 110 122 2 85 47 26 101 97 111 78 106 117 106 0 136 105 106
split_gain=1900 1450.4 1273.59 2126.38 1290.9 1508.55 1054.95 1148.74 961.122 883.476 833.73 307.449 259.157 504.562 294.301 236.135 229.665 336.745 266.813 225.936 270.293 190.128 192.638 184.547 219.789 166.461 157.742 198.334 140.429 209.504 151.687 136.774 132.391 127.367 121.888 120.873 294.594 158.59 94.1689 71.7263 63.1541 45.9826 45.9248 39.0982 22.7987 6.69432 9.57326 5.1314 2.9885 0.0636979 0.0471393 0.056006 0.0199601 0.00785691
threshold=-0.84378722310066212 1.0000000180025095e-35 -1.6018677949905393 -2.485532164573669 1.0914401412010195 0.94920089840888988 0.83507391810417186 -1.858022093772888 1.0000000180025095e-35 -0.99834811687469471 0.78216642141342174 -1.1207016110420225 -0.83980020880699147 -1.3989648818969724 -1.3688246607780454 0.96403357386589061 -0.43308773636817927 -1.666556119918823 1.0021043419837954 -1.1556025147438047 1.1249690651893618 0.52222466468811046 -0.84375596046447743 -1.4267454743385313 0.62361830472946178 1.0289311408996584 -0.83834865689277638 1.0013501644134524 1.1002743244171145 -1.1601616144180296 0.79875627160072338 -0.78685700893402089 0.67004311084747326 0.93099007010459911 -0.1348801106214523 -1.4012882709503172 -0.82506465911865223 -0.84943479299545277 -1.2470688819885252 0.5403612256050111 -1.3860659003257749 1.1261869072914126 1.5482173562049868 -0.838559329509735 -0.95906135439872731 -1.2637752294540403 -0.46538460254669184 -0.83288720250129689 -1.5651987791061399 -0.82020285725593556 0.7636297643184663 1.0000000180025095e-35 -0.78573539853095997 -0.82611471414566029
decision_type=2 2 2 2 2 2 2 2 2 2 2 2 2 2 2 2 2 2 2 2 2 2 2 2 2 2 2 2 2 2 2 2 2 2 2 2 2 2 2 2 2 2 2 2 2 2 2 2 2 2 2 2 2 2
left_child=1 2 16 6 5 -5 8 -8 -4 -6 42 12 13 40 -15 19 45 34 -19 28 39 26 32 24 -14 35 41 -28 30 -30 -3 -22 -23 -25 -18 36 -13 -37 -24 -21 -12 -17 47 -27 -45 46 -1 50 -47 53 -2 -52 -51 -49
right_child=10 15 3 4 9 -7 7 -9 -10 -11 11 25 23 14 -16 21 17 18 -20 20 31 22 38 33 -26 43 27 -29 29 -31 -32 -33 -34 -35 -36 37 -38 -39 -40 -41 -42 -43 -44 44 -46 48 -48 49 -50 52 51 -53 -54 -55
leaf_value=0.21328952030386752 -0.14981914426343385 0.041253936560341847 -0.099710098346418322 0.10268698400683461 0.083750238169135349 0.071893162594981866 0.17514361505788009 0.039732981423474263 0.19244988779173569 -0.013827758302664065 0.13148676528665226 0.14638686255860847 0.0033745470897301576 0.05653904669226522 0.010148355571306363 0.040221044434371772 0.16128925330553467 0.14429992491491761 -0.022266587459837769 -0.035858197713562495 0.21883639821816475 -0.0565083397914675 0.41642758445936567 0.038310351518545949 0.13580029131342233 0.1064793197901982 -0.10839518647062457 0.060820243351294871 0.19151680985067071 -0.049679114714770121 -0.090052244440448959 0.039706063884843185 0.19223581791171096 -0.067879745863323931 0.002838158236519206 0.073097794353394349 0.041665003601610517 -0.048573926921202631 0.19248064091079931 0.027160662108976549 0.27296064825534067 0.32123883314537921 0.1246465640478111 0.47193922625650891 0.27663700923766488 0.20884438403092448 0.12149914932604855 -0.11696566454965424 0.22488339406737909 -0.10907741657672237 -0.13101194796828361 -0.13980389868176021 -0.10726053294530496 -0.1119017262462009
leaf_weight=28.737492263317108 3.9556652307510367 1557.587200216949 832.85140321403742 44109.128683634102 1723.2543880417943 24883.064515128732 677.31331066042185 8349.6601868420839 130.20281888544559 2010.3332296684384 46.812873028218746 543.02715802192688 770.56306123733521 3250.7495791763067 2360.519322283566 7.4039609879255286 1722.8034610748291 177.22717352211475 210.26173901557922 1298.2942726612091 46.593180671334267 42.564989477396011 32.354538321495056 144.89832443743944 149.67686860263348 7.3194658309221294 77.457078240811825 654.95745748281479 133.14075900614262 49.364663258194923 93.246006689965725 500.51811656355858 43.025193363428116 512.28107123076916 49.955638937652111 341.97409189492464 531.59959719330072 155.99201587215066 44.74233341217041 209.79277641326189 96.801386207342148 27.264264121651649 8.2979957759380323 11.516392916440967 12.426967620849606 246.84268942475319 18.792495146393776 7.6880049630999565 219.45081366598606 82.387765198945999 8.4591677188873273 50.497057542204857 227.24225439876318 5.0940291658043844
leaf_count=22 18 6099 4312 90345 4272 66986 971 23664 230 8900 151 1319 4053 13132 11617 36 1806 246 601 7984 130 230 58 581 365 19 509 2544 303 224 516 2322 73 3028 158 1119 2071 722 75 1091 205 43 14 12 33 159 29 63 150 1083 48 248 3601 54
internal_value=0 0.0817228 0.0847348 0.082539 0.0884814 0.0915807 0.039279 0.0498931 -0.0602107 0.0312098 0.0343191 0.040593 0.0319179 0.0417607 0.0370237 0.028343 0.152658 0.138365 0.0539165 0.017518 -0.0052484 0.073616 0.171809 -0.00399129 0.0249136 0.0802527 0.0527907 0.0429247 0.0430395 0.126277 0.0338372 0.0549612 0.0685325 -0.0444664 0.156824 0.0757103 0.0945827 0.0349831 0.286462 -0.0270915 0.226845 0.261223 -0.108115 0.308743 0.370574 0.212749 0.176997 -0.113127 0.216393 -0.10803 -0.139251 -0.138542 -0.107744 -0.114948
internal_weight=0 90208.2 85389.9 82715.8 72725.8 68992.2 9990.03 9026.97 963.054 3733.59 9329.78 8936.16 7332.3 5754.88 5611.27 4818.31 2674.07 2160.25 387.489 3888.54 2055.2 929.77 162.687 1577.42 920.24 1603.86 767.083 732.415 1833.34 182.505 1650.83 547.111 85.5902 657.179 1772.76 1572.59 1074.63 497.966 77.0969 1508.09 143.614 34.6682 393.622 31.2628 23.9434 513.823 47.53 385.324 466.294 322.412 62.9119 58.9562 309.63 12.782
internal_count=268644 225088 202851 199680 170503 157331 29177 24635 4542 13172 43556 38427 33132 25105 24749 22237 3171 2811 847 18669 11527 3568 436 8027 4418 5295 3132 3053 7142 527 6615 2452 303 3609 1964 5231 3390 1841 133 9075 356 79 5129 64 45 360 51 5115 309 4801 314 296 4684 117
is_linear=0
shrinkage=0.1


Tree=8
num_leaves=63
num_cat=0
split_feature=128 130 131 129 77 114 110 33 81 105 4 101 36 126 124 106 77 39 127 43 105 31 57 35 49 105 37 36 121 50 74 119 51 8 102 43 60 31 103 126 49 0 58 103 37 127 91 90 5 120 35 31 84 107 31 19 72 32 109 37 69 47
split_gain=1592.73 1388.78 1604.42 1378.16 1126.53 1451.12 790.96 661.863 392.15 325.368 306.209 377.267 274.369 253.675 246.678 244.039 233.021 201.624 199.61 389.684 218.943 196.101 215.361 178.044 164.869 158.024 231.628 172.001 163.925 145.357 133.938 242.05 195.796 126.681 268.704 139.139 125.883 114.381 108.26 105.364 91.2658 86.9358 77.7036 76.0858 74.2661 73.2137 65.8279 63.5068 68.5736 57.7102 54.8242 43.4314 50.1608 33.57 30.7377 24.6306 20.7948 18.235 11.7565 10.7233 5.02342 0.0602206
threshold=1.0000000180025095e-35 1.0000000180025095e-35 1.0000000180025095e-35 1.0000000180025095e-35 -1.2355303168296812 -0.93559154868125904 -0.8555440604686736 0.94878411293029796 -1.1418052911758421 -0.79904738068580616 0.56041467189788829 -0.8256515860557555 0.96490737795829784 -1.815523564815521 -1.5937806963920591 -0.79246053099632252 -1.2262671589851377 1.0256205201148989 -1.8492419123649595 1.1100482344627383 -0.83423611521720875 1.0116256475448611 0.91539201140403759 0.91962710022926342 1.1214174032211306 -0.86353579163551319 0.85551109910011303 0.87267157435417186 -0.93321171402931202 1.0512362122535708 -1.0208169817924497 -0.92409774661064137 1.0840614438056948 0.65678483247756969 -0.77793624997138966 1.0499566793441775 0.79516649246215831 0.97620171308517467 -0.84456753730773915 -1.8544831275939939 1.1415277123451235 0.50922787189483654 0.9102105200290681 -0.74164134263992298 0.99963921308517467 -1.7226395010948179 -1.1435942649841306 -1.1758995652198789 0.51283064484596264 -1.0238420963287351 0.94632956385612499 0.9979495406150819 -1.445889353752136 -0.87330242991447438 0.99071303009986889 1.1284685134887698 -0.59415560960769642 0.96507850289344799 -0.97020393610000599 0.99963921308517467 -0.039159698411822312 1.2053287625312807
decision_type=2 2 2 2 2 2 2 2 2 2 2 2 2 2 2 2 2 2 2 2 2 2 2 2 2 2 2 2 2 2 2 2 2 2 2 2 2 2 2 2 2 2 2 2 2 2 2 2 2 2 2 2 2 2 2 2 2 2 2 2 2 2
left_child=1 2 3 4 6 -6 -1 8 -5 21 12 25 18 43 -9 16 30 37 20 23 40 22 -4 -20 33 26 41 53 -29 -28 31 -3 -32 34 -13 -35 -21 -18 -23 -19 -2 -12 46 44 -14 56 -15 51 61 -47 -22 57 -53 -27 -44 -50 -26 -17 -11 -45 -60 -49
right_child=10 15 9 7 5 -7 -8 14 -10 58 11 24 13 42 -16 47 17 39 19 36 50 38 -24 -25 45 27 29 28 -30 -31 32 -33 -34 35 -36 -37 -38 -39 -40 -41 -42 -43 54 59 -46 49 -48 48 55 -51 -52 52 -54 -55 -56 -57 -58 -59 60 -61 -62 -63
leaf_value=0.11625072877138731 -0.031784026545001995 -0.061283377174043967 0.044603168973064801 0.02495129153106021 0.080463129960739524 0.0024926604910906975 -0.11716930345725736 0.034158143074165988 -0.093257803211362428 0.098698433424391566 -0.11820865628295417 0.030630866727121654 -0.020705153200171661 -0.14992362913392832 0.13771341770387019 -0.11526731729722124 0.045535399425810634 0.034360910922412273 -0.058936436695751993 0.18658494706803808 -0.087057149331806818 -0.03554576406124034 -0.014017816028073775 0.018837981519759638 -0.12968525007111259 0.064849666587669053 0.17707804192860171 0.0074737337135017679 0.18879351201027375 0.062421393735252566 0.095859638263126365 0.058945773929002666 0.037937414495380628 -0.11742225838813936 0.22589292325332988 0.18209635367043298 -0.031449833371728755 -0.0073895233073876122 0.07026924572391402 0.11790129064395199 0.067554207139320963 0.015098442436728263 0.039620172061120847 -0.11904253382608923 0.075845294264948321 0.37054274756028949 0.13258222868939096 -0.11879770395837155 0.36084505374968057 0.10815349285244802 -0.024799632930854239 0.23790688005108721 -0.12405700480674159 -0.1132330691879266 -0.13773053331718685 0.098126383676710213 0.17315997400920435 0.18358942156003469 -0.11283278635199312 -0.049528901350138502 -0.017588686758803828 -0.13544004906337972
leaf_weight=10246.268548727036 182.53951966762543 270.23555082827806 4898.4527235105634 4763.3531983904541 62566.088298037648 2481.6322475560009 147.25685102492571 337.04265837371349 298.21034673601389 2.7493279725313178 71.13597346842289 415.02736847102642 194.4859129935503 8.4570886641740781 724.50479958951473 170.44796869531274 495.40722747892141 442.08771561086178 468.9779359549284 147.21609228104353 661.73417303711176 599.95997609943151 718.64435978233814 790.45118211954832 5.0606253296136856 11.481156945228575 150.52157492935658 1241.6555879712105 51.946307390928268 416.5843171030283 1018.8195227831602 440.24784037470818 1366.1557812914252 16.910737540572882 84.890883594751358 187.19337904453278 32.287338577210903 2323.7236284017563 115.26368767023087 229.2677883580327 187.46961089968681 156.64954295754433 35.929931491613388 45.885093227028847 134.9457929879427 38.690970733761787 333.80067590624094 7.2515212148427981 6.3462939560413352 10.700450718402861 179.89870707690716 7.9646138995885849 7.3724257946014387 135.680190525949 13.423513025045393 8.1530984006822091 4.1077098548412305 2.0663932263851157 168.94532185792923 42.976474866271019 5.725287362933158 3.1053994596004486
leaf_count=17103 757 1322 17146 20195 133874 7921 1238 1189 1599 11 330 1562 909 40 1967 1666 2061 1786 2236 444 3875 3263 3032 3884 29 30 264 4402 128 1100 3065 1587 5980 217 153 321 179 12953 367 600 642 556 148 357 405 51 813 58 12 45 924 9 49 1068 72 38 12 10 2353 189 31 17
internal_value=0 0.0714954 0.0748569 0.0786699 0.0823731 0.0774885 0.112944 0.0330434 0.0179868 0.0270816 0.0201739 0.0435661 -9.36203e-05 0.0508457 0.104834 0.0279484 0.0313532 0.0136396 -0.0156585 0.00952337 -0.0455643 0.0308238 0.0371033 -0.0101231 0.104303 0.0228488 0.0586421 0.00310113 0.0147549 0.0928536 0.0513274 0.0132161 0.0626808 0.0908926 0.0637882 0.15728 0.147367 0.001911 -0.0184929 0.0628899 0.0185469 -0.0265325 0.108686 -0.00330561 0.018845 0.265523 0.125602 -0.0774747 0.0727382 0.313697 -0.0737496 -0.0973508 0.0639129 -0.0993395 -0.00861698 0.213117 0.00599918 -0.111688 -0.106481 -0.0854234 -0.109711 -0.123788
internal_weight=0 94872.8 88074.1 81564.4 75441.2 65047.7 10393.5 6123.11 5061.56 6509.74 6458.72 2998.24 3460.48 809.904 1061.55 6798.65 6585.95 3490.49 2650.57 1438.93 1211.64 6332.32 5617.1 1259.43 762.582 2235.65 794.891 1440.76 1293.6 567.106 3095.46 710.483 2384.98 704.022 499.918 204.104 179.503 2819.13 715.224 671.356 370.009 227.786 391.611 418.293 329.432 58.5598 342.258 212.708 24.8563 49.3914 841.633 187.851 15.337 147.161 49.3534 14.4994 9.16834 172.514 177.42 88.8616 174.671 10.3569
internal_count=268644 242502 211289 185086 160136 141795 18341 24950 21794 26203 26142 10268 15874 2933 3156 31213 29354 17400 12941 6743 6198 23808 20178 6120 2390 7878 2250 5628 4530 1364 11954 2909 9045 2253 1715 538 623 15014 3630 2386 1399 886 1073 1860 1314 137 853 1859 125 96 4799 1734 58 1098 220 50 41 1676 2395 546 2384 75
is_linear=0
shrinkage=0.1


Tree=9
num_leaves=60
num_cat=0
split_feature=106 136 120 127 30 105 38 74 118 72 91 120 105 51 134 78 111 131 110 115 133 30 72 32 34 30 99 71 52 109 109 49 133 35 69 83 4 120 55 33 8 30 26 114 47 112 76 78 15 53 71 71 10 52 0 116 107 107 106
split_gain=1417.23 1360.49 1247.8 1862.09 1450.41 1116.74 1011.72 955.211 890.413 681.188 658.457 1081.01 591.501 946.191 788.696 703.92 760.756 564.58 536.236 476.846 423.866 410.092 384.928 552.678 435.048 371.598 289.633 426.105 266.406 206.002 269.547 271.179 194.548 190.056 228.727 161.882 150.833 105.154 101.421 97.1332 84.0481 77.0382 62.8531 58.9694 56.9715 56.5457 64.3335 38.3549 36.3678 35.1971 29.7839 16.6126 16.1267 6.31721 5.83376 5.3081 2.7736 0.973915 0.13352
threshold=-0.86083722114562977 1.0000000180025095e-35 -1.731346011161804 -2.4649924039840694 1.0764493942260744 -0.93606704473495472 0.92440867424011242 -0.96758443117141713 -1.3443071842193601 -0.7776491343975066 -0.31002342700958246 -1.7008984088897703 -0.76880216598510731 1.1470676660537722 1.0000000180025095e-35 -1.2672506570816038 -0.921535164117813 1.0000000180025095e-35 -0.92270660400390614 -0.88742116093635548 1.0000000180025095e-35 1.0681648850440981 -0.6216638684272765 0.96201103925704967 0.90611755847930919 1.1059706807136538 -0.44337767362594599 -0.21419560164213178 1.2218160629272463 -1.1321636438369749 -1.1556602120399473 1.1884775161743166 1.0000000180025095e-35 0.85890266299247753 0.087418839335441603 -1.1630262136459348 0.62631866335868847 -1.7426930665969846 1.0463992953300478 0.82629963755607616 0.13086110353469851 1.0739910602569582 0.99840256571769725 -1.4308717250823972 1.1814580559730532 -1.2991170287132261 -0.44284442067146296 -0.34005925059318537 0.48132453858852392 1.0341924428939822 -0.21998512744903562 -0.34523560106754297 -1.0000000180025095e-35 1.05040979385376 -0.34416440129280085 -1.5012181997299192 -0.79470062255859364 -0.83170369267463673 -0.83288720250129689
decision_type=2 2 2 2 2 2 2 2 2 2 2 2 2 2 2 2 2 2 2 2 2 2 2 2 2 2 2 2 2 2 2 2 2 2 2 2 2 2 2 2 2 2 2 2 2 2 2 2 2 2 2 2 2 2 2 2 2 2 2
left_child=2 12 26 6 7 25 20 17 -9 -7 11 -8 13 15 32 16 -2 -5 -17 21 39 22 24 -24 -3 -6 29 42 33 30 38 -32 -15 43 -35 -16 49 47 -1 -4 -12 -38 50 -14 -22 46 -31 -29 52 -23 -28 -50 -30 56 -39 -47 57 -21 -58
right_child=1 19 3 4 5 9 10 8 -10 -11 40 -13 28 14 35 18 -18 -19 -20 53 44 36 23 -25 -26 -27 27 37 48 45 31 -33 -34 34 -36 -37 41 54 -40 -41 -42 -43 -44 -45 -46 55 -48 -49 51 -51 -52 -53 -54 -55 -56 -57 58 -59 -60
leaf_value=0.17082826770079795 0.093092216354615329 0.089203417888591707 -0.15051866042079115 0.11458651304928752 0.10779292510468602 -0.006551668784658073 0.11356477778293116 0.14283708180386487 0.068761575174071776 0.04699505878841384 -0.1081876394849729 0.023437984103663909 0.17831477425364189 0.065028429433830248 0.032198412453679263 0.018276065291727851 0.030425262475116812 0.042647641380930801 -0.045074019715015526 -0.15767479780567351 -0.11900187754860088 -0.13957542065291823 0.030169821162039652 0.10345832852314141 0.16888577375415492 -0.01219545854631365 -0.16918079308939296 0.16307795320146223 -0.13465793938701517 0.17315092366040119 -0.1461329246560015 0.086569061212560305 -0.15472816265988057 -0.031962461031783164 0.1561384379536534 0.20406636659098526 0.072860522477309023 -0.012024340731354805 -0.0069899727348804635 0.093649615279150111 0.059816835261519319 -0.14811348045430159 0.10162008909330478 -0.10074031515147384 0.062706545227077928 0.18360520115810014 0.11470056140299018 0.089132378692938913 0.1104519343199111 0.019103070183293925 -0.040244820571064786 0.21043749135717804 0.11258453339831286 -0.011149632435659605 -0.14924440544921971 0.21319440392083333 -0.13186074233945785 -0.13075553786019253 -0.10758503720693435
leaf_weight=550.98177117109299 2363.083401247859 3069.3918599933386 18.381763741374016 10375.395426437259 3159.3558226153255 3151.1399491652846 1653.1002113372087 1724.0809515118599 27599.899758353829 9654.9486275017262 346.26861818134785 6826.6276451945305 7.7022483348846427 1958.8907184451818 60.502659857273102 5523.6076706722379 10747.976153194904 1219.1196582019329 1762.528775613755 20.226743802428246 660.7119400203228 114.41623595356941 2270.1396482884884 1882.001329138875 882.1102908551693 281.0661091953516 75.657225042581558 162.37400075793266 6.0883131623268127 804.62612408399582 55.841171756386757 485.30999419093132 41.130745559930801 721.20600103586912 71.009916663169861 581.80204807221889 96.600283265113831 3.9854817092418697 34.058336019515991 143.34940788149834 32.57899709045887 18.85670793056488 12.230922520160673 449.98216460645199 17.717386871576309 78.88418784737587 245.83836914598942 123.49393737316132 27.789003126323223 15.924394905567167 23.474484235048294 41.335550718009472 4.6553999707102758 5.0885814577341071 13.917062148451803 261.96999274194241 2.3688660264015189 40.054487586021423 52.021248679608107
leaf_count=437 6708 5538 85 16779 5152 11152 2913 2286 62430 26230 1485 18952 5 6840 154 18526 41025 4001 8047 89 2717 420 5704 3601 1099 996 333 138 38 598 206 770 185 4064 101 646 178 12 79 297 73 71 19 5253 49 55 324 200 63 39 85 49 13 30 71 179 13 228 814
internal_value=0 0.0434218 0.0686136 0.0658134 0.0726872 0.0474082 0.0252988 0.0827242 0.0731168 0.033819 0.0352453 0.041008 0.0314225 0.0351654 0.0914701 0.0278715 0.0417201 0.107022 0.00295157 0.0779486 -0.0795766 0.0807904 0.0846501 0.0633886 0.106991 0.0979904 0.132458 0.0550676 -0.0334268 0.145219 0.113425 0.0625566 0.0605091 -0.0447412 -0.0151021 0.187877 -0.0464613 0.11641 0.160477 0.0658984 -0.0937401 0.0367705 -0.11226 -0.0960442 -0.114257 0.170956 0.159472 0.131134 0.143639 -0.120189 -0.138649 0.170242 -0.0275243 -0.120177 -0.118696 0.206347 -0.125015 -0.139788 -0.108642
internal_weight=0 32838.5 69796.4 66863.7 57165 16246.5 9698.74 40918.5 29324 12806.1 8858.58 8479.73 24369.3 23039.5 2642.33 20397.2 13111.1 11594.5 7286.14 8469.2 840.16 8349.44 8103.64 4152.14 3951.5 3440.42 2932.64 415.133 1329.77 2517.51 1126.19 541.151 2000.02 1249.9 792.216 642.305 245.798 303.77 585.04 161.731 378.848 115.457 111.363 457.684 678.429 1391.32 1050.46 285.868 79.8683 130.341 99.1317 69.1246 10.7437 119.76 17.9025 340.854 114.671 60.2812 54.3901
internal_count=268644 109541 159103 155597 129026 43530 26571 85496 64716 37382 23423 21865 91717 82131 7825 74306 47733 20780 26573 17824 3148 16650 15942 9305 6637 6148 3506 858 9586 2648 1492 976 7025 9423 4165 800 708 421 516 382 1558 249 437 5258 2766 1156 922 338 163 459 418 112 51 1174 83 234 1144 317 827
is_linear=0
shrinkage=0.1


Tree=10
num_leaves=62
num_cat=0
split_feature=104 118 30 1 133 122 105 108 40 30 56 73 134 104 51 77 120 104 98 111 103 27 136 42 30 89 71 131 110 24 4 38 30 56 30 29 133 104 104 52 72 113 29 97 111 75 112 104 30 76 4 55 49 133 103 135 118 109 0 118 118
split_gain=1161.79 1729.29 1239.93 1214.2 1265.91 1044.21 999.412 828.835 733.681 667.805 598.291 628.735 575.93 705.217 539.921 420.735 493.949 408.873 399.202 387.079 379.701 507.9 375.569 413.719 338.817 324.459 301.747 250.297 239.204 238.039 207.964 266.114 172.3 161.045 160.53 152.992 145.206 137.921 136.478 134.074 210.331 118.226 115.627 242.546 111.895 102.372 97.1318 95.8388 89.9461 79.221 77.3628 37.6807 55.0249 36.2548 79.6936 27.1237 13.3446 8.09726 5.37811 2.30462 0.044478
threshold=-0.84698867797851551 -1.5837330818176267 1.0748155713081362 -0.11198258772492407 1.0000000180025095e-35 -1.9953089356422422 -0.93269371986389149 -1.0564488768577573 1.0229583978652956 1.0938269495964053 0.89908704161643993 -0.90349835157394398 1.0000000180025095e-35 -0.87708666920661915 0.73104140162467968 -0.50830000638961781 -1.7259854674339292 -0.81997996568679798 -0.38645878434181208 -1.2422984838485716 -0.8581222891807555 1.2587363719940188 1.0000000180025095e-35 1.0538464188575747 1.1104845404624941 -0.38353157043457026 -0.1767797917127609 1.0000000180025095e-35 -1.1968170404434202 1.064058303833008 0.5850597918033601 0.88799852132797252 1.0645923614501955 0.89049118757247936 1.1030912995338442 1.1969988942146303 1.0000000180025095e-35 -0.81806322932243336 -0.90533113479614247 1.1455331444740298 -0.32046000659465784 -1.3624746799468992 1.1480144262313845 -0.99008905887603749 -1.2513512372970579 -1.0307068228721616 -0.95500621199607838 -0.8533823788166045 0.90775963664054882 -0.56452217698097218 0.77470022439956676 1.0255448222160342 1.1723261475563052 1.0000000180025095e-35 -0.95882797241210926 1.0000000180025095e-35 -1.5946066379547117 -1.1294140815734861 -0.24026425182819364 -1.6018677949905393 -1.0084835290908811
decision_type=2 2 2 2 2 2 2 2 2 2 2 2 2 2 2 2 2 2 2 2 2 2 2 2 2 2 2 2 2 2 2 2 2 2 2 2 2 2 2 2 2 2 2 2 2 2 2 2 2 2 2 2 2 2 2 2 2 2 2 2 2
left_child=2 15 12 25 5 19 24 -7 37 10 11 -8 13 14 46 51 18 -10 28 -5 42 33 23 -15 30 49 -20 -16 -17 41 31 -4 -24 -22 38 -32 -12 -6 -11 40 -27 -18 45 -44 -31 -14 -1 -23 -41 55 -36 52 -2 60 -55 -3 59 -58 -51 -53 -26
right_child=1 3 6 4 8 7 9 -9 17 34 36 -13 20 22 27 16 29 -19 26 -21 21 47 32 -25 53 39 -28 -29 -30 44 35 -33 -34 -35 50 -37 -38 -39 -40 48 -42 -43 43 -45 -46 -47 -48 -49 -50 58 -52 56 -54 54 -56 -57 57 -59 -60 -61 -62
leaf_value=0.055056770967390145 -0.10711283182808731 0.070108531136909152 -0.016716473183774581 -0.017756563720197956 -0.0649096414150684 -0.027122853634309326 0.0070026079026786012 0.044383649608973848 0.1063562927860755 0.0068843817343682279 -0.035576302513179912 0.061459393989524491 0.15755559180105561 0.030241936325828275 0.08848249115881561 0.092798848149453023 -0.16768633197392352 -0.056455464917229109 -0.07665017997700968 0.21034066977312982 0.036432610831512231 -0.017198477877642625 0.10264726737889501 0.077853115653877841 -0.13380238859117369 -0.11472907798529108 0.10539686897717589 0.032900589248576757 0.14994817278983094 0.019492685912290926 0.11957501356022003 0.10327321226875741 0.057853725023518543 0.11165006524651561 -0.10592800663009777 0.073940329756398082 0.034582949566928575 -0.13757342440110629 -0.06176195206770814 -0.11757525161314433 0.10787952159203842 0.020298174836345537 0.15652825765864514 -0.0073486503259841233 0.16352513037607899 0.0056745259133758764 -0.13510038310549846 -0.16007060169151865 0.12493477547899368 -0.028068107842246393 0.10790486747260009 0.18037690876994539 0.19865356351194072 0.10209029320672885 -0.10377363246482336 0.18169642641245057 0.18611817255357838 0.24094063908523525 -0.15729318362525244 0.2012204511993789 -0.12775138312206044
leaf_weight=33.788340076804161 9.5249024629592913 39.748733155429363 361.91399662196636 87.501417115330696 734.01972608268261 1686.6191427260637 2873.150302760303 41650.063482102007 393.58776199817657 973.41575544327497 1203.3879585787654 8089.4448766484857 1591.8414908349514 6929.5972018279135 16385.508551038802 1506.2608449161053 98.739181652665138 253.65436322242022 191.93475672602654 496.79831859469414 352.80740830302238 126.08010652661324 1808.6766735948622 2477.6655407398939 17.729671224951744 93.24040712416172 173.22117290645838 852.33954271301627 1425.5416206121445 286.19254933297634 2070.3566546738148 377.75725387781858 1634.9843418449163 1473.4509448111057 289.37076407670975 1138.7068388313055 390.79391308128834 405.52708404511213 412.28650050610304 683.26409346610308 77.909994412213564 50.600347235798836 229.2982754856348 149.00301013886929 66.463829278945923 45.651205867528915 131.03616531193256 74.809626698493958 15.644238039851187 4.6729032173752776 17.970040395855904 92.638897299766541 15.40293414890766 30.5107182264328 49.011866390705109 48.19349168241024 33.73876079916954 133.72499962151051 10.362469270825384 124.11907729506493 38.582965806126595
leaf_count=73 34 113 929 255 2601 5326 8774 126856 760 3861 5019 18446 1479 19850 28489 2182 404 869 844 428 738 316 2956 5610 96 1353 386 2849 1326 695 2808 571 3110 2256 1732 2367 900 1791 1983 3856 193 144 206 350 76 110 959 279 33 17 59 60 17 82 223 54 41 89 45 81 235
internal_value=0 0.043216 0.0644067 0.0376813 0.0400344 0.0433911 0.0434139 0.0416007 -0.0424753 0.030914 0.038863 0.047187 0.0756291 0.0708919 0.0840118 0.104613 0.0942361 0.0425503 0.108306 0.176182 0.111078 0.0805177 0.0531249 0.0427817 0.0870224 -0.0728552 0.00970855 0.0857342 0.120587 0.00182681 0.0923642 0.0445634 0.0813802 0.0971191 -0.0280416 0.103382 -0.0183776 -0.0907683 -0.0135399 -0.0927212 -0.0133946 -0.103992 0.14181 0.0919814 0.0466379 0.153321 -0.096119 -0.0704028 -0.112147 0.0949935 -0.0934253 0.200963 0.0818205 -0.0682635 -0.0247891 0.13126 0.208693 0.229896 -0.117131 0.192312 -0.129657
internal_weight=0 50888.9 52630.9 46680.8 45707.8 43921 18334.4 43336.7 1786.79 14249.8 12556.8 10962.6 34296.5 30253.6 17402.7 4208.1 3798.95 647.242 3296.96 584.3 4042.94 2027.15 12850.9 9407.26 4084.57 973.036 365.156 17237.8 2931.8 501.996 3948.73 739.671 3443.66 1826.26 1693.04 3209.06 1594.18 1139.55 1385.7 870.059 171.15 149.34 2015.79 378.301 352.656 1637.49 164.825 200.89 698.908 102.978 307.341 409.15 24.9278 135.835 79.5226 87.9422 384.222 167.464 15.0354 216.758 56.3126
internal_count=268644 150929 117715 144550 138886 132865 48085 132182 6021 40774 33139 27220 69630 63896 32370 6379 6057 1629 4738 683 5734 3589 31526 25460 7311 5664 1230 31338 3508 1319 6675 1500 6066 2994 7635 5175 5919 4392 5844 5435 1546 548 2145 556 771 1589 1032 595 3889 229 1791 322 51 636 305 167 271 130 62 141 331
is_linear=0
shrinkage=0.1


Tree=11
num_leaves=63
num_cat=0
split_feature=128 130 131 129 76 114 112 32 83 126 35 34 93 127 105 127 106 78 55 125 114 118 73 39 3 36 39 32 122 73 57 73 100 31 74 127 96 105 43 51 51 93 70 77 37 107 2 59 75 101 79 60 75 31 100 84 19 56 66 67 54 2
split_gain=1103.01 961.032 1018.27 947.908 871.617 901.503 653.613 518.3 305.855 237.986 343.267 328.401 301.734 279.382 234.025 220.622 183.292 211.401 176.376 174.607 212.5 203.021 244.477 174.096 161.636 370.346 299.738 145.981 142.292 133.085 127.756 125.671 125.634 124.297 123.832 96.5644 254.868 200.894 175.432 113.336 88.5663 79.0463 68.6156 68.5827 65.6957 104.561 71.3375 64.9779 57.0162 78.1646 52.9512 46.6499 41.3629 40.5254 38.2931 37.1358 33.8687 30.8993 10.0937 26.8857 1.45988 0.84903
threshold=1.0000000180025095e-35 1.0000000180025095e-35 1.0000000180025095e-35 1.0000000180025095e-35 -1.1964656710624693 -0.93296051025390614 -0.9021751582622527 0.96761697530746471 -1.3111404776573179 -1.6027861833572385 0.94632956385612499 0.91033205389976513 -1.0614755153656004 -1.6739653348922727 -0.79904738068580616 -1.9817869067192075 -0.79246053099632252 -1.2312601804733274 1.076700806617737 -1.3601602911949155 -0.96453160047531117 -0.93574881553649891 -0.87837561964988697 1.0441593527793886 0.55577787756919872 0.93279185891151439 0.93174925446510326 0.96383005380630504 -1.2418457269668577 -0.86163106560707081 0.91654673218727123 -0.82272613048553456 -0.85423338413238514 1.0100212097167971 -1.0060673356056211 -1.8526419997215269 -0.90673065185546864 -0.82580786943435658 1.1100482344627383 1.1250185966491701 1.1182324886322024 -1.0735729932785032 -0.32499773800373072 -1.1047064661979673 0.99963921308517467 -0.88046172261238087 0.34881091117858892 0.84840729832649242 -1.1032400727272031 -0.80578908324241627 -1.3951647281646726 0.79662376642227184 -1.0899864435195921 0.9979495406150819 -0.77531325817108143 -1.445889353752136 1.1194627881050112 0.96592992544174205 0.31729537248611456 0.2225465998053551 0.99969670176506054 0.6835366189479829
decision_type=2 2 2 2 2 2 2 2 2 2 2 2 2 2 2 2 2 2 2 2 2 2 2 2 2 2 2 2 2 2 2 2 2 2 2 2 2 2 2 2 2 2 2 2 2 2 2 2 2 2 2 2 2 2 2 2 2 2 2 2 2 2
left_child=1 2 3 4 6 -6 -1 8 -5 10 35 19 13 41 24 44 17 27 33 20 29 22 -21 -9 25 -4 -26 28 -3 -11 54 -29 -23 -19 -15 37 38 39 -37 -2 -32 -13 -22 -20 45 -12 -46 -38 49 -14 53 56 -50 61 -17 -55 -52 -39 60 -60 -16 -18
right_child=9 16 14 7 5 -7 -8 23 -10 11 15 12 48 34 58 30 50 18 43 21 42 32 -24 -25 26 -27 -28 31 -30 -31 40 -33 -34 -35 -36 36 47 57 -40 -41 -42 -43 -44 -45 46 -47 -48 -49 52 -51 51 -53 -54 55 -56 -57 -58 -59 59 -61 -62 -63
leaf_value=0.12470146981836031 -0.050928959745454042 -0.025578060385948377 -0.029896452439932792 0.030957075920577587 0.059357136913703049 0.004814521154898087 0.053078836606930774 0.057854538526084846 -0.017521001377219059 -0.13024345061412543 0.071359427572375303 -0.12005128504458157 0.23317636364684802 0.13837122865079898 -0.10526344495066875 0.14375009321193261 -0.12248425360106244 -0.025426799607457664 0.17655963233052541 -0.06325124451735796 -0.14627278798949428 -0.01817070112446955 0.11315506626089322 0.1475129295084032 0.0036608877048912355 0.050598425548569831 0.057570276276078761 -0.12021843142465226 0.029641167348625659 0.039466612324624041 -0.047730350983045192 0.075993842388831681 0.11539977588536586 0.062776358745442518 0.042382180230141508 -0.049409702342056938 0.091372520401875823 -0.05387743041000706 0.14376921520161734 0.044943847867726663 0.073471516553658439 -0.0089863614968400864 -0.05731530633554064 0.045816239694516307 -0.06311852969464922 -0.071477549023805251 0.07226821999070554 -0.1268006901727162 0.039574532894333714 0.11018837503135177 0.28777497174575056 -0.12366541735709172 0.13336606934748452 0.1918002859987325 0.28817758535178423 -0.12337334273223542 0.033496647482424577 -0.10834037014059716 0.20200189504976743 -0.13062330312793197 -0.12665087940483985 -0.10593499494763335
leaf_weight=3460.5767274945974 278.18499438464642 540.52274843305349 1585.9946511462331 2541.9882012009621 68408.509052112699 3170.8305424228311 2016.661589499563 961.60775186121464 2666.7705328688025 53.213836163282394 64.564837977290154 101.92591109871864 107.92363566160202 188.38099949061871 95.289494272321463 57.576742798089981 107.46106447279453 1750.6280464231968 52.32577121257782 98.896825224161148 127.53319548070431 727.05033967271447 382.06976766884327 279.52971808612347 2003.4374245330691 893.62329298257828 2125.6398258879781 34.023192927241325 3415.0313486233354 350.96507619321346 69.612902149558067 804.42292270064354 77.970540497452021 175.81402567028999 468.99345335364342 805.14668290317059 226.7916307747364 137.08652567863464 49.924812465906143 221.46709224581718 450.21234041452408 172.5847555398941 270.86313942074776 172.01688192039728 54.971324563026428 248.50228019803762 133.28252880275249 14.525246813893316 73.134736120700836 99.150188520550728 7.361741021275523 13.383495084941385 131.68109548091888 8.5299834907054883 26.950793668627739 6.6552977412939063 18.159063212573528 433.8510277569294 3.7929418236017209 6.7626553401350975 47.987802088260651 43.569085352122784
leaf_count=4369 1155 2856 6520 10483 141812 9163 4792 2947 10995 235 195 586 161 469 2042 122 768 9303 108 394 574 3204 792 525 7882 2822 6584 177 12773 962 320 2724 228 798 1575 3905 742 690 170 727 1344 724 1158 615 228 1430 367 94 238 310 13 101 240 9 20 45 86 2783 13 40 300 837
internal_value=0 0.0509828 0.0537781 0.0568006 0.059883 0.056941 0.0983308 0.0199748 0.00613736 0.00905106 -0.0102429 0.0274474 0.0660101 0.0345066 0.0164558 0.0350969 0.0156916 0.0184433 -0.00760472 0.00263624 -0.0339639 0.0254781 0.0768822 0.0780475 0.019294 -0.000887105 0.0314133 0.0301295 0.0220955 0.0171227 0.0757809 0.0680318 -0.00523369 -0.0173771 0.0698894 -0.033377 -0.0125172 -0.0547395 -0.0381306 -0.00843405 0.0572407 -0.0502248 -0.0857921 0.0763109 -0.0139484 -0.0420198 0.0327344 0.0782403 0.137286 0.174288 -0.0774723 0.0275475 0.0998754 -0.102053 0.189799 0.0536682 0.106846 -0.0952634 -0.105474 -0.0111011 -0.112427 -0.11771
internal_weight=0 97418.9 90269 83506.5 77056.6 71579.3 5477.24 6449.9 5208.76 6704.99 3272.65 3432.34 1343.77 931.885 6762.53 1105.67 7149.9 6944.78 2150.78 2088.56 802.575 1285.99 480.967 1241.14 6608.7 2479.62 4129.08 4794 3955.55 404.179 604.353 838.446 805.021 1926.44 657.374 2166.98 1096.39 1070.59 855.071 499.652 519.825 274.511 398.396 224.343 501.321 313.067 188.254 241.317 411.89 207.074 205.12 38.9043 204.816 166.215 84.5275 15.1853 25.5208 570.938 153.833 10.5556 143.277 151.03
internal_count=268644 242502 211289 185086 160136 150975 9161 24950 21478 26142 14292 11850 4303 3354 26203 4026 31213 29354 10824 7547 2929 4618 1186 3472 23808 9342 14466 18530 15629 1197 1806 2901 3432 10101 2044 10266 4911 5355 4075 1882 1664 1310 1732 723 2220 1625 595 836 949 471 1859 200 478 1659 142 54 99 3473 2395 53 2342 1605
is_linear=0
shrinkage=0.1


Tree=12
num_leaves=61
num_cat=0
split_feature=117 104 133 32 30 105 108 119 38 30 54 51 126 117 105 129 135 68 33 71 83 30 53 25 111 56 119 117 76 24 112 125 80 70 123 110 52 90 30 53 72 64 127 110 117 121 39 107 100 118 111 127 88 61 127 106 110 121 18 52
split_gain=1037.61 1252.46 1018.66 967.262 960.135 794.969 781.627 1143.84 644.977 542.271 568.369 457.183 506.275 583.476 384.37 376.35 321.338 288.682 248.732 176.676 266.81 174.545 166.861 150.224 124.905 272.093 187.837 124.696 84.6599 90.6271 79.22 69.9679 63.9426 111.462 58.8335 55.2997 208.462 38.8626 36.0166 24.5169 43.5892 21.0748 18.1681 35.2992 57.0094 21.6329 11.0806 8.40697 7.27198 6.84639 13.1142 6.52851 1.72625 1.20739 1.12276 1.98834 1.13478 0.413388 0.269071 0.0395453
threshold=-1.5651987791061399 -0.84698867797851551 1.0000000180025095e-35 0.82609733939170849 1.0736100673675539 -0.9377402365207671 -1.0564488768577573 -1.6276760697364805 0.95412597060203563 1.0922133326530459 0.98212701082229625 0.73104140162467968 -1.4588739871978758 -0.94763612747192372 -0.86605241894721974 1.0000000180025095e-35 1.0000000180025095e-35 0.13445393741130832 0.92760291695594799 -0.1767797917127609 -0.15319233387708661 1.1059706807136538 1.199660658836365 1.5601993203163149 -1.2637752294540403 1.00743043422699 -1.6778201460838316 -1.4672508835792539 -0.41331678628921503 1.0809782743453982 -0.95500621199607838 -2.3698390722274776 -0.34158352017402643 -0.10201792046427725 -1.8091073632240293 -1.2181360721588133 1.136346220970154 -0.93180084228515614 1.0337834358215334 1.1151390075683596 -0.30712181329727167 0.58854395151138317 -3.2073976993560787 -1.193487226963043 -1.5767838954925535 -1.858022093772888 1.0165872573852541 -0.84378722310066212 -0.53959220647811879 -1.6227518320083616 -1.2513512372970579 -3.1411633491516109 -0.25029514729976649 0.81802240014076244 -3.1845570802688594 -0.89155581593513478 -1.1968170404434202 -1.8438852429389951 0.86790528893470775 1.1743866801261904
decision_type=2 2 2 2 2 2 2 2 2 2 2 2 2 2 2 2 2 2 2 2 2 2 2 2 2 2 2 2 2 2 2 2 2 2 2 2 2 2 2 2 2 2 2 2 2 2 2 2 2 2 2 2 2 2 2 2 2 2 2 2
left_child=24 4 3 19 11 16 17 -8 27 10 -7 30 15 -14 31 -13 21 -5 -16 22 -21 -6 -3 -11 25 35 32 -4 29 -28 38 -10 52 -34 -29 39 48 -18 -2 46 -41 -30 43 44 -26 -46 -1 -32 -37 53 -51 -38 -27 -45 55 -44 58 -58 -56 -57
right_child=1 2 8 6 5 9 7 -9 14 23 -12 12 13 -15 18 -17 37 -19 -20 20 -22 -23 -24 -25 42 26 28 34 41 -31 47 -33 33 -35 -36 36 51 -39 -40 40 -42 -43 54 49 45 -47 -48 -49 -50 50 -52 -53 -54 -55 56 59 57 -59 -60 -61
leaf_value=0.089895527807242151 -0.043721812464843343 -0.11540818836796281 0.23029451716325761 0.0063456728751006709 0.090164262455743799 0.041572661476005114 0.11836659281066553 0.034976832011300439 -0.16403344541398712 -0.0084312417392706784 -0.016262840779368067 0.057670815054832875 0.11433467888140131 0.064142400731921373 -0.11590228146786133 -0.029232885155567396 -0.028060161349918785 -0.063347041526797182 0.038261738077995433 0.15346126580600894 -0.12976196440787086 -0.00186079483368156 0.10332775118181983 -0.08120579245850551 0.13551445849828919 0.16561409125163778 -0.1611003896638066 -0.12845049978273107 0.16292227868452344 0.088358533364763236 -0.16509772686805971 0.087328701595333541 -0.14385335461199952 0.079938320508210189 -0.07723412038265931 -0.083604091500195321 0.11713585842947566 -0.14886110177576861 0.16482174470455369 -0.048816483591766699 0.12746349734540233 0.0072226817056172746 0.12277152004898578 0.150300227199018 0.00014536887841931013 -0.22134426886491815 0.15313355262186221 -0.11218915377785994 -0.22154346070327918 0.051968335816882566 0.14549754493611075 0.17463373907412871 0.13622575410110346 0.17342665560975459 0.16056264058073916 0.15190624192664071 0.15078181884346764 0.15771484555804796 0.16947718788323757 0.15652400236392983
leaf_weight=29.323608845472336 20.266905292868614 577.40635996684432 11.169680446386336 1690.825394153595 3242.1382310390472 11804.611904464662 1710.5845323503017 42834.231008179486 11.354185178875921 2037.2707599848509 1984.899110481143 22480.092380777001 3682.8889376372099 6240.5467474199831 246.74695096164942 509.62523554265499 162.35199446976185 916.52765423059464 181.74116938561201 73.0410410836339 61.073582954704762 220.1009768396616 37.116849847137928 329.52851919084787 25.984918192028999 43.408231377601624 81.251349851489067 508.78934532403946 12.411005437374113 17.743643969297409 42.099480658769608 448.53056336939335 26.664218187332153 134.6024573892355 401.10778732597828 4.7553825974464443 55.761003434658051 31.856791973114014 14.003726616501806 17.43696865439415 71.734104573726654 29.022280797362328 28.330210477113724 61.942250147461891 10.131514713168146 7.8081250488758078 502.96949110925198 104.7744137570262 19.468964427709579 21.190089166164398 51.249844506382942 30.575562715530396 37.044173240661621 35.520776629447937 76.976744994521141 53.505117297172546 199.95578765869141 150.91094756126404 60.445951819419861 28.382940411567688
leaf_count=39 60 6480 11 4630 4948 27794 2338 125661 48 8240 7034 44497 5112 13486 962 2197 523 2952 455 113 482 709 73 1670 23 29 289 2278 9 25 180 868 99 197 1469 14 62 121 14 45 72 63 28 46 22 32 387 1128 79 34 41 20 34 24 53 38 143 104 40 20
internal_value=0 0.0418888 0.0304914 0.0332736 0.0525975 0.0351869 0.0350642 0.0381791 -0.0431619 0.0256576 0.0332477 0.0630208 0.0638928 0.0827703 0.0176303 0.0557444 0.0772929 -0.0181525 -0.0505144 -0.0795021 0.0244861 0.0843141 -0.102197 -0.0185636 0.115964 0.094222 0.0258261 -0.101796 -0.066156 -0.116388 -0.0954104 0.0811228 0.0792637 0.0429361 -0.105873 0.129927 0.0647638 -0.0478756 0.0414936 0.14152 0.0929928 0.0538612 0.145784 0.120764 0.0408546 -0.0962567 0.14965 -0.127355 -0.194465 0.141423 0.118138 0.137498 0.152082 0.158729 0.154723 0.145607 0.156781 0.153764 0.164484 0.153507
internal_weight=0 102617 49710.2 47900.8 52907.1 19812.8 47152.2 44544.8 1809.44 16156.3 13789.5 33094.3 32913.2 9923.44 888.373 22989.7 3656.45 2607.35 428.488 748.638 134.115 3462.24 614.523 2366.8 1926.51 1114.17 382.147 921.067 140.428 98.995 181.145 459.885 241.719 161.267 909.897 732.025 110.561 194.209 34.2706 621.464 89.1711 41.4333 812.335 213.828 43.9246 17.9396 532.293 146.874 24.2243 169.903 72.4399 86.3366 80.4524 97.463 598.508 110.218 488.289 350.867 137.423 81.8881
internal_count=268644 266533 148820 142729 117713 51039 135581 127999 6091 44738 34828 66674 65292 18598 2333 46694 6301 7582 1417 7148 595 5657 6553 9910 2111 1463 745 3758 386 314 1382 916 359 296 3747 718 175 644 74 543 117 72 648 222 77 54 426 1308 93 145 75 82 63 70 426 86 340 247 93 58
is_linear=0
shrinkage=0.1


Tree=13
num_leaves=59
num_cat=0
split_feature=118 104 134 114 32 133 108 119 36 136 129 30 26 105 69 115 109 78 82 110 55 120 53 90 91 95 56 72 84 75 112 51 22 73 126 120 112 11 115 123 54 74 121 1 104 135 110 41 39 72 124 32 35 117 30 106 72 106
split_gain=922.129 1103.6 1012.09 1031.07 890.654 784.314 729.504 791.722 721.126 609.993 546.792 473.522 402.489 393.001 349.965 319.791 246.259 229.054 207.762 176.757 391.68 210.168 150.552 131.79 126.061 108.097 103.805 97.6847 167.685 97.6122 94.4771 192.229 76.9737 108.832 61.372 176.381 123.344 60.3658 59.2809 55.452 50.7415 101.518 32.5715 25.4542 25.4385 21.2717 19.6546 16.6465 15.1462 10.9092 2.4654 2.95736 1.71489 1.44598 1.43425 0.764047 0.681369 0.0745485
threshold=-1.6018677949905393 -0.85817879438400257 1.0000000180025095e-35 -0.93296051025390614 0.82952606678009044 1.0000000180025095e-35 -1.0564488768577573 -1.6276760697364805 0.89509543776512157 1.0000000180025095e-35 1.0000000180025095e-35 1.0929933786392214 1.4087364077568056 -0.86668601632118214 -0.018157256767153736 -0.89077275991439808 -0.95439288020133961 -1.158447206020355 -1.3379548788070676 -1.2006087899208067 1.0520680546760561 -1.7426930665969846 1.199660658836365 -0.1348801106214523 -1.1536446213722227 -1.0544485449790952 0.8844476342201234 -0.27311302721500391 -0.1351889371871948 -0.79659315943717945 -1.3355944156646726 1.1585203409194949 1.024333715438843 -0.37095414102077479 -2.8876048326492305 -1.7426930665969846 -1.3102859258651731 0.25116243958473211 -1.4882531166076658 -2.1737513542175289 1.0803799629211428 -0.41345414519309992 -1.8507148623466489 -0.16779058426618573 -0.73927289247512806 1.0000000180025095e-35 -1.193487226963043 1.1199806332588198 1.0165872573852541 -0.33325439691543574 -2.3559101819992061 0.85150042176246654 0.8120311200618745 -1.5651987791061399 1.0853452682495119 -0.8378528058528899 -0.27311302721500391 -0.82611471414566029
decision_type=2 2 2 2 2 2 2 2 2 2 2 2 2 2 2 2 2 2 2 2 2 2 2 2 2 2 2 2 2 2 2 2 2 2 2 2 2 2 2 2 2 2 2 2 2 2 2 2 2 2 2 2 2 2 2 2 2 2
left_child=19 2 3 10 22 6 14 -8 29 17 11 -2 16 -10 -6 -11 26 -5 -12 20 30 32 27 34 -14 -18 -4 43 -29 -7 40 39 33 -22 35 46 -37 42 -25 -32 48 -42 -23 -3 -33 47 -21 -24 -1 -34 51 -36 -47 -52 -26 56 -40 -57
right_child=1 4 12 9 5 8 7 -9 13 15 18 -13 24 -15 -16 -17 25 -19 -20 23 21 37 45 38 54 -27 -28 28 -30 -31 31 44 49 -35 50 36 -38 -39 55 -41 41 -43 -44 -45 -46 52 -48 -49 -50 -51 53 -53 -54 -55 -56 57 -58 -59
leaf_value=0.073314072297418306 0.056130209080520868 -0.12046302042372879 -0.13645593852948462 -0.011015078437849286 0.010007643999561659 -0.057278645614900037 0.11039785865824372 0.032643775248916922 0.063382515375339149 0.072696594073266327 0.077709961009370832 0.011351705328767961 0.19973646348658805 -0.047851503706499599 -0.066222703140054268 -0.1211571861705137 0.16577303588352182 -0.12322550975301841 -0.042870840127779281 0.090544316102251152 -0.12135698357223046 0.029208292481434341 -0.13268897202277324 0.15402136595551527 -0.20647004033950084 0.11162683300798644 0.042246039924357007 0.15982816353135662 -0.12164076387754719 -0.11544053116003848 -0.19402442387961999 0.11278590804084741 0.068240456664339033 0.050796389322470048 0.14867833540892658 -0.15643709748081916 0.14577099717380793 0.11542121008764128 -0.13788580299712461 0.041654957945762613 -0.11651762412509659 0.11321364444434895 -0.17125913911248122 -0.076306614809199647 -0.0071534816277966365 0.10494807398017147 0.13809370347684402 0.12666533539170022 0.14418272193556689 0.15219395868568647 0.15118904599684024 0.11748068974234814 0.14880951513369498 0.16550791386312555 -0.17373235381480451 -0.13582947031333154 -0.17951083036836679 -0.11502158904936621
leaf_weight=32.051566123962402 33838.747641086578 418.23825819790363 41.919650465250015 3701.8851849138737 1502.1745861917734 685.51011346280575 1345.0443186163902 49642.667350981385 905.4386400282383 1320.6197811812162 172.79565919935703 2538.7486609444022 9.5116624385118467 489.25945191830397 1005.2584008276463 90.958868402987719 446.83578152954578 191.31820234656334 825.71795906871557 115.23799248039722 52.111567541956902 8.8894426077604276 6.4137602224946004 8.5006008148193342 34.596403062343597 2108.6207560002804 144.74608106911182 39.144659049808979 46.08343093842268 498.30885826796293 34.107424005866051 161.23888346552849 23.240870922803879 124.3447360098362 359.06039334833622 40.213568866252899 20.334537327289581 9.0963739454746229 6.1257611662149456 14.114697486162184 23.810892686247826 100.10093840956688 91.841699317097664 189.78970209509134 19.86175137758255 15.978882163763044 353.89775846898556 4.0296088382601738 510.31423819065094 46.339240744709969 142.10032260417938 33.19414696097374 20.160753846168518 140.01533639431 21.823974400758743 3.3613121286034584 10.983753889799116 3.5300258696079281
leaf_count=47 66614 3878 147 13224 4091 2411 1846 140892 1847 2259 515 8104 7 1625 3414 864 342 839 3708 153 187 21 44 6 139 2511 285 48 425 2199 138 194 35 213 264 149 18 11 31 26 76 109 355 3048 46 25 318 10 412 35 102 35 20 94 92 18 46 32
internal_value=0 0.0373643 0.0489717 0.0451457 0.0280706 0.0295087 0.0321053 0.0346949 -0.0243601 0.0038894 0.0510013 0.0530052 0.107125 0.0243617 -0.020554 0.0602051 0.112995 -0.0165293 -0.022004 0.0989793 0.0724846 -0.016266 -0.0809328 0.125793 -0.137032 0.121095 0.00211481 -0.0926262 0.00763592 -0.0817609 0.107749 0.0523876 0.0350789 -4.44247e-05 0.131157 0.105683 -0.0549432 -0.131289 -0.0729099 -0.125041 0.126804 0.0690685 -0.153568 -0.10668 0.0996319 0.0930906 0.126414 -0.0326162 0.139995 0.124152 0.151166 0.146038 0.129416 0.158296 -0.193807 -0.153284 -0.164608 -0.125171
internal_weight=0 102302 45488.8 42680.8 56813.5 56073.7 53495.1 50987.7 2578.52 5304.78 37376 36377.5 2808.05 1394.7 2507.43 1411.58 2742.12 3893.2 998.514 2488.02 1251.46 355.864 739.839 1236.56 65.932 2555.46 186.666 693.256 85.2281 1183.82 895.6 229.323 246.036 176.456 1204.05 529.684 60.5481 109.828 32.5015 48.2221 666.278 123.912 100.731 608.028 181.101 46.583 469.136 10.4434 542.366 69.5801 674.37 392.255 36.1396 282.116 56.4204 24.0009 17.1095 6.89134
internal_count=268644 265473 99650 96127 165823 158325 150243 142738 8082 17186 78941 74718 3523 3472 7505 3123 3285 14063 4223 3171 1905 857 7498 1266 238 2853 432 7399 473 4610 1048 404 470 400 1133 638 167 387 133 164 644 185 376 6926 240 99 471 54 459 70 495 299 45 196 231 127 77 50
is_linear=0
shrinkage=0.1


Tree=14
num_leaves=60
num_cat=0
split_feature=128 118 8 130 131 129 71 79 84 108 81 113 109 83 109 23 86 57 32 89 51 110 111 55 119 110 84 109 123 51 79 76 120 1 81 110 54 76 112 83 55 7 80 52 33 114 27 106 84 127 110 78 50 32 54 52 127 107 41
split_gain=861.584 757.06 863.595 742.908 758.169 664.263 291.098 219.358 193.03 320.14 302.292 280.339 264.039 185.983 180.348 174.168 172.161 170.478 145.303 185.206 117.884 94.0209 93.915 186.801 112.376 77.1323 81.2242 95.3666 67.631 66.3605 65.8222 61.3852 60.4917 57.4893 52.0694 49.7803 128.635 46.968 43.7715 43.578 62.4956 56.5407 42.3958 41.3781 39.0628 38.5558 30.1688 26.5229 24.0644 16.6057 57.8933 11.5217 11.5009 10.5067 5.67347 2.7818 2.54515 1.59962 0.207466
threshold=1.0000000180025095e-35 -1.6109271645545957 0.099029991775751128 1.0000000180025095e-35 1.0000000180025095e-35 1.0000000180025095e-35 -0.1767797917127609 -0.26554976403713221 -1.2656243443489072 -0.88281387090682972 -1.3302608132362364 -0.984626144170761 -0.88751986622810353 -1.3382422924041746 -0.91742447018623341 1.0573422312736513 -1.2069694399833677 0.91539201140403759 0.96403357386589061 -1.1556025147438047 1.1029947996139529 -0.9463580548763274 -1.2637752294540403 1.0463992953300478 -1.6778201460838316 -0.93645545840263356 -1.2921556830406187 -0.90042960643768299 -1.4196504950523374 1.2032192349433901 -1.2753935456275938 -0.41331678628921503 -1.7368862032890318 -0.16779058426618573 -0.31623871624469752 -1.2181360721588133 1.0705848932266238 -1.1557518243789671 -0.93733972311019886 -1.2592455148696897 0.89522486925125133 0.51825925707817089 -1.3318102359771726 1.0865744948387148 0.81116375327110302 -1.4308717250823972 1.2864325642585757 -0.8866668939590453 -1.2393072247505186 -3.2335052490234371 -1.1903060674667356 -0.40790064632892603 0.95802086591720592 0.96732723712921154 0.96390840411186229 1.1314757466316225 -3.1845570802688594 -0.93096736073493946 1.0929790139198305
decision_type=2 2 2 2 2 2 2 2 2 2 2 2 2 2 2 2 2 2 2 2 2 2 2 2 2 2 2 2 2 2 2 2 2 2 2 2 2 2 2 2 2 2 2 2 2 2 2 2 2 2 2 2 2 2 2 2 2 2 2
left_child=1 22 6 4 5 -4 15 32 9 25 12 30 42 -14 16 33 37 -6 19 -5 -20 28 23 35 34 53 46 -28 -18 -17 -12 -26 -8 -3 -25 51 -37 54 -13 40 47 -42 -11 -39 45 -24 -27 -16 -23 50 -46 -1 -41 -2 -10 -54 -51 -9 -47
right_child=8 2 3 18 17 -7 7 57 14 10 11 38 13 -15 39 29 21 -19 20 -21 -22 48 44 24 31 26 27 -29 -30 -31 -32 -33 -34 -35 -36 36 -38 43 -40 52 41 -43 -44 -45 49 58 -48 -49 -50 56 -52 -53 55 -55 -56 -57 -58 -59 -60
leaf_value=0.070245281152035891 0.14682266152115223 -0.10074011246605288 0.045125835537353276 0.014203652248619648 0.013754613146100939 0.01210490504411444 0.150569778501253 -0.15940043809504659 0.22344160208465699 0.16769033726130095 0.099255523141662264 -0.073766410904462329 0.013512586409655986 -0.06188878407110613 0.15471419538528164 -0.051938156263884386 -0.032966411610908512 -0.034396480348607442 0.088683102072754871 -0.021446623565269492 0.019410194843201205 0.08350547774592626 0.14608501317775288 0.13731584698443902 -0.083302840162352051 0.10046625996405045 0.071317488668847989 -0.10605826556216785 0.022882807086715851 0.11681047382919135 -0.043793083043629416 0.052229139687432993 -0.037124500041897983 -0.0073815299914491185 0.039573302495106329 -0.18660598377017523 0.11442161666733193 0.010944854129969109 -0.1347678258635405 -0.015165523028685202 0.046256621845121138 -0.10299133948512346 0.078724660309407599 0.18287295885436411 -0.029292640024729352 -0.16882725605722065 0.19588028386095416 -0.073465818527183938 -0.13033817245070203 0.12840225184669626 0.13600012370464831 0.13186110174663423 -0.14002705212815461 0.24205065522173339 0.14841632138698188 -0.097514173907825463 0.14235006470764555 -0.1143669432807317 -0.13932914607499411
leaf_weight=32.325677469372749 17.454024344682693 720.91103800758719 74181.712942503393 3739.9342126958072 6090.5844051651657 6637.0822347030044 119.75113745033741 9.9321018755435926 23.832148194313049 101.05186842381954 109.78169598430395 318.45086591690779 3680.8410024344921 359.03407995775342 17.615242153406147 38.730035372078419 637.1700429469347 836.23968883603811 331.60360438376665 2387.5042365454137 947.79962576925755 5.5885972380638114 7.8316580057144192 79.210082545876503 101.70232675969601 83.497272655367851 166.74910143017769 37.045635133981705 328.67122453451157 58.508735179901123 45.497622221708298 49.772550895810127 20.045160844922066 72.60244970023632 174.72818948328495 18.646254763007164 59.469014391303062 51.650713324546814 186.52690256386995 8.4059928916394693 30.027589879930019 164.10697715729475 113.9841027110815 19.20262448489666 27.632985949516296 4.1791056394577009 54.945512771606445 7.1665398180484763 90.1502985060215 185.19705525040627 90.871262639760971 496.10449036955833 137.49551153928041 34.462330475449562 17.466525599360466 17.3318155631423 445.63945829868317 38.31774964183569 5.5516277402639389
leaf_count=46 29 5120 153003 14383 21625 24943 119 44 22 146 316 1585 14367 1605 30 146 2431 3396 942 12287 3590 17 6 66 307 146 412 153 1010 94 179 87 78 213 321 76 63 160 902 34 120 773 274 40 68 18 43 27 437 167 77 432 726 37 25 96 343 411 31
internal_value=0 0.0373118 0.0361168 0.0371255 0.0396927 0.0424141 -0.0528518 0.0602047 0.000666041 0.00974329 0.00278962 -0.0601657 0.0125587 0.00681147 -0.0303093 -0.0767191 -0.0108826 0.00794158 0.00671291 0.000312826 0.0373648 -0.0233309 0.101954 0.0819515 0.0293993 0.0964568 0.0792272 0.0390743 -0.0139612 0.0495982 0.0573416 -0.0387689 0.123657 -0.0921983 0.0700618 0.117077 0.0425658 0.106947 -0.0962989 -0.0899764 -0.0608168 -0.0799065 0.120532 0.0575407 0.128348 -0.0190727 0.138334 0.0887278 -0.117855 0.131803 0.0974569 0.128092 -0.129083 0.210035 0.191711 -0.135268 0.138255 -0.123637 -0.151998
internal_weight=0 98010.1 96231.3 95152.5 87745.6 80818.8 1078.8 188.046 6865.2 5309.32 4915.17 660.257 4254.91 4039.88 1555.88 890.752 1173.73 6926.82 7406.84 6127.44 1279.4 1061.58 1778.86 1011.96 405.413 394.154 342.238 203.795 965.841 97.2388 155.279 151.475 139.796 793.513 253.938 606.545 78.1153 112.152 504.978 382.15 218.916 194.135 215.036 70.8533 766.903 17.5624 138.443 24.7818 95.7389 749.341 118.504 528.43 163.233 51.9164 41.2987 154.827 630.837 48.2499 9.73073
internal_count=268644 242502 240394 234169 202967 177946 6225 652 26142 20194 19374 2982 16392 15972 5948 5573 4142 25021 31202 26670 4532 3895 2108 1398 781 820 754 565 3441 240 495 394 197 5333 387 617 139 247 2487 1806 950 893 420 200 710 55 189 57 454 655 145 478 856 66 47 822 510 455 49
is_linear=0
shrinkage=0.1


Tree=15
num_leaves=60
num_cat=0
split_feature=106 118 1 122 127 133 51 32 77 120 133 100 111 123 51 98 39 120 32 110 57 75 2 33 111 114 70 55 35 49 135 31 105 119 110 30 0 27 72 106 51 121 96 45 73 33 6 55 77 16 38 127 21 34 112 118 22 96 103
split_gain=761.858 819.942 934.076 732.784 818.567 689.521 674.335 375.723 314.531 332.714 285.006 271.845 228.46 222.151 370.048 218.885 210.09 195.098 189.552 176.471 174.678 209.071 168.629 405.221 155.339 98.1909 98.1816 95.8607 92.7435 75.2762 71.9721 92.1907 86.9712 79.1681 68.8971 58.3832 53.3445 51.8114 51.4576 50.3496 51.0785 46.7571 45.8481 40.2199 39.465 39.4279 35.6085 29.822 29.0774 27.0901 18.738 22.9168 14.3795 8.17196 7.79376 5.79384 3.63683 0.839288 0.73277
threshold=-0.96646377444267262 -1.5837330818176267 -0.09457641094923018 -1.9953089356422422 -2.6160271167755123 1.0000000180025095e-35 1.1493776440620425 0.8893299698829652 -0.50830000638961781 -1.7259854674339292 1.0000000180025095e-35 -0.92124810814857472 -1.2480196356773374 -2.1093013286590572 1.1601546406745913 -0.38645878434181208 0.97219765186309826 -1.7585413455963133 0.91912809014320385 -1.1968170404434202 0.94450974464416515 -0.50245243310928334 0.52814880013465892 0.86403727531433117 -1.2393410205841062 -1.1708697676658628 -0.069441780447959886 0.93813419342041027 0.88432472944259655 1.1905478835105898 1.0000000180025095e-35 0.94871243834495556 -0.94177913665771473 -1.2491363286972044 -1.2181360721588133 1.0966883897781374 0.59728562831878673 1.4544340968132021 -0.38064934313297266 -0.98237758874893177 1.1318445205688479 -1.0888904333114622 -0.84141147136688221 1.1668276786804201 -0.74655279517173756 0.94946321845054638 0.77469661831855785 1.0255448222160342 -0.52500811219215382 1.1463529467582705 0.98198941349983226 -2.3227195739746089 1.2291440963745119 0.8735492229461671 -1.3148908615112302 -1.5946066379547117 1.1819239258766177 -0.58554804325103749 -0.83897364139556874
decision_type=2 2 2 2 2 2 2 2 2 2 2 2 2 2 2 2 2 2 2 2 2 2 2 2 2 2 2 2 2 2 2 2 2 2 2 2 2 2 2 2 2 2 2 2 2 2 2 2 2 2 2 2 2 2 2 2 2 2 2
left_child=5 8 13 12 10 18 -6 11 47 15 -5 37 43 14 24 19 22 -17 30 -10 28 -22 23 -9 -3 38 -16 42 -11 -14 33 58 -33 34 -1 -24 -35 46 -15 45 44 -39 -13 -4 -41 53 -7 48 -2 -29 51 -18 -42 -20 -49 -56 -52 -27 -32
right_child=1 2 3 4 6 7 -8 16 9 20 -12 27 29 25 26 17 50 -19 39 -21 21 -23 35 -25 -26 57 -28 49 -30 -31 31 32 -34 36 -36 -37 -38 41 -40 40 52 -43 -44 -45 -46 -47 -48 54 -50 -51 56 -53 -54 -55 55 -57 -58 -59 -60
leaf_value=0.11892618426337601 0.15405077698208536 -0.16396939334940788 0.11268336726379605 -0.0011975092246472611 0.027984172962936926 0.0084071381250510266 0.066185561575584209 -0.024419992047746961 0.062505417793366741 -0.03538662653706378 -0.067159409249411814 -0.092191604514418338 0.17571517655722008 0.10812880196731861 -0.12338358194977168 0.066179889014131701 0.11020849563367457 -0.090755557661800185 -0.21017460519599004 0.11467681868424365 0.061098436514623281 -0.099126428435802549 0.11223503696419973 0.080252569427232828 0.14155660665968611 -0.1614527613912583 -0.030277433662904224 -0.018788939728730168 0.15322312077891032 -0.0065142211648271334 -0.21605840940296892 -0.079698623228176613 0.11771385321724795 0.11349453396998535 -0.0023723323607725676 0.057205881152438243 -0.048806640912432218 -0.17561488065609779 -0.018979792881760979 0.014303026646698198 -0.029964492686528257 0.12839708281186263 -0.20448857956714367 -0.16642645470672249 -0.11989596511824666 0.095279596529010191 0.11897415654273305 0.12189513805279084 -0.066831499378216849 0.19083147222225655 -0.2230858168826122 0.14946970332619025 0.13253267594634177 -0.14184314296023004 0.1582628310748021 0.18461526137234779 0.16062968345590878 -0.10399657930176349 -0.18370589934068232
leaf_weight=51.488993689417839 12.81820248067379 20.325916394591331 6.4751974493265179 4269.976745903492 83140.82091737166 39.599706187844276 4892.7320577949286 447.71745076775551 1356.2365756630898 38.255995154380798 773.73510486632586 87.427074864506721 446.95355147123337 107.34280433878303 672.02868297323585 189.1351066455245 407.82648389041424 136.30408461391926 23.401683062314987 1242.1692557483912 122.06582537293434 244.69014695286751 1294.8480808287859 2126.5450915396214 91.796333745121956 2.7362007945775977 136.21614110842347 14.183259084820749 81.850985795259476 23.879494957625866 20.542727828025821 60.656340062618256 35.306312397122383 133.18571995943785 517.09272043406963 226.52688652276993 23.882311940193176 14.947153985500337 45.285898096859455 31.637268260121346 8.0037963837385195 7.6473466604948035 62.239086627960205 25.474040910601616 71.298537209630013 6.5228124707937232 110.14204402267933 35.43691374361515 11.138824239373207 10.905568480491636 0.24732276797294517 233.96072164177895 17.038198828697205 69.421575665473938 169.69937926530838 164.11595316231251 191.66113178431988 35.887520423159003 10.62017250061035
leaf_count=74 15 91 11 11697 217894 85 12376 1056 2174 103 3022 289 344 198 3577 437 512 793 97 1326 216 892 1474 3084 115 12 968 37 97 60 85 204 43 193 1229 418 71 65 138 75 24 11 250 107 257 11 139 39 35 7 1 192 24 277 120 112 149 1199 43
internal_value=0 0.0292592 0.0274305 0.028513 0.0278626 0.0649789 0.0301073 0.0798802 0.0747815 0.0650179 -0.0113165 -0.0206823 0.148913 -0.0636968 -0.0840752 0.0777629 0.0869612 0.000450429 -0.00781616 0.087446 -0.0115218 -0.0457995 0.0776469 0.0620478 0.0861698 0.0343702 -0.107692 -0.108567 0.0931479 0.166473 0.0138129 -0.0555954 -0.00706717 0.0259725 0.00861208 0.104041 0.0888165 0.0684356 0.0704149 -0.0889547 -0.0474896 -0.0727188 -0.138891 -0.109859 -0.07865 -0.14237 0.0897343 0.15947 0.0513515 0.0723285 0.132719 0.124521 0.0805961 -0.15907 0.166485 0.171219 0.160135 -0.108067 -0.205033
internal_weight=0 98495.6 94691.7 93580 93077.3 6356.52 88033.6 5276.42 3803.92 3410.71 5043.71 347.091 502.782 1111.62 920.367 2923.85 4929.33 325.439 1080.1 2598.41 486.863 366.756 4095.64 2574.26 112.122 191.252 808.245 174.755 120.107 470.833 852.775 127.126 95.9627 725.65 568.582 1521.37 157.068 172.336 152.629 227.324 127.978 22.5945 149.666 31.9492 102.936 99.3461 149.742 393.209 23.957 25.0888 833.696 641.787 25.042 92.8233 369.252 333.815 191.908 38.6237 31.1629
internal_count=268644 258168 251809 245511 244989 10476 230270 7769 6359 6038 14719 883 522 6298 4751 4730 6886 1230 2707 3500 1308 1108 6032 4140 206 1547 4545 583 200 404 1942 375 247 1567 1303 1892 264 300 336 765 380 76 539 118 332 385 224 321 50 44 854 704 48 374 271 232 150 1211 128
is_linear=0
shrinkage=0.1


Tree=16
num_leaves=63
num_cat=0
split_feature=128 130 131 127 30 114 34 122 73 32 127 35 34 93 127 127 97 5 113 78 5 115 106 78 54 53 31 51 124 93 31 96 127 105 37 127 72 58 85 105 14 73 98 34 125 33 115 84 40 5 113 90 5 127 44 81 31 84 33 43 51 32
split_gain=700.102 623.992 643.209 587.07 803.715 751.419 717.75 567.409 523.589 404.47 167.239 297.341 240.226 166.253 254.08 162.401 153.801 204.829 353.883 216.691 150.025 190.181 136.796 152.74 131.039 151.412 126.042 187.905 115.106 144.877 113.467 110.001 126.045 112.618 109.316 127.09 102.602 101.232 99.3681 92.3741 87.6096 83.0561 80.572 77.1968 65.0571 55.77 52.6507 105.326 49.1673 46.2544 48.8709 42.3204 40.3142 33.2827 31.9789 29.5254 29.1655 30.9426 17.9041 9.07325 4.67444 0.0789174
threshold=1.0000000180025095e-35 1.0000000180025095e-35 1.0000000180025095e-35 -1.8324906826019285 1.0791252255439761 -1.01293408870697 0.83129042387008678 -1.0669974684715269 -0.83781868219375599 0.96403357386589061 -1.7716072797775266 0.94632956385612499 0.91033205389976513 -1.0614755153656004 -1.6739653348922727 -2.0416393280029292 -1.0269168615341184 0.62817260622978222 -0.94340798258781422 -1.3045457601547239 0.61625325679779064 -0.96208125352859486 -0.79246053099632252 -1.2312601804733274 1.0604181289672854 1.0892493724823 1.0055192112922671 1.0503475069999697 -1.3562875390052793 -1.0460861325263975 1.0121583342552187 -0.92807689309120167 -1.8056944608688352 -0.84404039382934559 0.85551109910011303 -1.6294735670089719 -0.6532900035381316 0.90770229697227489 -1.2246690988540647 -0.90836143493652333 0.86829933524131786 -0.84219402074813832 -0.79481816291809071 0.93175032734870922 -1.4439805150032041 0.93071448802948009 -1.1321169734001157 -1.0666052699089048 1.0749134421348574 0.70667505264282238 -0.85586062073707569 -1.1758995652198789 0.51283064484596264 -2.2204091548919673 1.1207817792892458 -1.4111315011978147 0.9979495406150819 -1.445889353752136 0.9474303424358369 1.0676172971725466 1.1142291426658633 0.92927202582359325
decision_type=2 2 2 2 2 2 2 2 2 2 2 2 2 2 2 2 2 2 2 2 2 2 2 2 2 2 2 2 2 2 2 2 2 2 2 2 2 2 2 2 2 2 2 2 2 2 2 2 2 2 2 2 2 2 2 2 2 2 2 2 2 2
left_child=1 2 3 5 8 6 -1 -6 -5 -7 11 31 20 14 44 46 49 18 -18 -19 21 41 23 26 30 -26 38 -28 29 -15 -25 54 33 -33 39 -36 -16 42 -3 -22 -23 -12 -17 -34 -14 -30 47 -13 -39 55 -51 56 61 -48 60 -4 58 -58 -24 -54 -2 -53
right_child=10 22 16 4 7 9 -8 -9 -10 -11 12 15 13 28 36 37 17 19 -20 -21 34 40 51 24 25 -27 27 -29 45 -31 -32 32 43 -35 35 -37 -38 48 -40 -41 -42 -43 -44 -45 -46 -47 53 -49 -50 50 -52 52 59 -55 -56 -57 57 -59 -60 -61 -62 -63
leaf_value=-0.011043548828766422 -0.13489187008114151 0.020180447822271835 0.082392572988172583 0.067529108805385332 0.03580942144068306 -0.028954208911644172 0.036130680530370655 -0.015391874349447538 0.040242280932956176 0.032377500501483629 -0.084762810860525367 0.14192087242480309 -0.11572819814314586 -0.053464665618774956 0.13346459288491738 0.047961542450929311 0.0088091367104650778 0.05313225057270602 -0.066179586483588057 0.0025920771880567749 0.0099234628317279947 0.18360454469352153 -0.11495950679447715 -0.045279196774109687 0.52008101149563812 0.0098159191272122331 0.050050637809961787 -0.044266854274528054 0.025279057069685432 0.088636880423720144 0.055453957578528112 -0.00026066693319831382 -0.01942903143583085 -0.063763585546088838 -0.064674492195627403 0.030877616790913782 0.030815537017588025 -0.069247455457429954 0.1277598501235688 -0.10557941878739917 -0.12457801598608093 0.020733241714468567 0.15986316674066153 0.096341198779337195 -0.022414297348921357 0.13634297199885267 -0.14070579935770619 -0.11918342865827634 0.086826977332626121 -0.00028861966029016499 -0.10516676521406072 -0.13545276983336135 0.18311645566497348 -0.042650074326118302 0.061334392621991779 -0.11963146907597039 0.15765847182372494 -0.12287699609161294 0.19089681895076646 0.036158565661015558 -0.09330169072427677 -0.11730305167107363
leaf_weight=3537.9259848706424 143.62757587432861 3960.5867807716131 7.6789214909076682 13144.504821117967 7100.1052991449833 3365.0764193460345 36493.790363393724 3113.4932276308537 15122.203632973135 1580.2006847783923 99.42368783056736 40.602068051695824 127.4205386787653 115.56282413005829 116.98940181732178 606.79936503618956 2371.8614574745297 1465.9973811246455 856.58852669782937 2013.4825886338949 133.20989650115371 9.5579994767904264 152.65584320574999 1239.7047661170363 5.8538648784160605 881.89411648362875 298.12227520346642 724.71000507473946 53.517993494868279 189.22772526741028 122.90784157067537 375.90302868187428 130.50182896107435 1086.3274987637997 158.7775956839323 1128.7615491002798 580.79158292710781 100.41948451846838 87.762150481343269 144.189522318542 264.24734483659267 299.2291406840086 71.976836875081062 103.10274608433247 180.62454406917095 291.32013691961765 40.654813855886459 24.938610792160034 25.261864334344864 144.99620826542377 64.059903413057327 3.917622923851015 10.838721655309202 233.02717795968056 9.4928620159625989 124.91094391793013 8.7211079448461515 7.1593084111809722 1.938188537955283 6.8604340627789488 33.286929622292519 6.1668469086289406
leaf_count=10304 783 14255 17 22717 15974 10478 78094 9922 33157 4440 378 82 688 484 213 1777 7895 4020 4819 7026 435 22 1670 6873 8 3464 786 3202 158 478 479 1262 560 5835 575 3023 1831 517 287 1286 1340 869 148 331 783 587 208 113 58 652 1090 22 25 1097 36 684 9 49 6 25 185 53
internal_value=0 0.0304265 0.0327262 0.0351763 0.0442438 0.0274186 0.0319615 0.0202013 0.0529311 -0.00935644 -0.00248716 -0.0201215 0.0112201 0.0400996 0.0146314 0.0200931 0.00372034 0.00705377 -0.0110872 0.023886 -0.0101479 -0.0496506 0.00274718 0.00496664 -0.0167156 0.0131806 0.0145882 -0.0167764 0.0795321 0.0347584 -0.0361931 -0.0445566 -0.0365416 -0.0474386 0.00682651 0.0190943 0.0480256 0.0445631 0.0225126 -0.0501138 -0.11382 -0.00557739 0.0598275 0.0316668 -0.0610129 0.119106 -0.0379367 0.0425692 -0.0378766 -0.0617289 -0.0324258 -0.0792161 0.0352283 -0.057216 -0.117472 -0.107931 -0.0978681 0.0311857 -0.111125 0.126154 -0.127067 -0.124354
internal_weight=0 98026.7 90506.9 83457.3 38480.3 44977 40031.7 10213.6 28266.7 4945.28 6918.77 3025.92 3892.85 1655.45 1005.83 1143.68 7049.58 6707.93 3228.45 3479.48 2237.4 672.458 7519.8 7321.54 2250.36 887.748 5071.18 1022.83 649.629 304.791 1362.61 1882.24 1695.84 1462.23 1564.94 1287.54 697.781 804.458 4048.35 277.399 273.805 398.653 678.776 233.605 308.045 344.838 339.223 65.5407 125.681 341.646 209.056 198.258 27.7836 273.682 186.407 132.59 170.474 15.8804 154.594 17.6992 176.915 10.0845
internal_count=268644 242502 211289 185086 81770 103316 88398 25896 55874 14918 26142 12992 13150 5222 3515 4000 26203 23760 12714 11046 7928 2609 31213 29354 10824 3472 18530 3988 1707 962 7352 8992 7988 7097 5319 3598 2044 2500 14542 1721 1362 1247 1925 891 1471 745 1500 195 575 2443 1742 1859 125 1305 1004 701 1734 58 1676 50 968 75
is_linear=0
shrinkage=0.1


Tree=17
num_leaves=59
num_cat=0
split_feature=118 103 30 105 10 122 29 73 29 96 3 134 135 110 132 30 52 53 71 110 55 120 77 28 29 79 112 51 20 48 126 120 112 106 71 110 115 53 51 123 53 105 120 50 55 27 110 79 39 106 93 107 84 33 117 118 106 33
split_gain=669.494 741.958 900.69 613.193 560.211 728.931 501.225 489.976 480.447 475.878 438.316 437.682 310.589 269.718 250.933 226.155 224.01 184.03 182.653 157.973 307.605 147.511 137.158 121.067 112.281 97.6636 85.365 161.304 81.2658 76.605 57.9714 142.753 97.4571 52.8068 68.5976 66.6579 47.0984 44.0725 42.9153 41.186 33.4159 30.2393 20.7602 15.6156 15.1202 55.6228 14.7053 48.1638 14.4217 7.51834 5.04866 2.44962 1.71251 3.98823 0.993843 0.900256 0.6562 0.35824
threshold=-1.6018677949905393 -0.85433095693588246 1.0725061893463137 -0.93269371986389149 0.17288329452276233 -2.0236797332763667 1.1324232816696169 -0.783698409795761 1.2298977971076968 -1.0622522234916685 0.61904728412628185 1.0000000180025095e-35 1.0000000180025095e-35 -1.1903060674667356 1.0000000180025095e-35 1.1104845404624941 1.0367388129234316 0.97474616765975963 -0.1767797917127609 -1.2006087899208067 1.0463992953300478 -1.7426930665969846 -0.32851307094097132 0.95287013053894054 1.1421029567718508 -0.26554976403713221 -1.3355944156646726 1.1585203409194949 1.0036580562591555 1.2057878375053408 -2.8876048326492305 -1.7426930665969846 -1.3102859258651731 -0.88727405667304982 -0.19082558900117871 -1.2047700285911558 -1.4882531166076658 1.1395700573921206 1.1618133783340456 -2.1737513542175289 1.1249851584434511 -0.9595433473587035 -1.7585413455963133 1.2174544930458071 1.0371304154396059 0.97368597984313976 -0.83021962642669667 -1.3989648818969724 1.0165872573852541 -0.91075307130813588 -0.3418374359607696 -0.79470062255859364 -0.31917195022106165 0.85158511996269237 -1.5651987791061399 -1.6109271645545957 -0.83288720250129689 0.81116375327110302
decision_type=2 2 2 2 2 2 2 2 2 2 2 2 2 2 2 2 2 2 2 2 2 2 2 2 2 2 2 2 2 2 2 2 2 2 2 2 2 2 2 2 2 2 2 2 2 2 2 2 2 2 2 2 2 2 2 2 2 2
left_child=19 2 9 15 18 13 7 -7 10 46 -5 16 -8 50 -10 17 -11 -4 23 20 26 33 37 29 -13 30 44 39 40 -3 31 42 -33 35 -35 -22 -27 -20 -15 -28 -23 -17 -21 -25 48 -46 47 -2 -1 -29 -6 -48 55 -54 -38 -32 -24 -56
right_child=1 4 3 8 5 6 12 -9 14 11 -12 24 -14 38 -16 41 -18 -19 22 25 21 28 56 43 -26 36 27 49 -30 -31 52 32 -34 34 -36 -37 54 -39 -40 -41 -42 -43 -44 -45 45 -47 51 -49 -50 -51 -52 -53 53 -55 57 -57 -58 -59
leaf_value=0.056344005736045304 0.18778294859516317 -0.012511839034247605 0.068461223588528214 -0.006580155736354361 -0.071109139433392005 0.031652225647055221 -0.033703939310148534 0.012164065922068527 -0.08822160949702873 0.055750362907024446 0.027584313114767219 0.11249520553978112 0.045771103020613595 0.14383641240138961 0.19432828504732266 -0.025906640511591063 0.034430217154208735 0.018642468110270708 0.13875407418171837 0.1296465926579243 0.015938939262616809 -0.028732449594257244 -0.14240869004985468 -0.01876904808207961 0.059190138767217432 0.14077824659794563 -0.18215325238868901 0.1144140308453464 0.1256120192339788 -0.10193727267488338 0.13286572827329002 -0.14894628380962735 0.12802137912473274 -0.16113225092583278 0.1346915613005974 0.12694121171626524 -0.19523783554547292 -0.027781867694113227 0.025043600915256189 0.02362744639848454 -0.14540036508251372 -0.11982716166436394 0.084577744144386541 0.10538107072272529 0.11320086730339077 -0.079188434312759015 -0.13209370238810539 -0.096715400331904608 0.1293526113147829 0.049962595319719007 -0.17734294911320256 -0.1069608925618756 0.13216453130672179 0.092114081475582657 -0.12944600128721656 0.14456224875666229 -0.1109400376030128 -0.16041136391852925
leaf_weight=29.069940790534019 7.0027076303958884 112.92029748111963 3230.7025363743305 6217.1166507080197 5.3732891380786887 20647.427472259849 2835.6203289851546 34388.606220670044 615.23219853639603 10371.29077334702 9483.3501094058156 1298.7512464821339 594.88662986457348 591.63050106167793 33.123984143137932 67.692791417241096 9390.1398884654045 962.35767862200737 81.752350248396397 204.77881269156933 208.11253732442856 32.595499381422997 8.6351174712181074 13.979409169405697 567.96426819264889 7.6069782972335842 33.634933352470398 80.889196559786797 15.474983736872671 631.57759578898549 115.40236830711365 39.605004236102104 18.704413324594498 28.296163707971573 10.842204809188841 73.101516783237457 3.7777895331382778 19.725228648632765 32.058987349271774 13.682725340127943 99.460737586021423 69.453114598989487 204.04867731034756 36.804523475468159 96.661662772297859 17.794023975729942 68.681027930229902 39.606890320777893 390.57856690883636 23.316104575991631 26.715569153428078 89.079348761588335 278.9284363090992 27.296939387917519 12.425338461995127 153.10881325602531 28.486425209790468 5.3425703495740882
leaf_count=45 8 1448 5234 17549 17 56895 9006 96265 2811 17954 23863 1408 1135 477 31 275 20896 1955 76 194 403 84 45 52 853 6 138 87 15 3953 100 149 18 125 10 69 16 87 70 26 375 361 281 65 98 48 411 181 345 37 115 1615 245 34 83 116 362 24
internal_value=0 0.0242816 0.0343906 0.0194344 0.0171258 0.0183396 0.0171637 0.0194753 0.0105722 0.0485566 0.0140558 0.0499918 -0.0199221 0.123183 -0.0737864 0.0528941 0.0456196 0.0570272 -0.0597213 0.079733 0.054055 -0.00845662 0.0462158 -0.0781836 0.0962767 0.107389 0.096714 0.0304665 -0.0911965 -0.0883738 0.11244 0.0862753 -0.060101 0.0296474 -0.0791824 0.0447939 -0.0731353 0.106383 0.13773 -0.122648 -0.116603 -0.0734697 0.107152 0.071206 0.115508 0.0832908 -0.103322 -0.0539719 0.124295 0.0999929 -0.159554 -0.117902 0.133706 0.128594 -0.14866 0.139535 -0.11826 -0.138757
