tree
version=v4
num_class=1
num_tree_per_iteration=1
label_index=0
max_feature_idx=136
objective=binary sigmoid:1
feature_names=Column_0 Column_1 Column_2 Column_3 Column_4 Column_5 Column_6 Column_7 Column_8 Column_9 Column_10 Column_11 Column_12 Column_13 Column_14 Column_15 Column_16 Column_17 Column_18 Column_19 Column_20 Column_21 Column_22 Column_23 Column_24 Column_25 Column_26 Column_27 Column_28 Column_29 Column_30 Column_31 Column_32 Column_33 Column_34 Column_35 Column_36 Column_37 Column_38 Column_39 Column_40 Column_41 Column_42 Column_43 Column_44 Column_45 Column_46 Column_47 Column_48 Column_49 Column_50 Column_51 Column_52 Column_53 Column_54 Column_55 Column_56 Column_57 Column_58 Column_59 Column_60 Column_61 Column_62 Column_63 Column_64 Column_65 Column_66 Column_67 Column_68 Column_69 Column_70 Column_71 Column_72 Column_73 Column_74 Column_75 Column_76 Column_77 Column_78 Column_79 Column_80 Column_81 Column_82 Column_83 Column_84 Column_85 Column_86 Column_87 Column_88 Column_89 Column_90 Column_91 Column_92 Column_93 Column_94 Column_95 Column_96 Column_97 Column_98 Column_99 Column_100 Column_101 Column_102 Column_103 Column_104 Column_105 Column_106 Column_107 Column_108 Column_109 Column_110 Column_111 Column_112 Column_113 Column_114 Column_115 Column_116 Column_117 Column_118 Column_119 Column_120 Column_121 Column_122 Column_123 Column_124 Column_125 Column_126 Column_127 Column_128 Column_129 Column_130 Column_131 Column_132 Column_133 Column_134 Column_135 Column_136
feature_infos=[-1.8014661073684692:1.9731968641281128] [-1.7160434722900391:1.9330692291259766] [-1.6382262706756592:1.893924355506897] [-1.5680137872695923:1.8557635545730591] [-1.5054070949554443:1.8185858726501465] [-1.4504051208496094:1.7823913097381592] [-1.4123568534851074:1.7519460916519165] [-1.3844102621078491:1.7939627170562744] [-1.3517893552780151:2.0758624076843262] [-1.3099035024642944:2.0974209308624268] [-1.2559221982955933:1.9997674226760864] [-1.1870334148406982:2.073509693145752] [-1.1039742231369019:2.1457490921020508] [-1.0067610740661621:2.2142360210418701] [-0.90047705173492432:2.2825961112976074] [-0.78966546058654785:2.3805651664733887] [-0.67814630270004272:2.4481546878814697] [-0.65537858009338379:2.4998569488525391] [-0.65910369157791138:2.5653238296508789] [-0.66488730907440186:2.5221147537231445] [-0.8555336594581604:2.4413206577301025] [-0.86833834648132324:2.3840618133544922] [-0.86565589904785156:2.2409591674804688] [-0.7797551155090332:2.1787192821502686] [-1.0841877460479736:2.1696581840515137] [-1.4308524131774902:2.0883691310882568] [-1.6366665363311768:1.9448176622390747] [-1.8254417181015015:1.7314887046813965] [-1.8814246654510498:1.5598906278610229] [-2.2033448219299316:1.3455723524093628] [-2.6534385681152344:1.1458766460418701] [-2.9375624656677246:1.0652625560760498] [-2.8964071273803711:1.0182701349258423] [-2.6209216117858887:1.0153312683105469] [-1.9672813415527344:1.0222163200378418] [-1.2877312898635864:1.096311092376709] [-0.66409575939178467:1.2523990869522095] [-0.67049169540405273:1.4357191324234009] [-0.67177027463912964:1.5244829654693604] [-0.6765514612197876:1.427788257598877] [-0.67391806840896606:1.3506048917770386] [-0.77278417348861694:1.3033223152160645] [-0.78214722871780396:1.4334096908569336] [-0.67822211980819702:1.6771683692932129] [-0.67593681812286377:1.8418123722076416] [-0.67998087406158447:1.9795904159545898] [-0.67735743522644043:1.8671952486038208] [-0.68056988716125488:1.7601110935211182] [-0.67851173877716064:1.6395943164825439] [-0.68057990074157715:1.6658937931060791] [-0.67672491073608398:1.8198304176330566] [-0.68167710304260254:2.1010029315948486] [-0.6882440447807312:2.3278176784515381] [-0.69760811328887939:2.41339111328125] [-0.68820065259933472:2.0181429386138916] [-0.66555494070053101:1.7058380842208862] [-0.63047897815704346:1.5109990835189819] [-0.79989981651306152:1.3641012907028198] [-0.9627259373664856:1.3483799695968628] [-0.83332031965255737:1.3266682624816895] [-0.62303602695465088:1.3006186485290527] [-0.62908732891082764:1.4134206771850586] [-0.65896600484848022:1.6471337080001831] [-0.67422842979431152:1.5962808132171631] [-0.93073725700378418:1.2496439218521118] [-1.1747497320175171:1.0728911161422729] [-1.3727543354034424:0.99044626951217651] [-1.6710461378097534:0.88485002517700195] [-1.8910553455352783:0.75389385223388672] [-2.0949718952178955:0.60495084524154663] [-1.9126988649368286:0.45876148343086243] [-1.7446892261505127:0.33052113652229309] [-1.674402117729187:0.23037496209144592] [-1.5674382448196411:0.15855956077575684] [-1.3374539613723755:0.30397361516952515] [-1.5611182451248169:0.9557119607925415] [-1.741243839263916:1.4404212236404419] [-1.9005986452102661:1.2026444673538208] [-2.032371997833252:1.1285310983657837] [-2.1171634197235107:0.92254304885864258] [-2.1664650440216064:0.73609095811843872] [-2.193009614944458:0.28676301240921021] [-2.2026488780975342:0.33890664577484131] [-2.1982688903808594:0.39074629545211792] [-2.1793761253356934:0.5232703685760498] [-2.1451029777526855:0.47703936696052551] [-2.0946900844573975:0.50853937864303589] [-2.0287144184112549:0.53271615505218506] [-1.9487637281417847:0.67684948444366455] [-1.8579472303390503:0.56802195310592651] [-1.767259955406189:0.65060514211654663] [-1.8478662967681885:1.0689502954483032] [-1.648851752281189:1.4172115325927734] [-1.5846540927886963:1.6290324926376343] [-1.5245249271392822:1.6652539968490601] [-1.4861346483230591:1.6182962656021118] [-1.4547033309936523:1.5608183145523071] [-1.4384253025054932:1.5597559213638306] [-1.4264529943466187:1.5643377304077148] [-1.5819015502929688:1.563044548034668] [-1.8966314792633057:1.5685317516326904] [-2.4619696140289307:1.5680602788925171] [-2.648137092590332:1.5700795650482178] [-2.5047333240509033:1.5659784078598022] [-2.1062953472137451:1.5674868822097778] [-1.4165751934051514:1.5623446702957153] [-1.2213733196258545:1.563502311706543] [-1.1215335130691528:1.561995267868042] [-1.1656886339187622:1.5723429918289185] [-1.225764274597168:1.5757462978363037] [-1.369315505027771:1.5835809707641602] [-1.6010570526123047:1.5858457088470459] [-2.1418814659118652:1.5904537439346313] [-2.4733853340148926:1.5896482467651367] [-2.5047738552093506:1.5896980762481689] [-2.0072333812713623:1.5865405797958374] [-1.6131480932235718:1.5868538618087769] [-1.6319060325622559:1.7016431093215942] [-1.6864286661148071:2.5795986652374268] [-1.7459897994995117:2.8008601665496826] [-1.8207311630249023:2.5472877025604248] [-1.9267433881759644:1.7488086223602295] [-2.1567583084106445:1.6308574676513672] [-2.3918964862823486:1.6220458745956421] [-2.6616356372833252:1.6080794334411621] [-2.9659750461578369:2.1645474433898926] [-3.3559722900390625:3.0688047409057617] [-3.8750591278076172:4.2020993232727051] [0:1] [0:1] [0:1] [0:1] [0:1] [0:1] [0:1] [0:1] [0:1]
tree_sizes=6584 5964 6739 6211 6112 6811 6875 6884 6840 6888 6249 6864 6855 6786 6445 6239 6792 6374 6900 6806 6524 6793 6236 6903 6899 6967 6575 6671 6043 6931 6931 6035 6485 6808 5902 6960 6558 6150 5291 6790 6963 6572 6762 5961 6937 6940 6461 6322 5576 6150 5660 6812 6696 6334 6688 6454 6061 6377 6758 5765 6565 6897 6949 6459 6945 6390 6266 6341 6490 6154 6318 6939 6518 5407 6377 6305 6925 6813 5843 6963 5924 6459 6502 5285 6951 5778 5962 6923 6352 6202 6155 5856 5649 6116 6841 6584 6908 6595 5958 5987 6601 6952 6084 6505 6353 5391 5108 6751 6172 6132 6964 6889 6839 5982 6785 6735 6707 6217 6617 6720 5704 6710 6388 6229 5589 6897 6912 4754 6359 6285 6082 6237 6830 6945 5651 6683 5177 6392 4448 6578 6587 6843 6307 6780 6544 6910 6724 6463 6944 6399 6930 6518 6200 6035 6230 5881 6925 6685 6406 5937 4510 6607 6796 6722 6895 6723 6912 6532 4773 6683 6189 6658 6759 6614 6404 5365 5901 6515 6911 6275 6961 6572 5322 5183 6070 6936 6698 5133 6301 6497 6217 5170 6856 6051 5693 6347 4426 6860 6698 6453

Tree=0
num_leaves=61
num_cat=0
split_feature=32 31 136 132 39 70 108 30 96 134 31 30 131 107 136 32 130 132 4 30 100 32 31 49 73 70 59 106 54 108 110 37 101 71 52 56 117 36 131 3 107 96 73 110 110 77 31 100 35 113 30 104 82 81 53 28 50 111 0 1
split_gain=91939.9 46260.9 63391.7 71160.2 46954.2 37637.2 22323.8 21099.5 18171.3 26619.1 16528.7 13652.1 11736.5 10924.7 10000.4 9507.81 9415.73 8069.91 6181.03 5987.73 5246.97 4673.76 3944.48 3744.06 3948.97 3651.57 3629.57 2959.6 3603.05 2843.39 2643.36 2346.26 2268.75 1929.48 1806.88 1432.74 1420.86 4689.01 1371.47 1963.86 1339.09 1174.24 1063.94 1044.45 970.959 824.397 770.473 592.113 483.674 462.364 312.232 272.427 594.021 824.572 212.763 808.555 124.345 81.7878 5.68434e-14 8.88178e-16
threshold=0.85535207390785228 1.0049687623977663 1.0000000180025095e-35 1.0000000180025095e-35 1.0215241909027102 -0.22270810604095456 -1.0708019733428953 1.0882306098937991 -1.0318448543548582 1.0000000180025095e-35 0.99132150411605846 1.0138025879859927 1.0000000180025095e-35 -0.8813377022743224 1.0000000180025095e-35 0.95900467038154613 1.0000000180025095e-35 1.0000000180025095e-35 0.63318243622779857 1.0870609879493716 -0.90262350440025318 0.94462609291076671 1.007908880710602 0.90174597501754772 -0.90536969900131214 -0.55828124284744252 0.808445304632187 -0.87332591414451588 1.0828011631965639 -1.0506030321121214 -0.98242738842964161 0.93381935358047496 -0.90204370021820057 -0.46721635758876795 0.96844992041587841 0.8924570381641389 -1.5375152230262754 0.90340626239776622 1.0000000180025095e-35 0.58687701821327221 -1.0356099605560301 -1.0279193520545957 -0.8881762921810149 -0.88932961225509632 -0.92643877863883961 -1.2079545259475706 1.0055205821990969 -0.95696952939033497 0.85619845986366283 -1.0042179822921751 1.061984717845917 -0.93042409420013417 -1.3664169907569883 -1.3649492859840391 1.2015510797500613 1.1158633828163149 1.0246262550354006 -1.2396321296691892 1.0672712326049807 0.58348751068115245
decision_type=2 2 2 2 2 2 2 2 2 2 2 2 2 2 2 2 2 2 2 2 2 2 2 2 2 2 2 2 2 2 2 2 2 2 2 2 2 2 2 2 2 2 2 2 2 2 2 2 2 2 2 2 2 2 2 2 2 2 2 2
left_child=11 2 3 5 6 7 -5 -2 22 12 -7 27 16 33 17 18 -10 19 21 41 -14 -4 46 24 -19 -21 31 28 36 -6 -28 -17 -20 -11 45 -15 37 -1 42 -40 -30 -13 -24 -38 49 -16 48 -48 -3 -36 -25 52 -29 -54 58 -56 -46 -42 -53 -47
right_child=1 8 15 4 29 10 -8 -9 9 13 -12 14 20 35 34 26 -18 23 32 25 -22 -23 38 50 -26 -27 30 51 40 -31 -32 -33 -34 -35 44 -37 43 -39 39 -41 57 -43 -44 -45 56 59 47 -49 -50 -51 -52 54 53 -55 55 -57 -58 -59 -60 -61
leaf_value=-1.470037013004204 -2.3703199606230516 -1.9583403290348878 -1.2554822463203521 -2.7962638701651681 -3.208010766672392 -2.2490869185860269 -1.3363279748048307 -1.8684561976473213 -1.6714924300743346 -2.5426326038347042 -1.6606461667936565 -1.807509535200799 -1.85774170666078 -1.4202660147007855 -1.3391139180507234 -1.6830790068844914 -2.1945842606023804 -2.9346092337593497 -1.7693082898308896 -2.6128975646897405 -2.5151085979109107 -1.5721283320538906 -1.8359715592159223 -3.2237656449374446 -1.1848124773553159 -1.7001597162623314 -2.9179848249632592 -3.2237656449374446 -1.1268113921660952 -2.4783406050330714 -1.7907822452317153 -2.9725480306875087 -2.4810158817811656 -1.7201971965746816 -3.2237656449374446 -0.93017859523282942 -2.8637794100426524 -3.0798834157765884 -2.8349567706964836 -0.98736763803316707 -3.2237656449374446 -3.0363958588367321 -1.160022371713018 -1.9999373390952233 -1.1295230306844632 -3.223765644937445 -1.2940278448667666 -1.8396035844955481 -3.2237656449374446 -1.3703875967312249 -2.3102406824171 -3.2237656449374446 -1.0450000909362815 -2.817021684346428 -3.2237656449374446 -0.95654599644577187 -0.83533850855347325 -3.0606177551474638 -3.2237656449374446 -3.2237656449374446
leaf_weight=42.585991322994232 7271.2115070149302 7.1538311690092069 954.34560272842646 111.17229893803596 143.64819128811359 698.90833909809589 1809.3885387852788 946.80339630693197 1860.3631336987019 46.516957513988018 1505.7621572241187 7.9899382293224326 185.55596777796745 67.763045445084572 3.6025113835930824 19.096081085503101 422.20611626654863 15.653533376753328 244.29460384696722 122.25924830138683 351.29485466331244 911.21775534003973 37.507491327822208 15.278137274086477 73.257467105984688 68.328264750540257 22.203744828701019 34.933035358786583 3.2377813160419455 85.009853541851044 330.08085881918669 54.052573665976524 54.846030011773109 73.754426471889019 2.9988916665315628 498.300547324121 88.015134088695049 31.458502970635891 5.8207513168454161 494.85159730911255 117.4430817514658 289.88576830923557 61.411198079586029 16.643215231597424 31.339078284800053 1.9047014638781528 30.492305189371109 57.226385623216629 5.2277976348996162 2.4421998187899581 4.9547847285866728 371.49783658236265 3.1162046268582371 16.692268252372742 7.4161780402064306 1.996418625116348 26.531466044485569 41.615489535033703 37.324043579399586 4.6199141889810562
leaf_count=337 120109 90 5595 2289 3523 10735 12006 11098 18304 845 14659 89 2156 504 24 190 6265 343 2632 2303 6289 8100 428 377 380 691 483 862 15 1492 3624 1204 964 760 74 1372 1869 733 122 1633 2898 6634 304 216 146 47 190 655 129 17 79 9167 12 347 183 6 49 962 921 114
internal_value=-3.11935 -1.93183 -2.01323 -2.10604 -1.58212 -2.21407 -1.42084 -2.3125 -1.63838 -1.73124 -1.84719 -2.74828 -1.8672 -1.17275 -2.41435 -1.56275 -1.76825 -2.54967 -1.47781 -2.72338 -2.2879 -1.41015 -1.17309 -1.77228 -1.49288 -2.28567 -1.99492 -3.02358 -2.79901 -2.93674 -1.86183 -2.63592 -1.8998 -2.03829 -1.31311 -0.988847 -2.48923 -2.154 -1.07607 -1.00885 -3.1401 -3.00343 -1.41633 -2.72641 -1.11473 -2.55334 -1.75419 -1.64995 -2.49263 -2.39189 -3.00006 -3.18549 -2.97571 -2.53825 -3.21294 -2.74289 -0.994651 -3.18108 -3.22377 -3.22377
internal_weight=0 19367.5 15162 12571.9 2149.22 10422.7 1920.56 8218.01 4205.45 3505.76 2204.67 1485.02 2819.42 686.335 671.046 2590.14 2282.57 597.607 2164.7 488.463 536.851 1865.56 699.691 109.144 88.911 190.588 425.433 813.975 340.999 228.658 352.285 73.1487 299.141 120.271 73.4388 566.064 178.703 74.0445 599.591 500.672 162.296 297.876 98.9187 104.658 63.3116 10.1271 100.1 87.7187 12.3816 5.44109 20.2329 472.976 54.7415 19.8085 418.234 9.4126 57.8705 159.059 408.822 6.52462
internal_count=268644 238749 198703 175911 19310 156601 14295 131207 40046 36495 25394 29895 33014 3481 11367 22792 24569 10896 17291 9717 8445 13695 3551 1179 723 2994 5501 18528 7030 5015 4107 1394 3596 1605 471 1876 3155 1070 2487 1755 3875 6723 732 2085 286 185 1064 845 219 91 456 11498 1221 359 10277 189 195 3860 10088 161
is_linear=0
shrinkage=1


Tree=1
num_leaves=55
num_cat=0
split_feature=31 31 133 73 42 38 58 37 36 32 114 73 52 104 47 106 39 72 43 125 99 72 104 37 134 31 40 99 72 54 39 30 106 70 52 134 32 115 59 112 23 58 57 72 99 45 58 114 32 39 32 70 24 41
split_gain=7711.49 3318.74 5066.42 3509.49 6526.25 4375.97 3485.71 6756.38 6205.52 2010.36 1732.93 1710.84 1679.69 1994.12 1750.11 1431.67 1197 1094.1 834.193 779.435 1571.31 768.078 644.223 1356.54 619.666 597.467 559.476 528.712 383.249 350.037 347.685 344.444 337.554 288.296 280.578 239.717 230.388 229.578 234.596 200.827 183.182 348.322 214.269 137.56 360.147 98.514 328.496 70.685 0.211645 0.0490345 0.0349884 0.0345262 0.0258362 0.0186433
threshold=0.88024312257766735 0.98323202133178722 1.0000000180025095e-35 -0.7213768959045409 1.0978091955184939 0.92842301726341259 0.8549725115299226 0.93468019366264354 0.92982262372970592 0.90766119956970226 -1.0132077336311338 -0.66372209787368763 1.1349902153015139 -0.81623080372810353 1.1744320392608645 -0.87485122680664051 1.0195553898811343 -0.41555583477020258 0.99725288152694713 -1.8636030554771421 -0.68243822455406178 -0.53915926814079274 -0.88513672351837147 0.87676709890365612 1.0000000180025095e-35 0.98623120784759533 1.0609986186027529 -0.98051258921623219 -0.58789256215095509 1.0902956128120425 1.0315672755241396 0.98541235923767101 -0.91461920738220204 -0.09701321646571158 1.1550372242927553 1.0000000180025095e-35 0.89259630441665661 -1.4221209883689878 0.90469783544540416 -1.2315231561660764 1.4062548875808718 0.81663525104522716 0.74852174520492565 -0.31399430334568018 -0.49425362050533289 1.2008066177368166 0.92413249611854564 -1.3702154755592344 0.85535207390785228 1.0215241909027102 0.85535207390785228 -0.15406363457441327 1.3879099488258364 1.0965015292167666
decision_type=2 2 2 2 2 2 2 2 2 2 2 2 2 2 2 2 2 2 2 2 2 2 2 2 2 2 2 2 2 2 2 2 2 2 2 2 2 2 2 2 2 2 2 2 2 2 2 2 2 2 2 2 2 2
left_child=15 2 12 4 6 22 7 -3 -8 27 11 -7 13 14 -2 16 29 18 -11 20 -14 30 23 -5 -15 -12 -23 -4 -24 32 -6 -21 34 -34 -1 40 -29 45 49 -19 50 42 -42 48 -45 46 -18 -40 -31 -39 52 -47 -17 -52
right_child=1 3 9 5 21 10 8 -9 -10 17 25 -13 19 24 -16 35 37 39 -20 31 -22 26 28 -25 -26 -27 -28 36 -30 43 -32 -33 33 -35 -36 -37 -38 38 47 -41 41 -43 -44 44 -46 51 -48 -49 -50 -51 53 -53 -54 -55
leaf_value=0.020027982855798303 0.3106148121923209 0.33909681036754374 0.8185640133462746 0.84308871041337474 0.057662171053313907 0.30967258200570968 0.47115601580994532 0.10874199972766402 0.32292513898605907 0.67221570404358988 0.047263510363081969 0.50921744768516308 0.37223815723658271 0.4092882951900545 -0.0055125048470949546 -0.1040912236570168 -0.061794747828490454 0.26597112704008086 0.16849908777029424 0.35325382398805927 0.13166994578246849 0.49369971088662779 0.5666677735080129 0.45560886922167204 0.038470327011804181 0.50920180300830176 -0.11571430548122189 -0.095679378984249025 0.94571488982658891 -0.10513015047083669 -0.098321815287711889 -0.014773696176742283 0.35154103340843573 0.12124768254160539 0.79793549067066794 1.0129912190553136 0.029136999382982559 -0.12231655362664738 0.64407020744611643 0.90571016814347216 -0.10559591912464049 1.7726958934740158 0.3011414183743531 2.1483814448502461 -0.10434220662157556 -0.11415829410273221 0.57490201383697381 0.26802203488676074 -0.12574249367657367 -0.10779257800486353 -0.12143054617275931 -0.10473924902133898 -0.11385440558205343 -0.10844027258529468
leaf_weight=66.344107765704393 9121.8424744457006 23739.528140496463 7.3062297366559497 165.79470515996218 339.30927825346589 1994.9288812801242 5397.0451719090343 1345.4288740940392 5924.4723922759295 34.74831198900938 28.681525118649006 547.60714692622423 500.02567794546485 2604.5011845752597 178.54973530769348 351.1915497854352 45.855210602283478 6.0107181146740905 610.54482048004866 29.382537193596363 594.10013472288847 55.762967616319656 33.382757276296616 198.55650991201401 45.858144272118807 1177.0233533270657 20.640752516686916 316.308508656919 132.73937908560038 27.253986120223999 246.86222118884325 189.07920415699482 312.92869575321674 65.787701964378357 4.9849693179130545 2.0233039855957022 277.72691208869219 3.0278936214745036 8.8800591006875056 26.72340102493763 33.104655232280493 1.2046579122543324 21.27580739185214 1.0044909343123438 2.4180748499929896 3.9980743415653697 9.8427105359733087 11.435378253459929 6.0955555289983741 10.006401315331457 1.5969484522938717 146.21463152766228 2.731559056788682 3.5849853083491325
leaf_count=733 38522 94739 29 394 2549 10447 23223 10569 29018 185 289 2126 2574 5977 1537 9460 803 48 6088 292 4498 198 185 977 511 2509 187 4016 218 669 2090 2105 1864 502 27 21 3172 28 25 50 774 1 165 2 61 70 83 37 39 165 13 3678 52 50
internal_value=0 0.337315 0.296227 0.351767 0.341869 0.437519 0.347529 0.326742 0.393588 0.106182 0.399474 0.35265 0.314558 0.326352 0.304546 0.0749048 0.159699 0.224234 0.195624 0.207178 0.241612 0.0308419 0.70634 0.631928 0.402872 0.498213 0.329064 -0.0269256 0.869544 0.249712 -0.00802945 0.0347251 0.273951 0.311536 0.0743935 -0.0728396 -0.0373245 -0.0234494 0.219952 0.78824 -0.0781374 0.0907941 0.053536 -0.0469368 0.556811 -0.0628712 0.0507197 0.432396 -0.108898 -0.111167 -0.104286 -0.10499 -0.104167 -0.112444
internal_weight=0 55890.5 14542.7 41347.8 37069 4278.71 36406.5 25085 11321.5 1279.37 3748.24 2542.54 13263.3 11950.8 9300.39 1142.79 726.078 678.027 645.293 1312.59 1094.13 662.575 530.473 364.351 2650.36 1205.7 76.4037 601.342 166.122 486.818 586.171 218.462 450.045 378.716 71.3291 416.713 594.035 239.26 33.3497 32.7341 414.69 55.5851 54.3805 36.7721 3.42257 205.911 55.6979 20.3154 33.3495 13.0343 359.105 150.213 353.923 5.18193
internal_count=268644 249322 69604 179718 162573 17145 157549 105308 52241 13588 15371 12573 56016 46547 40059 19322 8786 6371 6273 9469 7072 5024 1774 1371 6488 2798 385 7217 403 3897 4639 2397 3126 2366 760 10536 7188 4889 255 98 10515 940 939 771 63 4634 886 62 708 193 9575 3748 9512 63
is_linear=0
shrinkage=0.1


Tree=2
num_leaves=62
num_cat=0
split_feature=31 70 38 34 30 58 72 100 105 30 72 46 31 0 37 79 106 110 102 31 45 31 36 73 38 69 32 130 130 71 71 38 80 116 116 91 109 39 53 112 71 104 82 117 63 73 70 105 58 41 33 71 32 53 26 79 72 30 106 106 106
split_gain=3782.48 1761.18 5518.9 4633.48 3735.72 3609.28 2192.13 2572.24 2171.09 1816.85 1784.31 2456.01 1685.8 1401.31 1393.87 1419.77 1025.59 994.341 800.412 793.207 765.289 725.959 611.219 708.753 603.124 588.47 662.385 523.541 522.154 505.659 438.326 974.918 773.391 262.027 407.36 379.818 358.265 295.173 288.458 256.048 197.948 185.042 156.639 138.556 126.346 163.393 98.2618 94.3915 27.3662 0.181546 0.101482 0.0345005 0.0310191 0.0132655 0.055784 0.0123801 0.01219 0.00714549 0.00444175 0.00143847 0.000264049
threshold=0.88024312257766735 -0.27342006564140314 0.96693167090415966 0.90523344278335582 1.0327938795089724 0.86720359325408947 -0.64840832352638234 -0.8695472478866576 -0.81056386232376088 1.0719068646430971 -0.61454650759696949 1.1374263167381289 1.0024077296257021 0.40105225145816809 0.92901211977005016 -1.1340138316154478 -0.87485122680664051 -1.0066839456558225 -0.81071841716766346 0.99852642416954052 1.193419396877289 1.007908880710602 0.94864583015441906 -0.78125733137130726 0.96835097670555126 -0.13786903023719785 0.96301952004432689 1.0000000180025095e-35 1.0000000180025095e-35 -0.44824206829071039 -0.43270307779312128 0.9460260570049287 -1.2293886542320249 -1.4815224409103391 -0.95901009440422047 -1.1184791326522825 -1.1299531459808347 0.99825343489646923 1.0899292230606081 -1.3062954545021055 -0.22612497955560681 -0.93042409420013417 -1.3664169907569883 -1.5375152230262754 0.32649846374988561 -1.0048049092292783 -0.09701321646571158 -0.95981475710868824 0.8659048080444337 1.0940619707107546 0.85157939791679393 -0.28310920298099512 0.85535207390785228 1.2015510797500613 1.225737512111664 -1.2678083777427671 -0.35464918613433832 1.0045467615127566 -0.87332591414451588 -0.87134569883346547 -0.86951503157615651
decision_type=2 2 2 2 2 2 2 2 2 2 2 2 2 2 2 2 2 2 2 2 2 2 2 2 2 2 2 2 2 2 2 2 2 2 2 2 2 2 2 2 2 2 2 2 2 2 2 2 2 2 2 2 2 2 2 2 2 2 2 2 2
left_child=16 3 8 4 30 22 7 -6 12 -8 24 -12 13 -3 25 21 20 -17 -14 28 33 -16 23 -4 -7 26 -5 -27 -10 -21 32 -32 -2 36 47 -36 37 -1 -38 49 46 42 57 -42 55 -46 -41 -35 -24 50 -22 -51 53 58 -55 -44 -54 59 -43 -18 -58
right_child=1 2 5 14 6 10 9 -9 19 -11 11 -13 18 -15 15 17 41 -19 -20 29 39 -23 48 -25 -26 27 -28 -29 -30 -31 31 -33 -34 34 35 -37 38 -39 -40 40 43 52 44 -45 45 -47 -48 -49 -50 51 -52 -53 56 54 -56 -57 60 -59 -60 -61 -62
leaf_value=0.35144809776579439 0.13489555035181025 0.29077209803352294 -0.048752034627940012 -0.043872938534443601 0.2377470350707796 0.29075776011930737 0.26381370569066676 0.13284944078385849 0.27332073734138301 0.37884016707604423 0.32848472992347683 0.22863025446590335 0.34914704110677469 0.11545256813654879 0.014342286526428808 0.12108277893222459 -0.1074717179683955 0.45608446044916451 0.50636239073900258 0.16074439115515241 -0.11026808499367374 0.14068310158225156 -0.12155456401421659 0.13801685289417495 -0.060692151747273743 0.25275549777259271 0.26196056814392599 0.54235884779183963 0.49024593706562486 0.56456847633902763 0.22985286039185693 -0.12491426491314017 -0.045575566793029494 0.1797091966375228 0.00075638306103617688 0.39890341990601041 0.018828227611781372 -0.075158286546980133 0.34432012391299843 -0.052349421186236957 0.42292835391239453 -0.10624590716152012 -0.11548893814746806 0.11385955642954325 0.83646049520506127 0.20136194446231326 0.4603026442883108 -0.088911723677120288 0.016547316729245639 -0.11816273609650652 -0.12529218874516998 -0.10404618729168141 -0.11881325389014617 -0.10494542077894242 -0.13410094313497098 -0.10554914979151947 -0.10751336855201077 -0.11368233965791873 -0.10362227323831318 -0.10370193521425822 -0.1093431886152999
leaf_weight=23.590890493243933 450.21670639887452 4615.360131110996 236.57621085271239 137.47273948043585 23656.3391135782 60.545195825397968 10408.920959040523 2593.9893891811371 265.52343574538827 1581.8442992195487 3076.2424262538552 12359.777625843883 2346.074794922024 505.87328847125173 1593.193716596812 207.91326463967562 1.0513685569167197 154.39760366082191 375.69274865463376 32.91946554929018 21.615589864552025 636.50589790940285 124.13054556027055 1439.4236413426697 252.33687252551317 460.7896663248539 146.05687693506479 72.204273879528046 190.62680358067155 534.00938058644533 378.43919701501727 97.39623986184597 502.4747446924448 15.671888072043656 39.185020439326763 61.667185813188553 30.900983799248934 51.901554103940725 229.01292649284005 72.221320796757936 20.933398824185133 6.5938044600188723 1.4614510014653195 47.23351988941431 4.7688149772584465 26.908455230295658 3.9429866559803477 79.138481538742781 16.224245488643646 1.7596630044281472 5.6764869466423979 107.35207797214389 1.6411139890551565 5.8636571690440169 0.73894916474819172 8.7872085608541948 1.9499506652355192 0.75778923183679481 301.74946589022875 27.175023462623358 1.3241448700428002
leaf_count=37 3151 10494 2024 873 80290 242 34719 15903 1212 3593 8136 44777 3862 2315 11516 1278 22 554 565 220 446 3342 937 7504 2237 816 506 161 598 1002 1373 762 4267 211 391 407 198 615 539 1128 193 154 21 486 11 133 23 939 93 23 60 3090 15 155 7 180 30 12 8980 797 19
internal_value=0 0.240487 0.260808 0.228018 0.237632 0.228344 0.243563 0.227381 0.325125 0.278988 0.243738 0.24853 0.307253 0.273454 0.116134 0.0802422 0.0616089 0.263843 0.370848 0.462138 0.125681 0.0504084 0.0948664 0.111653 0.00731623 0.23007 0.113674 0.291988 0.363975 0.54112 0.078858 0.157237 0.0397103 0.196273 0.104307 0.244208 0.249923 0.0581534 0.305623 -0.00786041 0.0849819 -0.0714962 0.0746545 0.208772 0.198231 0.296972 -0.0258097 -0.0445094 -0.105591 -0.106098 -0.113393 -0.104274 -0.103896 -0.103773 -0.108208 -0.106967 -0.111779 -0.1041 -0.103678 -0.103842 -0.108253
internal_weight=0 69509.5 26431.3 43078.2 39669.6 17565.3 38241.1 26250.3 8866.08 11990.8 15748.9 15436 7843 5121.23 3408.53 2592.01 1202.58 362.311 2721.77 1023.08 811.804 2229.7 1816.35 1676 312.882 816.524 283.53 532.994 456.15 566.929 1428.53 475.835 952.691 531.069 195.663 100.852 335.406 75.4924 259.914 280.735 144.331 390.771 70.9101 68.1669 41.9259 31.6773 76.1643 94.8104 140.355 136.404 27.2921 109.112 319.861 314.946 6.60261 10.2487 4.91521 28.9842 308.343 28.2264 3.2741
internal_count=268644 249322 86218 163104 144058 65950 134505 96193 20268 38312 55392 52913 17236 12809 19046 16690 19322 1832 4427 3032 8786 14858 10558 9528 2479 2356 1379 977 1810 1222 9553 2135 7418 3337 1948 798 1389 652 737 5449 1830 10536 1176 679 345 144 1151 1150 1030 3619 506 3113 9360 9296 162 201 64 831 9134 819 49
is_linear=0
shrinkage=0.1


Tree=3
num_leaves=57
num_cat=0
split_feature=32 52 71 37 108 37 5 71 104 34 73 39 71 72 36 71 36 70 74 107 53 38 116 111 89 85 22 71 108 71 108 104 115 37 30 89 111 57 136 0 115 58 9 0 53 134 72 31 15 30 106 30 62 69 31 82
split_gain=2602.23 1940.74 1735.36 4418.7 1522.06 1634.6 1426.22 1531.71 1146.77 993.272 992.94 971.936 1982.49 727.788 712.397 670.754 645.172 490.248 450.263 378.464 553.312 363.011 339.388 319.252 402.234 375.485 316.457 317.522 278.077 274.968 255.503 230.927 228.851 262.083 226.324 224.557 305.118 187.844 185.042 157.344 183.019 152.635 134.925 133.033 108.346 88.7288 86.5971 34.0916 77.5545 0.275286 0.0751628 0.06362 0.0526404 0.0412388 0.0255322 0.0187965
threshold=0.83564531803131115 1.1405507922172549 -0.36672922968864435 0.97137993574142467 -1.0642714500427244 0.92637738585472118 0.39845333993434912 -0.42171661555767054 -0.9204064905643462 0.89095228910446178 -0.75144106149673451 1.0368674993515017 -0.32980346679687494 -0.46339574456214899 0.96075278520584118 -0.38189753890037531 0.9341849982738496 -0.09701321646571158 -0.89267408847808827 -0.97841045260429371 1.128710985183716 0.97469899058341991 -1.3836785554885862 -0.91488870978355397 -1.1153526902198789 -1.156654894351959 1.418201804161072 -0.66477742791175831 -1.0346649289131162 -0.33812709152698511 -1.0708019733428953 -0.93042409420013417 -1.4707083106040952 0.9303613305091859 1.0853944420814516 -1.1128976345062254 -0.98335492610931385 0.72198548913002025 1.0000000180025095e-35 0.31763949990272528 -1.0792697668075559 0.97911998629570018 0.7141302525997163 -0.28257948160171503 1.2015510797500613 1.0000000180025095e-35 -0.55993995070457447 0.95320963859558117 1.3608771562576296 1.0015574097633364 -0.86865112185478199 1.0870609879493716 0.45113243162631994 -0.44846637547016138 0.88024312257766735 -1.3664169907569883
decision_type=2 2 2 2 2 2 2 2 2 2 2 2 2 2 2 2 2 2 2 2 2 2 2 2 2 2 2 2 2 2 2 2 2 2 2 2 2 2 2 2 2 2 2 2 2 2 2 2 2 2 2 2 2 2 2 2
left_child=8 2 3 6 5 30 15 -8 26 19 46 17 -13 16 -12 -2 18 -6 -11 38 28 -7 43 24 25 34 45 35 -21 -18 -4 -24 33 -26 -10 37 -37 -28 41 -29 -41 -3 -22 -15 -34 50 -5 49 -49 54 52 -51 -1 -50 -25 -52
right_child=1 9 4 10 11 21 7 -9 23 13 14 12 -14 22 -16 -17 29 -19 -20 20 42 -23 31 47 32 -27 27 39 -30 -31 -32 -33 44 -35 -36 36 -38 -39 -40 40 -42 -43 -44 -45 -46 -47 -48 48 53 51 55 -53 -54 -55 -56 -57
leaf_value=-0.12238931079615319 -0.025005360336142146 -0.096139992237385161 0.47785030772415893 -0.097093423036879942 0.25558620012924899 0.080359076063802798 0.18397234593216613 0.2247331477498935 0.057821985441174277 -0.037421779508481363 0.11342573567879598 0.027077685743869009 0.28445612288125238 0.54030110535460019 -0.072573039663194006 0.17466039244449127 0.0019040759589716121 -0.069161642618496902 0.27502332135307145 0.25244817030318378 -0.034151672876278391 -0.089577984712214023 -0.1445369388187307 -0.10331330709743079 0.31148227719083982 0.85731500710928477 -0.069179558814773306 0.78665091730979442 0.051019018143579377 0.13916717714149948 0.24505503182305854 0.28825043019208318 -0.092632952645629429 -0.1106666589238019 0.32162110634048235 -0.030601714455659706 0.20247850686847527 0.23786108096915132 0.25326671090758524 -0.035965452204048745 0.24323713293396093 0.60388777527986415 0.63922760519427824 -0.11480278220461769 0.2037283312754907 0.34222270062083276 0.32186836027538607 0.416387586726227 -0.11268771875820727 -0.10882225736168911 -0.10403939696056558 -0.11398788137044712 -0.11073348200841703 -0.12893762077011894 -0.10627181586772992 -0.10992285742627383
leaf_weight=4.6889899708330658 451.04374595358968 298.25637561455369 64.968311868607998 482.27720511332154 7965.155704151839 237.59862422198057 52985.601717732847 11161.097971618176 156.93836105428636 56.126549996435642 1003.2953444458544 592.44621969014406 604.7710615247488 3.4425044134259215 259.10070333629847 268.35255267098546 456.10467388480902 46.759031798690557 258.78629320114851 160.2972165197134 306.86593768000603 266.91449674218893 12.695496898144482 132.70302883349359 35.397893307730556 7.0079604089260092 100.65893488936126 5.029265269637107 119.7262493930757 214.60856077075005 171.86699008569121 426.96925823390484 261.73981318995357 25.159018786624074 41.023872077465057 72.702546102926135 246.89130510017276 24.842976475134492 16.686905037611723 25.276560120284557 329.91857289895415 3.1476262360811225 3.004728239029645 31.142185932025313 12.94601448997855 4.7227293811738482 4.9844831451773635 4.1298956871032706 5.89498047530651 94.702117281034589 22.449750261381269 31.864535585045815 22.310432612895966 2.1245809048414221 37.389241043478251 7.1626201719045666
leaf_count=37 3667 4350 281 3143 10935 1007 169510 29115 1428 438 3954 2714 1472 6 1583 824 2942 564 1088 750 3773 2806 65 4346 70 13 1257 17 925 1006 138 727 5613 609 184 729 1389 133 10 268 759 6 9 365 81 4 6 1 59 1324 667 309 366 13 674 115
internal_value=0 0.188325 0.191083 0.185264 0.230036 0.0921909 0.189494 0.191064 0.0638381 0.0991609 0.028448 0.241133 0.157092 0.150239 0.0752504 0.0494749 0.101262 0.253691 0.219337 0.017036 0.0644451 -0.00954674 0.252027 -0.0187627 0.0276001 0.137955 0.144758 0.161435 0.166326 0.0458242 0.308915 0.275754 -0.0398717 0.136096 0.112489 0.104946 0.149456 -0.00840117 -0.0708832 0.231233 0.223368 -0.0888295 -0.0276221 -0.0495948 -0.0786654 -0.0742023 -0.0928076 -0.0998673 0.0643162 -0.106591 -0.108942 -0.110123 -0.112758 -0.116993 -0.103964 -0.105462
internal_weight=0 78934.1 76566.2 66615.8 9950.48 741.348 64866.1 64146.7 1715.68 2367.86 1749.66 9209.13 1197.22 1459.88 1262.4 719.396 985.626 8011.91 314.913 907.985 589.894 504.513 474.249 849.021 540.213 204.97 866.655 805.32 280.023 670.713 236.835 439.665 335.243 60.5569 197.962 445.096 319.594 125.502 318.091 360.224 355.195 301.404 309.871 34.5847 274.686 61.3345 487.262 308.808 12.1495 296.659 56.6118 126.567 26.9994 8.01956 170.092 29.6124
internal_count=268644 248179 231719 211802 19917 4232 203116 198625 20465 16460 8686 15685 4186 6637 5537 4491 5474 11499 1526 9823 5457 3813 1163 14724 7998 1625 5741 4552 1675 3948 419 792 6373 679 1612 3508 2118 1390 4366 1044 1027 4356 3782 371 5694 1189 3149 6726 73 6653 1185 1633 403 72 5020 782
is_linear=0
shrinkage=0.1


Tree=4
num_leaves=56
num_cat=0
split_feature=45 70 133 31 74 31 52 71 76 36 72 70 35 77 71 4 70 104 112 108 105 119 127 75 66 103 58 31 58 129 8 50 6 109 87 26 10 105 106 108 126 31 38 30 31 33 136 126 30 5 22 103 83 126 74
split_gain=1745.89 1500.51 1279.71 2802.28 1196.93 1218.77 1185.64 1192.63 1127.92 1066.83 3586.9 1595.25 892.339 845.736 495.221 468.579 465.156 401.284 316.261 346.672 295.712 282.171 244.827 240.052 224.407 212.082 214.839 206.82 167.168 160.162 148.428 112.789 105.733 104.225 88.232 81.035 80.3596 64.3429 165.501 45.2228 31.3285 82.025 10.4872 0.844376 0.320055 0.105797 0.166238 0.0799212 0.071353 0.050361 0.0426313 0.0174651 0.0156994 0.0105997 0.00785763
threshold=1.1959454417228701 -0.52801570296287526 1.0000000180025095e-35 0.99542358517646801 -0.84461358189582814 0.9720171093940736 1.0566521286964419 -0.42444673180580134 -1.3101915717124937 0.92165407538414013 -0.62481820583343495 -0.28340385854244227 0.92548307776451122 -1.1352609395980833 -0.33812709152698511 0.71790248155593883 -0.57262155413627613 -0.92826160788536061 -0.92978122830390919 -0.9280845820903777 -0.89954534173011769 -1.0214888453483579 -2.3723977804183956 -1.1169231534004209 -0.13844083249568936 -0.79074174165725697 0.95251137018203746 0.9933130443096162 0.91882172226905834 1.0000000180025095e-35 0.83156421780586254 1.239064693450928 0.7571718990802766 -0.90820786356925953 -1.0303477644920347 1.1188826560974123 0.93448475003242504 -0.82137221097946156 -0.87586548924446095 -0.91253191232681263 -1.3777729868888853 0.9951215684413911 0.98037090897560131 1.0155302286148074 0.99152699112892162 0.93835955858230602 1.0000000180025095e-35 -1.6483874320983884 1.0155302286148074 0.37411317229270941 1.1914762854576113 -0.78092914819717396 -0.82864919304847706 -2.0486488342285152 -0.50243830680847157
decision_type=2 2 2 2 2 2 2 2 2 2 2 2 2 2 2 2 2 2 2 2 2 2 2 2 2 2 2 2 2 2 2 2 2 2 2 2 2 2 2 2 2 2 2 2 2 2 2 2 2 2 2 2 2 2 2
left_child=1 15 8 4 27 -6 13 -8 40 11 -11 -10 25 -5 45 17 18 23 19 -17 21 -18 28 32 -25 26 47 -4 48 39 -31 -30 -1 -22 -27 -24 -20 42 -39 -19 41 -3 -36 -42 -37 46 53 52 -16 50 -47 -51 -2 -14 -49
right_child=12 2 3 6 5 -7 7 -9 9 10 -12 -13 14 -15 22 16 20 29 36 -21 33 -23 35 24 -26 34 -28 -29 31 30 -32 -33 -34 -35 37 44 -38 38 -40 -41 43 -43 -44 -45 -46 49 -48 54 -50 51 -52 -53 -54 -55 -56
leaf_value=0.023439828479792348 -0.12354540083652439 -0.12251034392381051 -0.09236882465891974 0.0081079613050405487 -0.023553714570398631 0.1203641753121702 -0.039549567375506051 0.19772565678500445 0.15764924405653313 -0.039295616185496041 0.15068607551168955 0.19653518988477883 -0.11846665014247378 0.21820686614142498 -0.11806565812082673 -0.063482058214140422 -0.040592903367753043 -0.041642355207286263 0.35193683277176546 0.14876967250268036 0.22299470747601691 0.1681898016764829 0.29392622795253848 0.18300508320905992 -0.031812129611663173 0.37387861754561236 0.32729147455863178 0.033725108338627519 0.24855593076029203 -0.12687739036175902 0.41970284622727505 -0.012434147578039038 0.33592178439420239 -0.088049454155826948 -0.049303691664356275 -0.12205720292662488 -0.066717611136580965 0.031929929509919866 -0.10716625090987263 -0.11740559928318968 -0.10405740720762896 0.42262374003802655 -0.11175088673638112 -0.1207652484738566 -0.1492105111970857 -0.12011554520732173 -0.14267975617398623 -0.10360329690369539 -0.1365151230197523 -0.12591544610537314 -0.13220942661981644 -0.11431842792306185 -0.11491412230205425 -0.11385046209479768 -0.11417111957451467
leaf_weight=14.015507714822887 3.1554621141403913 8.4357774555683118 539.37382543087006 205.16925144195557 800.32861947081983 2222.4395733252168 454.36988761276007 396.86126823723316 40663.765532953665 1043.5156986210495 20855.900716440752 14245.660878093913 23.8583376519382 2896.2035011202097 11.381840154528616 107.33997673541307 69.315980192273855 131.00619975477457 4.6769439727067939 271.81079141423106 12.698127806186674 978.98502291180193 5.4096215926110736 73.667261196300387 143.07843856886029 4.574551371857523 28.7363899089396 171.41762228310108 275.05028001591563 8.3120544850826281 12.3504566475749 17.619130738079548 47.616461731493473 71.048693791031837 30.457973200827837 24.422401908785108 232.87547730281949 169.02455470152199 173.18681857176125 197.64260219782591 118.49918547272682 4.1025494933128348 229.74736479483545 40.615274012088776 5.2792439162731162 3.4705360531807008 2.8728182613849631 7.9795079603791237 2.5694985687732688 2.30466128885746 18.199670255184174 2.9748545512557021 6.3442214503884333 6.2845167759805944 0.77162951417267134
leaf_count=67 32 57 3763 708 7203 9921 2420 836 110264 7100 61777 25864 185 5618 94 790 357 799 4 1695 37 3109 15 498 1120 12 36 859 489 60 13 82 56 758 285 175 2468 2863 4638 2798 3632 2 4154 288 24 26 14 260 14 17 107 30 68 70 13
internal_value=0 0.153638 0.155838 0.11693 0.0548032 0.0822595 0.175614 0.071073 0.159723 0.160295 0.141633 0.167738 0.0242601 0.204308 0.141569 0.0752691 0.101872 0.00115174 0.0319962 0.0886799 0.139939 0.154385 0.18808 0.0907177 0.0411997 -0.0477954 0.156883 -0.0619595 0.216723 -0.0702263 0.199826 0.232844 0.264861 -0.0408873 -0.0636396 -0.062049 -0.0584751 -0.066962 -0.0384641 -0.0872048 -0.0963297 0.0558579 -0.104441 -0.108322 -0.126883 -0.12349 -0.119695 -0.11143 -0.121464 -0.128139 -0.130273 -0.119381 -0.117781 -0.117504 -0.104535
internal_weight=0 87043.1 84666.7 7686.16 3733.56 3022.77 3952.6 851.231 76980.5 76808.8 21899.4 54909.4 1055.68 3101.37 401.697 2376.44 1748.75 627.689 616.703 379.151 1132.05 1048.3 341.732 278.378 216.746 653.978 46.9872 710.791 306.621 349.311 20.6625 292.669 61.632 83.7468 606.991 35.1113 237.552 602.417 342.211 328.649 171.653 12.5383 260.205 159.114 29.7016 59.9654 33.0157 18.2508 13.9513 26.9497 21.6702 5.27952 9.49968 30.1429 8.75114
internal_count=268644 254941 240312 31328 21746 17124 9582 3256 208984 205005 68877 136128 13703 6326 1342 14629 9218 5411 4957 2485 4261 3466 893 1741 1618 12361 409 4622 679 3670 73 571 123 795 11952 214 2472 11940 7501 3597 3979 59 4439 3920 199 449 269 373 108 180 133 47 100 255 273
is_linear=0
shrinkage=0.1


Tree=5
num_leaves=63
num_cat=0
split_feature=52 71 28 38 71 35 73 31 107 37 43 70 73 75 32 37 48 72 94 43 72 133 109 57 43 26 57 59 38 128 27 38 42 29 99 52 30 17 61 72 108 32 49 53 100 130 30 111 108 29 75 63 72 70 17 108 31 31 46 31 32 29
split_gain=1426.59 1403.95 2842.1 1564.4 1720.1 2336.57 1696.25 1205.91 1041.22 771.029 629.24 1026.34 761.748 597.445 797.528 539.031 482.182 792.813 352.802 329.105 549.909 404.2 323.13 314.234 308.492 298.258 292.854 286.075 465.102 277.335 247.445 255.176 220.36 453.304 190.911 182.444 177.037 172.806 162.86 218.406 154.11 144.703 115.428 106.771 104.524 104.508 218.281 119.965 89.4377 83.0774 82.6245 74.4627 60.2747 38.4129 25.8577 3.59091 1.23374 0.598825 0.171048 0.0396743 0.0229399 0.0162758
threshold=1.1362937688827517 -0.36885318160057062 1.1124866604804995 0.98283725976943981 -0.42261503636837 0.91508442163467418 -0.76335513591766346 1.0015415549278261 -1.0089743137359617 0.97223478555679332 1.125186085700989 -0.18290987610816953 -0.71271628141403187 -0.98837867379188526 0.91160205006599437 0.92491918802261364 1.2106094360351565 -0.40447965264320368 -0.99050408601760853 1.125186085700989 -0.46339574456214899 1.0000000180025095e-35 -1.1247560977935789 0.95143261551857006 1.1301130652427676 1.2045519351959231 1.0238221883773806 0.84213423728942882 1.0004901289939883 1.0000000180025095e-35 1.1494659781455996 1.0196352601051333 1.0808685421943667 1.0475916862487795 -0.81908485293388356 1.1405507922172549 1.0206794738769533 1.0274904966354372 0.72794756293296825 -0.56534567475318898 -1.0841031670570371 0.96461606025695812 1.138223469257355 1.1149637103080752 -0.77527317404746998 1.0000000180025095e-35 1.0434680581092837 -0.8673449158668517 -1.0199140310287473 1.0587335824966433 -0.66405051946640004 0.57279661297798168 -0.50528091192245472 -0.10813628137111662 1.0386370420455935 -1.0708019733428953 0.99132150411605846 1.0052433609962466 1.1279962658882143 0.98365259170532238 0.96358555555343639 1.1396881937980654
decision_type=2 2 2 2 2 2 2 2 2 2 2 2 2 2 2 2 2 2 2 2 2 2 2 2 2 2 2 2 2 2 2 2 2 2 2 2 2 2 2 2 2 2 2 2 2 2 2 2 2 2 2 2 2 2 2 2 2 2 2 2 2 2
left_child=1 2 32 4 5 -4 18 -6 15 -8 27 24 -13 29 16 40 17 34 -5 21 25 23 -19 -16 -12 -21 53 28 -10 45 31 35 33 43 -15 -31 55 -35 54 -40 58 -29 -42 -1 -22 47 49 56 -28 -47 -38 -48 -23 -18 -34 -17 -2 59 -3 -32 -33 -59
right_child=13 8 3 6 7 -7 9 -9 10 -11 11 12 -14 14 19 36 26 22 -20 20 44 52 -24 -25 -26 -27 48 41 -30 30 57 60 38 37 -36 -37 50 -39 39 -41 42 -43 -44 -45 -46 46 51 -49 -50 -51 -52 -53 -54 -55 -56 -57 -58 61 -60 -61 -62 -63
leaf_value=-0.10818367471266095 -0.11770850780387143 -0.14940206344306164 0.12951183206405573 0.014381630851628519 0.14513731335061 0.026676474827982768 0.12840213920770327 0.21820951428087418 0.18141940758880501 0.02684830107675213 0.082499015335200432 -0.018833571742408416 0.1686496342000913 0.1290064085399755 -0.12343600076701158 -0.11262475673524584 -0.11252498937325631 -0.025604750874784782 -0.10232306695465095 0.087168907525219497 -0.034121959227353678 -0.12084339695345492 0.17080807330947012 0.26451508154342152 -0.068873005464841749 -0.059377961568999993 0.18898614617985474 0.17939435966623141 0.054241492142514752 -0.1187418646102131 -0.11234145430160643 -0.11682434544246692 -0.12813203797524428 0.18098770481561433 -0.10223448738172421 0.35081979713029843 -0.021796507194541376 0.021213030565812571 -0.12555539656678721 0.068252288804920444 0.34008199061825428 0.23099227215269391 0.1119351542862221 0.19152736724690445 0.20420293919443699 0.064880851577097096 0.095333676734172312 0.19710541982435967 -0.0072588253964299722 -0.11881134645847467 0.3025209680690808 0.46529971094288947 0.20300587659831751 -0.052417430345533381 -0.0070444785483300652 -0.14251319775187885 -0.13338099633915979 -0.14118757014201672 -0.12461685204474821 -0.12020369331424581 -0.12504495972649463 -0.14973774095866563
leaf_weight=212.51921870745718 190.98839819803834 3.9724306166172019 60168.646269246936 565.53169644251466 6517.8742578439415 2293.7262146919966 3088.525175049901 3455.9417581707239 3879.2291825562716 986.3796293027699 281.52597100660205 230.55147166550159 3610.6673110760748 42.103346165269613 22.212769106030464 160.02113567478955 225.5710186753422 100.77847969345748 477.94947073236108 686.50221812725067 19.225074224174023 39.187798835337162 496.0051338635385 347.57472877204418 258.03062254935503 174.10049590468407 56.961744666099548 795.064264126122 310.58035739511251 9.6588176861405355 16.031313182786111 16.328774297609929 323.53926744684577 134.56781503558159 234.85352237336338 57.735429815948009 16.361881591379646 136.21332987397909 100.87293993681669 137.27764685451984 47.297510147094727 1717.8923085182905 41.751872062683105 12.590534916147588 430.11923011019826 37.354679590091109 10.331735804677011 12.356017474085091 39.208606131374836 72.224467895925045 15.109540589153765 11.490631408989428 6.7347950562834731 201.11457751691341 18.652365915477276 53.682492528110743 68.151589184999466 4.4883438497781736 9.3103406056761724 10.703467682003973 4.285439781844615 4.4175916910171509
leaf_count=4940 1803 21 165878 2307 15569 11014 8124 4844 3949 4089 730 1034 6299 342 156 1885 4150 964 3045 2848 71 301 1729 629 1319 1102 120 1508 839 77 220 152 1845 191 1862 233 66 523 671 576 67 1316 104 26 704 338 48 22 468 605 13 8 17 5861 98 316 395 22 61 82 28 20
internal_value=0 0.130639 0.125878 0.128118 0.131893 0.125736 0.0746884 0.170457 0.163385 0.10382 0.168729 0.139256 0.157397 0.0668567 0.083474 -0.00706076 0.0272941 0.0727479 -0.039073 0.128941 0.10434 0.206462 0.13764 0.241211 0.0101088 0.0575224 -0.0486633 0.187992 0.171992 -0.0316781 0.0993262 0.189349 -0.0355107 0.0134403 -0.0670809 0.283523 -0.0875231 0.100615 -0.0773385 -0.0138384 0.185717 0.214667 0.233113 -0.0914206 0.194006 -0.0718832 0.0013247 -0.107315 0.108977 -0.0561921 0.133909 0.29014 -0.0733492 -0.0841938 -0.121532 -0.120133 -0.12183 -0.12297 -0.132029 -0.115489 -0.118533 -0.145429
internal_weight=0 90061.9 78630.8 77554.6 72436.2 62462.4 5118.39 9973.82 11431 4074.9 11083.5 4380.78 3841.22 3648.8 3122.25 347.507 1396.6 873.74 1043.48 1725.66 1309.95 415.71 596.784 369.787 539.557 860.603 522.856 6702.77 4189.81 526.547 123.649 88.0085 1076.23 495.891 276.957 67.3942 245.175 270.781 580.342 238.151 102.332 2512.96 89.0494 225.11 449.344 402.898 131.402 271.496 96.1704 109.579 31.4714 21.8224 45.9226 426.686 342.192 213.704 259.14 35.6407 13.2828 26.7348 20.6142 8.90594
internal_count=268644 243267 223740 214870 197305 176892 17565 20413 19527 12213 16994 9382 7333 25377 21324 2533 15496 4897 5352 5828 4725 1103 2693 785 2049 3950 10599 7612 4788 4053 834 490 8870 5680 2204 310 2280 714 3190 1247 253 2824 171 4966 775 3219 999 2220 588 943 79 56 318 10011 1943 2201 2198 344 82 302 180 42
is_linear=0
shrinkage=0.1


Tree=6
num_leaves=63
num_cat=0
split_feature=31 131 133 74 98 45 134 134 32 72 36 38 72 96 69 46 74 38 29 71 69 105 136 72 98 89 60 60 36 99 31 104 37 130 79 105 5 37 15 1 106 33 117 74 125 31 75 31 31 30 7 107 106 115 103 55 56 37 136 29 31 30
split_gain=1444.89 2820.39 1909.59 1878.92 1598.9 1438.11 1448.66 1417.65 1099.21 888.274 2792.15 1009.45 1223.88 980.937 971.606 1270.24 838.716 1123.48 725.241 714.776 628.771 557.414 507.715 464.33 522.157 440.654 426.277 390.38 416.367 382.82 376.98 376.915 365.246 357.78 329.579 316.724 313.057 309.909 929.632 270.003 261.942 235.228 232.676 349.416 178.307 168.842 166.309 138.413 135.01 133.739 129.157 125.365 123.327 121.167 116.656 102.226 88.0948 82.3497 66.1685 58.7424 16.0988 0.109789
threshold=1.0031810998916628 1.0000000180025095e-35 1.0000000180025095e-35 -1.0246614217758176 -0.99870455265045155 1.1959454417228701 1.0000000180025095e-35 1.0000000180025095e-35 0.89976087212562572 -0.62793493270874012 0.9046459197998048 0.96108815073966991 -0.60294619202613819 -0.98170214891433705 -0.1516555845737457 1.0751408338546755 -0.85210284590721119 0.87897792458534252 1.1481456756591799 -0.50703662633895863 -0.13209435343742368 -0.83239504694938649 1.0000000180025095e-35 -0.64075550436973561 -0.88320133090019215 -1.2383757233619688 0.74430689215660106 0.7370227873325349 0.9375266730785371 -0.91733580827713002 0.9933130443096162 -0.81727677583694447 0.95439720153808605 1.0000000180025095e-35 -1.248709976673126 -0.88292893767356861 0.77785447239875805 0.93211182951927196 0.9810377061367036 0.47843141853809362 -0.99499350786209095 0.92511862516403209 -0.98471227288246144 -1.0424526333808897 -1.0917050838470457 1.012779772281647 -1.0568417310714719 1.0049687623977663 0.98657327890396129 1.0585174560546877 0.60750722885131847 -0.84461158514022816 -0.8479691445827483 -0.93809324502944935 -0.69200691580772389 0.96081349253654491 0.93895322084426891 0.91084975004196178 1.0000000180025095e-35 1.1637928485870364 1.0014368891716006 1.0346359610557558
decision_type=2 2 2 2 2 2 2 2 2 2 2 2 2 2 2 2 2 2 2 2 2 2 2 2 2 2 2 2 2 2 2 2 2 2 2 2 2 2 2 2 2 2 2 2 2 2 2 2 2 2 2 2 2 2 2 2 2 2 2 2 2 2
left_child=1 2 3 7 25 6 -5 26 36 10 14 31 27 20 15 22 30 -18 -9 -17 29 34 -2 45 -25 55 -1 49 -29 -12 -10 37 -23 52 -14 42 40 50 -39 -22 -4 -7 46 -44 53 -15 -6 58 -38 -13 -11 54 -16 -27 -37 59 -49 -35 -33 -3 -53 -46
right_child=9 4 8 5 35 41 -8 18 16 11 13 12 21 23 33 19 17 -19 -20 -21 39 32 -24 24 -26 44 -28 28 -30 -31 -32 47 -34 57 -36 51 48 38 -40 -41 -42 -43 43 -45 61 -47 -48 56 -50 -51 -52 60 -54 -55 -56 -57 -58 -59 -60 -61 -62 -63
leaf_value=-0.023650384998591244 0.14184205094201227 -0.11498924136416318 0.2345004598824387 0.1218351075727233 0.22751264839472338 -0.044407717701690573 0.070161310709542152 -0.065239068584693083 -0.10560760891894705 0.14837137987928137 0.10506341534045274 -0.10937870370386474 0.0070904068379075251 -0.097826479548898726 0.16355883495700196 -0.035654974214992079 0.2064579329978069 0.067010105837927728 0.28991366805090951 0.091016293286450861 -0.13539362958295409 0.22484182714390699 0.065187735727467236 0.068157289826720369 -0.096869345828862627 0.0085984714978027624 0.17268330384148706 0.10435331244544627 -0.094430027642568373 -0.078815275711469901 0.026190136083387452 0.31210417585738437 0.13835611865280317 0.4137168903275325 0.12349187489365683 -0.054229040057018799 -0.0062831316467796827 0.16688454472522599 -0.054193347662322068 0.21557204415226022 -0.09683444454634127 0.083986066457680073 0.14859315562090408 -0.096730572794473182 -0.11879435227396196 0.039567458589675863 0.029074238487050624 0.040473663453864057 0.21850836386211669 0.0089447059367219195 0.19251301922425515 -0.1245047121531687 0.22561855300036401 0.29102275819631013 0.28282636535928418 0.23617989147072493 0.22229456339854511 0.28231365020983884 0.13276632360521506 0.19097460866482024 -0.07811794893548013 -0.13908450995844554
leaf_weight=1801.2101045604795 10877.851031951606 53.11685380525887 24.786184120923281 51881.202215570956 75.319798476994038 647.36426519416273 6058.9370781742036 73.779265597462654 283.96109493821859 828.71350578963757 264.75872329622507 214.7276877425611 310.10103313624859 684.65092208981514 850.32963408529758 655.82353590428829 689.79220482707024 3557.0010710582137 260.55263575911522 1388.8049997240305 23.21823912113905 950.58890732377768 938.62338077276945 707.89849258959293 262.95001450181007 16.275718979537487 117.82030499726534 579.14052946120501 128.80478105321527 197.81747037917376 920.60879193246365 292.42224887013435 1004.1212073042989 70.770295843482018 1128.2319489233196 886.59022341668606 56.663015689700842 1077.04381044209 230.99820988625288 391.99460615217686 638.55974605120718 183.03735788911581 79.607033146545291 214.48206932097673 4.2286221180111152 102.88378668576479 96.147150790318847 29.715110436081886 50.5569698959589 172.07634663581848 3312.0913191735744 359.01360970363021 513.63179699331522 227.89395514130592 10.388722278177736 12.425960244610904 258.16353504359722 146.25369383394718 22.130461797118187 7.115560606122016 94.514785051345825 7.2202928811311722
leaf_count=11115 16684 1193 68 120675 159 12453 25002 402 1958 1306 742 1337 998 3886 812 2765 1564 14835 528 3975 135 852 2161 2165 1494 75 307 1622 786 1016 3715 269 2151 34 2689 5059 398 1360 991 673 5746 653 335 1559 48 415 422 66 78 764 2982 3370 476 295 5 34 137 198 35 21 557 39
internal_value=0 0.102142 0.105742 0.111123 -0.0107575 0.114559 0.116431 0.0215104 0.0529674 0.128846 0.115394 0.151921 0.115983 0.0202777 0.131632 0.123161 0.06877 0.0896601 0.21154 0.0503859 0.106614 0.145646 0.135753 -0.0228218 0.0234606 0.192342 -0.0115963 0.0240464 0.0681863 0.026429 -0.0048794 0.178573 0.180415 0.205905 0.098396 -0.0474704 -0.0588283 0.170275 0.127843 0.195946 -0.084454 -0.0161071 0.0236571 -0.0303238 0.254112 -0.0798773 0.116242 0.253631 0.0997118 -0.0567405 0.183679 -0.0719899 0.186929 0.272197 -0.0503253 -0.0249691 0.203527 0.325164 0.299487 -0.0788442 -0.114838 -0.13159
internal_weight=0 69390.2 67245.8 61023.9 2144.34 58770.5 57940.1 2253.36 6221.93 28617.3 18078.3 10539.1 4487.79 2636.17 15442.1 13861.1 5451.36 4246.79 334.332 2044.63 877.789 3393.04 11816.5 1758.38 970.849 328.277 1919.03 1094.75 707.945 462.576 1204.57 6051.28 1954.71 1580.99 1438.33 1816.06 770.566 5448.85 1308.04 415.213 663.346 830.402 465.556 294.089 255.619 787.535 171.467 602.431 107.22 386.804 4140.8 1350.51 1363.96 244.17 896.979 72.6584 287.879 217.024 314.553 60.2324 453.528 11.4489
internal_count=268644 212668 199497 171135 13171 158783 145677 12352 28362 55976 37631 18345 11199 10526 27105 25585 22072 16399 930 6740 2566 6690 18845 7960 3659 1705 11422 4509 2408 1758 5673 7146 3003 1520 3687 11466 6290 6639 2351 808 5814 13106 2475 1894 457 4301 581 507 476 2101 4288 8991 1288 370 5064 1248 203 232 304 1214 3927 87
is_linear=0
shrinkage=0.1


Tree=7
num_leaves=63
num_cat=0
split_feature=31 131 133 73 98 105 134 130 32 134 92 73 98 107 73 38 48 31 56 60 107 36 38 134 0 45 127 95 101 123 108 71 54 123 105 5 107 106 56 109 117 74 3 100 99 107 88 17 74 30 60 130 109 115 97 36 97 18 31 107 119 29
split_gain=1183.67 2138.76 1452.83 1518.75 1216.58 1204.08 3340.24 1160.54 867.583 827.09 857.707 1345.52 1229.06 843.019 705.05 1102.99 910.775 657.314 595.594 554.173 545.144 1042.96 464.684 449.316 688.471 435.561 426.498 538.74 403.27 347.018 344.202 338.463 311.354 302.319 270.694 264.029 211.827 208.964 193.7 560.566 178.37 281.481 159.782 135.361 126.479 118.927 118.901 197.423 118.239 115.933 114.223 111.933 107.831 94.2265 75.2349 72.1699 66.6637 42.6858 16.2642 7.24586 0.53394 0.0374029
threshold=1.0031810998916628 1.0000000180025095e-35 1.0000000180025095e-35 -0.91224008798599232 -0.99870455265045155 -0.85019248723983754 1.0000000180025095e-35 1.0000000180025095e-35 0.89976087212562572 1.0000000180025095e-35 -1.1499714851379392 -0.79979398846626271 -0.91261789202690113 -0.87728795409202565 -0.72301426529884327 0.91261607408523571 1.0774541497230532 1.0049687623977663 0.85291534662246715 0.68617394566535961 -0.86500382423400868 0.89217960834503185 0.96596756577491771 1.0000000180025095e-35 0.610164374113083 1.0317527055740359 -1.5071012973785398 -1.0669589042663572 -0.85625433921813954 -1.1254314780235288 -0.88373440504074086 -0.4741318523883819 1.0097820758819582 -1.0017701387405393 -0.88292893767356861 0.77785447239875805 -0.82382959127426136 -0.99499350786209095 0.92416834831237804 -0.89184379577636708 -0.98471227288246144 -1.0424526333808897 0.65635713934898388 -0.96310141682624806 -0.9085073173046111 -0.84461158514022816 -1.1598960757255552 1.096823573112488 -1.0354946851730344 1.0994368791580202 0.74287775158882152 1.0000000180025095e-35 -0.84312811493873585 -0.93809324502944935 -0.95637831091880787 0.91410484910011303 -1.0352829694747923 1.2051079273223879 1.0014368891716006 -0.8813377022743224 -0.574763923883438 1.1637928485870364
decision_type=2 2 2 2 2 2 2 2 2 2 2 2 2 2 2 2 2 2 2 2 2 2 2 2 2 2 2 2 2 2 2 2 2 2 2 2 2 2 2 2 2 2 2 2 2 2 2 2 2 2 2 2 2 2 2 2 2 2 2 2 2 2
left_child=1 2 3 23 33 7 -7 -5 35 10 26 12 18 19 16 -16 -10 38 -12 28 21 -13 31 24 -1 -14 48 36 42 -29 -25 -21 -22 43 40 37 -28 -4 39 -15 44 -42 -11 53 -6 52 54 -48 57 -37 -24 -50 -36 -3 -19 -40 -45 -2 -47 -30 61 -35
right_child=9 4 8 5 34 6 -8 -9 14 13 11 20 25 17 15 -17 -18 46 -20 22 32 -23 50 30 -26 -27 27 29 59 -31 -32 -33 -34 60 45 49 -38 -39 55 -41 41 -43 -44 56 -46 58 47 -49 51 -51 -52 -53 -54 -55 -56 -57 -58 -59 -60 -61 -62 -63
leaf_value=-0.076544156232084187 -0.14647437565249194 -0.0086162567772270389 0.18645091434974265 0.11729946188012051 0.17149275815068099 0.097650827507395122 -0.0042690168615536189 0.010633500595311689 0.060317750974963384 0.040218836190312975 0.1477062987884529 0.15923461038278675 0.13786467785309225 0.063345822991753717 0.17767878041940918 0.051555513975434508 -0.073666416253347286 0.19424144771725876 0.072929384100620373 -0.039173509635466661 0.034384966027476864 0.076190884084097174 -0.13383761540694514 -0.13693276279863195 0.043602095596537306 -0.020589201386005299 0.13471089067600775 0.1131807677011924 -0.13013535363399742 -0.065796148845068569 0.25249387908672177 0.15893780967119145 0.16104520837327924 -0.1238235076187278 -0.049127704155953418 -0.11917223554145095 0.26538958021941161 -0.0937415708690435 0.33230137312663138 0.31666044957011835 0.12375556284595045 -0.092480321518140007 0.34152473693486551 0.25771115093512431 0.0029632218870781594 -0.12178781928965565 0.15265359652939872 -0.19774224701948617 0.18022394572914338 0.13656766258106712 0.068722654378241113 0.25025835263772478 0.49612978420685194 0.22343857000192116 0.14856372886772021 0.25209654975477425 -0.13055952903816379 0.18167259684969903 -0.073890000513590959 -0.17687912745305537 -0.1030049309530422 -0.13480159704089145
leaf_weight=682.11549245938659 13.568202242255213 18.685445198789239 27.861445020884275 29246.271090177819 102.66387310996652 26808.674053223804 3653.8454069998115 1056.8789895363152 1588.2279066443443 203.94720636308193 1295.375740095973 2277.5435065329075 193.28555469214916 163.8058243021369 989.60617975145578 2316.579970240593 745.48501398786902 424.112403601408 5993.454830609262 94.5947195738554 206.74581786990166 4501.5153339765966 80.476608328521252 27.602414384484291 1585.6295645199716 1692.7668276056647 3085.3857855945826 210.85172180831432 101.92227067053318 222.80702067911625 127.70466031879187 976.04011767357588 3167.1441402062774 7.8436835166066867 865.55318356491625 22.111060012131929 129.23860599845648 595.88385143876076 256.81545242667198 187.18658889830112 85.661093205213547 202.53159151226282 19.262292116880417 5.8209034204483059 78.644124496728182 331.72137813083827 43.258004263043404 25.593276679515839 814.12959545850754 89.381681598722935 42.561143167316914 317.09419224411249 3.642185926437377 275.38133109360933 2407.3986146599054 199.21991822123528 18.400419726967812 5.6003184318542472 90.161010153591633 49.155784875154495 24.077873677015305 5.1354356780648232
leaf_count=4142 74 97 68 61707 250 73893 16864 4839 5810 677 1747 2678 330 625 2265 9620 4377 144 14504 497 536 11793 494 150 9352 7780 2902 335 610 934 188 1324 4215 61 5063 215 117 5746 210 242 335 1559 27 11 331 3370 15 105 995 261 131 376 1 358 1116 218 107 1 557 224 1042 29
internal_value=0 0.088767 0.0917796 0.0963699 -0.010276 0.0994657 0.085426 0.113579 0.0462818 0.112594 0.104751 0.0953562 0.0676007 0.148462 0.0596014 0.0893067 0.0175176 0.174459 0.0862188 0.0869926 0.120438 0.104091 0.120283 0.0187325 0.00746328 -0.0043506 0.142591 0.12585 -0.0191758 0.0212253 0.183282 0.141434 0.153284 0.158505 -0.0443418 -0.0558903 0.139965 -0.0812259 0.254283 0.19844 0.0206815 -0.0282073 0.0662206 0.189977 0.0983914 -0.0679876 0.152248 0.0224051 0.195682 0.0858497 -0.0637681 0.199855 -0.0468429 0.208693 0.155405 0.297264 -0.0372498 -0.0506022 -0.111552 -0.145344 -0.111818 -0.128167
internal_weight=0 71679.8 69563.9 63188.7 2115.92 60765.7 30462.5 30303.2 6375.14 29401.9 24126.5 19327.8 9174.88 5275.35 5639.9 3306.19 2333.71 3707.39 7288.83 1567.96 10152.9 6779.06 1193.67 2423.05 2267.75 1886.05 4798.68 3648.28 374.288 433.659 155.307 1070.63 3373.89 355.345 1760.58 735.238 3214.62 623.745 807.028 350.992 469.501 288.193 223.209 318.288 181.308 1291.08 2900.36 68.8513 1150.39 111.493 123.038 1131.22 869.195 294.067 2831.51 456.035 24.2213 19.1685 421.882 151.078 37.057 12.9791
internal_count=268644 212668 199497 171135 13171 157303 90757 66546 28362 55976 49317 43583 24361 6659 22072 11885 10187 2675 16251 3984 19222 14471 2446 13832 13494 8110 5734 4288 1538 1269 338 1821 4751 1705 11466 6290 3019 5814 1295 867 2475 1894 704 573 581 8991 1380 120 1446 476 625 1371 5064 455 1260 428 118 75 3927 834 1132 90
is_linear=0
shrinkage=0.1


Tree=8
num_leaves=63
num_cat=0
split_feature=31 131 98 74 133 45 134 72 32 134 94 73 98 106 36 121 107 72 83 60 38 95 127 95 30 118 31 59 96 37 88 16 76 98 55 20 15 127 118 117 31 97 45 57 99 113 3 88 17 56 30 31 80 8 10 45 73 82 4 55 105 43
split_gain=1001.07 1559.63 1287.88 1155.62 1244.13 1069.43 770.728 741.307 700.249 675.07 682.523 1187.92 886.36 648.188 1130.38 585.426 568.664 565.345 404.728 387.869 448.227 391.47 361.124 466.941 350.727 347.584 318.116 296.281 291.45 273.53 252.544 233.223 228.514 226.622 211.054 192.51 238.994 201.464 188.728 186.4 183.436 156.735 155.101 142.885 315.02 104.889 254.669 97.2903 164.655 97.0623 94.0716 88.8482 87.0951 76.7795 137.644 74.4813 62.3397 112.364 75.624 60.9212 44.8393 43.6659
threshold=1.0036305189132693 1.0000000180025095e-35 -0.98174968361854542 -1.0275020003318784 1.0000000180025095e-35 1.1959454417228701 1.0000000180025095e-35 -0.55541515350341786 0.89976087212562572 1.0000000180025095e-35 -1.0829208493232725 -0.82193762063980091 -0.92514678835868824 -0.8479691445827483 0.8916289508342744 -1.0207288861274717 -0.87728795409202565 -0.60030832886695851 -1.3244145512580869 0.68617394566535961 0.96548932790756237 -0.98658207058906544 -1.5071012973785398 -1.0640405416488645 1.0582969784736636 -0.92169845104217518 1.0049687623977663 0.81612926721572887 -1.0172022581100462 0.88893121480941784 -1.1733000874519346 1.204206705093384 -1.1527280807495115 -0.98343440890312184 0.96081349253654491 1.3659653067588808 1.1193558573722842 -2.7465333938598628 -1.4596056938171384 -0.92140525579452504 1.0116226673126223 -1.0173324942588804 1.0980831980705263 0.86777347326278698 -0.88282874226570118 -0.9195326268672942 0.66146981716156017 -1.1598960757255552 1.096823573112488 0.8441227674484254 1.0796141028404238 1.0065926909446719 -1.0859210491180418 0.70122820138931286 0.75523248314857494 1.0530995130538943 -0.87134775519371022 -1.3222565650939939 0.58726668357849132 0.9208982288837434 -0.84502479434013356 1.0166376233100893
decision_type=2 2 2 2 2 2 2 2 2 2 2 2 2 2 2 2 2 2 2 2 2 2 2 2 2 2 2 2 2 2 2 2 2 2 2 2 2 2 2 2 2 2 2 2 2 2 2 2 2 2 2 2 2 2 2 2 2 2 2 2 2 2
left_child=1 3 18 6 5 7 27 -5 33 10 22 12 15 14 -13 -12 19 -10 34 21 32 51 56 40 -15 28 43 39 -8 -25 53 -14 -21 -6 50 37 -37 -32 -7 -1 -24 -27 -29 44 -18 46 -20 59 -49 -47 -3 -11 -22 54 -4 -36 57 -2 -58 -28 -45 -23
right_child=9 2 30 4 8 38 25 -9 17 16 11 13 31 24 -16 -17 26 -19 45 20 52 61 23 29 -26 41 47 42 -30 -31 35 -33 -34 -35 55 36 -38 -39 -40 -41 -42 -43 -44 60 -46 49 -48 48 -50 -51 -52 -53 -54 -55 -56 -57 58 -59 -60 -61 -62 -63
leaf_value=-0.096663626206709263 0.00046738444909078327 -0.12038587416372615 -0.072358320646665128 0.081915003372723338 0.17479522566246744 -0.064883307458557776 -0.1361814503205547 0.10635175819493928 0.019050976674754399 0.032147031347301389 0.073804145839251475 0.12967782973971173 -0.052596634998415409 0.11227656274291614 0.055397563310723069 -0.088620127570812238 0.20011103954179832 0.081217503695463877 -0.13326884277239912 -0.15794585794254068 -0.13442869639286745 -0.020884671876479445 0.098436652388909793 0.07376729062924979 0.1738521074806029 0.014489242392820881 0.077293116783904173 0.22998058240015423 0.14027910751108502 -0.094270207009504753 0.1684011640420375 0.10977612189921407 0.13725990907426849 -0.067316783226657351 0.23643517495410382 0.29110615955422608 0.023520873576501417 -0.06468950895928921 0.028845292873755021 -0.014152715408098333 0.14243492758499246 0.2720807533720912 -0.13410183574570908 0.094699472525627187 -0.13154016878510941 0.079759222893933113 0.17001704302058082 0.14295591431114082 -0.18088306984681779 0.23762749721093834 0.13354118664064391 0.18276011879237936 0.1151330878573716 -0.11919632492169113 0.12941766809286046 -0.0067428740586852253 -0.025556643862401848 0.16666184484111213 0.1980438214382724 0.14632125130592513 0.25004749372958796 -0.14004490992223453
leaf_weight=354.21005705371499 48.941849358379841 102.8485042322427 632.35437615774572 46391.464022044092 41.065067045390606 482.86727055907249 62.330502912402153 16949.549204736948 2713.5313722454011 84.598349064588547 3831.0477897599339 3343.7072715163231 973.91881273686886 2919.952396158129 5289.7496253587306 235.55030012130737 173.50868819653988 3173.872098967433 34.591735478490591 26.944265827536583 83.310141034424305 39.358599647879601 1719.8237753883004 258.61091990768909 1353.9467163830996 27.755904138088226 134.36602640151978 65.400635719299316 98.224946260452271 154.88955337554216 41.493941059336066 97.296996295452118 977.91734340041876 660.28817773237824 36.100064720958471 42.587483182549477 154.35441017150879 348.63579731434584 387.00849192775786 1205.9810993745923 2110.2852228954434 158.57106388360262 14.250281423330305 19.327835455536842 34.302246011793613 47.399074913933873 138.70000024698675 41.655592709779739 25.198277488350868 218.37703650444746 17.001193270087242 72.934368088841438 16.805048644542694 353.58598130010068 35.717576175928116 19.343945477157831 15.449860379099844 241.02125014364719 720.82062587141991 2638.3072322905064 480.25127770006657 140.64028290659189
leaf_count=1855 137 1566 4194 120967 59 11106 326 29555 11120 273 8744 4551 4577 5272 14583 953 304 11200 208 147 515 181 2426 493 1414 88 194 60 255 671 73 144 1396 6232 58 69 828 3300 2002 8171 1163 144 79 53 190 112 237 15 105 269 51 86 39 2475 143 115 46 146 643 1066 379 821
internal_value=0 0.0780646 -0.00444389 0.0805846 0.0826954 0.0869417 0.00536546 0.0884541 0.0413126 0.100136 0.0929916 0.0837455 0.0430784 0.0999331 0.084166 0.064396 0.13352 0.0525647 0.118722 0.0805817 0.109241 -0.0132398 0.124652 0.111779 0.131783 0.140788 0.15505 -0.0232811 0.0329522 0.0108236 -0.0514799 -0.0378486 0.129344 -0.0531408 -0.0097337 0.000787942 0.0813846 -0.0398981 -0.0231834 -0.0328852 0.122678 0.233709 0.164843 0.215051 0.145367 0.170006 0.109476 0.140102 0.0208959 0.209473 -0.0843652 0.101878 -0.092538 -0.0815143 -0.0615706 0.151592 0.177885 0.13861 0.193352 0.142976 0.244037 -0.113989
internal_weight=0 75009.5 2223.09 72786.4 70799.6 64210.9 1986.72 63341 6588.76 28304.4 23315 18045.2 5137.81 12907.4 8633.46 4066.6 4989.43 5887.4 614.362 1442.51 1104.98 337.532 5269.84 4243.61 4273.9 346.882 3546.92 1639.84 160.555 413.5 1608.73 1071.22 1004.86 701.353 175.294 587.072 196.942 390.13 869.876 1560.19 3830.11 186.327 79.6509 707.39 207.811 439.068 173.292 2839.53 66.8539 265.776 119.85 157.533 100.115 1021.66 668.072 55.444 1026.23 289.963 736.27 2772.67 499.579 179.999
internal_count=268644 216917 13698 203219 192241 163630 10978 150522 28611 51727 45963 40238 14418 25820 19134 9697 5764 22320 2616 3458 2097 1361 5725 4753 6686 813 2306 10165 581 1164 11082 4721 1543 6291 1790 4270 897 3373 13108 10026 3589 232 139 926 494 826 445 1380 120 381 1617 359 554 6812 4337 173 972 283 689 1260 432 1002
is_linear=0
shrinkage=0.1


Tree=9
num_leaves=63
num_cat=0
split_feature=31 131 98 73 52 30 105 53 100 72 103 134 94 73 98 73 73 109 107 45 83 127 95 57 134 108 37 76 73 79 134 22 73 37 111 57 90 98 56 55 56 89 106 31 31 105 114 30 125 32 112 31 30 80 35 130 74 11 127 101 46 75
split_gain=874.178 1306.34 1032.15 927.442 1080.38 1048.03 1007.71 812.205 729.423 716.365 642.634 634.15 590.569 939.247 749.228 633.034 484.422 417.921 416.538 669.806 302.833 251.176 612.524 248.784 248.192 240.616 332.52 235.819 233.264 216.846 211.549 208.879 203.391 316.774 190.764 180.441 999.213 191.158 179.252 170.737 165.983 161.093 158.001 155.79 127.106 264.462 123.259 101.655 88.0382 85.3224 84.2606 80.9208 80.2596 72.2398 71.8375 69.7279 105.373 64.9656 61.7405 60.8343 52.6402 0.13998
threshold=1.0038667321205141 1.0000000180025095e-35 -0.98174968361854542 -0.90035974979400624 0.9625079631805421 1.0431604981422427 -0.92250016331672657 1.1164769530296328 -0.94305688142776478 -0.63740637898445118 -0.90983593463897694 1.0000000180025095e-35 -1.0829208493232725 -0.79979398846626271 -0.91261789202690113 -0.83195382356643666 -0.91566401720046986 -0.92392203211784352 -0.86500382423400868 1.0559893250465395 -1.3244145512580869 -1.4920320510864256 -1.0669589042663572 0.88836529850959789 1.0000000180025095e-35 -0.9187125265598296 0.86440044641494762 -1.2089174985885618 -0.82368203997611988 -1.188082695007324 1.0000000180025095e-35 1.5512744784355166 -0.77960252761840809 0.9443374276161195 -1.242536664009094 0.85896226763725292 -1.1548324823379514 -0.90336120128631581 0.92416834831237804 0.96081349253654491 0.83173984289169323 -1.1463592052459715 -0.87383022904396046 1.0116226673126223 1.0049687623977663 -0.85019248723983754 -1.0929614305496214 1.0679682493209841 -1.0917050838470457 0.9543045461177827 -1.0419617891311643 0.99720641970634472 1.0796141028404238 -1.0859210491180418 0.90486916899681102 1.0000000180025095e-35 -1.0275020003318784 0.82843434810638439 -1.5579178333282468 -0.92173928022384632 1.0631768703460696 -1.1255378127098081
decision_type=2 2 2 2 2 2 2 2 2 2 2 2 2 2 2 2 2 2 2 2 2 2 2 2 2 2 2 2 2 2 2 2 2 2 2 2 2 2 2 2 2 2 2 2 2 2 2 2 2 2 2 2 2 2 2 2 2 2 2 2 2 2
left_child=1 3 20 8 5 57 9 -8 16 -6 -7 12 21 14 15 -14 24 32 19 -15 39 55 43 -20 -1 26 40 -24 -16 -18 31 -10 41 38 -28 36 47 -38 -34 52 -4 -13 -32 -23 45 -37 50 -19 59 -43 -27 -48 -3 -35 -46 58 -57 -5 -2 -22 -41 -50
right_child=11 2 25 4 6 10 7 -9 30 -11 -12 17 13 18 28 -17 29 35 23 -21 48 22 27 -25 -26 46 34 -29 -30 -31 42 -33 33 53 -36 44 37 -39 -40 60 -42 49 -44 -45 54 -47 51 -49 61 -51 -52 -53 -54 -55 -56 56 -58 -59 -60 -61 -62 -63
leaf_value=0.0062843772098491492 0.19722280641418941 -0.11870385266975723 -0.13731269939584631 0.054254185372809197 -0.04531574515308457 0.081444030537105444 0.075731430803594305 0.018174053415267875 -0.11589201379327325 0.049775628650704749 0.15273546229551738 0.35111060026352758 0.037586151754499156 0.13701056337422374 -0.082871516387924671 0.1004603597978091 0.11471802219884192 0.071719887306848154 -0.028160598601567666 0.062538376213793503 0.14232248732544056 0.088967751434184894 -0.092276431056195846 0.13156761328713187 0.15224609385086002 -0.10800939896367756 0.22706851229138014 0.064451692814826517 0.0091904255100976242 0.012052785800477502 -0.083683299453860521 -0.018115788629603315 -0.049991142596770191 -0.13269189655681968 -0.083749719572745934 -0.13125323634303623 0.0014824982435125945 -0.17141779302116461 0.17021542913996401 0.19305750698979152 0.2248420424123613 0.016065978709645597 0.15227512665821796 0.13243378134603609 0.14331572825255498 0.20131892633968956 -0.10119358056997914 0.16568403581863458 -0.14084353984764911 -0.13400847026137505 0.22793022065609311 -0.050343134715850293 0.10944429296050953 0.092865954332796985 0.098408138710614435 -0.0044981357821334096 0.2060333531564946 -0.14009378509542025 0.12721312046769026 0.32116316224834124 -0.007767878500647564 -0.11846073439675141
leaf_weight=1743.486301606521 144.27263276278973 96.69310668297112 14.701342843472956 19.235229380428791 1169.4770166277885 2085.3293327763677 59207.557017216459 2557.5847266037017 432.26942421123385 2455.9504993930459 3211.9250734969974 9.3710537403821927 3679.9319437965751 1611.6590244919062 343.29531601071358 2834.9907124564052 1073.2627024687827 136.92638775706291 100.88304260373116 4818.3899454921484 433.36555403470993 1519.9836407676339 209.43159229308367 2918.4536519870162 124.83683431893587 11.01649530045688 22.394233105704188 177.25724519789219 1388.0312078371644 254.52206196077168 43.026786528527737 441.78558741137385 44.144467853009701 68.178609676659107 166.99131302163005 24.966036841273308 149.21259406208992 111.89719827473164 227.33035485446453 39.587824892252684 90.936997316777706 62.072659000754356 83.356919690966606 1802.3834584355354 2121.1762708574533 565.62374591082335 559.64892332348973 723.42889240384102 6.4952383730560541 97.213825926184654 23.167871123179793 709.92725092917681 18.344580724835396 17.934096708893776 428.10804107040167 25.86916147172451 293.49125312268734 162.54206517338753 992.72908057272434 19.893343031406403 19.472033055499196 4.9033265430480224
leaf_count=10335 99 1576 89 46 5435 5114 142042 19389 2647 7235 5023 8 9745 1436 1879 4984 2328 183 319 11562 730 2040 883 3420 201 255 16 294 5336 1124 210 2467 183 428 1086 144 430 556 228 59 113 282 160 996 906 577 5266 386 36 598 38 4471 52 42 371 79 191 1357 974 20 115 50
internal_value=0 0.0689653 -0.00632945 0.0712097 0.0739145 0.116569 0.0703405 0.0733481 0.0255319 0.0191014 0.124671 0.0896839 0.0827533 0.0740695 0.0494074 0.0649461 0.0488572 0.122778 0.0955916 0.0812045 0.101122 0.112502 0.0986841 0.126231 0.0160372 -0.0492591 0.0322934 -0.0204326 -0.00906404 0.0950382 -0.0489858 -0.0664716 0.0387026 0.0813983 -0.0469965 0.133161 0.0987289 -0.072613 0.134408 -0.0113653 0.174442 -0.0518206 0.0719441 0.112548 0.145458 0.18726 -0.0677134 0.15073 0.143269 -0.0755257 0.119668 -0.0727588 -0.082322 -0.0857165 0.135774 0.147693 0.18898 -0.119528 0.136097 0.150172 0.126845 -0.131215
internal_weight=0 77303.7 2237.54 75066.1 70869.6 5479.03 65390.6 61765.1 4196.55 3625.43 5297.25 27648.6 22861.1 17695.6 8246.25 6514.92 3196.11 4787.58 9449.39 6430.05 638.755 5165.42 3709.06 3019.34 1868.32 1598.78 295.024 386.689 1731.33 1327.78 1000.44 874.055 526.245 357.588 189.386 4261.34 1121.47 261.11 271.475 174.098 105.638 168.658 126.384 3322.37 3139.87 590.59 1303.76 860.355 464.657 159.286 34.1844 1269.58 115.038 86.1127 2549.28 1456.36 319.36 181.777 1137 453.259 59.0599 11.3986
internal_count=268644 219085 13972 205113 185641 11540 174101 161431 19472 12670 10137 49559 44237 38681 21944 14729 13988 5322 16737 12998 2638 5556 4213 3739 10536 11334 1304 1177 7215 3452 5484 5114 1769 881 1102 3553 1555 986 411 1802 202 888 370 3036 1998 721 10030 569 836 880 293 9737 1628 470 1277 1343 270 1403 1073 750 174 86
is_linear=0
shrinkage=0.1


Tree=10
num_leaves=57
num_cat=0
split_feature=31 131 98 133 73 0 30 42 31 74 38 30 73 134 44 5 106 130 52 136 73 4 71 36 16 39 54 45 81 93 45 74 79 31 17 104 45 100 72 107 97 36 69 30 28 72 100 103 30 120 8 112 31 107 72 41
split_gain=786.686 1248.91 936.168 838.406 939.193 895.683 913.742 772.823 702.672 789.156 680.073 640.109 635.193 523.077 514.836 491.193 402.441 688.515 402.683 475.15 472.556 358.523 330.24 416.332 321.093 313.177 311.539 290.426 276.737 275.848 269.413 202.393 153.686 215.604 153.759 119.211 117.936 95.4395 137.878 94.9446 79.6558 78.221 300.694 122.749 110.279 94.0681 182.43 70.9974 66.0955 64.3792 56.5844 7.6352 2.43428 0.703261 0.157611 0.107858
threshold=1.0065926909446719 1.0000000180025095e-35 -0.99174168705940235 1.0000000180025095e-35 -0.90035974979400624 0.56386470794677745 1.0431604981422427 1.114411532878876 0.99088552594184887 -0.8690984547138213 0.90793639421463024 1.0922681093215945 -0.71271628141403187 1.0000000180025095e-35 1.0559877157211306 0.73743569850921642 -0.84554630517959584 1.0000000180025095e-35 1.056012809276581 1.0000000180025095e-35 -0.80061787366867054 0.69358256459236156 -0.47498495876789087 0.90990853309631359 1.2077934741973879 1.0116279125213625 0.88872465491294872 1.0870903134346011 -1.3746606111526487 -1.0737317204475401 1.0760954618453982 -1.0849856734275816 -1.2130042910575864 0.99720641970634472 1.2188557386398318 -0.82065835595130909 1.1445018053054812 -0.96310141682624806 -0.7755334973335265 -0.86643281579017628 -0.8966546058654784 0.9046459197998048 -0.12930297851562497 1.0594214200973513 1.1530548930168154 -0.68588104844093312 -0.90696009993553151 -0.97020614147186268 1.0741066336631777 -1.0220211744308469 0.70878747105598461 -0.84776508808135975 1.0055205821990969 -0.80586203932762135 -0.55389615893363942 1.0760167241096499
decision_type=2 2 2 2 2 2 2 2 2 2 2 2 2 2 2 2 2 2 2 2 2 2 2 2 2 2 2 2 2 2 2 2 2 2 2 2 2 2 2 2 2 2 2 2 2 2 2 2 2 2 2 2 2 2 2 2
left_child=1 3 31 4 11 7 -7 -6 12 21 -11 13 26 -1 -14 -13 17 18 19 27 30 -10 24 40 39 -22 -5 -2 48 -21 -20 52 33 -30 -34 -25 41 47 -39 -19 -24 45 43 -43 -44 46 -18 -33 51 -26 -47 -4 53 -3 55 -38
right_child=16 2 28 8 5 6 -8 -9 9 10 -12 15 14 -15 -16 -17 36 22 20 29 25 -23 23 35 49 -27 -28 -29 32 -31 -32 37 34 -35 -36 -37 54 38 -40 -41 -42 42 44 -45 -46 50 -48 -49 -50 -51 -52 -53 -54 -55 -56 -57
leaf_value=-0.02839405895843998 0.10386011572759234 -0.13024175736432267 -0.12388695795595886 0.030012693422972442 0.069923700686626428 -0.1161691885976372 0.12250404036606702 0.021484918493405336 -0.034134571020311637 0.1452210621051144 0.044230602484235312 -0.054548789895728103 0.11031090620117455 0.11154365898651292 0.0053056516183236542 0.089924429377962495 0.12972512213153065 -0.074212579497561729 0.06239215530611069 0.048050165258910316 0.089677390266656942 0.099046115597881679 0.20499253973158582 -0.046706413971986771 0.25945653594827395 -0.047437196679246091 -0.082487360690011918 -0.15516281024452427 -0.091399819475964039 -0.11142208893928773 -0.035188393834197543 -0.040016778508267785 -0.012028515997729016 -0.007842543332583574 0.10315638904073687 0.10375497654250172 -0.15154290066630347 -0.15497450432263637 0.088863542715290497 0.014609545516191987 -0.018050339350629156 -0.13855387295807217 0.097720105159811929 0.047355747108500899 0.15968942454829638 0.18417828112277657 -0.14341102081625987 0.14587865614063131 0.219770026102622 0.057411251659501616 0.061535519984023991 -0.083791906591686949 -0.21495554974508627 -0.10195985782925809 -0.16418679246266199 -0.13213376712191535
leaf_weight=2159.1660941112787 9143.8607912138104 18.234582820907235 295.91015037614852 328.97658780962229 65897.910514192656 166.59783847630024 4314.7047995068133 3467.068936644122 925.29818164557219 1290.6555356830359 1379.4965830296278 278.65331809967756 627.25195156037807 304.82358628511429 1826.7650475632399 1513.6408714801073 276.28851373493671 527.69978673011065 485.75864090025425 496.47241866588593 2680.1195216476917 258.62968562543392 177.53684295713902 198.56807137280703 39.033496782183647 177.61950043216348 977.73794924840331 43.492980122566223 437.19569024536759 138.78983689844608 677.6446784697473 21.516376718878746 301.91377253271639 1051.5742820873857 188.08918502088636 71.66210650652647 5.7317582964897138 27.260001838207245 155.30131351202726 155.89850433915854 17.599055483937263 41.44668136537075 485.39023012667894 248.16897279024124 703.20783521980047 504.6985035315156 26.827769115567207 455.05193479545414 5.9096464663743964 26.461960479617119 40.64947672188282 56.574286937713623 2.7103162705898276 16.979137884452939 4.3609593063592902 5.720740020275116
leaf_count=14094 10337 119 2351 1651 144163 1325 6548 21268 3791 2310 4158 1023 1888 625 9379 3824 212 2259 1082 947 4699 480 194 863 29 728 6295 219 3313 485 2888 132 2707 5523 628 170 27 133 386 463 60 233 742 705 559 335 140 564 4 47 65 381 11 1030 19 33
internal_value=0 0.0623492 -0.000701344 0.0645811 0.0676692 0.0703019 0.113631 0.0675026 0.0329076 0.0629146 0.0930458 0.0219926 0.00215579 -0.0110822 0.0321452 0.0674627 0.085603 0.0796049 0.0859382 0.0968505 0.0592823 -0.00504118 0.00741013 0.0735699 -0.0336909 0.0811552 -0.0541645 0.102634 -0.0310362 0.0132092 0.00555465 0.101009 -0.0163918 -0.0323802 0.0321856 -0.00680569 0.124161 0.113934 0.0524537 -0.0539562 0.184877 0.126011 0.11212 0.0207504 0.134383 0.150213 0.105551 0.137486 -0.111891 0.177825 0.175037 -0.117452 -0.123634 -0.116605 -0.148008 -0.141848
internal_weight=0 88751.6 3034.22 85717.4 78102.6 73846.3 4481.3 69365 7614.81 3854.08 2670.15 4256.28 3760.73 2463.99 2454.02 1792.29 17400.7 15058.2 13843.8 9822.62 4021.14 1183.93 1214.46 465.366 749.094 2857.74 1306.71 9187.35 2337.17 635.262 1163.4 697.054 1978.77 1488.77 490.003 270.23 2342.49 659.13 182.561 683.598 195.136 2326.68 1478.21 289.616 1188.6 848.464 303.116 476.568 358.394 65.4955 545.348 352.484 37.924 35.2137 15.8135 11.4525
internal_count=268644 240104 17282 222822 192870 173304 7873 165431 29952 10739 6468 19566 19213 14719 11267 4847 28540 25470 21385 11988 9397 4271 4085 1287 2798 5427 7946 10556 14907 1432 3970 2375 12171 8836 3335 1033 3070 1215 519 2722 254 2991 2239 938 1301 752 352 696 2736 76 400 2732 1160 1149 79 60
is_linear=0
shrinkage=0.1


Tree=11
num_leaves=63
num_cat=0
split_feature=31 71 37 40 72 30 58 34 108 72 34 60 134 61 31 106 75 62 98 108 107 47 103 106 81 30 135 32 38 31 60 38 96 4 74 4 56 31 52 59 3 73 55 95 56 61 31 30 21 32 73 77 30 36 85 31 106 43 102 38 31 129
split_gain=718.909 1080.75 1986.48 1274.48 1163.28 1049.71 1044.38 1470.95 905.75 673.829 650.871 625.891 597.852 541.613 517.449 659.636 580.471 456.966 445.165 410.217 394.131 389.718 720.268 410.514 388.84 381.948 321.935 292.767 268.302 241.847 235.907 273.728 233.127 226.86 413.265 180.419 165.346 171.15 161.989 155.748 131.167 127.302 89.9311 771.616 86.898 85.235 83.4239 82.7713 142.826 73.6687 71.7709 194.41 64.0374 63.0784 61.4446 49.1543 44.1524 42.0922 31.3469 31.211 1.49623 0.63459
threshold=1.0038667321205141 -0.38348630070686335 0.95730796456336986 1.0416708588600161 -0.55541515350341786 1.0285205841064455 0.8659048080444337 0.89637410640716564 -1.0552066564559934 -0.58878576755523671 0.93302696943283092 0.78400805592536937 1.0000000180025095e-35 0.69790577888488781 1.012779772281647 -0.84554630517959584 -1.0263038873672483 0.76660239696502697 -1.0041089057922361 -1.0795993208885191 -0.8780941069126128 1.1325764060020449 -0.826368749141693 -0.84655851125717152 -1.1266200542449949 1.040886461734772 1.0000000180025095e-35 0.95309147238731395 0.89630270004272472 0.99628353118896495 0.68617394566535961 0.96356579661369335 -0.96109125018119801 0.62372761964797985 -1.003425061702728 0.51880314946174633 0.89669412374496471 1.0065926909446719 1.1269772648811343 0.7819175422191621 0.58687701821327221 -0.76936015486717213 0.93883907794952404 -1.0043494105339048 1.0318303704261782 0.67394572496414196 1.0049687623977663 1.034212112426758 1.1958320140838625 0.95935687422752391 -0.86304944753646839 -1.1333302855491636 1.0694882869720461 0.87569549679756176 -1.2182984948158262 1.0155373811721804 -0.85759732127189625 1.0166376233100893 -0.84756499528884877 0.9387958049774171 0.99132150411605846 1.0000000180025095e-35
decision_type=2 2 2 2 2 2 2 2 2 2 2 2 2 2 2 2 2 2 2 2 2 2 2 2 2 2 2 2 2 2 2 2 2 2 2 2 2 2 2 2 2 2 2 2 2 2 2 2 2 2 2 2 2 2 2 2 2 2 2 2 2 2
left_child=1 2 5 19 47 21 7 -7 17 27 13 -10 14 -11 15 16 18 -6 -2 44 30 22 -1 -23 -8 -12 29 35 -18 -21 32 39 53 34 40 -4 61 -38 -36 -32 -16 -29 43 52 59 -33 56 49 -49 -5 55 -52 -22 -14 -48 -35 -44 -34 -45 -3 -28 -17
right_child=12 3 9 4 8 6 24 -9 11 10 25 -13 20 -15 33 36 28 -19 -20 26 42 23 -24 -25 -26 -27 60 41 -30 -31 31 45 57 50 38 -37 37 -39 -40 -41 -42 -43 46 58 -46 -47 54 48 -50 -51 51 -53 -54 -55 -56 -57 -58 -59 -60 -61 -62 -63
leaf_value=-0.029541880395221005 0.10313160170674046 0.046607085860844243 -0.064605944151551895 -0.031988929764213372 -0.054155544278640867 0.058245368382877763 0.078984650603503459 0.0094397643040317909 0.0043367047964157739 -0.0526518423777141 -0.11121023650344156 0.081263732920709222 0.12268270969247441 0.055960771338804519 -0.15022841408309812 -0.15397768535822168 0.11446276202293737 0.11007006993367346 0.026305232633092097 0.099439190206946707 0.047341471932839559 -0.094892168351222606 0.092391636212193387 0.049362158370680344 0.13845078079084314 0.034510508537601979 -0.14122809133754136 -0.1230384685221687 0.060253838032055064 0.14083083605392294 0.066875502220128988 -0.13337091081562782 -0.012384021432643322 0.10548261503032125 0.087657729100815068 0.096127900770756614 0.07503303139616313 0.11208692437440537 -0.14986562188210689 0.15536284920475502 0.054017390580274084 -0.040561302615813748 0.091967352989814954 -0.062172454290646828 0.12550337786112895 0.049062620710633581 0.12496018214880633 0.049401730962716578 -0.13407963340126688 -0.13680204584387687 0.02084013479774792 0.13977016008103821 0.153204114318086 -0.021598976439637846 0.026920342960937878 0.13600828894739325 0.17496788561510368 -0.13598989183887225 -0.18385845224997369 -0.12841723411500558 -0.19215394705588254 -0.19622184334758941
leaf_weight=1171.2633948819712 828.65562810003757 11.40582427382469 143.0555576607585 86.141915373504162 928.39406483247876 36353.532073978335 7543.8367559760809 7438.9391033314168 1226.8841240108013 585.91149101406336 600.14514674246311 7667.4383303485811 89.182726383209229 2121.6740420777351 105.65158636122942 22.07142406702042 1374.2701674997807 207.26016731746495 8396.9391698017716 6304.5136067718267 65.348863959312439 725.58267115242779 826.15746933314949 270.93774789944291 1287.2160024866462 256.85310481488705 42.411146016791463 736.27723040431738 2720.342514410615 1818.8658943027258 519.52435502409935 70.069381985813379 36.090541407465935 913.90928047895432 1657.6826008185744 136.4381802463904 2977.2617943286896 2144.3778523802757 29.21878308057785 322.31907928735018 44.764785528182983 250.91555974259973 73.289580516517162 28.667551174759865 18.407828569412231 40.362043984234333 2124.4689477235079 97.57402877509594 75.061920136213303 302.69279760867357 264.41436251997948 286.23811414837837 454.94315011799335 45.894302412867546 65.909412786364555 1247.664998665452 510.60287030041218 116.42283595725894 80.939832545816898 95.464144982397556 6.6776575446128836 4.2389324456453314
leaf_count=7944 706 34 931 388 7538 94897 16013 24796 3129 2233 2672 20991 178 5274 510 104 1423 263 21365 8439 94 4383 4159 1298 3019 720 246 3855 5659 1552 1043 468 158 725 3257 583 5985 2776 140 242 82 1119 163 79 12 106 862 232 300 1400 618 201 204 130 110 667 398 728 359 637 28 19
internal_value=0 0.0541857 0.0476614 0.0750646 0.0520734 0.0530042 0.0562811 0.0499549 0.0599145 -0.0138455 0.00841698 0.0706524 0.0729075 0.0324574 0.066304 0.0588622 0.0471132 -0.0241839 0.0332059 0.104411 0.105637 -0.00459238 0.0208913 -0.0556718 0.0876524 -0.0675359 0.107164 -0.0764945 0.0784479 0.108707 0.0573655 0.0813367 -0.0220083 0.0965126 0.0693816 0.0138582 0.0892626 0.0905471 0.0835436 0.100755 -0.0894437 -0.102075 0.123219 0.089108 -0.0751722 -0.0666925 0.130963 -0.0879984 -0.0303758 -0.113582 0.114892 0.0826619 0.139908 0.073661 0.12201 0.123102 0.16455 -0.10674 -0.152032 -0.109738 -0.148156 -0.160784
internal_weight=0 79337.9 60448.7 18889.2 10591.4 55617.5 52623.5 43792.5 10030 4831.27 3564.58 8894.32 27661.7 2707.59 23017.7 18468.2 13320.2 1135.65 9225.59 8297.75 4644.04 2993.94 1997.42 996.52 8831.05 856.998 8172.47 1266.69 4094.61 8123.38 1239.87 952.275 287.59 4549.54 1837.32 279.494 5147.95 5121.64 1686.9 841.843 150.416 987.193 3404.17 629.899 125.278 110.431 2774.27 561.471 172.636 388.835 2712.23 550.652 520.292 135.077 2190.38 2161.57 583.892 152.513 109.607 106.87 49.0888 26.3104
internal_count=268644 219085 173896 45189 34241 156509 138725 119693 31921 17387 10899 24120 49559 7507 44237 38037 29153 7801 22071 10948 5322 17784 12103 5681 19032 3392 10265 6488 7082 9991 3053 1859 1194 6200 3989 1514 8884 8761 3397 1285 592 4974 2269 736 683 574 1533 2320 532 1788 2211 819 298 308 972 1392 561 886 438 671 274 123
is_linear=0
shrinkage=0.1


Tree=12
num_leaves=63
num_cat=0
split_feature=31 71 36 43 136 71 46 36 70 32 83 31 134 94 73 56 72 126 107 107 38 38 30 36 73 95 91 38 69 112 57 71 37 37 18 62 38 63 126 95 76 50 31 136 57 31 57 97 40 42 31 109 30 68 73 2 72 31 75 32 105 30
split_gain=636.194 913.757 1550.97 1049.58 1032.48 909.187 1607.75 1432.33 758.065 684.261 639.304 568.92 518.907 511.497 804.179 697.372 542.358 419.823 414.41 350.866 378.184 336.526 489.084 290.351 368.907 286.065 260.435 254.521 290.174 239.36 238.527 237.315 350.948 243.916 218.919 186.926 180.521 247.662 179.97 495.243 215.202 158.886 155.985 140.644 132.842 112.096 94.4246 624.194 93.616 77.7371 76.3072 73.4068 71.332 59.0658 56.7082 50.0615 65.3308 40.5038 37.5259 43.6831 34.5124 29.0831
threshold=1.0036305189132693 -0.35948224365711207 0.95623138546943676 1.1301130652427676 1.0000000180025095e-35 -0.40258061885833735 1.1486136913299563 0.9352400302886964 -0.16536564379930493 0.86248451471328746 -1.384570240974426 1.0000585913658144 1.0000000180025095e-35 -1.0829208493232725 -0.76763978600502003 0.85291534662246715 -0.65634289383888234 -1.9399292469024656 -0.8780941069126128 -1.0060876011848447 0.95860689878463756 1.017208516597748 0.99795004725456249 0.96206700801849376 -0.74344989657402027 -0.91585531830787648 -1.1447168588638303 0.98861762881279003 -0.050716495141386979 -1.2897276878356931 0.97177827358245861 -0.45646952092647547 0.92299598455429088 0.94189161062240612 1.2027590870857241 0.60927638411521923 1.0131782293319704 0.60219624638557445 -1.3865118622779844 -1.0669589042663572 -1.2089174985885618 1.1153634786605837 1.0009145736694338 1.0000000180025095e-35 0.87911596894264232 1.0022934675216677 0.86265096068382274 -0.92445525527000416 1.0455097556114199 1.120191812515259 1.0035137534141543 -1.1475724577903745 1.0708078145980837 0.091709092259407057 -0.75886419415473927 0.45654720067977911 -0.60030832886695851 1.0049687623977663 -1.1147905588150022 0.94964751601219188 -0.86099371314048756 1.0668069720268252
decision_type=2 2 2 2 2 2 2 2 2 2 2 2 2 2 2 2 2 2 2 2 2 2 2 2 2 2 2 2 2 2 2 2 2 2 2 2 2 2 2 2 2 2 2 2 2 2 2 2 2 2 2 2 2 2 2 2 2 2 2 2 2 2
left_child=1 2 4 19 5 7 -7 -1 21 29 42 -12 13 38 15 26 -17 -11 31 20 51 22 -5 24 49 -26 -15 35 -29 -10 -22 32 34 44 -14 -16 41 -38 58 43 -41 -21 -6 -40 -33 -23 47 52 53 -4 -50 -3 -20 -25 -35 56 -48 -57 59 -2 -60 -34
right_child=12 3 23 8 10 6 -8 -9 9 17 11 -13 18 14 27 16 -18 -19 46 36 30 45 -24 48 25 -27 -28 28 -30 -31 -32 33 61 54 -36 -37 37 -39 39 40 -42 -43 -44 -45 -46 -47 55 -49 50 -51 -52 -53 -54 -55 -56 57 -58 -59 60 -61 -62 -63
leaf_value=0.03701348430606631 0.17961202987027886 -0.14217517496378945 -0.1278255498943168 -0.071204419913288297 -0.15870669692028219 0.096911337328543137 0.002978895979432376 -0.052393303705824505 0.0096917005255156268 0.095458762548475129 0.083537211480870746 0.036104733593840331 0.11890888696207086 -0.16807100519385246 0.081845081553242438 0.0051608916934625911 0.048414887354355639 0.0040884992530029647 0.08771591958403667 0.0085566325584401498 -0.1349463952424908 -0.14425691219856174 0.06241919578433075 -0.12006556891293148 0.10354347003911971 -0.03377490303628531 0.10788130288799017 -0.020837932362569866 0.11123580054739822 -0.11626252187888544 0.080564358745942699 -0.015284962886358822 -0.14710622246578448 -0.13424523465191138 -0.012170893499461259 0.12734850158952732 -0.14313980955959979 0.1076626587973683 0.091414580446589302 -0.091480553081187743 0.05487410033922499 0.11019790280733449 0.032047654028626874 -0.12098175989484179 0.13981625101072231 0.15894112859262702 -0.15897943549741472 -0.18534722937481651 -0.13820047933795215 0.23616941468504571 0.21839868373986279 0.12417488214680572 0.1406917766142349 0.23686188558924015 0.012956777620819629 0.15009049138122987 0.15299636079445847 0.11961313119870183 -0.19878490962365131 0.11480860699915103 0.062366039809989143 0.0062166689605398602
leaf_weight=40137.311688499525 112.95207110792398 10.893423348665236 293.27241175062954 516.71457245573401 149.06693077273667 6048.4756219163537 2607.7872881814837 1875.5861339587718 679.28856915049255 3031.0242680478841 10628.704582089558 3318.1457394734025 223.7754907682538 34.969273447990417 3030.079728372395 4779.9100993126631 7366.5202521495521 602.89630298316479 583.54556015133858 157.73513063043356 171.52280907705426 238.01360907405615 582.93615666031837 7.8030007276684072 229.53857415914536 447.41544312238693 1555.4298257678747 428.65494351089001 271.84922033548355 193.95895994454622 73.306378915905952 62.891331449151039 129.64321584254503 41.758673340082169 295.88016484677792 1285.8998179137707 68.803982898592949 92.045577902346849 3123.4939119145274 230.56920470297337 178.056795373559 6158.9823240283877 60.172298654913902 31.490834534168243 452.79004882276058 12.852240428328512 14.02671027928591 76.438190616667271 440.5104539534077 5.9870725292712441 6.0836164057254782 206.42897618934512 450.31401574611664 11.424524752423165 70.11010268330574 589.4263017475605 12.872340634465216 1675.8124238103628 6.3677577227354076 1315.430956184864 24.64957495033741 13.676771976053713
leaf_count=130331 61 59 1521 2465 1533 9219 8387 9016 7094 6940 13406 6278 314 149 4597 14020 16685 1667 582 477 1068 1144 1407 91 331 1535 1731 1458 302 3784 78 195 761 279 1158 1296 270 138 3003 976 286 5931 118 112 310 9 65 363 2345 10 6 252 228 7 227 503 9 704 26 1226 35 66
internal_value=0 0.0482156 0.0434913 0.0726788 0.0457731 0.0391024 0.0686132 0.0330221 0.0415075 0.0611994 0.0696494 0.0722524 0.0656492 0.0596512 0.0520603 0.0395464 0.0313934 0.0802997 0.0960375 0.0989899 0.014809 -0.0242117 -0.000369167 -0.0590824 -0.028086 0.0127864 0.101814 0.0863277 0.0304168 -0.0182843 -0.0704185 0.0477868 0.00606579 0.091863 0.044275 0.0954023 0.104996 0.000380994 0.0879916 0.0758784 -0.0277072 0.10766 -0.10385 0.0892946 0.1209 -0.128724 0.114339 0.0904029 -0.124041 -0.120543 -0.133343 0.110824 0.11079 0.092012 -0.0419912 0.125933 -0.00968574 0.127543 0.11757 0.119933 0.0087526 -0.132475
internal_weight=0 79064.7 66267.3 12797.4 64825.3 50669.2 8656.26 42012.9 5857.68 4507.17 14156.1 13946.9 28469.3 23776.3 18753.3 13736.8 12146.4 3633.92 4692.96 6939.72 462.152 1350.52 1099.65 1442.04 976.214 676.954 1590.4 5016.48 700.504 873.248 244.829 1290.53 662.976 627.55 519.656 4315.98 6477.57 160.85 5023.01 3563.61 408.626 6316.72 209.239 3154.98 515.681 250.866 3402.44 1110.3 465.822 299.259 446.594 217.322 1033.86 19.2275 111.869 2292.14 26.8991 2265.24 1459.4 1428.38 31.0173 143.32
internal_count=268644 216917 184134 32783 178288 156953 17606 139347 24510 19485 21335 19684 51727 45963 40238 32585 30705 8607 5764 8273 1457 5025 3872 5846 3397 1866 1880 7653 1760 10878 1146 3310 2299 1011 1472 5893 6816 408 5725 4377 1262 6408 1651 3115 505 1153 2454 1173 2449 1531 2351 311 810 98 506 1281 74 1207 1348 1287 61 827
is_linear=0
shrinkage=0.1


Tree=13
num_leaves=62
num_cat=0
split_feature=31 131 133 74 94 75 98 31 74 39 72 39 73 134 95 107 29 39 134 96 74 107 75 90 96 74 81 74 127 98 3 107 30 31 51 35 100 4 3 57 106 5 57 98 101 30 127 75 35 126 58 35 108 23 112 31 62 40 106 70 107
split_gain=601.536 903.473 706.503 754.072 778.875 1459.07 698.676 524.328 676.653 559.688 518.847 476.052 461.581 461.073 410.117 367.019 351.82 347.877 328.547 444.083 657.384 488.039 603.909 310.035 244.145 266.091 241.01 157.36 156.021 430.211 231.575 228.175 121.634 182.437 135.624 104.447 79.495 122.119 61.3093 104.107 55.8201 96.1412 54.9635 324.13 51.2178 51.0721 41.6138 41.2187 29.7393 162.299 21.0522 20.661 19.3662 16.9783 7.24872 2.28913 1.25659 1.07679 0.68277 0.636792 0.362263
threshold=1.0065926909446719 1.0000000180025095e-35 1.0000000180025095e-35 -1.0246614217758176 -1.0533402562141416 -1.0934571623802183 -0.99174168705940235 0.9902213215827943 -0.85210284590721119 0.95377475023269664 -0.60118722915649403 0.95243060588836681 -0.81479230523109425 1.0000000180025095e-35 -1.0463814139366148 -1.0105375647544859 1.1481456756591799 0.94884803891181957 1.0000000180025095e-35 -1.0185173749923704 -0.98363229632377613 -0.86500382423400868 -1.0241568088531492 -1.0889927744865415 -0.97981044650077809 -1.0111202597618101 -1.3746606111526487 -1.0849856734275816 -1.4869845509529112 -0.98695737123489369 0.60598060488700878 -0.84378576278686512 0.93140998482704174 0.99769166111946117 1.0682199001312258 0.9226403832435609 -0.96310141682624806 0.65733236074447643 0.50043252110481273 0.88060513138771068 -0.84238514304161061 0.63499918580055248 0.8531014919281007 -0.91786164045333851 -1.0020438432693479 1.0741066336631777 -1.7059212923049925 -0.99942320585250843 0.90288099646568309 -1.6782649159431455 0.79852619767189037 0.86596277356147777 -0.90497148036956776 1.2719478011131289 -0.84776508808135975 1.0055205821990969 0.544995278120041 1.0091657042503359 -0.84400206804275502 -0.29749511182308191 -0.88092857599258412
decision_type=2 2 2 2 2 2 2 2 2 2 2 2 2 2 2 2 2 2 2 2 2 2 2 2 2 2 2 2 2 2 2 2 2 2 2 2 2 2 2 2 2 2 2 2 2 2 2 2 2 2 2 2 2 2 2 2 2 2 2 2 2
left_child=1 2 3 13 12 -6 27 10 17 -10 15 -12 -5 14 -1 -4 -15 -9 19 28 24 22 -22 42 25 -21 45 55 40 30 -30 -31 34 -34 -28 -23 44 -38 57 56 41 -2 43 51 -29 54 -26 -41 52 -50 -45 -20 -44 -42 -8 58 -40 59 -3 -25 -59
right_child=18 6 7 4 5 -7 26 8 9 -11 11 -13 -14 16 -16 -17 -18 -19 23 20 21 35 -24 38 46 -27 32 36 29 31 -32 -33 33 -35 -36 -37 37 -39 39 47 53 -43 48 50 -46 -47 -48 -49 49 -51 -52 -53 -54 -55 -56 -57 -58 60 -60 -61 -62
leaf_value=0.0069179322482678888 -0.088503666031437181 -0.1347761722554458 0.045467324240386547 0.068192465519130024 0.0033340074349484682 0.052031583053580077 -0.12342607033255604 0.0088202977766883971 0.10910088603446866 0.0091277266408699449 0.070860731439207084 -0.018741185032103508 0.12905686422374218 -0.090100171587800232 -0.085012576506176718 -0.086352473285307957 0.12929773288904614 -0.13908936112258233 0.1705087430209119 -0.097096403325734604 0.017459676965913624 0.10989744855269933 0.075652237655444501 -0.14227705851425307 0.045066100431232242 0.021929634971817474 -0.10403830124637246 -0.040812280603219467 -0.18478845053287862 -0.051773511520497278 0.094571881875909869 0.089958073328704036 -0.070621130195740942 -0.005410339868177595 0.17120412973671914 0.047289832972903019 0.12297007943383464 -0.038331410745897604 -0.12486459395117527 -0.019981046709064653 0.21752315109890655 0.10904695925092467 0.18361432678930059 -0.16409168099449495 0.11707901099832388 0.17242272825977437 -0.14366485892646091 0.15628456963280968 0.11986816334623909 -0.12419745253925539 0.0010632412906203292 0.10726633689993925 0.12705196891469517 0.14572464330087972 -0.084224112426776229 -0.21226904174352645 -0.16648782731757394 -0.12564059334340441 -0.10561594232931165 -0.18651838997120818 -0.15443078820782369
leaf_weight=1649.6243959963322 25.179588228464127 13.000872958451508 264.19626789540052 8083.0690718796104 6851.9800839871168 60282.357918100432 285.61620227340609 1516.9478755891323 1650.4396666735411 847.56318557262421 1002.8464423380792 1450.719752939418 1473.0854808688164 90.138851925730705 687.52699373848736 1053.2766757458448 386.41962888836861 177.63328618556261 73.110069096088409 228.189816839993 3621.3245257809758 1813.8892651349306 3513.6976952776313 6.3705988079309464 12.667085647583006 1061.7116907015443 24.987604681402445 21.491674175485969 30.037817731499672 367.42124082893133 2443.8199150413275 164.4191083535552 640.91434751078486 1297.6135189943016 63.133740458637476 312.35002541542053 84.954802587628365 104.88006303831935 21.082480303943157 21.87568211555481 39.121392697095871 1139.0259458869696 64.035592839121819 48.258011788129807 466.37649032473564 6.2097561210393897 150.37048822641373 33.71027235686779 262.13026994094253 30.406416937708855 9.1875713616609556 176.04979598522186 1106.5205541849136 208.28961953520775 56.498156383633614 2.7098263949155799 11.057095125317572 25.5307427495718 20.998854580335319 6.6490661352872831 5.2732470333576229
leaf_count=8210 86 79 866 15184 19306 143749 2351 4915 2858 2590 3849 6852 1472 403 4012 7055 534 967 38 945 10099 2084 5264 36 53 2601 1277 134 153 1019 1858 166 4364 6382 148 593 138 381 150 62 15 1033 40 245 562 4 791 11 128 101 20 114 404 138 381 11 54 187 1070 28 24
internal_value=0 0.0442765 0.0461537 0.0489981 0.0508635 0.0470613 -0.00887121 0.0177566 0.0420919 0.0751804 -0.0092989 0.0178818 0.0775747 -0.00184624 -0.0201255 -0.0599183 0.0877996 -0.00668423 0.0647604 0.0598373 0.0488374 0.0586485 0.0461171 0.103942 -0.0137002 0.000873353 -0.0349536 0.0778363 0.0865177 0.0736382 0.0911799 -0.00795702 -0.021747 -0.0269703 0.0931566 0.1007 0.0887593 0.0338542 -0.0441709 0.00408056 0.113941 0.104774 0.114951 0.0764538 0.110124 -0.111793 -0.129002 0.0869158 0.123019 0.0944999 -0.137678 0.125823 0.130146 0.157078 -0.116952 -0.123816 -0.139184 -0.14076 -0.116766 -0.164871 -0.130569
internal_weight=0 90557.2 87467.8 79504.2 76690.5 67134.3 3089.39 7963.62 4192.58 2498 3771.04 2453.57 9556.15 2813.71 2337.15 1317.47 476.558 1694.58 17032.8 15131.5 10714.2 9261.26 7135.02 1901.25 1452.94 1289.9 2374.97 714.413 4417.31 3005.7 2473.86 531.84 2026.65 1938.53 88.1213 2126.24 677.703 189.835 131.549 87.7255 1411.62 1164.21 1769.7 306.605 487.868 348.324 163.038 55.586 1463.09 292.537 57.4456 249.16 1170.56 247.411 342.114 36.7096 32.1396 43.8237 33.9997 13.0197 30.804
internal_count=268644 240104 222822 192870 179711 163055 17282 29952 11330 5448 18622 10701 16656 13159 12222 7921 937 5882 28540 26898 22430 18040 15363 1642 4390 3546 14907 2375 4468 3196 2011 1185 12171 10746 1425 2677 1215 519 552 277 1272 1119 1090 417 696 2736 844 73 673 229 265 152 444 153 2732 1160 204 275 1149 64 211
is_linear=0
shrinkage=0.1


Tree=14
num_leaves=59
num_cat=0
split_feature=108 72 30 53 106 35 72 60 38 71 31 69 35 135 59 60 33 122 60 73 48 136 48 106 40 128 34 37 31 35 104 54 107 53 40 15 114 135 38 58 101 46 101 52 31 67 80 106 108 136 39 51 107 108 133 73 34 57
split_gain=585.323 943.544 1436.72 689.491 621.132 751.956 1292.18 1014.61 582.776 823.663 521.005 461.127 459.089 399.06 396.626 380.897 337.523 331.626 286.618 276.821 365.841 229.633 206.039 380.636 200.215 189.767 174.58 145.221 137.878 120.998 119.778 101.041 120 342.92 92.8532 168.709 88.0543 81.5876 63.1856 98.7538 43.0231 41.039 37.1739 35.8023 32.0948 28.2269 25.6034 23.3866 15.8791 1.81052 1.68377 0.654299 0.647448 0.283726 1.22046 0.166805 0.0788842 0.072027
threshold=-1.0642714500427244 -0.52061343193054188 1.0318063497543337 1.1110407114028933 -0.80128353834152211 0.91157960891723644 -0.60550221800804127 0.72457343339920055 1.0131782293319704 -0.35948224365711207 0.99794119596481334 0.034336525946855552 0.86381307244300853 1.0000000180025095e-35 0.80911827087402355 0.84917405247688305 0.90001493692398082 -1.4254060387611387 0.78513443470001232 -0.48085141181945795 1.2106094360351565 1.0000000180025095e-35 1.1713105440139773 -0.93964111804962147 1.0700788497924807 1.0000000180025095e-35 0.82445544004440319 0.95439720153808605 0.98518773913383495 0.92211171984672557 -0.93042409420013417 1.0551381111145022 -1.0166410803794859 1.0076295137405398 1.0650355219841006 0.86925539374351513 -1.4417160749435423 1.0000000180025095e-35 0.97469899058341991 0.8869815766811372 -0.74971309304237355 1.203387498855591 -0.74725809693336476 1.0969920158386233 0.99852642416954052 0.08523841574788095 -0.54822242259979237 -0.95262852311134327 -1.0708019733428953 1.0000000180025095e-35 0.74630409479141246 1.1670078635215761 -1.0060876011848447 -1.0708019733428953 1.0000000180025095e-35 -0.37104217708110804 0.79122000932693493 0.9569281041622163
decision_type=2 2 2 2 2 2 2 2 2 2 2 2 2 2 2 2 2 2 2 2 2 2 2 2 2 2 2 2 2 2 2 2 2 2 2 2 2 2 2 2 2 2 2 2 2 2 2 2 2 2 2 2 2 2 2 2 2 2
left_child=12 2 8 11 5 7 -7 -4 9 21 14 13 26 24 -6 22 19 28 -11 37 -21 -2 23 29 -3 -19 50 -12 -18 -14 49 32 33 -28 35 -10 -13 -5 39 -24 46 -38 -42 -25 -36 -34 -32 -15 -40 -17 -1 52 -33 56 -55 -51 -52 -53
right_child=1 3 4 16 10 6 -8 -9 34 18 27 36 15 47 -16 30 17 25 -20 20 -22 -23 38 43 -26 -27 31 -29 -30 -31 40 51 45 -35 44 -37 41 -39 48 -41 42 -43 -44 -45 -46 -47 -48 -49 -50 55 53 57 -54 54 -56 -57 -58 -59
leaf_value=-0.20011723671750012 -0.022053762195845691 0.093736723860783439 0.041479714101030511 -0.11440446189313186 -0.099921890513540071 -0.034382728112234813 0.03680467569238717 0.074496285889697519 0.091426417558228973 -0.095508528380322838 0.15249825799191452 0.16234800617578704 -0.079257934272772779 -0.020775813707571061 0.063393926557802141 -0.13885417317884763 0.058629345039536818 -0.10126050029649117 0.078603675325257832 0.078417303004471139 -0.070576270826617091 0.051332097794973879 -0.14726961987894507 -0.0076205669692778234 0.029881391273497412 0.10059718810824261 0.11777810506937283 0.092655319547417431 0.14266436780890474 0.12245264251515714 0.085832272074703314 -0.14256226328673413 0.31038310224873983 -0.1428915910760363 -0.13955580320906374 -0.11163393556027522 -0.14843645759608004 0.038020107780246254 -0.11319102964805897 0.0072791818743039366 0.16529092770511145 0.028830021319799788 -0.15088515289184601 0.1312971386214011 0.034223038160799482 0.13828739391089828 0.16244036741437698 -0.14634634788486445 -0.15466178630013497 -0.19797007487930662 -0.14694367796318283 -0.13647977013475032 -0.18966963279314755 -0.19923833155693946 -0.12779069178960753 -0.22314520740236335 -0.12978225363393195 -0.10719752773523367
leaf_weight=5.7117601335048667 4433.6915516667068 7808.2750543914735 56929.021464198828 291.37415569275618 161.19777152314782 3166.5168777219951 13093.282265778631 11126.743978813291 60.11594351567328 100.90978356823325 917.83604621142149 11.574325934052466 482.674420427531 18.646101653575897 1918.7391539290547 5.2099414765834782 565.03073039650917 171.071503713727 1499.343194976449 390.61018159613013 285.07423499971628 471.76281402260065 71.222894590348005 21.54998442530632 523.97249411046505 63.994620442390442 180.9933817833662 726.47967994958162 298.32624431699514 31.691288538277149 125.33445538580418 4.546076826751233 9.9792586043477041 69.980487521737814 335.18156293593347 128.10440674889833 105.28728962689638 39.929013920947909 214.6090585142374 98.558024583384395 5.4084148406982449 14.909406157210467 11.901757739484308 133.36679870635271 10.975742414593695 212.02269479632378 66.919751927256584 72.50330476090312 162.04563700780272 5.1164370924234381 3.2820428982377079 1.8789010718464845 8.1448856145143509 3.756064500659706 6.5776734054088593 5.4198189079761514 14.564085241407154 1.5192276723682878
leaf_count=25 22929 8935 133482 1937 776 13388 29511 21723 120 432 1015 4 2305 70 3447 29 1371 737 2076 1483 7165 1965 387 58 1169 157 291 940 360 69 128 27 14 407 1766 744 718 231 3220 310 1 149 122 88 25 154 26 367 1486 21 18 13 38 19 55 22 88 31
internal_value=0 0.043714 0.0405509 0.0719247 0.044027 0.0422617 0.0229413 0.0468777 -0.00291934 0.00532657 0.0839926 0.0845409 -0.0113826 0.0874447 0.0507367 -0.0405083 0.0206599 0.0589962 0.0676244 -0.0211574 0.0155563 -0.0149962 -0.0626414 -0.0254431 0.0897212 -0.0463066 0.0688744 0.126059 0.087667 -0.0668301 0.0789162 0.0840843 0.0924675 0.0450941 -0.103308 -0.0467782 -0.101081 -0.0960341 -0.108202 -0.0575539 0.0989022 -0.126448 -0.0520987 0.111973 -0.134046 0.146023 0.112498 -0.120659 -0.131033 -0.187076 -0.150609 -0.16236 -0.172795 -0.140574 -0.15376 -0.21092 -0.132938 -0.123388
internal_weight=0 105740 95079.9 10660.6 88039.8 84315.6 16259.8 68055.8 7040.08 6505.71 3724.25 8555.17 1963.99 8423.4 2079.94 1441.03 2105.41 1098.42 1600.25 1006.99 675.684 4905.45 1215.72 669.282 8332.25 235.066 522.957 1644.32 863.357 514.366 225.311 489.065 472.976 250.974 534.378 188.22 131.771 331.303 546.436 169.781 209.564 120.197 17.3102 154.917 346.157 222.002 192.254 91.1494 376.655 15.7462 33.8916 16.0891 12.691 28.1799 10.3337 10.5363 17.8461 3.39813
internal_count=268644 259192 234339 24853 204282 198104 42899 155205 30057 27402 6178 11412 9452 10541 4223 8272 13441 2625 2508 10816 8648 24894 7923 2520 10104 894 1180 1955 1731 2374 349 975 866 698 2655 864 871 2168 5403 697 277 867 123 146 1791 168 154 437 4706 72 205 109 65 180 74 43 106 44
is_linear=0
shrinkage=0.1


Tree=15
num_leaves=57
num_cat=0
split_feature=31 71 37 40 30 71 35 13 73 108 71 102 105 37 60 108 38 39 71 70 32 128 33 116 39 103 4 72 130 99 72 71 72 3 22 30 71 65 50 26 51 108 136 69 73 109 38 100 103 30 18 71 41 40 3 107
split_gain=577.322 628.069 1652.33 973.839 831.033 860.397 1056.19 706.542 619.234 501.89 555.206 537.97 498.876 462.532 553.71 430.926 436.7 399.572 299.559 277.589 247.113 270.493 243.247 297.699 250.379 236.002 230.053 426.892 187.939 160.082 153.661 132.723 129.608 117.704 114.536 181.924 114.325 132.294 106.306 104.243 122.995 102.932 99.5759 132.818 76.0464 71.7353 55.451 38.0409 34.7989 31.0105 40.7531 9.22896 6.92139 64.0554 5.30644 2.80332
threshold=1.0121604800224306 -0.38348630070686335 0.95730796456336986 1.0502363443374636 1.0183961391448977 -0.41895329952239985 0.91946101188659679 0.75955685973167431 -0.77024841308593739 -1.0552066564559934 -0.33812709152698511 -0.78510370850563038 -0.81796810030937184 0.96898534893989574 0.75844052433967601 -1.0642714500427244 0.95860689878463756 0.97531631588935863 -0.40007136762142176 -0.22853606194257733 0.95411252975463878 1.0000000180025095e-35 0.85437509417533886 -1.4815224409103391 1.0081674456596377 -0.77768012881278981 0.57620730996131908 -0.65269550681114186 1.0000000180025095e-35 -0.84193187952041615 -0.58308172225952137 -0.3143229186534881 -0.58412283658981312 0.43822567164897924 1.4287318587303164 1.0760866403579714 -0.44481514394283289 0.30808091163635259 1.0718646049499514 1.4055561423301699 0.95933642983436596 -1.0795993208885191 1.0000000180025095e-35 -0.15567714720964429 -0.78760996460914601 -0.91747668385505665 0.98383668065071117 -0.84092742204666127 -0.88970366120338429 1.0401484370231631 1.078370273113251 -0.36672922968864435 0.99469098448753368 0.97197201848030101 0.58687701821327221 -0.93813467025756825
decision_type=2 2 2 2 2 2 2 2 2 2 2 2 2 2 2 2 2 2 2 2 2 2 2 2 2 2 2 2 2 2 2 2 2 2 2 2 2 2 2 2 2 2 2 2 2 2 2 2 2 2 2 2 2 2 2 2
left_child=1 2 4 15 17 6 -6 9 20 11 -11 -5 -7 14 -10 16 41 18 -1 -19 21 -4 23 -17 -24 -15 27 44 39 36 -22 -18 47 -34 35 38 37 -29 -30 42 -41 -3 45 -44 52 -28 -38 -31 -37 51 -51 -9 55 -54 -42 -2
right_child=26 3 8 7 5 12 -8 49 13 10 -12 -13 -14 25 -16 22 31 19 -20 -21 30 -23 24 -25 -26 -27 28 29 34 32 -32 -33 33 -35 -36 48 46 -39 -40 40 54 -43 43 -45 -46 -47 -48 -49 -50 50 -52 -53 53 -55 -56 -57
leaf_value=-0.031781170815279022 -0.20189833766530688 -0.056065517303612325 -0.126922030298702 0.087198468750672886 0.036596596937618076 0.052550692998084549 -0.060016820564593065 -0.1441200290004265 -0.049478242815379714 0.0040214738108094996 0.063993917784649787 -0.12153169456612212 0.10781199646041173 -0.023345526328280346 0.046787162490378537 0.071085100468523427 -0.11680562985501813 -0.14081143508510241 0.080050937943530978 0.13906773126054089 -0.10972636057980785 0.084873456314674411 0.096518033889969823 -0.069230096704747626 0.065244260241358001 -0.11699150242282352 0.072449155672380944 0.068994529214046418 0.14008008469179473 0.082021839535737634 0.0084124295503895819 -0.014819404052153307 -0.056988366233091906 0.15620073450741459 0.16479702560214021 -0.02496557091985753 0.13442907114380215 -0.085709105386928705 -0.1472057008427842 0.1450272460154578 -0.14485272517706957 0.10738287285390824 -0.18378561501057028 0.15199514320716001 0.048813378760558905 0.10183817152729527 -0.014314643459008573 -0.15569784341102377 -0.15148318232070612 0.16314388582743372 -0.16363065783180131 -0.18733129501602669 0.19090914822636357 -0.14574324047048545 -0.2313544831613609 -0.15010563049201414
leaf_weight=965.14754916168749 12.227637857198713 43.402889631688595 92.877508946694434 176.38245762512088 67733.863287007436 4899.9439679011703 1150.755261592567 97.196951469406486 809.52171431481838 2749.202330680564 3520.2508757486939 411.6668789293617 2450.6509930118918 1030.7905200263485 2281.4044422283769 387.66702555119991 189.70729606598616 390.76732814963907 318.58987229503691 38.97148847207427 1003.5399152040482 171.92025251314044 4878.7732398547232 247.89404282346368 5386.2505951188505 364.19805977493525 1276.0841028615832 319.91322813183069 62.077361896634102 7.5211239010095587 123.66477812826633 389.79405110701919 54.622106373310089 49.247175179421902 33.213221281766891 29.51101690530777 305.34341058135033 66.822039917111397 16.25258457660675 17.758653596043587 13.474489480257036 343.13174125552177 29.890076711773872 19.442399114370346 25.290576428174973 2378.7888438403606 27.304109983146191 64.128779180347919 82.562429964542389 6.8437478542327872 8.627969563007353 100.56583753973246 6.2276261001825324 61.133453957736492 14.971249103546141 71.902412556111813
leaf_count=10434 50 192 748 221 163963 9520 5053 493 2933 7747 12253 6039 3208 3813 5163 977 1130 2234 626 86 5043 659 4677 1925 7777 1794 1843 607 63 9 286 1367 172 45 30 87 270 284 79 8 69 417 122 13 38 2071 81 343 383 7 38 420 4 315 62 353
internal_value=0 0.0367654 0.0330496 0.0532135 0.036905 0.038453 0.0349826 0.023836 -0.0180773 0.0294102 0.0376956 -0.0589241 0.0709745 3.18842e-06 0.021575 0.0707181 0.00670541 -0.0319671 -0.00402738 -0.11543 -0.0763441 0.0105864 0.0763911 0.0163566 0.0801081 -0.0477942 0.0714117 0.0302934 0.0825001 0.0583449 -0.0967654 -0.0482059 -0.0272802 0.0440902 -0.00655949 -0.0364502 0.0792362 0.0422641 0.0804715 0.0878103 -0.0614659 0.0890297 0.0896723 -0.0514512 -0.111709 0.0915771 0.12222 -0.130744 -0.118169 -0.155427 -0.0190855 -0.166094 -0.138507 -0.114619 -0.190379 -0.157633
internal_weight=0 102764 83826.6 18937.4 77948.7 76235.2 68884.6 7070.74 5877.92 6857.5 6269.45 588.049 7350.59 4485.91 3090.93 11866.6 966.036 1713.48 1283.74 429.739 1392 264.798 10900.6 635.561 10265 1394.99 5045.71 1071.68 3974.03 894.902 1127.2 579.501 175.519 103.869 223.617 190.403 719.383 386.735 78.3299 3750.41 46.2044 386.535 3704.21 49.3325 176.782 3654.87 332.648 71.6499 112.073 213.235 15.4717 197.763 151.491 67.3611 28.4457 84.1301
internal_count=268644 261243 215563 45680 195124 181744 169016 27218 20439 26260 20000 6260 12728 13703 8096 18462 3106 13380 11060 2320 6736 1407 15356 2902 12454 5607 7401 2571 4830 1811 5329 2497 569 217 642 612 1242 891 142 4188 139 609 4049 135 760 3914 351 352 470 958 45 913 722 319 131 403
is_linear=0
shrinkage=0.1


Tree=16
num_leaves=62
num_cat=0
split_feature=31 71 29 40 59 131 133 39 98 73 73 41 34 134 96 73 107 74 99 74 71 15 90 135 99 55 80 39 107 107 129 135 120 136 101 83 131 127 28 31 57 98 58 41 75 93 35 74 107 106 58 72 35 132 70 51 107 31 104 90 98
split_gain=557.441 676.633 1411.14 838.315 897.904 620.554 649.604 963.705 600.182 599.996 583.63 642.214 466.969 357.112 375.125 562.29 333.491 458.135 282.548 289.811 266.102 367.325 262.43 245.002 234.769 227.109 179.405 170.234 239.527 169.661 157.316 126.708 126.058 109.304 113.914 108.297 105.608 93.171 67.9016 64.356 57.2325 276.919 51.5955 81.535 48.5641 73.1583 29.9513 175.057 26.0497 45.99 17.7991 15.1276 14.7487 8.16192 7.05969 6.80178 1.89402 1.4557 0.570819 0.486433 0.287284
threshold=1.0065926909446719 -0.38645294308662409 1.0824601650238039 1.0364869832992556 0.83075493574142467 1.0000000180025095e-35 1.0000000180025095e-35 0.95377475023269664 -0.99174168705940235 -0.90717947483062733 -0.75703325867652882 1.0852958559989931 0.93238240480422985 1.0000000180025095e-35 -1.0185173749923704 -0.82281759381294239 -0.86402347683906544 -0.93041065335273732 -0.90200975537300099 -1.0111202597618101 -0.40132899582386011 0.87770590186119091 -1.0889927744865415 1.0000000180025095e-35 -0.8343667984008788 0.93678808212280285 -1.3709092736244199 1.0133519172668459 -1.0009833574295042 -1.0105375647544859 1.0000000180025095e-35 1.0000000180025095e-35 -1.1621209383010862 1.0000000180025095e-35 -0.91115969419479359 -1.3229638934135435 1.0000000180025095e-35 -1.4869845509529112 1.086981534957886 1.0067623257637026 0.8531014919281007 -0.91786164045333851 0.89234328269958507 1.054884195327759 -0.99942320585250843 -0.93474787473678578 0.90486916899681102 -0.93041065335273732 -0.87848520278930653 -0.85611021518707264 0.79852619767189037 -0.6440586745738982 0.86800596117973339 1.0000000180025095e-35 -0.22270810604095456 1.0833167433738711 -0.8813377022743224 0.99132150411605846 -0.84856042265892018 -1.1917934417724607 -0.73502898216247547
decision_type=2 2 2 2 2 2 2 2 2 2 2 2 2 2 2 2 2 2 2 2 2 2 2 2 2 2 2 2 2 2 2 2 2 2 2 2 2 2 2 2 2 2 2 2 2 2 2 2 2 2 2 2 2 2 2 2 2 2 2 2 2
left_child=1 2 12 23 27 6 9 -8 35 -4 38 -12 20 14 31 18 17 -17 19 -16 24 -22 40 25 -1 53 -10 28 -5 -27 -29 33 -20 37 -35 -7 -18 -2 -6 -33 41 52 54 -44 48 55 51 -48 56 -50 -43 -42 -15 -3 -14 -46 -24 60 -47 -41 -25
right_child=13 3 5 4 10 8 7 -9 26 -11 11 -13 42 22 15 16 36 -19 32 -21 21 -23 44 57 -26 29 -28 30 -30 -31 -32 39 -34 34 -36 -37 -38 -39 -40 59 46 50 43 -45 45 58 47 -49 49 -51 -52 -53 -54 -55 -56 -57 -58 -59 -60 -61 -62
leaf_value=-0.00889150767904681 0.097626443436580557 -0.1285671130239936 -0.0049918615689048193 -0.15952392004193303 0.17775047186313245 -0.00063172807457078858 0.022498637926183965 -0.068642750232047897 -0.11092608250786384 0.038264501035273429 0.061528046689703075 0.012711536522832493 -0.12745815739110933 0.14109317692150972 -0.095505224467000285 -0.0068834870646103403 0.091868961249367276 0.056628947365581286 0.13911518934462094 0.023428446511033735 -0.13886959633731119 0.02973677818659384 -0.13647324320732596 -0.15002946843458628 -0.083336751340166312 0.010148979747217167 -0.029344245085800968 -0.10340563451896101 0.038710711004138164 0.083887683913398806 0.01916177028128058 0.14559349953533296 -0.083695296612379524 -0.18917664096803211 0.050996274930148217 0.089219190580974217 -0.037465083908212758 0.065186280560552715 -0.1491907514022861 -0.23434506866499438 0.099237237816062085 -0.15971361246324667 0.16346144542364885 -0.10200430067758591 0.05781166030817201 -0.16133435208909933 -0.20316025666599066 0.10872397117069288 0.1404370005354498 -0.16182692964601039 -0.0068817781153719592 0.12644485767968747 0.090489812554349652 -0.22576888150452407 -0.16270506041530233 0.14465485931756322 -0.19923953935885719 -0.18858935996042528 -0.1215736750887777 -0.20353472532036193 -0.1326059499073883
leaf_weight=850.03041021432728 1308.7235170304775 27.062579732388258 3406.7463450729847 75.58643351867795 6.5934421569108954 181.80599155649543 5590.8920135647058 1463.9199813380837 315.37674854975194 54587.713025510311 7510.4456605426967 4203.091185791418 81.057934835553169 101.4199231415987 223.77604074031115 1570.9062621295452 1836.642567768693 4099.7911843806505 26.94233238697052 2426.6727929338813 143.75125857628882 1277.5213598385453 41.990795385092497 14.217863634228705 844.42799529898912 328.64891445636749 1855.2529599638656 591.31295157410204 314.84019397199154 6169.1907684896141 127.25476664304733 6.3630910515785244 441.31194506585598 31.689074397087097 52.408653318881989 511.69432485848665 65.382657840847969 2736.765569396317 173.79478232562542 7.7592434734106108 267.88808273524046 47.010914847254753 12.18496200442314 229.18543141707778 16.091687686741352 4.7165071293711689 19.927895925939083 185.70128446817398 10.256131380796434 9.8856488689780218 9.0944162458181363 861.68660932034254 133.29494097828865 12.689083181321619 190.08302802592516 20.519134059548378 5.4292393624782553 6.6980582475662223 15.400376614183186 15.089270532131192 28.298030378296971
leaf_count=7653 1199 406 13634 511 7 602 18892 6709 2342 119798 12608 21480 524 50 931 4824 2019 6838 29 5410 940 2917 286 65 5642 1091 10131 2483 476 6981 287 4 2084 130 85 707 295 2957 885 32 180 245 7 1190 37 23 91 100 3 46 20 302 102 65 855 7 24 28 126 61 188
internal_value=0 0.0314951 0.0269861 0.0479618 0.0332385 0.0302323 0.0322381 0.0035862 -0.0153228 0.0357235 0.0412626 0.0440115 -0.0337762 0.0514191 0.0463837 0.0364711 0.0511883 0.0390346 0.000735481 0.0133869 -0.0192261 0.0126835 0.0941409 0.077027 -0.0459911 0.0787003 -0.0411975 -0.0528198 0.000332568 0.0801581 -0.0816996 0.071867 -0.0708753 0.073335 -0.0395039 0.0656641 0.0874231 0.0756807 -0.137241 -0.135669 0.104846 0.0646469 -0.122232 -0.0886029 -0.0459129 0.0223042 0.113602 0.0784987 -0.103191 -0.00791508 -0.13494 0.119992 0.112355 -0.159595 -0.152168 0.106484 -0.14366 -0.145259 -0.130896 -0.213998 -0.138433
internal_weight=0 91131.4 71541.6 19589.7 13002.9 67913.4 65049.3 7054.81 2864.13 57994.5 11893.9 11713.5 3628.24 16600.5 14850.2 10691.4 7572.72 5670.7 3118.7 2650.45 3115.73 1421.27 1750.31 6586.81 1694.46 6537.59 2170.63 1108.99 390.427 6497.84 718.568 4158.8 468.254 4129.59 84.0977 693.5 1902.03 4045.49 180.388 29.2116 1626.02 290.82 512.511 241.37 124.29 56.7277 1335.2 205.629 67.5618 20.1418 56.1053 1129.57 234.715 39.7517 271.141 36.6108 47.42 49.214 20.1169 22.8485 42.5159
internal_count=268644 240104 192543 47561 38737 172815 159033 25601 13782 133432 34980 34088 19728 28540 26898 22430 13976 11662 8454 6341 17152 3857 1642 8824 13295 8543 12473 3757 987 8072 2770 4468 2113 4371 215 1309 2314 4156 892 97 1090 417 2576 1197 552 193 673 191 359 49 265 482 152 471 1379 44 310 281 149 93 253
