tree
version=v4
num_class=1
num_tree_per_iteration=1
label_index=0
max_feature_idx=136
objective=binary sigmoid:1
feature_names=Column_0 Column_1 Column_2 Column_3 Column_4 Column_5 Column_6 Column_7 Column_8 Column_9 Column_10 Column_11 Column_12 Column_13 Column_14 Column_15 Column_16 Column_17 Column_18 Column_19 Column_20 Column_21 Column_22 Column_23 Column_24 Column_25 Column_26 Column_27 Column_28 Column_29 Column_30 Column_31 Column_32 Column_33 Column_34 Column_35 Column_36 Column_37 Column_38 Column_39 Column_40 Column_41 Column_42 Column_43 Column_44 Column_45 Column_46 Column_47 Column_48 Column_49 Column_50 Column_51 Column_52 Column_53 Column_54 Column_55 Column_56 Column_57 Column_58 Column_59 Column_60 Column_61 Column_62 Column_63 Column_64 Column_65 Column_66 Column_67 Column_68 Column_69 Column_70 Column_71 Column_72 Column_73 Column_74 Column_75 Column_76 Column_77 Column_78 Column_79 Column_80 Column_81 Column_82 Column_83 Column_84 Column_85 Column_86 Column_87 Column_88 Column_89 Column_90 Column_91 Column_92 Column_93 Column_94 Column_95 Column_96 Column_97 Column_98 Column_99 Column_100 Column_101 Column_102 Column_103 Column_104 Column_105 Column_106 Column_107 Column_108 Column_109 Column_110 Column_111 Column_112 Column_113 Column_114 Column_115 Column_116 Column_117 Column_118 Column_119 Column_120 Column_121 Column_122 Column_123 Column_124 Column_125 Column_126 Column_127 Column_128 Column_129 Column_130 Column_131 Column_132 Column_133 Column_134 Column_135 Column_136
feature_infos=[-1.7844352722167969:2.1873281002044678] [-1.6962581872940063:2.0962586402893066] [-1.6161398887634277:2.0136351585388184] [-1.5440802574157715:1.9394575357437134] [-1.4800789356231689:1.8737261295318604] [-1.4241359233856201:1.8164401054382324] [-1.3852788209915161:1.7937201261520386] [-1.3575865030288696:1.9274762868881226] [-1.3260828256607056:1.9831451177597046] [-1.2853907346725464:2.0064544677734375] [-1.2320997714996338:2.0118343830108643] [-1.1626077890396118:2.073509693145752] [-1.0779223442077637:2.1457490921020508] [-0.97803342342376709:2.2142360210418701] [-0.86829191446304321:2.2671928405761719] [-0.75375783443450928:2.4052433967590332] [-0.63882678747177124:2.5269482135772705] [-0.65620064735412598:2.5277442932128906] [-0.66012513637542725:2.5653238296508789] [-0.66667592525482178:2.5221147537231445] [-0.8555336594581604:2.4413206577301025] [-0.86833834648132324:2.3840618133544922] [-0.86565589904785156:2.2409591674804688] [-0.7797551155090332:2.1797337532043457] [-1.0841877460479736:2.1696581840515137] [-1.4308524131774902:2.0883691310882568] [-1.6366665363311768:1.9448176622390747] [-1.8254417181015015:1.7314887046813965] [-1.8332880735397339:1.5598906278610229] [-1.8569538593292236:1.3473584651947021] [-2.1823225021362305:1.1444870233535767] [-2.6710882186889648:1.0652625560760498] [-2.8964071273803711:1.0082290172576904] [-2.6209216117858887:0.99408984184265137] [-1.9672813415527344:0.99887841939926147] [-1.2877312898635864:1.0987448692321777] [-0.66409575939178467:1.3781088590621948] [-0.67050886154174805:1.4172744750976562] [-0.67336314916610718:1.4165236949920654] [-0.67729061841964722:1.3777114152908325] [-0.67375040054321289:1.3165556192398071] [-0.77278417348861694:1.2273765802383423] [-0.78214722871780396:1.2687077522277832] [-0.67822211980819702:1.5027958154678345] [-0.67593681812286377:1.6759111881256104] [-0.67998087406158447:1.7528411149978638] [-0.67735743522644043:1.7139431238174438] [-0.68056988716125488:1.6720231771469116] [-0.67851173877716064:1.8138210773468018] [-0.68057990074157715:2.0951991081237793] [-0.67633002996444702:2.3221406936645508] [-0.68208664655685425:2.3866791725158691] [-0.6882440447807312:2.3278176784515381] [-0.69760811328887939:2.41339111328125] [-0.68820065259933472:2.0181429386138916] [-0.66555494070053101:1.7058380842208862] [-0.63047897815704346:1.5109990835189819] [-0.79989981651306152:1.3641012907028198] [-0.9627259373664856:1.3483799695968628] [-0.83332031965255737:1.3266682624816895] [-0.62303602695465088:1.2987289428710938] [-0.62908732891082764:1.6912268400192261] [-0.65896600484848022:1.8743280172348022] [-0.67422842979431152:1.7138135433197021] [-0.89532732963562012:1.3433690071105957] [-1.1747497320175171:1.0751444101333618] [-1.3727543354034424:0.99085426330566406] [-1.6710461378097534:0.88367986679077148] [-1.7223098278045654:0.75060045719146729] [-1.8329139947891235:0.59843027591705322] [-1.7363165616989136:0.44751104712486267] [-1.6730015277862549:0.31280896067619324] [-1.5550380945205688:0.20973041653633118] [-1.4075071811676025:0.13722024857997894] [-1.4517455101013184:0.096206672489643097] [-1.6804615259170532:0.84510332345962524] [-1.8599822521209717:1.4404212236404419] [-2.0371255874633789:1.2026444673538208] [-2.1728529930114746:1.1285310983657837] [-2.2573421001434326:0.92254304885864258] [-2.3058340549468994:0.73609095811843872] [-2.3315773010253906:0.27998179197311401] [-2.3403120040893555:0.32789856195449829] [-2.3343968391418457:0.37759476900100708] [-2.3124566078186035:0.5232703685760498] [-2.2730567455291748:0.46151745319366455] [-2.2140905857086182:0.49370381236076355] [-2.1362462043762207:0.51996833086013794] [-2.0426793098449707:0.59374678134918213] [-1.9374580383300781:0.55988889932632446] [-1.8240519762039185:0.65060514211654663] [-1.7565661668777466:1.0689502954483032] [-1.648851752281189:1.4168777465820312] [-1.5750191211700439:1.6290324926376343] [-1.5245249271392822:1.6649528741836548] [-1.4843816757202148:1.6171708106994629] [-1.4547033309936523:1.5604556798934937] [-1.4384253025054932:1.5597559213638306] [-1.4264529943466187:1.5645072460174561] [-1.4166721105575562:1.5648646354675293] [-1.8966314792633057:1.5687597990036011] [-2.4619696140289307:1.5680602788925171] [-2.648137092590332:1.5700795650482178] [-2.5047333240509033:1.5662518739700317] [-2.1062953472137451:1.5671930313110352] [-1.4475361108779907:1.5604219436645508] [-1.2213733196258545:1.5625878572463989] [-1.1215335130691528:1.561995267868042] [-1.1656886339187622:1.5723429918289185] [-1.225764274597168:1.5757462978363037] [-1.369315505027771:1.5825119018554688] [-1.5506553649902344:1.5861003398895264] [-2.1400496959686279:1.5904401540756226] [-2.4733853340148926:1.5896482467651367] [-2.4821960926055908:1.5896980762481689] [-1.8361798524856567:1.5865405797958374] [-1.577265739440918:1.5868538618087769] [-1.6321159601211548:1.611059308052063] [-1.6862318515777588:2.2872264385223389] [-1.7458088397979736:2.4594569206237793] [-1.820858359336853:2.1168181896209717] [-1.9280952215194702:1.6493175029754639] [-2.1567583084106445:1.6308574676513672] [-2.3918964862823486:1.6220458745956421] [-2.6616356372833252:1.8138364553451538] [-2.9659750461578369:2.1341862678527832] [-3.3559722900390625:2.4851961135864258] [-3.8531808853149414:3.3610599040985107] [0:1] [0:1] [0:1] [0:1] [0:1] [0:1] [0:1] [0:1] [0:1]
tree_sizes=6688 5885 5887 5854 6757 6209 6830 6873 6856 6897 6871 6893 6881 6439 6225 6917 6872 6403 6550 6648 6218 6941 6816 6778 5827 6153 6915 5841 6414 6617 6232 6914 6692 6092 6825 6541 6577 6562 5835 6326 6660 6955 4816 6624 6482 6671 6455 6153 6980 6586 5142 6586 6455 6985 6824 6921 6445 6379 6954 6590 6795 6791 6794 6831 6931 6367 6640 6468 6848 6708 6809 6582 6443 6924 6252 6711 5781 6906 6415 6744 6820 5160 6250 5781 6398 6789 6819 6051 6642 6165 6388 6943 6812 6568 5639 6810 5487 6841 6103 6930 4324 6949 6503 5740 6030 6189 6897 5805 6680 4813 6797 6945 5857 5692 6859 6946 6975 5544 4568 6625 5631 6578 6342 6586 5628 6929 6887 6186 6313 6903 6777 4754 5336 5218 6613 6062 6593 6198 6198 6344 5025 6932 4656 6416 5799 6605 6860 6869 5222 6778 6778 5267 6606 6391 6514 5928 5623 6233 6823 5030 6884 6835 5993 6908 6100 5803 6733 5689 5831 4883 5466 6717 6819 5922 4614 6963 6531 6864 6720 5320 6613 6582 6972 6593 6243 5501 6455 6102 6361 6164 6075 5353 6500 6328 5293 6630 6265 6270 6099 6334

Tree=0
num_leaves=62
num_cat=0
split_feature=32 31 136 132 70 39 108 30 96 134 31 29 73 98 107 72 46 32 0 60 0 136 3 108 31 122 30 106 39 73 71 110 102 30 71 54 84 7 68 106 3 131 73 105 28 112 112 83 112 110 57 23 57 82 115 104 68 31 115 63 0
split_gain=93870.2 46226 61233.8 73592.3 42636.2 40609.1 21822.5 20193.7 19960.3 25001.2 16859 15216.9 11758.2 14384.8 10390.9 9975.26 7863.28 7712.7 6501.64 5533.41 4266.85 7328.08 4003.92 3894.02 3843.29 3800.02 3585.56 2939.71 3378.21 3693.85 2502.22 2498.03 2356.58 2168.59 2077.78 1986.37 1978.71 1919.48 1777.03 1464.48 1347.44 1422.83 1331.17 1218.31 1153.01 891.179 855.319 1876.4 853.064 757.291 656.269 625.156 1195.03 581.716 470.656 468.497 344.504 313.483 108.738 505.865 5.68434e-14
threshold=0.85855725407600414 1.0049849152565005 1.0000000180025095e-35 1.0000000180025095e-35 -0.22676946967840192 1.0215736627578738 -1.0705676078796384 1.0876763463020327 -1.0321041941642759 1.0000000180025095e-35 0.9910370707511903 1.1157453656196596 -0.79830384254455555 -0.92156428098678578 -0.88137966394424427 -0.78637817502021778 1.1070598363876345 0.95896944403648388 0.53098601102828991 0.74513769149780285 0.68469786643981945 1.0000000180025095e-35 0.68956759572029125 -1.0503279566764829 1.0081573128700259 -1.0569015145301817 1.0854507088661196 -0.88377484679222096 1.0111898779869082 -0.43565188348293299 -0.69422572851181019 -0.98239779472351063 -0.89531016349792469 1.0493958592414858 -0.46635784208774561 0.95069989562034618 -1.2515624165534971 0.89952853322029125 0.23032710701227191 -0.89606010913848866 0.59604299068450939 1.0000000180025095e-35 -0.89697173237800587 -0.85558196902275074 1.3285909295082095 -0.9316485822200774 -0.8530711531639098 -1.3288975358009336 -1.3026186823844907 -0.8804352581501006 0.75854659080505382 1.2830711603164675 1.0246163606643679 -1.3663815855979917 -1.0773312449455259 -0.91793662309646595 -0.19000975042581555 1.0056775808334353 -1.4586030244827268 0.66959267854690563 -0.66509592533111561
decision_type=2 2 2 2 2 2 2 2 2 2 2 2 2 2 2 2 2 2 2 2 2 2 2 2 2 2 2 2 2 2 2 2 2 2 2 2 2 2 2 2 2 2 2 2 2 2 2 2 2 2 2 2 2 2 2 2 2 2 2 2 2
left_child=11 2 3 4 7 6 -5 -2 24 12 -6 27 13 -10 34 26 -14 18 25 43 21 22 -17 -7 46 -4 37 28 29 49 55 -21 -20 56 -11 -16 -23 50 48 -31 42 -42 -26 -19 -39 -32 47 -3 -30 -1 -13 58 53 -53 -35 -28 -22 -48 59 -29 -60
right_child=1 8 17 5 10 23 -8 -9 9 14 -12 15 16 -15 35 20 -18 19 32 31 33 36 -24 -25 40 -27 30 51 38 39 45 -33 -34 54 -36 -37 -38 44 -40 -41 41 -43 -44 -45 -46 -47 57 -49 -50 -51 -52 52 -54 -55 -56 -57 -58 -59 60 -61 -62
leaf_value=-2.9582258453820338 -2.3806274588575107 -2.4529745573522845 -1.4231936203023252 -2.78668289681021 -2.2438683831187709 -3.1899598025971985 -1.3272235431448727 -1.8907317903798964 -1.843511435157686 -2.5491083632496809 -1.6665868316725077 -3.1408394782296343 -1.4082636217340265 -2.5066675335176765 -2.6176207027428449 -2.8289317135209782 -1.8958100841458374 -1.1464266115657271 -1.9626378969691831 -2.764612800812682 -2.9307740382440581 -1.1243405014639598 -1.8915709921548067 -2.3163508605043628 -3.2236742057788841 -2.948798262853368 -2.6394804822484295 -2.3027462763991688 -3.2236742057788841 -1.4336196255263676 -2.5034915150672981 -1.7233266803611476 -3.1141134049161656 -2.3321550257756885 -1.6915028749484549 -0.97543053167787708 -2.4263616107586201 -3.2236742057788841 -0.95666217128224407 -2.7774532154224674 -1.3966035179160072 -0.96276960204993367 -1.3032130877798314 -2.8738929225790897 -1.9333494771508293 -1.8621824928418584 -2.0754946987379888 -1.4714999825076258 -2.7138991393496257 -1.9781686037504496 -2.0675701289457136 -3.1890288870716894 -0.98693397821564943 -2.7221412939834559 -0.93663404360428082 -3.1355542293680911 -0.95666217128224185 -1.1206072481735962 -3.2236742057788841 -3.2236742057788841 -3.2236742057788841
leaf_weight=59.675121575593948 7030.0620960444212 32.298536479473114 1941.8485747277737 108.74813425540924 725.21194988489151 134.24244056642056 1769.5992351025343 955.81166540086269 1028.0460106879473 46.965506345033646 1672.7755039781332 191.23215162754059 678.10876227915287 479.728710308671 7.4678287357091895 126.12004634737968 645.89346873760223 4.3575968295335761 127.41075141727924 24.64759461581707 7.7260177135467529 65.754226952791214 71.348809987306595 82.305180966854095 5.4714106768369701 16.465259626507759 73.599020391702652 7.3717556297779074 126.00456143915653 40.453772217035294 31.421914353966713 352.93872357904911 20.654758498072624 2.5383098125457755 70.893958255648613 538.50001722574234 14.191120877861975 9.645894378423689 3.9928361177444449 10.142740622162817 89.17691944539547 496.44913454353809 10.605039983987806 64.696197062730789 24.552987053990364 69.80870920419693 3.9418085217475918 49.077409312129021 44.391184106469154 9.0844709128141385 5.8721838146448126 65.317681208252907 3.0351560562849036 45.120705530047417 50.462841853499413 25.68035052716732 0.99820902943610956 26.900616198778152 42.555416375398636 31.24783430993557 353.53418765962124
leaf_count=1321 116810 559 14495 2229 11102 3269 11586 11406 11804 856 16378 4567 4965 8549 141 2636 7739 21 1608 500 169 303 852 1317 135 363 1405 117 3109 306 559 3647 488 41 711 1715 242 238 12 207 643 1521 67 1380 303 814 54 389 879 116 80 1590 10 897 142 612 3 123 1050 771 8723
internal_value=-3.11926 -1.92856 -2.01059 -2.10188 -2.21095 -1.56121 -1.41172 -2.32199 -1.63567 -1.73407 -1.84117 -2.72279 -1.86356 -2.05451 -1.18172 -2.4018 -1.64611 -1.56437 -1.48433 -1.94182 -1.99591 -2.16322 -2.49025 -2.85792 -1.15383 -1.43602 -2.72058 -3.01671 -2.76145 -2.35153 -2.41108 -1.7913 -2.12327 -1.24395 -2.03325 -0.997893 -1.35546 -2.98887 -3.042 -1.70301 -1.05363 -1.02883 -1.95682 -2.76488 -2.29729 -2.06124 -1.69109 -1.86105 -3.09087 -2.82874 -3.10886 -3.1535 -2.94448 -2.99828 -1.00347 -2.7678 -2.7049 -1.24265 -3.20806 -3.04789 -3.22367
internal_weight=0 19241.3 15031.8 12478.8 10383.9 2094.89 1878.35 7985.87 4209.53 3495.6 2397.99 1612.88 2831.78 1507.77 663.827 770.953 1324 2553.02 2106.38 446.64 339.14 277.414 197.469 216.548 713.921 1958.31 431.813 841.927 293.745 119.356 200.51 377.586 148.066 61.7254 117.859 545.968 79.9453 231.303 174.389 50.5965 601.703 585.626 16.0765 69.0538 34.1989 101.231 112.218 81.3759 170.396 68.7596 197.104 548.183 113.474 110.438 53.0012 99.2794 8.72423 30.8424 434.709 38.6196 396.09
internal_count=268644 236570 196599 174097 155696 18401 13815 128216 39971 36480 27480 32074 33057 20353 3423 12966 12704 22502 16954 5548 4388 4033 3488 4586 3491 14858 8578 19108 5950 1950 3390 4147 2096 355 1567 1856 545 5188 4000 513 2366 2164 202 1401 541 1373 1125 948 3988 1437 4647 13158 2497 2487 183 2017 172 177 10661 888 9773
is_linear=0
shrinkage=1


Tree=1
num_leaves=54
num_cat=0
split_feature=31 131 97 31 133 73 39 57 72 38 32 31 114 48 124 105 73 37 104 38 32 105 76 127 98 83 76 38 55 61 119 74 96 107 57 33 97 16 34 115 41 3 107 32 39 68 32 106 112 36 106 110 115
split_gain=7581.63 3713.5 5996.58 4029.19 5022.48 2789.23 6757.98 3814.81 3600.43 3592.96 2403.13 2356.27 2329.78 1900.98 1687.6 1387.47 1035.32 945.29 935.13 864.897 694.509 699.725 643.114 620.088 675.005 617.334 505.997 483.24 393.082 476.544 389.014 395.736 386.287 324.285 281.381 259.323 255.15 247.448 206.537 142.645 416.43 267.058 132.855 0.120914 0.0566482 0.0438733 0.0389739 0.0384875 0.0379493 0.0158917 0.0117807 0.0102671 0.000277499
threshold=0.87931239604949962 1.0000000180025095e-35 -0.994054615497589 0.9835936725139619 1.0000000180025095e-35 -0.72123417258262623 1.0184381604194643 0.90621545910835277 -0.55545133352279652 0.92935693264007579 0.90737113356590282 1.007927477359772 -1.0156165361404417 1.2058180570602419 -1.1039947867393491 -0.81160572171211232 -0.68485593795776356 0.87465581297874462 -0.81058943271636952 0.98648148775100719 0.92092815041542064 -0.89430740475654591 -1.181593060493469 -1.5173906683921812 -0.98054984211921681 -1.3795403242111204 -1.1965412497520445 0.97135314345359813 1.0535851120948794 0.77585172653198253 -1.1345931887626646 -1.0199321508407591 -1.0051710009574888 -1.0356516838073728 0.83052733540534984 0.86127725243568432 -1.0045279860496519 0.99745950102806102 0.87221693992614757 -1.4586030244827268 1.0906791687011721 -0.034438226372003548 -0.89549079537391651 0.85855725407600414 1.0215736627578738 0.23032710701227191 0.85855725407600414 -0.88377484679222096 -1.3026186823844907 0.92698651552200328 -0.88377484679222096 -0.87510958313941944 -1.4181745648384092
decision_type=2 2 2 2 2 2 2 2 2 2 2 2 2 2 2 2 2 2 2 2 2 2 2 2 2 2 2 2 2 2 2 2 2 2 2 2 2 2 2 2 2 2 2 2 2 2 2 2 2 2 2 2 2
left_child=15 3 20 4 13 6 7 -5 -8 17 32 22 -11 14 -2 19 -12 -7 -15 25 21 26 42 36 -25 47 -3 -24 29 -27 37 -32 -6 -21 -23 39 -22 -13 -37 40 41 -17 -4 50 -45 48 -30 51 -35 -42 -41 -1 -49
right_child=1 2 11 5 10 9 8 -9 -10 12 16 30 -14 18 -16 35 -18 -19 -20 33 23 34 27 24 -26 28 -28 -29 46 -31 31 -33 -34 45 -36 38 -38 -39 -40 43 49 -43 -44 44 -46 -47 -48 52 -50 -51 -52 -53 -54
leaf_value=-0.10562555057967865 0.33220275455301018 0.81743384234308591 0.58948840499103461 0.33832162683278127 0.87942817619377589 0.91365649320726716 0.0098495373297222098 0.41382220982306006 0.30987054463520725 0.34672682521651271 0.061129884590085649 0.47768545968123394 0.50892485092890183 0.36752456011339285 0.1156233871646018 0.65519528064543353 0.32145571826103847 0.60553585208941962 0.027189364403091189 0.33558506714945846 0.36988587583019444 -0.10917739149643993 0.14883363366068653 0.33183448900938606 0.16628838722097949 0.27087454124619376 0.46255908256296352 -0.029139714006126201 -0.10791371523550544 0.9455599614969028 -0.014544851973854503 0.292023290308427 -0.04404009659654283 -0.10409784831014289 0.44185832762168531 0.99084606901555095 0.5706716001167953 -0.023027830253941044 -0.11044786570514054 -0.10636788520254215 -0.10438060203793992 -0.10750921204313853 -0.055785225008132072 -0.12611548364486799 -0.10974613870148586 -0.12445044931048002 -0.12312998631793476 -0.10605762510932984 -0.10775382571807966 -0.11652019674437296 -0.10403565651842712 -0.11417742010646176 -0.10409604574503083
leaf_weight=1.8924933001399038 12225.810272123665 68.175693299621344 3.211438074707984 20355.769803304225 4.5650016628205767 136.95897684246302 841.18363846465945 9970.0540398210287 762.63044527173042 2460.3500616662204 225.77023211866617 11.454018875956534 1383.5729396939278 107.61755229905248 370.6875402405858 14.822895508259537 472.48324345052242 364.71771148592234 323.1922382004559 19.131251689046621 116.58685399964452 21.261343196034431 512.10436866059899 2606.5119174681604 272.00607014447451 403.33298252150416 97.840237274765968 217.3019441626966 24.684287916868929 10.747846085578201 44.691787078976631 727.96778316795826 585.0861568748951 85.905038800090551 16.426523942500353 4.1092991679906836 138.44329828023911 71.355291947722435 2.9079871475696564 23.206775493919849 50.793272688984871 6.6506361700594416 494.55412717536092 3.4002642408013326 5.5890343077480793 1.2083513513207425 1.806471288204192 0.73371691629290481 42.408161289989948 1.1017487682402123 324.64300089329481 5.4373315609991542 42.242448471486568
leaf_count=39 45260 147 7 89011 10 344 6282 42539 3135 12020 2542 36 2983 569 5075 133 3984 1420 3709 17 91 326 4766 3013 1377 3423 418 2195 502 80 336 4033 7115 2294 128 6 285 525 37 438 1325 116 5682 21 70 10 15 16 758 21 8790 52 1118
internal_value=0 0.336637 0.257969 0.345065 0.300141 0.362793 0.352564 0.363144 0.152513 0.437957 0.111756 0.124819 0.405108 0.318765 0.325829 0.0687464 0.237283 0.689654 0.112206 0.162605 0.341063 0.519985 0.0360101 0.329432 0.316191 0.226601 0.608291 0.0958125 0.264495 0.288387 0.252215 0.274291 -0.0368907 -0.0487202 0.130995 -0.0685412 0.478883 0.0462298 0.534466 -0.0783771 0.0486132 0.418976 -0.0516221 -0.104487 -0.115938 -0.105485 -0.108951 -0.105272 -0.105306 -0.104638 -0.104191 -0.111969 -0.10413
internal_weight=0 56010.3 5419.89 50590.4 14315.2 36275.2 31929.6 30325.8 1603.81 4345.6 1287.9 2082.64 3843.92 13027.3 12596.5 1076.76 698.253 501.677 430.81 639.53 3337.25 203.704 1227.17 3133.55 2878.52 490.878 166.016 729.406 440.572 414.081 855.469 772.66 589.651 148.653 37.6879 437.225 255.03 82.8093 7.01729 430.208 73.3686 21.4735 497.766 356.839 8.9893 129.522 26.4908 50.306 128.313 51.895 347.85 7.32982 42.9762
internal_count=268644 249363 23365 225998 68264 157734 140967 131550 9417 16767 13651 17580 15003 54613 50335 19281 6526 1764 4278 8324 5785 1019 12650 4766 4390 5245 565 6961 4020 3503 4930 4369 7125 3079 454 10957 376 561 43 10914 1595 249 5689 9319 91 3062 517 1225 3052 1346 9228 91 1134
is_linear=0
shrinkage=0.1


Tree=2
num_leaves=54
num_cat=0
split_feature=31 38 73 70 35 30 59 45 70 60 31 130 70 70 15 105 41 40 35 13 37 104 38 36 92 60 128 35 104 83 108 43 107 56 0 38 97 127 32 113 41 27 42 112 32 38 34 68 106 39 25 110 115
split_gain=3770.41 1880.16 5178.98 4723.4 3887.31 3554.58 3102.56 2229.68 2269.58 2225.45 1909.37 1461.71 1394.85 1212.57 1017.92 995.169 912.926 865.847 847.545 697.768 656.754 579.409 553.655 517.327 512.069 496.582 482.759 417.893 415.789 374.414 287.023 259.631 250.885 248.035 238.313 231.952 182.318 367.669 165.313 92.5992 264.462 78.6373 63.8709 41.318 0.058216 0.0345725 0.0577263 0.0328789 0.0280083 0.0236325 0.00815405 0.00737478 0.000205787
threshold=0.87931239604949962 0.97902527451515209 -0.76430240273475636 -0.25271582603454584 0.9119108021259309 1.0344742536544802 0.82766723632812511 1.1438468098640444 -0.17482798546552655 0.72764220833778392 1.0019759535789492 1.0000000180025095e-35 -0.29735423624515528 -0.26479093730449671 0.95758873224258434 -0.80980926752090443 1.0535284876823428 1.0366390943527224 0.91941216588020336 0.80284798145294201 0.94358193874359142 -0.81674230098724354 0.98648148775100719 0.93748974800109874 -1.0639681816101072 0.75856330990791332 1.0000000180025095e-35 0.92152047157287609 -0.81293505430221547 -1.3795403242111204 -1.0640054345130918 1.0855797529220583 -1.0356516838073728 0.95682382583618175 -0.1449223309755325 0.95858845114707958 -0.8890642225742339 -1.7663547396659849 0.86200332641601574 -1.3583937883377073 1.0821378231048586 1.1260778903961184 1.1159577965736391 -1.3063402771949766 0.85855725407600414 0.98701703548431408 0.87164810299873363 0.23032710701227191 -0.88377484679222096 1.0222147703170779 1.2601584792137148 -0.87510958313941944 -1.4181745648384092
decision_type=2 2 2 2 2 2 2 2 2 2 2 2 2 2 2 2 2 2 2 2 2 2 2 2 2 2 2 2 2 2 2 2 2 2 2 2 2 2 2 2 2 2 2 2 2 2 2 2 2 2 2 2 2
left_child=15 3 16 4 5 12 17 24 -9 -7 11 14 -2 28 -5 22 19 25 -15 26 -13 27 29 -23 -8 -4 -3 -12 -6 48 35 -21 -24 -19 -32 -31 37 -18 39 40 42 -38 -17 -42 50 46 -34 -47 51 -46 -41 -1 -50
right_child=1 2 6 10 13 9 7 8 -10 -11 21 20 -14 18 -16 38 36 33 -20 31 -22 23 32 -25 -26 -27 -28 -29 -30 30 34 -33 45 -35 -36 -37 41 -39 -40 44 43 -43 -44 -45 49 47 -48 -49 52 -51 -52 -53 -54
leaf_value=-0.10506598128817615 0.026216209710467848 0.090156270765245669 0.10923015966483524 0.28570262768755511 0.068796464724283898 0.23984868546475913 0.37155040287984131 0.16289345155569276 0.27931122556940319 0.3099676984176713 0.37366595104649619 0.61372518033942913 0.18521799014662466 0.23855951758710942 0.091523415201219524 0.23642588319727148 0.13178525623729981 -0.072543600175804843 0.026535541348039201 0.15265443798257486 0.37237071987104398 0.47339361835353899 0.26298838470299407 0.21042431384921922 0.28509702805734194 0.25732580353132467 0.32463675534007413 0.19478889053274723 -0.077704190278975627 0.33798141788996183 0.3068555396511472 -0.042134378333991293 -0.10752991959642266 0.059249753067555033 0.1622967606473846 -0.11883734084880503 0.27021367551868086 -0.12315933646361876 0.33121055507767183 -0.10379230037985721 -0.10538557547839578 -0.09746755914641006 0.69911105560816489 0.11989590407492373 -0.12337883073246321 -0.10460611367515281 -0.13413413551009912 -0.12185615242116377 -0.10546069862341956 -0.10956835786366084 -0.11094036730005996 -0.11265879647499044 -0.10368981150274732
leaf_weight=1.7210533395409582 933.89543654769659 179.96656783297658 549.23413448035717 6608.6084323301911 982.69567625969648 37920.794215727597 1320.7310112118721 3432.3263138644397 3269.9381624720991 5139.8441605046391 789.37994179874659 170.85668274015188 1348.227814219892 778.96822369843721 281.46386085823178 6.450111009180544 124.85559271275997 186.73683751374483 248.73781491816044 91.452337231487036 331.47433629631996 944.8149634078145 21.794705972075462 81.241774864494801 1423.5927767306566 385.21647287160158 171.45746900513768 156.49647576361895 241.29835146665573 14.533609382808207 184.52693478018045 271.78079507127404 3.6029988452792159 606.905627168715 298.54580987989902 47.253394283354282 5.8913512937724581 103.42562220990658 9.964587986469267 311.41964799538255 46.872605614364147 459.77278162539005 5.551349937915802 9.8524358272552472 1.8429892659187306 117.34886232018471 1.0542335100471971 1.1154391095042218 0.66746048629283805 3.7812239527702332 1.6040856018662442 4.98281306028366 38.900223352015018
leaf_count=39 7215 911 2899 13759 6272 136320 1737 15460 10772 17279 1248 382 5405 3049 1458 56 627 1404 1696 504 1111 1405 17 296 3350 1201 441 597 2214 29 1055 2178 78 3453 2476 606 35 730 32 9082 1237 3955 5 165 12 3087 7 10 16 50 36 52 1134
internal_value=0 0.240449 0.205466 0.248177 0.235404 0.241773 0.228243 0.25078 0.219692 0.248218 0.313099 0.289777 0.120151 0.107158 0.27777 0.0565769 0.02477 0.105047 0.187243 0.1041 0.454462 0.400527 0.125424 0.452572 0.326704 0.170281 0.204558 0.344071 0.0399153 0.168366 0.191559 0.00690821 -0.0497419 0.02824 0.217516 -0.0113839 -0.0569277 0.0162795 -0.0709587 -0.0813039 0.0239726 -0.0928158 0.450444 -0.066257 -0.10401 -0.105101 -0.113552 -0.104769 -0.104732 -0.114094 -0.103829 -0.11071 -0.10372
internal_weight=0 69542.1 12583.3 56958.8 47594.5 45342.8 11174.7 9446.59 6702.26 43060.6 9364.34 7392.4 2282.12 2251.7 6890.07 1133.39 1408.6 1728.09 1027.71 714.657 502.331 1971.93 736.048 1026.06 2744.32 934.451 351.424 945.876 1223.99 591.131 544.86 363.233 144.916 793.642 483.073 61.787 693.945 228.281 397.339 387.374 68.7265 465.664 12.0015 56.725 318.648 123.122 4.65723 118.464 46.2716 5.62421 313.024 6.70387 39.5677
internal_count=268644 249363 49657 199706 179450 166219 40276 31319 26232 153599 20256 16710 12620 13231 15217 19281 9381 8957 4745 4034 1493 3546 8606 1701 5087 4100 1352 1845 8486 5407 4166 2682 3199 4857 3531 635 5347 1357 10675 10643 1463 3990 61 1402 9180 3182 85 3097 1241 62 9118 91 1150
is_linear=0
shrinkage=0.1


Tree=3
num_leaves=54
num_cat=0
split_feature=52 125 71 30 108 38 71 39 129 34 74 75 36 38 71 47 36 37 106 107 53 107 74 31 27 109 113 57 115 50 79 36 123 123 37 31 70 68 59 11 58 107 113 89 124 40 127 127 39 32 31 71 106
split_gain=2618.94 1801.58 1491.34 3111.05 1637.53 1545.78 1586.57 1459.62 1357.76 1244.14 1225.15 1192.4 1034.02 725.523 1883.33 503.345 441.892 411.013 387.574 414.258 617.373 517.42 370.806 357.753 352.827 339.431 318.371 279.637 277.436 273.899 229.985 213.317 211.449 191.56 190.81 173.863 164.83 276.799 150.142 142.621 126.049 124.381 113.939 95.202 73.9562 67.8977 7.84232 30.2282 3.69794 2.22954 0.266431 0.119296 0.116154
threshold=1.1422147750854494 -1.0906393527984617 -0.35944537818431849 1.0377470254898074 -1.0661022067070005 1.0061175227165224 -0.38618284463882441 0.99770486354827892 1.0000000180025095e-35 0.89097216725349437 -0.85925501585006703 -0.84824153780937184 0.93265470862388622 1.0130858421325686 -0.32929480075836176 1.2052841782569887 0.93872511386871349 0.90846696496009838 -0.98231655359268177 -0.97805729508399952 1.1287060379981997 -0.9586660861968993 -0.8887745440006255 0.96709337830543529 1.1612759828567507 -0.94804933667182911 -0.93254259228706349 0.97618141770362865 -0.92656347155570973 0.69038522243499767 -0.87719085812568653 0.93686929345130932 -1.0650688409805296 -1.8097734451293943 0.95528244972229015 1.0111889839172366 -0.21809975057840345 0.10631728172302247 0.85081112384796154 1.2284809350967409 0.97959542274475109 -1.0006520748138426 -1.2618913054466245 -1.0189227461814878 -1.0303242802619932 1.0769437551498415 -2.9982639551162715 -2.8966939449310298 1.0215736627578738 0.85855725407600414 1.0049849152565005 -0.39847819507122034 -0.87328603863716114
decision_type=2 2 2 2 2 2 2 2 2 2 2 2 2 2 2 2 2 2 2 2 2 2 2 2 2 2 2 2 2 2 2 2 2 2 2 2 2 2 2 2 2 2 2 2 2 2 2 2 2 2 2 2 2
left_child=1 2 3 5 7 6 -1 17 12 18 -10 16 -5 15 -15 -6 22 -4 42 40 21 -21 31 27 -7 -24 28 34 29 43 -29 -11 -31 45 -13 49 51 -38 -35 -22 48 -9 46 -3 -30 -25 -2 -48 -20 52 -51 -18 -28
right_child=9 26 4 8 13 24 -8 41 10 11 -12 23 -14 14 -16 -17 36 -19 19 20 39 -23 25 33 -26 -27 35 30 44 32 -32 -33 -34 38 -36 -37 37 -39 -40 -41 -42 -43 -44 -45 -46 -47 47 -49 -50 50 -52 -53 -54
leaf_value=0.098671529722159174 0.23907903918166373 0.53759765356588862 0.60358954794169972 0.19246408623826522 0.25242223435470867 -0.084265011285964919 0.18927969752437551 -0.096432940552117097 0.23236339802736536 -0.11707083951183619 0.46493839804516468 0.40685322551575115 0.14170239101270288 0.024465269914593864 0.28251890423692477 -0.042485677486548738 -0.11417247105149737 0.21007534375122616 -0.12912880176703237 0.22737921530677233 -0.044960693108309829 -0.046947523290734511 0.14553040715489238 0.59374527632316676 0.28600196726973559 0.4115093751224923 -0.10954741084415263 -0.12025658550706449 0.95310701422275634 0.47547492110154388 0.25983305399989426 0.42475998933194359 -0.080770220129232517 -0.11812875835484618 -0.11735667710112596 0.20389494656298202 0.15654174508762786 -0.023861797166761945 0.31945711279903177 0.6496926387511941 0.44806753846217862 0.051678369730945951 0.52000395903487584 0.1236818631408742 0.37572429381993944 0.39624237426611714 0.24305925679120494 -0.11636397364608762 -0.10600574426961701 -0.12601426730183121 -0.14533498188516583 -0.12184042726883025 -0.10362568598151894
leaf_weight=4504.17018924281 5.5428070053458205 13.718298308551313 31.070111013948917 51181.166074257344 7393.9002533797175 390.18592580035329 3384.7726796939969 272.33093570172787 4564.8929266110063 56.191080674529076 238.32152872532606 8.3813425153493863 4354.2950873151422 521.41204215586185 618.05646002292633 58.331841537728906 52.093868287280202 182.12237283214927 141.35859279893339 215.38726778142154 470.70530145429075 100.99481724202633 162.21061813831329 34.939949192106724 27.552733778953552 68.132059864699841 41.145289443433285 17.079995051026344 4.2543899789452553 7.6070311069488517 234.28337819129229 8.345136918127535 67.246768794953823 8.25344120711088 40.481347154825926 19.123440906405449 127.90045981481671 253.85802577808499 156.93786231428385 2.9742818213999263 3.9930748194456092 71.60776119120419 17.361995805054903 9.340087026357649 4.635717920958994 34.686435326933861 5.4798283576965305 4.0836639739573011 135.41775341331959 30.936499893665314 9.2778633460402471 33.232492089271545 169.89898162893951
leaf_count=22486 2 6 52 157402 10077 2464 8274 2849 14172 477 344 9 17024 2208 1443 710 507 536 1178 1024 8105 1536 905 27 80 170 592 136 8 18 506 24 758 66 398 22 523 1621 349 20 11 436 18 57 35 53 1 59 3160 193 44 249 5220
internal_value=0 0.188994 0.190051 0.184997 0.227977 0.127621 0.137547 0.0618381 0.192896 0.0829477 0.243903 0.149349 0.188484 0.238751 0.164436 0.250114 0.0690025 0.267425 0.00488817 -0.00543232 0.031646 0.139809 0.164847 0.263772 -0.0598434 0.224203 -0.0290276 0.191455 0.117153 0.0685874 0.234006 -0.047007 -0.0242417 0.356232 -0.0274398 -0.0867695 0.00849419 0.0365788 0.297594 -0.0405989 -0.109768 -0.0655963 0.345266 0.369936 0.652033 0.495353 0.144436 0.0895836 -0.117815 -0.108892 -0.130472 -0.117159 -0.10478
internal_weight=0 78171.4 77794.2 68645.4 9148.83 8306.68 7888.94 557.131 60338.7 2400.31 4803.21 1297.01 55535.5 8591.7 1139.47 7452.23 761.964 213.192 1103.3 1070.83 790.062 316.382 294.879 535.044 417.739 230.343 377.184 300.226 106.802 97.9122 251.363 64.5362 74.8538 234.818 48.8627 270.382 467.085 381.758 165.191 473.68 280.769 343.939 32.4683 23.0584 8.89011 69.6264 15.1063 9.56349 276.776 251.259 40.2144 85.3264 211.044
internal_count=268644 247510 240557 222246 18311 33304 30760 3873 188942 21134 14516 6020 174426 14438 3651 10787 4476 588 15114 15034 10685 2560 1576 1544 2544 1075 6953 1049 882 839 642 501 776 495 407 6071 2900 2144 415 8125 4349 3285 80 63 43 80 62 60 4338 6049 237 756 5812
is_linear=0
shrinkage=0.1


Tree=4
num_leaves=62
num_cat=0
split_feature=45 31 133 131 74 134 32 99 105 70 37 36 71 74 38 69 38 104 117 72 127 104 36 59 31 21 31 97 71 86 31 25 35 62 34 58 106 103 101 106 103 23 47 40 47 26 72 72 39 32 32 136 132 108 39 39 126 117 31 89 37
split_gain=1737.5 1437.72 2515.17 2194.53 1779.68 1720.61 1626.77 1455.21 1272.21 1245.23 4993.22 1381.58 1395.52 1209.93 1751.39 1073.44 2103.45 879.375 875.238 876.735 631.535 629.879 587.94 576.17 564.298 356.345 343.588 317.694 284.124 249.427 247.849 215.687 200.96 187.215 157.308 155.249 154.621 123.94 99.0375 82.5512 228.583 205.224 183.029 77.5443 49.0913 40.5771 35.7872 77.0005 0.987639 0.628338 0.362873 0.30304 0.256206 0.211931 0.102457 0.0986956 0.0558926 0.0368494 0.0343388 0.0201561 0.0181061
threshold=1.1961417198181155 1.0028547644615176 1.0000000180025095e-35 1.0000000180025095e-35 -1.0248837471008299 1.0000000180025095e-35 0.90041574835777294 -0.9806247055530547 -0.84922572970390309 -0.27801167964935297 0.92859646677970897 0.92922890186309826 -0.42825374007225031 -0.8366824984550475 0.92729914188385021 -0.14834783971309659 0.93649566173553478 -0.82288527488708485 -1.4277087450027464 -0.46144311130046839 -1.2005002498626707 -0.8274196684360503 0.91722428798675548 0.81696960330009472 0.99342277646064769 1.4106731414794924 1.007927477359772 -0.99538573622703541 -0.44995266199111933 -1.1985760927200315 1.0049849152565005 1.2430747151374819 0.91698068380355846 0.75774672627449047 0.88456058502197277 0.92072036862373363 -0.99480798840522755 -0.82628068327903736 -0.79067122936248768 -0.8942396044731139 -0.66874763369560231 1.0923774838447573 1.2247534394264223 1.0649877786636355 1.2102247476577761 0.98942297697067272 -0.49951851367950434 -0.49412995576858515 1.0215736627578738 0.85855725407600414 0.951286941766739 1.0000000180025095e-35 1.0000000180025095e-35 -1.0503279566764829 1.0111898779869082 1.0215736627578738 -2.8286212682723995 -1.151715040206909 0.87581190466880809 -0.54388630390167225 0.98033127188682567
decision_type=2 2 2 2 2 2 2 2 2 2 2 2 2 2 2 2 2 2 2 2 2 2 2 2 2 2 2 2 2 2 2 2 2 2 2 2 2 2 2 2 2 2 2 2 2 2 2 2 2 2 2 2 2 2 2 2 2 2 2 2 2
left_child=1 2 3 4 5 -1 27 20 -6 10 15 17 29 24 -15 16 -3 22 39 31 -5 -17 -11 -14 -8 -9 28 -4 -12 -13 -19 46 -28 35 57 60 -29 38 -35 48 41 42 -41 -37 45 -42 50 -48 49 54 -20 -39 59 -54 -2 -43 -51 -33 -46 -50 -21
right_child=18 9 6 7 8 -7 13 25 -10 11 26 12 23 14 -16 21 -18 30 19 33 -22 -23 -24 -25 -26 -27 32 36 -30 -31 -32 34 -34 37 -36 43 -38 51 -40 40 44 55 -44 -45 58 -47 47 -49 52 56 -52 -53 53 -55 -56 -57 -58 -59 -60 -61 -62
leaf_value=0.019714020520511209 -0.12274310730653751 0.17606549992497481 0.27884589409826427 0.26685824717533729 0.17332638019582816 0.28692218922959895 -0.066620755962462017 -0.041619289214770198 0.14179605307834098 0.23751309423559933 -0.06305756857669291 -0.085602717000250503 0.11558412468153922 0.20568775007809748 0.053442922993826386 0.20576151799745734 0.036051048314624558 0.33281814357189055 -0.11328094248870305 -0.11507174743834475 -0.074640526133159413 0.31439328213697754 0.1344975568511253 0.21923081298246788 0.069274656795598785 0.10010503390965333 0.074759813371256589 0.19903573346324091 0.062264115712125895 0.081074689894984536 0.26129133717267278 -0.11923010901539621 -0.046059655571814823 -0.13226478794372604 0.40392358495562486 0.058750709972907211 -0.076680001059162742 -0.12169543993414589 0.2140085156690498 0.32855869051187536 -0.10759692820517677 -0.12547789860778313 -0.10979011643244362 0.31595045028348379 -0.10376442384321186 0.32051784419066587 0.17052540101040847 -0.080915053702634271 -0.12725932242791343 -0.14251519307953944 -0.12607155889622071 -0.15523122695491465 -0.1044144625459371 -0.11217119357253694 -0.10779420735412318 -0.11229807687211497 -0.13110438157945972 -0.10622600437794519 -0.11461344905463421 -0.11759582932028739 -0.12398521515129041
leaf_weight=1611.5311598479748 6.0610052868723896 13701.946941800416 27.256648406386375 312.47870197705925 26953.568718226627 283.35155631974339 459.47080404311419 1011.0226048175246 24364.291539238766 1671.7333742678165 780.12225997447968 243.1232892870903 844.00193858146667 1670.7893236652017 1379.4704283773899 2405.8513361811638 1164.1281910687685 864.95289205014706 77.454775026068091 5.2948375735431892 65.504475420340896 685.93770180642605 828.63808106631041 1471.3287246674299 912.20507221668959 215.16899845190346 710.29207513481379 20.935933146625757 235.52360951900482 142.34973873198032 1101.242205619812 5.1390933543443698 170.76731627434492 9.5824908278882486 17.165548957884312 12.528294850140808 714.28912149183452 14.773625176399948 59.831751603633165 40.341821301728487 3.9016685951501113 8.2779703289270419 12.469610512256621 182.18410361558199 170.707465486601 5.1180126555263996 15.611437320709227 55.399189565330744 2.5001710429787662 5.2854329869151142 31.081166088581085 3.2956108376383773 131.42586170881987 48.120896911248565 18.824791960418224 18.115662584081292 22.852308206260204 3.7832038756459951 2.9681821390986434 15.791219657287 4.0009860917925835
leaf_count=11320 60 25958 37 723 69501 930 3075 9242 73615 1451 4993 1674 2839 6339 7563 3100 5162 1548 912 51 1504 1044 2105 3003 4322 1276 2683 80 874 652 981 44 1005 83 35 79 6238 131 58 200 96 82 210 327 5475 33 83 409 16 27 219 17 3607 568 365 204 138 88 31 131 28
internal_value=0 0.153698 0.145072 0.151368 0.154843 0.059671 0.0784971 0.0361305 0.158357 0.172851 0.159953 0.20858 0.152119 0.101758 0.136836 0.176251 0.165101 0.24272 0.0217715 0.116319 0.207677 0.229862 0.203373 0.181449 0.0237537 -0.0167499 0.00564551 -0.0564004 -0.033996 -0.0240511 0.292757 -0.0417932 0.0513425 0.227861 0.226886 0.280341 -0.0688288 0.105478 0.166206 -0.0698931 -0.0306238 0.111263 0.225058 0.299402 -0.0921367 0.135327 -0.0808319 -0.0256368 -0.11089 -0.12301 -0.116944 -0.127812 -0.107642 -0.106493 -0.111435 -0.116432 -0.133248 -0.113716 -0.10395 -0.118917 -0.118908
internal_weight=0 87023.3 60001.3 54816.9 53212.7 1894.88 5184.42 1604.17 51317.9 27021.9 19854.6 7167.37 2700.8 4421.94 3050.26 17957.9 14866.1 4466.57 1009.89 497.126 377.983 3091.79 2500.37 2315.33 1371.68 1226.19 1896.71 762.482 1015.65 385.473 1966.2 205.634 881.059 291.492 26.0878 204.008 735.225 87.4835 69.4142 512.762 261.9 79.2051 52.8114 194.712 182.695 9.01968 179.547 71.0106 250.862 53.0235 108.536 18.0692 197.838 179.547 24.8858 26.3936 28.1377 8.9223 173.676 18.2914 9.29582
internal_count=268644 254837 195765 168111 155366 12250 27654 12745 143116 59072 44819 14253 8168 21299 13902 35264 31120 6085 13807 2564 2227 4144 3556 5842 7397 10518 9555 6355 5867 2326 2529 1790 3688 774 167 485 6318 289 141 11243 6331 696 410 406 5635 129 1623 492 4912 590 1131 148 4322 4175 425 286 165 132 5506 147 79
is_linear=0
shrinkage=0.1


Tree=5
num_leaves=57
num_cat=0
split_feature=32 31 133 131 99 32 45 72 74 44 72 37 70 37 60 104 36 36 60 104 104 32 53 46 31 31 82 31 107 32 100 76 60 30 30 71 54 70 96 106 136 10 53 134 91 136 60 123 102 95 32 106 23 8 3 83
split_gain=1414.54 1070.56 1570.82 1473.63 1338.03 1216.8 1112.4 1147.11 970.473 1168.58 803.208 3050.32 1147.02 1578.14 1006.75 762.865 747.057 631.483 464.164 430.124 414.823 375.757 359.484 339.066 331.5 329.409 303.509 297.105 292.082 250.454 244.153 237.078 220.481 199.87 195.225 182.316 180.149 166.272 162.813 159.922 145.331 114.677 113.102 112.025 109.501 82.9506 138.476 48.591 28.0153 73.1434 9.41947 30.1074 0.778811 0.47293 0.0775092 0.0665189
threshold=0.84055015444755565 1.0031974911689761 1.0000000180025095e-35 1.0000000180025095e-35 -0.9806247055530547 0.90041574835777294 1.1961417198181155 -0.55545133352279652 -0.86907300353050221 1.052034914493561 -0.60630080103874195 0.93208050727844249 -0.29206784069538111 0.92058870196342479 0.72691327333450328 -0.91793662309646595 0.93628799915313732 0.92788943648338329 0.75523072481155407 -0.82197052240371693 -0.8251381218433379 0.81390473246574413 0.85224252939224254 1.1613674759864809 1.0121746659278872 1.0005840659141543 -1.0908753871917722 1.0116500258445742 -0.84455949068069447 0.87769472599029552 -1.0432502627372739 -1.2023788690567014 0.8543030619621278 1.0981285572052004 1.0870705246925356 -0.40703415870666498 1.0111144185066225 -0.52807283401489247 -1.0003320574760435 -0.99480798840522755 1.0000000180025095e-35 0.83704182505607616 1.2022868394851687 1.0000000180025095e-35 -1.2135215997695921 1.0000000180025095e-35 0.55201503634452831 -0.90654024481773365 -0.93319803476333607 -0.9193127155303954 0.8098273277282716 -0.9003307819366454 1.3730802536010744 0.82700470089912426 0.68956759572029125 -1.3795403242111204
decision_type=2 2 2 2 2 2 2 2 2 2 2 2 2 2 2 2 2 2 2 2 2 2 2 2 2 2 2 2 2 2 2 2 2 2 2 2 2 2 2 2 2 2 2 2 2 2 2 2 2 2 2 2 2 2 2 2
left_child=15 2 3 6 44 22 7 -2 25 -10 11 12 13 -3 24 26 19 -16 27 35 -14 45 29 -20 -13 -7 30 -18 -6 -4 43 -32 -8 -33 40 -12 -21 38 -36 -24 42 -42 -23 55 -5 50 53 48 54 -50 52 -52 -17 -47 -28 -1
right_child=1 10 5 4 28 8 32 -9 9 -11 16 14 20 -15 17 21 18 -19 23 36 -22 34 39 -25 -26 -27 47 -29 -30 -31 31 33 -34 -35 37 -37 -38 -39 -40 -41 41 -43 -44 -45 -46 46 -48 -49 49 -51 51 -53 -54 -55 -56 -57
leaf_value=-0.10491282092235391 0.12310506883681732 0.14984978222721937 -0.033801073121928239 -0.017544685045545381 0.0090366896933829245 -0.059357580187530561 -0.036898878877062745 0.1548630986478049 0.17119816661098169 0.064250060762314418 0.16452442202955078 -0.094932480358925292 0.1863492356288001 0.03980804602689994 0.12390223634465836 -0.10317816111148 -0.00063698196933823143 -0.01668760870498295 0.17847939750006442 0.091169410869880965 0.27280192320397134 -0.021791600634675945 0.19237760105745969 0.004791441347435821 0.067407309457326398 0.089990732900301768 -0.11292563853835372 0.19441300661587024 -0.10670984208957497 0.29020846052585297 0.83854644225031305 0.1394339935208373 0.1005943938821111 -0.11592633878702868 0.16915705021917155 0.24909322906615683 0.24669261162238426 0.52929039370500675 -0.12186087563343595 -0.088878931141284603 0.22726838908114383 -0.13991095062125966 0.24281169645409878 0.43831503819407946 0.21842661257383564 -0.14367745586218172 0.20768175985187157 0.19544625913213368 0.17735743295952425 -0.11758548439032326 0.078326597958418259 -0.11022347590106217 -0.1129580072896206 -0.10423720162631447 -0.12067010005144407 -0.11176789718492151
leaf_weight=27.459498995915055 40125.444265730679 15277.673498921096 47.277274571359158 20.926226686686277 904.93029229715466 517.39600010961294 465.55763306096196 15872.690637577325 1745.6907361447811 2463.3895991519094 2118.723139077425 638.97476232051849 2186.8007893040776 1424.7986283525825 961.50698782503605 157.64803007617593 382.74213425070047 478.47329128533602 934.18795926868916 77.941238604485989 743.79400988668203 420.97145337052643 20.941615384072065 127.76628284901381 156.6176021322608 206.67849020659924 18.818985838443041 98.113071702420712 287.21087586507201 48.158225201070309 4.7591726984828702 928.25555004738271 155.61290817707777 31.697402909398079 97.783993419259787 289.78623040765524 1677.3167307972908 10.358507744967936 23.928611017763615 583.71823304891586 45.815674692392349 10.445060215890406 16.798628287389874 4.0126171857118598 326.341622851789 3.3989999890327445 24.330778434872627 7.0533542446792117 13.488210231065748 22.324507312849164 11.705155450850723 30.629256010055542 168.41504401899874 28.809951519593596 41.250330105423927 29.21636944077909
leaf_count=774 115652 27495 290 115 6621 3053 6809 28818 5839 12097 3225 3815 2254 5548 3092 5667 1794 2903 1755 173 777 5926 59 527 619 799 229 278 2703 70 17 4345 1103 283 349 258 1413 7 188 5551 33 102 43 4 554 23 25 29 37 208 96 639 1995 832 352 382
internal_value=0 0.130239 0.123122 0.128006 0.0314692 0.0727016 0.130631 0.132107 0.09021 0.108606 0.146703 0.137985 0.150587 0.140463 0.0273067 0.0487198 0.180113 0.0771874 0.120673 0.202137 0.208291 -0.0125812 -0.0506697 0.157583 -0.0629748 -0.0167279 0.105821 0.0391608 -0.018849 0.129699 0.122254 0.134493 -0.00245467 0.131002 0.0366776 0.1747 0.239787 0.144676 0.111943 -0.079138 0.00780587 0.1591 -0.0116379 -0.0722957 0.204207 -0.0851591 0.0276201 -0.057872 -0.0765068 -0.00650059 -0.102468 -0.0580908 -0.10823 -0.108399 -0.118244 -0.108447
internal_weight=0 91367.2 63792 58158.7 1539.41 5633.25 56619.3 55998.1 4933.15 4209.08 27575.2 21868.6 19633.1 16702.5 2235.57 2179.38 5706.58 1439.98 1542.81 4163.77 2930.59 1051.04 700.095 1061.95 795.592 724.074 1128.34 480.855 1192.14 95.4355 1025.4 964.712 621.171 959.953 626.102 2408.51 1755.26 132.071 121.713 604.66 494.031 56.2607 437.77 60.6885 347.268 424.937 56.5397 102.935 95.882 35.8127 368.397 42.3344 326.063 32.209 60.0693 56.6759
internal_count=268644 246059 190133 162375 9993 27758 152382 144470 21788 17936 55926 46503 36074 33043 10429 22585 9423 5995 4354 5069 3031 15925 5970 2282 4434 3852 6660 2072 9324 360 5805 4645 7912 4628 6648 3483 1586 544 537 5610 6104 135 5969 1160 669 9277 880 855 826 245 8397 735 7662 855 581 1156
is_linear=0
shrinkage=0.1


Tree=6
num_leaves=63
num_cat=0
split_feature=51 71 43 71 29 59 70 57 107 58 74 38 105 13 38 72 40 124 7 38 103 70 58 130 45 74 69 28 130 101 135 95 115 27 75 109 114 112 4 91 66 76 16 43 23 24 21 55 25 37 48 33 126 31 132 0 108 32 110 35 36 32
split_gain=1140.12 1662.56 2528.26 1185.88 2292.01 1400.35 976.882 938.471 915.369 829.409 821.645 746.221 851.88 817.901 737.526 1282.66 607.774 600.874 699.846 480.319 432.666 892.601 359.49 353.837 347.351 351.54 321.177 297.272 274.522 264.408 258.791 228.713 214.022 156.276 145.62 163.286 121.769 121.372 120.749 206.086 128.66 110.49 106.43 100.36 105.848 96.9318 70.9095 64.2775 62.607 48.4842 19.2223 27.8836 11.8454 48.4743 10.6756 9.18218 1.62715 1.14041 0.229442 0.128501 0.0848297 0.0796064
threshold=1.150633752346039 -0.36660036444663996 1.1034005284309389 -0.42259933054447169 1.1046963930130007 0.80239716172218334 -0.51249200105667103 0.93366071581840526 -1.0103994607925413 0.89420908689498912 -0.91988086700439442 0.98099493980407726 -0.80980926752090443 0.79009810090065014 1.0113751888275149 -0.52367329597473133 1.0526491403579714 -1.6182146668434141 0.12174744904041292 0.95336285233497631 -0.7846529185771941 -0.16503642499446866 0.89681312441825878 1.0000000180025095e-35 1.1717385053634646 -0.90860876441001881 0.025667609646916393 1.1288523077964785 1.0000000180025095e-35 -0.80590036511421193 1.0000000180025095e-35 -0.93454700708389271 -0.96808049082756031 1.1195133924484255 -0.58795529603958119 -1.1179731488227842 -1.4418029785156248 -1.2993668317794798 0.51995244622230541 -1.1222885251045225 0.24283911287784579 -1.1675075292587278 0.93188065290451061 1.158216178417206 1.1485033035278323 1.2075690627098086 0.98421248793602001 1.0535851120948794 1.204418480396271 0.92497140169143688 1.1925109624862673 0.87230294942855846 -2.6682285070419307 0.91975483298301708 1.0000000180025095e-35 -0.1449223309755325 -1.0705676078796384 0.96545523405075084 -1.1853227019309995 0.86252447962760936 0.88176536560058605 0.85855725407600414
decision_type=2 2 2 2 2 2 2 2 2 2 2 2 2 2 2 2 2 2 2 2 2 2 2 2 2 2 2 2 2 2 2 2 2 2 2 2 2 2 2 2 2 2 2 2 2 2 2 2 2 2 2 2 2 2 2 2 2 2 2 2 2 2
left_child=1 2 3 4 5 -1 -6 27 19 34 31 12 -5 -13 26 42 -12 18 43 37 23 -22 -17 -20 25 33 30 45 -27 -29 -10 -9 57 -19 38 56 -28 60 52 61 -41 -34 -16 46 -45 -4 -11 49 -39 -21 55 -52 53 -2 -54 -37 59 -26 -58 -36 -3 -40
right_child=9 8 7 11 6 -7 -8 10 14 17 16 13 -14 -15 15 22 -18 24 20 47 21 -23 -24 -25 32 28 36 29 -30 -31 -32 -33 41 -35 35 50 -38 48 39 40 -42 -43 -44 44 -46 -47 -48 -49 -50 -51 51 -53 54 -55 -56 -57 58 -59 -60 -61 -62 -63
leaf_value=-0.0089999504548000687 -0.16084006743050716 -0.13656413222565336 0.1561298559199219 0.13589948120134049 0.061671308395367497 0.088859151949420276 0.1161898274290335 0.00724313242901636 0.16837455150902331 -0.10687543364531951 0.10807537846822438 0.14921215171870569 0.20334453555869444 0.032915227326962226 0.013332216705843709 -0.0070731872951481011 -0.026713274156634326 0.26090220308017525 0.17254636817908853 0.096441458140676228 0.0060528258060409661 0.12607190176316269 0.16325669672660359 -0.061472933311023395 -0.1283536372962753 0.028104148521743075 0.26453874598411298 -0.11215439122609271 0.21904948065265828 0.037422373429902546 -0.1335388763363978 -0.11813269096767538 -0.12543649686956435 -0.12387914517062218 -0.1466471716308842 0.26001422381776518 -0.095598462457166078 0.42240178535138989 -0.10709340014857754 0.050653014958434196 0.52294324739963505 0.37060107502264283 -0.12556395994556338 -0.10472324700164511 0.38783837179403208 -0.094454667298536743 0.073731934489935508 0.23060710301657963 0.1773558856636156 -0.12534761097978556 -0.12901227441693619 0.19676798221229963 -0.12051071118219688 0.17407876746862919 -0.16716285710888851 0.15893354427184259 -0.15232778423979054 -0.14323697022869294 -0.18127248202008056 -0.11392447038283396 -0.11958291299753548 -0.11720463591164243
leaf_weight=2503.2098240572959 13.287084061652424 6.0217257440090162 15.865837562829254 7529.1952584050596 3494.2150085810572 3516.5391663275659 55329.367362614721 403.80398984253407 8806.0390042830259 29.840010648593307 2328.1974217817187 1203.8586305007339 2492.772885158658 1215.1297831833363 72.016858451068401 143.98501296341419 390.66358492523432 11.521357562392948 993.19852566532791 10.384503990411757 981.33585570566356 1681.3594733066857 888.71175849437714 69.105513229966164 142.58027225546539 201.42422694712877 11.035129157826303 147.59586530178785 120.24062865972519 592.99316005408764 28.483098972588778 227.45941716432571 6.7236548438668278 125.8662740662694 1.3002777546644271 16.261574534699321 62.921752087771893 12.383801370859144 30.528834680095315 12.845184441655876 10.468953464180229 13.520117495208977 235.79083152115345 198.78858452476561 4.4606789257377377 570.88183834590018 80.071426622569561 5.5577211380004874 65.957784928381443 193.83202868513763 4.747363079339264 5.8828778266906738 192.99367260187864 6.4044583514332762 65.766006648540497 20.088966231793165 5.8491451367735863 80.577694110572338 5.1498774215579015 15.572817834094165 5.7515958845615387 10.452347449958323
leaf_count=17274 81 36 52 14603 15431 12824 135833 1688 9532 819 6046 1987 3783 4321 246 510 1724 21 2288 53 5184 6477 1407 405 889 752 21 960 228 2712 164 1466 45 874 9 18 604 13 654 105 5 11 1113 6938 16 2921 882 1 94 1637 76 2 1669 8 324 39 39 399 22 181 42 86
internal_value=0 0.112851 0.108042 0.112363 0.106937 0.0481661 0.112951 0.0366506 0.150219 0.0645448 0.0648452 0.140643 0.152675 0.0907927 0.155258 0.0861042 0.0887081 0.0764461 0.0912949 -0.0219896 0.103366 0.0818389 0.139508 0.157323 -0.00891443 0.0422898 0.165664 -0.0345109 0.0994809 0.00761244 0.167401 -0.0379328 -0.105485 -0.0916113 -0.0705605 0.0558004 -0.0418623 0.171102 -0.0981566 0.0253645 0.26273 0.20585 -0.0930668 -0.0522834 -0.0939131 -0.0876788 0.0246986 -0.104938 0.216091 -0.11407 0.169562 0.0512777 -0.126678 -0.0519114 -0.132368 0.204152 -0.135954 -0.133728 -0.16588 -0.116446 -0.128268 -0.109672
internal_weight=0 92510.6 81961.7 77284.3 64843.3 6019.75 58823.6 4677.46 10548.9 5158.21 3350.12 12441 10022 2418.99 10249 1340.5 2718.86 4740.61 4038.16 299.889 3725 2662.7 1032.7 1062.3 702.454 459.052 8908.48 1327.34 321.665 740.589 8834.52 631.263 243.402 137.388 417.599 74.8529 73.9569 90.1149 342.747 64.2953 23.3141 20.2438 307.808 313.161 203.249 586.748 109.911 209.774 78.3416 204.217 46.9808 10.6302 278.451 19.6915 258.76 36.3505 27.8721 223.158 10.999 16.8731 11.7733 40.9812
internal_count=268644 239098 223625 206056 181362 30098 151264 17569 15473 29546 10924 24694 18386 6308 13597 3276 7770 26228 23009 1876 14354 11661 1917 2693 3219 1875 10321 6645 980 3672 9696 3154 1344 895 3318 386 625 185 2932 850 110 56 1359 8655 6954 2973 1701 1691 107 1690 135 78 2082 89 1993 57 251 1288 61 190 78 740
is_linear=0
shrinkage=0.1


Tree=7
num_leaves=63
num_cat=0
split_feature=31 133 45 72 37 74 43 70 32 73 38 70 39 69 134 55 107 130 31 107 31 85 65 73 95 70 73 102 84 72 37 107 95 102 57 31 56 32 56 97 57 57 106 34 96 87 59 55 25 45 107 106 35 34 32 109 79 107 30 96 110 126
split_gain=1126.76 1230.92 1116.76 1180.3 2195.28 976.122 951.396 1238.69 917.076 835.932 1150.64 962.776 901.555 1038.61 713.795 801.454 1025.68 876.797 748.054 629.813 745.507 529.637 510.368 491.565 1457.94 459.844 438.011 396.391 391.447 390.913 386.243 384.253 303.361 275.992 265.661 220.324 219.396 209.866 198.655 359.952 198.308 157.996 145.893 128.939 125.048 109.466 148.039 103.549 96.3226 89.7259 86.708 215.829 85.3759 77.4722 45.329 93.9105 45.3012 9.79092 1.11947 0.595389 0.399439 0.259816
threshold=1.0036402940750124 1.0000000180025095e-35 1.1984648108482363 -0.55545133352279652 0.96974781155586254 -1.0223241448402403 1.1302123069763186 -0.16503642499446866 0.90041574835777294 -0.70498949289321888 0.90310582518577587 -0.3428798615932464 0.95329022407531749 -0.12651457637548444 1.0000000180025095e-35 0.89858809113502514 -0.86906880140304554 1.0000000180025095e-35 1.0116500258445742 -0.87734115123748768 1.0049849152565005 -1.2526258826255796 0.30511397123336798 -0.82122713327407826 -1.0285090804100034 -0.30554732680320734 -0.75611346960067738 -0.84019505977630604 -1.2609854936599729 -0.59504300355911244 0.94358193874359142 -1.0071993470191953 -1.0099408626556394 -0.92088714241981495 0.86554145812988292 1.0061112046241762 0.7539643943309785 0.87769472599029552 0.91580045223236095 -0.92539700865745533 1.0246163606643679 0.91351899504661571 -0.86365586519241322 0.78191578388214122 -1.0051710009574888 -1.1781640648841856 0.78849759697914135 0.93369388580322277 1.5109336972236636 1.0300281643867495 -0.9708745777606963 -0.89000958204269398 0.94749781489372265 0.91094943881034862 0.89235657453536998 -1.0572417974472044 -1.2801188826560972 -0.88137966394424427 1.0876763463020327 -1.0321041941642759 -1.1828866004943845 -1.2685797810554502
decision_type=2 2 2 2 2 2 2 2 2 2 2 2 2 2 2 2 2 2 2 2 2 2 2 2 2 2 2 2 2 2 2 2 2 2 2 2 2 2 2 2 2 2 2 2 2 2 2 2 2 2 2 2 2 2 2 2 2 2 2 2 2 2
left_child=1 2 3 4 5 -1 31 -8 36 10 11 -10 22 -14 15 28 17 18 -17 25 38 -19 -11 24 -18 27 -6 35 33 -12 34 -5 -25 56 -27 -16 37 44 39 -21 50 -32 52 61 -3 47 -47 -22 -39 -45 60 -52 -42 -40 58 -56 -2 -29 -38 -35 -4 -30
right_child=14 8 40 6 26 -7 7 -9 9 12 29 -13 13 -15 19 16 23 21 -20 20 45 -23 -24 32 -26 30 -28 57 43 -31 41 -33 -34 59 -36 -37 54 48 53 -41 42 -43 -44 49 -46 46 -48 -49 -50 -51 51 -53 -54 -55 55 -57 -58 -59 -60 -61 -62 -63
leaf_value=0.040385037124666845 0.1411395992496694 0.22928302981040069 -0.10588897430547639 0.066602051124956416 -0.10639089689460755 0.094793493417138164 0.0090783034933929543 0.11498104662595188 0.044750655472194527 0.14858966180685057 -0.10418200227266557 0.26746556934416843 -0.059010128829802923 0.11306449137894725 -0.015770912750836186 0.068616923466680163 0.12455979975337372 -0.13599035161013237 0.12442847668169488 0.23991925765089303 0.098969453332581878 0.032019850628370462 0.36075667084035046 0.18507461913088585 -0.035616825651411714 -0.10058949441807062 0.0067137807501188133 -0.12431345406742789 -0.14628231132233946 0.030940012854080479 -0.13873497004659993 0.13732662380200833 0.13041694373621374 -0.17428794994349084 0.16350472316697889 0.15142577843635296 -0.11134088864639501 -0.046076686602753783 0.32410052642202958 -0.13048674208669733 0.17944278879632558 0.12085806682321816 -0.11286161766597913 0.18638494785252965 -0.11905740179328828 -0.1932653588148352 0.13519703244041748 0.15830156152624422 0.17627151305988037 -0.0026583894480347106 0.10932155311198898 -0.071795018839810862 -0.04216382762543882 0.23093062044602708 0.0097275273299784436 -0.12129253807959971 -0.012099658247311476 -0.18467785178589463 -0.12720329590315127 -0.15058860298253382 -0.11513171066708024 -0.17740550863216065
leaf_weight=3566.7501423582435 97.55526328086853 11.731591507792471 138.70093652978539 824.36772259324789 498.83181817643344 43663.817140705884 1629.4410486165434 3428.019757989794 1775.0426966324449 902.6706660464406 690.79308940470219 217.93129030615091 529.94961455464363 1037.4325640052557 159.32242140173912 6323.3496616184711 3519.3995215445757 226.66845986992121 3872.0648019760847 164.67811389267445 335.52013455331326 1089.4973758012056 129.66387188434601 1367.363778591156 677.67319422215223 39.899519741535187 1091.7678391523659 87.057070009410381 6.4399482011795044 310.27155674993992 69.674624100327492 11275.511529255658 3945.4861901663244 14.128105178475378 839.80444402992725 155.97162273526192 269.4548255559057 25.284659594297409 354.40474398434162 31.207198895514011 82.965856285765767 35.336037546396255 31.340102903544903 1723.3456334173679 84.774175394326448 21.850499257445335 36.883593812584877 2385.5837209373713 84.914783626794815 25.478213489055634 86.770362192764878 272.18304112926126 21.993313401937485 119.28623951226473 110.72645844146609 108.13006725162268 24.046958118677139 38.865134060382843 53.290210604667664 42.455856382846832 70.535406485199928 4.5968139469623548
leaf_count=18854 73 11 4054 2492 3290 118518 6245 8456 6966 2394 4074 330 3236 3479 676 15886 5574 1117 5542 326 398 3521 194 1388 3150 174 4545 580 30 1361 382 13685 7658 61 921 348 3166 124 291 176 181 113 502 1738 750 89 24 860 155 65 537 6164 99 130 1018 861 56 181 326 196 833 20
internal_value=0 0.089381 0.093385 0.0947222 0.0867933 0.0906847 0.117284 0.0808607 0.047282 0.0611904 0.0251684 0.0691045 0.102676 0.0548841 0.113026 0.105647 0.0999741 0.0798973 0.0898133 0.147778 0.170887 0.00308534 0.175238 0.124277 0.0986972 0.0918757 -0.0287573 0.00703866 0.16718 -0.0623021 0.129888 0.132508 0.144484 0.0259404 0.151527 0.066939 -0.0566859 0.0309614 0.265611 0.180909 -0.031853 -0.051382 0.076473 0.181481 -0.0767119 0.14807 0.0130011 0.150986 0.125255 0.183631 -0.0578386 -0.0280134 0.133007 0.300638 -0.0901369 -0.0550053 0.110836 -0.142945 -0.11396 -0.156506 -0.109005 -0.159245
internal_weight=0 73025.1 66683 65978.5 48821.2 47230.6 17157.3 5057.46 6342.06 5593.76 2994.04 1992.97 2599.72 1567.38 27834.9 22959.5 21021.5 11511.6 10195.4 4875.35 3449.41 1316.17 1032.33 9509.92 4197.07 1425.93 1590.6 441.216 1938.05 1001.06 984.715 12099.9 5312.85 178.186 879.704 315.294 748.307 206.705 669.576 195.885 704.489 105.011 136.299 1759.86 96.5058 2779.84 58.7341 2721.1 110.199 1748.82 568.19 358.953 104.959 473.691 541.602 218.857 121.602 125.922 322.745 56.584 209.236 11.0368
internal_count=268644 216900 188455 176085 145207 137372 30878 14701 28445 22034 12731 7296 9303 6715 51744 46075 43836 26066 21428 5669 2294 4638 2588 17770 8724 3375 7835 1785 2239 5435 1590 16177 9046 386 1095 1024 6411 1040 923 502 12370 495 782 1853 761 1371 113 1258 279 1803 11588 6701 280 421 5371 1879 129 761 3492 257 4887 50
is_linear=0
shrinkage=0.1


Tree=8
num_leaves=63
num_cat=0
split_feature=31 71 28 40 136 53 71 72 73 108 104 31 85 100 60 134 93 74 96 107 55 108 71 74 110 35 39 61 121 73 135 40 125 95 34 31 59 88 54 73 6 61 56 37 53 31 31 51 62 34 20 113 108 103 2 39 1 53 37 72 38 107
split_gain=958.782 1053.71 1876.58 1194.46 1179.46 939.767 1721.74 1313.83 921.675 1076.73 728.002 705.529 826.489 696.851 667.876 628.77 678.447 1081.45 1034.92 848.077 1261.27 554.608 524.848 467.573 460.738 412.242 397.367 423.388 336.838 328.015 325.33 313.259 281.123 644.887 275.009 262.054 277.735 493.6 244.2 219.095 190.483 190.322 174.944 169.378 139.028 135.434 129.906 111.054 105.875 95.881 207.478 84.0194 82.8645 81.7427 77.1911 66.8568 60.7213 60.4284 48.1948 32.4752 32.2711 0.444108
threshold=1.0038744211196902 -0.38618284463882441 1.1253268122673037 1.0487552285194399 1.0000000180025095e-35 0.93878802657127391 -0.62977513670921315 -0.6409810185432433 -0.72278481721878041 -1.0549723505973814 -0.8910696506500243 0.99992874264717113 -1.3580789566040037 -0.80806833505630482 0.77879890799522411 1.0000000180025095e-35 -1.1195381283760069 -0.98375883698463429 -1.01608270406723 -0.86495471000671376 0.90043160319328319 -1.0795885920524595 -0.40591458976268763 -1.0055227875709531 -0.94197446107864369 0.93195706605911266 1.0305508375167849 0.72824355959892284 -1.0206252932548521 -0.77802184224128712 1.0000000180025095e-35 1.0351644158363345 -1.2911942005157468 -1.0673210024833677 0.92152208089828502 1.0049849152565005 0.76868396997451793 -1.2038737535476682 1.0099917650222781 -0.86064913868904103 0.49277283251285559 0.7104988992214204 0.92438465356826793 0.96814405918121349 1.0634264349937441 1.0064426064491274 1.0116500258445742 1.0871995687484743 0.69219255447387706 0.89687722921371471 1.2849529385566714 -1.2618913054466245 -0.8837531805038451 -0.86385217308998097 0.52946949005126964 1.0178062319755556 0.48950980603694921 1.0088108181953432 0.94028857350349437 -0.61863392591476429 0.938978672027588 -0.88137966394424427
decision_type=2 2 2 2 2 2 2 2 2 2 2 2 2 2 2 2 2 2 2 2 2 2 2 2 2 2 2 2 2 2 2 2 2 2 2 2 2 2 2 2 2 2 2 2 2 2 2 2 2 2 2 2 2 2 2 2 2 2 2 2 2 2
left_child=1 2 13 21 5 6 -4 -7 26 10 -10 12 -6 22 -11 16 32 18 28 20 -19 51 44 -20 29 -24 27 -5 -18 49 31 -23 54 46 42 36 37 -26 -21 -35 -13 47 -31 -43 -1 52 -34 -15 -28 50 -17 60 -37 -47 56 -32 -2 -56 -38 -51 -3 -36
right_child=15 3 4 8 11 7 -8 -9 9 14 -12 40 -14 41 -16 24 17 19 23 38 -22 30 25 -25 35 -27 48 -29 -30 34 55 -33 33 39 61 45 58 -39 -40 -41 -42 43 -44 -45 -46 53 -48 -49 -50 59 -52 -53 -54 -55 57 -57 -58 -59 -60 -61 -62 -63
leaf_value=-0.11646850593111091 -0.16657826100260315 0.04960435692796647 0.052804195269478105 -0.095792400054884291 -0.1630565550726425 0.034714038629959143 0.14276571590315626 0.075972451093628102 0.1375266754620576 -0.058453271438924863 -0.10045175974683784 0.24337779469719797 0.11812766116635864 -0.01770790975927795 0.10204790754840609 0.29736545369511064 0.12634240376110914 0.16590519091437017 -0.10227728707075422 0.083411840713198071 0.065618132721490599 0.13660544506375535 0.14003519850317994 0.01316478178430556 0.22326936953293389 -0.023060079976689702 -0.11482829042486148 0.090817896418741106 0.011922255674985706 -0.080777348586413819 -0.13224451461255818 0.10400203687612913 0.10421981574732522 -0.10545228693963429 -0.12987812621246586 0.086093250774599492 0.26219439108482889 -0.025987248939464136 0.14306367683483504 0.075582438361717033 0.059795088128530793 0.020674800902909244 0.16101961773836623 -0.083000770360563705 -0.0058038915684123539 0.27224099395014795 0.14419309038205497 -0.13845071412966503 0.035047100564058686 -0.13491483721892819 -0.081792144766517499 0.10489435758386796 0.13903135099022429 0.14480999983079604 0.019785714530947303 0.19500912610340529 0.14238412913411311 0.17763647374231553 0.15045532118774327 0.047681408311279802 -0.12326947475902389 -0.15945319208436476
leaf_weight=158.77211426012218 11.912170097231867 11.937461845576761 4390.4307176657021 177.27614360302687 105.67787658236921 13109.622160006315 4127.3858582321554 18767.258375743404 173.18228533677757 271.93902829661965 498.73522074706852 57.459507957100868 9652.8447152860463 93.11957055516541 5561.6042382493615 20.565290212631226 1059.0466122627258 1465.7669576257467 461.07761907577515 841.85805280506611 8682.7319322377443 6375.6454095561057 517.636748816818 1467.5930958911777 211.93843141198158 221.20544459670782 371.39492674916983 386.99459183961153 339.84958606958389 33.509326800704002 60.59899022243917 5479.9501481503248 1510.6129244118929 166.66574995964766 37.368824616074562 766.52165509015322 385.14854925870895 127.08839826285839 3713.411572009325 111.6247039064765 3451.9460287392139 296.29080670140684 279.53641595691442 336.60056228004396 398.34145186841488 51.557448163628578 1760.4527904614806 418.60955922119319 53.984969494864345 104.25199624150991 48.393785327672958 22.060153625905514 481.37932302057743 2128.8157732561231 24.800096720457077 6.9597316831350318 13.650255754590033 1097.3611724600196 42.899758286774158 10.744029752910135 113.15772518515587 5.8756845220923415
leaf_count=3341 54 45 17129 784 1032 52166 7212 60532 184 1123 6537 57 11954 1416 17436 21 1251 1480 2054 1788 21878 7214 891 4695 312 886 1951 928 815 147 390 9487 2013 705 234 934 257 570 5566 227 6564 1294 397 2031 2819 49 879 2468 235 633 261 26 239 1083 65 19 13 863 61 28 891 30
internal_value=0 0.0784541 0.0714854 0.0984368 0.0753857 0.0668891 0.0963959 0.0590046 0.0670814 0.0807587 -0.0391144 0.101254 0.115083 -0.0142735 0.0945659 0.100267 0.0933606 0.0845426 0.0330623 0.0961929 0.0801028 0.117907 0.0359445 -0.0144334 0.133416 0.0912053 -0.0228265 0.0321908 0.098545 0.0464939 0.120288 0.121535 0.127212 0.1133 0.102483 0.144609 0.197445 0.129832 0.132039 -0.0328377 0.0628009 -0.0711311 0.135137 -0.0344646 -0.0373423 0.132787 0.125733 -0.116479 -0.0958076 -0.0619481 0.031282 -0.0750415 0.106514 0.147823 0.170234 -0.0985317 -0.00159331 0.174148 0.250996 -0.117855 -0.106773 -0.133897
internal_weight=0 75668.6 56103.2 19565.4 53662.6 40394.7 8517.82 31876.9 7495.11 6505.46 671.918 13267.9 9758.52 2440.58 5833.54 27464 22728.4 18031.3 3327.57 14703.8 10148.5 12070.3 1295.96 1928.67 4735.59 738.842 989.651 564.271 1398.9 540.245 11923.2 11855.6 4697.08 3549.36 356.29 4195.35 767.075 339.027 4555.27 278.29 3509.41 1144.62 313.046 632.891 557.114 3428.27 3271.07 511.729 425.38 183.955 68.9591 147.155 1247.9 2180.37 1147.72 67.5587 25.5624 1122.16 428.048 114.996 125.095 43.2445
internal_count=268644 219042 171792 47250 156646 137039 24341 112698 29178 25280 6721 19607 12986 15146 18559 49602 44346 39527 8815 30712 23358 18072 7937 6749 5256 1777 3898 1712 2066 1751 17110 16701 4819 3824 808 3505 1200 882 7354 932 6621 7209 544 3325 6160 2305 2892 3884 2186 943 282 962 1173 1132 995 409 67 928 318 661 936 264
is_linear=0
shrinkage=0.1


Tree=9
num_leaves=63
num_cat=0
split_feature=31 133 105 134 73 130 57 24 72 46 45 100 32 73 38 70 39 69 31 134 93 73 101 37 106 3 107 116 56 98 72 37 31 73 113 107 76 70 72 135 127 95 116 54 102 31 111 31 72 50 73 30 56 37 96 88 34 58 1 87 57 30
split_gain=828.168 1016.26 940.885 2760.14 1154.93 1037.62 923.952 1083.21 877.28 839.041 820.059 785.589 735.217 578.067 847.208 1082.33 727.483 608.166 560.839 549.011 644.901 879.148 964.38 786.507 960.734 487.863 468.95 408.722 341.547 314.909 311.744 307.028 304.957 279.699 258.084 246.123 219.273 216.935 204.191 188.224 180.937 596.567 204.734 174.312 821.416 173.829 173.502 159.055 150.665 148.332 148.318 391.121 111.1 108.257 95.3015 88.7604 79.7225 68.5112 55.045 76.1679 45.6385 44.5687
threshold=1.0036402940750124 1.0000000180025095e-35 -0.85008347034454335 1.0000000180025095e-35 -0.85145360231399525 1.0000000180025095e-35 0.89101710915565502 1.2844440937042239 -0.75075092911720265 1.1860684752464297 1.1984648108482363 -0.9311021864414214 0.90737113356590282 -0.72278481721878041 0.91283482313156139 -0.29563096165657038 0.92657774686813366 -0.192745566368103 1.002743721008301 1.0000000180025095e-35 -1.1195381283760069 -0.8322153091430663 -0.87546885013580311 0.87226283550262462 -0.85061991214752186 0.54665097594261181 -0.87813460826873768 -0.90827482938766468 0.7599119544029237 -0.93162405490875233 -0.62724459171295155 0.93511655926704418 0.98542621731758129 -0.75984147191047657 -0.97823676466941822 -0.9186977446079253 -1.2370070219039915 -0.32216531038284296 -0.67997601628303517 1.0000000180025095e-35 -1.4923536777496336 -1.0673210024833677 -0.92091625928878773 0.96979388594627391 -0.85560622811317433 1.0049849152565005 -1.0831339955329893 1.006779730319977 -0.60540324449539173 1.0771938562393191 -0.75611346960067738 1.0773599147796633 0.92438465356826793 0.87097287178039562 -1.0051710009574888 -1.1510471701622007 0.89687722921371471 0.82731634378433239 0.48950980603694921 -1.3790341615676878 0.89342278242111217 1.0691701173782351
decision_type=2 2 2 2 2 2 2 2 2 2 2 2 2 2 2 2 2 2 2 2 2 2 2 2 2 2 2 2 2 2 2 2 2 2 2 2 2 2 2 2 2 2 2 2 2 2 2 2 2 2 2 2 2 2 2 2 2 2 2 2 2 2
left_child=1 2 5 4 29 8 18 -8 11 -10 -6 -1 28 16 37 -16 17 -14 -5 20 40 22 25 39 -25 -22 30 35 32 -4 34 52 54 -33 56 -7 -29 -15 -24 -23 58 49 -43 44 53 57 -34 -36 -18 -42 -30 -52 -32 -28 -3 -47 -21 -45 59 -2 -60 -46
right_child=19 12 3 6 10 27 7 -9 9 -11 -12 -13 13 14 15 -17 48 -19 -20 26 21 23 38 24 -26 -27 43 36 50 -31 31 33 46 -35 47 -37 -38 -39 -40 -41 41 42 -44 45 61 55 -48 -49 -50 -51 51 -53 -54 -55 -56 -57 -58 -59 60 -61 -62 -63
leaf_value=0.068616656369848608 0.19545661476866708 0.19336857256869838 0.004545736307871231 -0.11646795213812899 0.078110321926623733 -0.12336845532818658 -0.041882148850466115 0.078817306493675354 0.098581342768422689 -0.00033568181170727274 -0.051390936514701807 -0.031390585261465695 0.025452287659215533 0.12300558462677819 -0.069786018091963262 0.08200523412430924 -0.11959410101559441 0.26771605748741067 0.059445036941218492 -0.010735260163894797 -0.1494672043742967 0.13448924544650862 -0.12319059661393733 0.055767880977922291 0.11126173527635695 0.064177545931000585 0.25552932440583004 -0.12522221628745275 -0.12536909776424382 -0.11549710114627776 0.065795267745688321 -0.10603687399005757 0.25785953277168611 0.10460387439700454 0.00090026770269172594 -0.0026745549935333133 0.21747461737820886 0.22882477026557721 -0.021204598849536814 0.21535355650590554 0.11839988620146508 0.11000473704272765 -0.10237769315018237 0.14364400378904413 -0.20006854762758186 0.13720436197491456 0.057301673384061558 0.14077052750001157 -0.0081591659825897989 -0.039389362915897112 -0.058202974749085534 0.31222050837133963 0.17838260380384863 0.12353703961086025 -0.1003379642445662 0.016717686371430833 -0.13741675780038851 0.21096245195327223 0.14042836681635856 -0.15629371864871888 0.18493138680334079 -0.044406912092764081
leaf_weight=5980.4954360853881 11.16445302963257 12.325921073555945 939.91540015861392 1048.0012997426093 27762.985504480079 207.51034001819789 1553.2044694591314 1426.3324261456728 26625.680683439597 886.04966574721038 497.75338198430836 904.23669274523854 1417.5507360547781 711.67042013257742 641.54737551510334 1754.1808785647154 420.72688069194555 111.79225760698318 219.13002690672874 90.771190330386162 110.09206505864859 1098.6933599859476 325.45925284549594 7487.2733481824398 5348.070074647665 3668.2270072251558 82.935854241251945 22.437733827158809 305.62492169439793 284.73105981759727 112.08395548909903 104.47040598094463 71.210131987929344 158.9521062374115 180.45809417963028 909.4543183837086 111.21629912778735 266.19525298476219 494.74439372494817 390.03059607744217 3197.2056043446064 60.919656738638878 178.04464218020439 218.01045626401901 80.945409044623375 2349.2936382591724 109.40527580678463 147.96155056357384 170.49891329556704 60.708271898329258 582.71267374791205 29.970614194869995 401.99849912524223 247.79315468668938 106.53443149849772 62.7760269343853 109.72883681207895 493.16668646037579 906.84439805150032 13.722769960761068 308.94167282432318 23.802329353988171
leaf_count=20416 2 10 7209 5393 65892 1134 6876 4354 51208 4669 10325 3985 5455 1342 3285 5714 2648 142 716 405 520 1191 1715 18672 9184 7457 28 184 2164 1793 227 536 35 296 646 3925 376 325 1997 357 2760 82 781 426 375 915 300 209 831 210 5277 29 217 176 888 115 708 326 816 65 266 64
internal_value=0 0.0692305 0.072825 0.0608536 0.0717095 0.0841533 -0.0145206 0.0158978 0.0874065 0.0953956 0.0758294 0.0554818 0.0320748 0.0476567 0.0733735 0.0413574 0.0067439 0.0431613 -0.0860466 0.0892096 0.0829187 0.0746579 0.0366157 0.0868707 0.0788904 0.0579524 0.119804 -0.00532184 -0.0382242 -0.0233643 0.0685623 0.108853 0.054513 0.0210661 0.00933611 -0.0250971 0.159943 0.151812 -0.0616729 0.155675 0.115914 0.104273 -0.0482346 0.138615 0.0793442 0.146879 0.136374 0.0639154 -0.0874583 0.11546 -0.0684673 -0.040083 0.153836 0.156636 -0.0698803 0.134069 -0.080065 0.190326 0.148723 0.00150211 0.151737 -0.164697
internal_weight=0 76091.1 69379.1 33732.1 29485.4 35647.1 4246.67 2979.54 34396.5 27511.7 28260.7 6884.73 6711.95 5494.16 3373.59 2395.73 2120.57 1529.34 1267.13 28525.3 23660.1 18922.6 4598.52 14324.1 12835.3 3778.32 4865.15 1250.62 1217.78 1224.65 1306.42 777.505 299.476 263.423 528.92 1116.96 133.654 977.866 820.204 1488.72 4737.55 3496.88 238.964 3558.72 435.477 3123.25 180.615 328.42 591.226 3257.91 918.308 612.683 514.082 330.729 118.86 2412.07 200.5 711.177 1240.67 24.8872 1215.79 104.748
internal_count=268644 216900 188455 102558 85219 85897 17339 11230 80278 55877 76217 24401 28445 19742 10666 8999 9076 5597 6109 51744 46075 41093 11689 29404 27856 7977 5669 5619 8703 9002 3244 1276 1233 832 1968 5059 560 1667 3712 1548 4982 3833 863 2425 643 1782 335 855 3479 2970 7470 5306 444 204 898 1030 1113 752 1149 67 1082 439
is_linear=0
shrinkage=0.1


Tree=10
num_leaves=63
num_cat=0
split_feature=31 71 30 43 71 106 32 56 133 107 45 71 55 110 32 130 106 38 58 4 31 60 134 45 70 38 98 107 76 97 37 70 107 40 53 38 106 35 37 59 98 37 56 34 129 32 72 35 69 38 54 102 51 105 40 31 45 25 103 64 103 27
split_gain=728.81 929.95 1415.04 1099.3 946.725 810.167 1230.73 1887.29 840.594 797.343 768.952 983.86 771.094 693.27 660.634 531.203 935.885 513.554 509.092 438.557 425.254 496.702 376.455 481.591 920.047 630.392 374.905 342.587 338.044 389.889 290.912 407.58 290.66 579.576 289.071 306.39 287.706 273.62 270.657 257.93 301.975 253.427 219.228 201.572 188.729 187.129 380.572 175.953 173.096 197.564 141.508 654.373 123.775 122.736 103.218 95.2473 84.6321 77.207 53.9545 99.1895 37.0666 8.19115
threshold=1.0038744211196902 -0.37641008198261255 1.0377470254898074 1.1302123069763186 -0.32929480075836176 -0.80274868011474598 0.94937703013420116 0.94572818279266369 1.0000000180025095e-35 -0.99369606375694264 1.1280321478843691 -0.43617005646228785 1.021071791648865 -0.93715912103652943 0.86534711718559276 1.0000000180025095e-35 -0.85262632369995106 1.0195306539535525 0.97959542274475109 0.54977852106094371 0.99838280677795421 0.74370747804641735 1.0000000180025095e-35 1.0543269515037539 -0.27801167964935297 0.93649566173553478 -0.6850617229938506 -0.87813460826873768 -1.0748946666717527 -1.0218333005905149 0.92544877529144298 -0.2852050364017486 -1.0058009028434751 1.0134446024894717 1.0995646715164187 1.0113751888275149 -0.85020259022712696 0.9439978599548341 0.94152778387069713 0.76386544108390819 -0.89215034246444691 0.93511655926704418 1.0152371525764468 0.91534599661827099 1.0000000180025095e-35 0.96377107501029979 -0.60201379656791676 0.8964030146598817 -0.18235169351100919 0.91536518931388866 0.96979388594627391 -0.85560622811317433 1.0722969174385073 -0.84123933315277089 0.93956646323204052 1.0049849152565005 1.1339367032051089 1.2957439422607424 -0.83498266339302052 0.43086397647857672 -0.81270235776901234 1.1230595111846926
decision_type=2 2 2 2 2 2 2 2 2 2 2 2 2 2 2 2 2 2 2 2 2 2 2 2 2 2 2 2 2 2 2 2 2 2 2 2 2 2 2 2 2 2 2 2 2 2 2 2 2 2 2 2 2 2 2 2 2 2 2 2 2 2
left_child=1 2 10 32 17 6 8 -8 -4 18 11 13 56 -1 -11 22 45 26 -6 -13 21 -7 23 28 25 -25 -5 39 29 -2 48 57 33 52 35 -34 -26 -14 -22 40 -24 -41 -35 -33 -36 46 47 -17 49 -18 51 -29 -3 -50 -30 -52 -12 -32 59 -47 -48 -19
right_child=15 3 5 4 9 20 7 -9 -10 14 12 19 37 -15 -16 16 30 61 -20 -21 38 -23 27 24 36 -27 -28 50 54 -31 31 43 34 42 44 -37 -38 -39 -40 41 -42 -43 -44 -45 -46 58 60 -49 53 -51 55 -53 -54 -55 -56 -57 -58 -59 -60 -61 -62 -63
leaf_value=-0.077740691269788456 0.11855201375075107 -0.14632326182679123 0.075941517765807459 0.02897242529466958 -0.080666989611478751 -0.1115208575057112 -0.028449707187343506 0.054978594775635152 0.03186782068851518 0.0093809496928613807 -0.048200757254859172 0.097541268904475953 0.020729761126925386 0.041983883673869946 0.10978305466292765 -0.0011857592462901981 0.10649245925287464 -0.1103283892647561 0.11927986453161168 -0.016302843374401722 0.23147022805448536 0.10343994824900421 0.057393452829274341 0.068556011166901729 0.065440999089953905 0.0041281414697132987 -0.14289489354451965 0.14257043268756095 0.14277516680229735 0.067872743687834955 -0.12098217474416878 0.15308804481816596 0.11364337003388592 -0.090857280740090585 0.073084091664158399 0.011851000018678184 0.11370075054548233 -0.12829523650158633 0.12837571333070463 0.13649609303682683 -0.12662475178575761 0.015956561227251385 0.1071575591039248 0.033495194554125578 -0.043895358856275921 -0.096804153312712957 0.12443784356499554 -0.10873932124353647 -0.042705493565232927 -0.15564790528587988 0.16959029648357216 -0.15216664851971196 0.15212949911205983 0.16305464214496562 0.08176406883977333 0.12585468915482634 -0.10703188581153755 0.24921391399744253 -0.14440376391690871 0.23431217219446987 0.26285939871258468 -0.14819368595170529
leaf_weight=858.20068020373583 2375.3955987915397 14.601162180304526 30246.066396478564 1045.9605531096458 501.8201216775924 125.23071555048227 3531.41151663661 11678.868145674467 5049.9112107865512 836.34695702884346 369.54630083404481 2443.5728222206235 2436.1460912935436 1108.2055742666125 3028.3015140686184 1010.6103213429451 103.65845540910959 76.902653401717544 170.64259338006377 392.77019627951086 402.27312518656254 758.8828377276659 305.3333924561739 3361.9146196320653 1937.5349677354097 2769.9125226065516 144.44959996640682 319.54983396828175 1700.5704423487186 4205.804107233882 134.28935533761978 246.4650941118598 9101.2122647259384 280.12347501516342 752.80816712789237 305.62437971681356 3408.4417596049607 129.76846603490412 693.94356390833855 564.35424468666315 125.96635618060827 252.43688990920782 69.853920936584473 329.15337239950895 168.85188183747232 42.062171459197998 32.32234238833189 179.05628247559071 30.285525038838387 39.78468368947506 634.21261356770992 98.56199374049902 287.6160404458642 677.69954052567482 331.31516966223717 2317.5481137782335 722.7699853554368 5.8803861141204825 133.23974694311619 11.526107162237166 48.183904990553856 222.19363362714648
leaf_count=4921 1618 83 73010 3314 4869 715 13968 30106 19838 10193 1528 4820 10319 9161 5334 3218 176 416 212 1658 520 1524 851 6587 4165 9872 946 190 1576 7547 714 268 9891 1478 1629 764 4385 837 968 610 720 837 77 880 570 183 59 850 88 192 603 415 296 813 450 1030 3955 10 662 8 25 1122
internal_value=0 0.0615003 0.0557307 0.0821764 0.0478588 0.0618485 0.0593883 0.0356088 0.0696357 0.0705682 0.0177799 0.0440905 -0.0167621 -0.0102676 0.0880551 0.0803759 0.0408163 -0.0213153 -0.0299289 0.0817764 0.124592 0.0729917 0.0852177 0.0793 0.0658881 0.0394522 0.00811729 0.110963 0.0971726 0.0861647 0.094454 0.0474648 0.101011 0.036266 0.1051 0.110336 0.09621 0.013193 0.166208 0.0662082 0.00364869 0.0992422 -0.0513344 0.0847018 0.051653 -0.0168788 -0.00313429 -0.0173736 0.133957 0.0337865 0.127539 0.0730917 0.13771 0.154253 0.132827 0.135252 -0.0871285 -0.105452 -0.110323 -0.0255856 0.207285 -0.138458
internal_weight=0 77954.9 60947.6 17007.3 6026.62 52486.6 50506.3 15210.3 35296 4537.11 8460.98 4802.75 3658.23 1966.41 3864.65 27733.1 3024.22 1489.51 672.463 2836.34 1980.33 884.114 24708.9 20090.9 11477.8 6131.83 1190.41 4617.96 8613.09 6581.2 1567.22 715.788 10980.7 652.195 10328.5 9406.84 5345.98 2565.91 1096.22 1248.09 431.3 816.791 349.977 575.618 921.66 1457 1270.17 1189.67 851.428 143.443 3369.87 418.112 302.217 707.985 2031.89 2951.76 1092.32 140.17 186.828 53.5883 80.5062 299.096
internal_count=268644 219042 177848 41194 26406 140649 136922 44074 92848 20608 37199 20560 16639 14082 15527 49602 8146 5798 5081 6478 3727 2239 41456 36200 25009 16459 4260 5256 11191 9165 3141 1872 14788 1934 12854 10655 8550 11156 1488 3018 1571 1447 1555 1148 2199 5005 4152 4068 1269 368 2238 605 379 901 2026 1633 5483 724 853 191 84 1538
is_linear=0
shrinkage=0.1


Tree=11
num_leaves=63
num_cat=0
split_feature=31 136 71 35 53 31 52 51 107 37 73 37 60 70 30 42 33 52 3 38 108 5 35 38 104 127 56 72 71 53 37 31 29 104 85 58 37 16 61 134 36 36 74 3 37 37 57 99 72 73 109 50 27 94 73 65 55 72 85 32 71 32
split_gain=679.781 890.353 1375.05 1082.13 1013.64 975.092 1079.28 653.338 622.724 678.181 620.167 1511.16 1034.22 991.845 988.411 623.654 580.155 766.986 572.489 557.273 530.297 472.616 469.36 458.917 427.268 419.215 371.752 364.304 327.738 324.485 462.878 315.57 257.903 215.199 208.248 207.999 332.132 332.003 207.792 198.5 194.979 148.347 208.398 146.076 145.066 140.649 140.159 123.844 198.739 90.3249 74.119 96.7981 64.7123 66.6927 56.9005 42.0227 6.48529 1.53983 1.17712 3.03496 0.778728 0.687969
threshold=1.0024101138114931 1.0000000180025095e-35 -0.37641008198261255 0.93750321865081798 1.1033621430397036 0.95271334052085888 0.96188458800315868 0.96990975737571727 -1.0071993470191953 0.92544877529144298 -0.76765885949134816 0.93208050727844249 0.72691327333450328 -0.29296840727329249 1.061241149902344 1.0510279536247256 0.91133880615234386 1.0763694643974306 0.54157298803329479 1.0113751888275149 -1.0565469861030576 0.77266734838485729 0.88993379473686229 0.98442643880844127 -0.80318173766136158 -2.1450995206832881 0.95360913872718822 -0.59857937693595875 -0.44656418263912195 1.0088108181953432 0.87578397989273082 1.0103752613067629 1.1079192757606509 -0.82288527488708485 -1.3580789566040037 0.87505844235420238 0.9485929310321809 1.0143591165542605 0.69605734944343578 1.0000000180025095e-35 0.88312250375747692 0.96062439680099498 -0.8758774697780608 0.51634174585342418 0.99973207712173473 0.96471303701400768 0.87929788231849682 -0.80245199799537648 -0.56891977787017811 -0.75799852609634388 -0.88454815745353688 0.95765739679336559 1.2170208692550661 -0.96013763546943653 -0.77466791868209828 0.34043931961059576 0.78906583786010753 -0.55545133352279652 -1.238893926143646 0.85855725407600414 -0.37266692519187922 0.85855725407600414
decision_type=2 2 2 2 2 2 2 2 2 2 2 2 2 2 2 2 2 2 2 2 2 2 2 2 2 2 2 2 2 2 2 2 2 2 2 2 2 2 2 2 2 2 2 2 2 2 2 2 2 2 2 2 2 2 2 2 2 2 2 2 2 2
left_child=1 2 3 5 8 21 -7 50 9 -4 11 13 31 14 22 28 29 32 -16 -10 44 -1 -2 35 41 -22 -17 -19 -14 30 -9 54 -18 39 -31 36 40 -38 45 -15 -12 42 -25 -33 -6 -26 -35 48 -5 -40 58 56 55 -54 -13 -37 -52 -49 59 -3 -43 -60
right_child=10 7 4 47 20 6 -8 16 19 -11 23 12 15 33 18 26 17 27 -20 -21 25 -23 -24 24 38 -27 -28 -29 -30 34 -32 43 -34 46 -36 52 37 -39 49 -41 -42 60 -44 -45 -46 -47 -48 57 -50 -51 51 -53 53 -55 -56 -57 -58 -59 61 -61 -62 -63
leaf_value=-0.035340792152026602 0.16228805450431683 -0.23908296254476619 0.12276483586891931 -0.099892777264791177 -0.10326192900152242 0.081089639875634556 0.038468763632312906 0.07760296894012042 0.10007254750843311 -0.11693884466912929 0.14966252739017713 -0.13013285326914081 0.0005019769081929771 0.088277390811768428 0.015575323753393062 -0.11468967776344048 -0.12348893702966666 0.10792119861755861 0.076054596999597435 0.027315308163067667 0.06186780244775808 0.046192091609846997 -0.065252173888588366 -0.043343015174811116 0.15135113514084586 -0.019055702111627298 0.015705082836378146 0.049442382272967503 0.11428454548522991 -0.16399689907244183 -0.13881439100081783 -0.14367685459639212 0.0011736240959769723 -0.10064185085623865 0.11397535406117283 0.26508775522329237 0.090495539142635861 -0.0441473207986883 -0.060684016777220774 0.14150724581540283 0.098676317312573994 -0.1382663569696832 0.073429158782541457 0.045262005893044119 0.081035713178297789 -0.11491319886060425 0.16951926820471944 -0.12660664527370563 0.016048807441982397 0.13922837469280253 -0.10504640957051148 0.11269239654919956 0.15079218775900946 -0.16109686742116891 -0.0506676103880229 0.14791488821551768 -0.20243943305801182 -0.14582703352295537 -0.13956356509117734 -0.1651249227347954 -0.15966571881086722 -0.16258759535132436
leaf_weight=2297.1086342576891 102.61558413505554 6.2566511929035178 195.51506083458662 325.0328433085233 347.01137715484947 7268.3039553016424 32545.040546230972 2495.6207935959101 10477.288308227435 297.82749715074897 1019.3483603596687 587.53702033683658 334.49207349121571 1944.0350419357419 1742.0197515487671 256.03609370067716 234.01118642091751 1675.7506759539247 15414.726458184421 1170.3169690854847 2568.1499853683636 1029.624507682398 777.74497321248055 362.07737077772617 28.728521183133125 852.71217265725136 1497.0124199092388 2924.2624565437436 1040.9732419401407 27.095996782183647 102.90354967862368 50.38373214006424 570.60785089433193 19.639574244618416 5044.3375411406159 31.487110137939453 496.77793812006712 290.07072140276432 23.691768914461136 1095.2697638943791 2838.8949641212821 42.165356129407883 264.46080800890923 217.85145682841539 48.704244503751397 64.109499357640743 864.35898621380329 200.93566475063562 271.20531348325312 490.90517120808363 37.820363814011216 28.122478343546391 13.789451763033869 13.635854303836821 106.43029453605413 1095.8332131057978 8.3458847105503065 52.591402597725391 22.877732448279858 49.02888996899128 28.498891845345497 29.991212897002697
leaf_count=14998 215 27 351 1875 5015 15843 104183 3774 12821 2384 817 3367 1277 2441 5297 1345 861 1609 26091 2860 13236 6468 3325 1365 40 2938 4826 5254 1361 143 378 267 1192 73 4699 9 907 1098 93 651 3943 220 677 686 108 292 768 1351 899 466 1166 31 13 60 369 911 37 269 126 209 128 141
internal_value=0 0.0540105 0.0488243 0.0397025 0.0739702 0.0419037 0.0462496 0.0774622 0.0881011 -0.0219426 0.0712699 0.0641278 0.00832423 0.0745227 0.0646111 0.0362092 0.0800846 0.0549905 0.0699138 0.0927621 0.0290183 -0.0101063 -0.0387299 0.0974592 0.0438716 0.0416961 -0.00333932 0.0707458 0.0866144 0.0977671 0.0690327 -0.0823413 -0.0350826 0.120091 0.11249 0.109513 0.100071 0.0408596 0.105182 0.10746 0.112147 -0.00954491 0.00594634 0.00977283 -0.0805788 -0.0325183 0.163517 -0.0720493 -0.0471555 0.130025 -0.110468 -0.0335615 0.147495 -0.00427896 -0.117946 0.151188 -0.122653 -0.130594 -0.163293 -0.173495 -0.146897 -0.152625
internal_weight=0 73204.4 59947.4 43989.8 15957.5 43140.1 39813.3 13257 12140.9 493.343 33155.6 26051.1 4090.72 21960.4 18037.1 3128.51 13074.6 5404.63 17156.7 11647.6 3816.58 3326.73 880.361 7104.48 1304.64 3420.86 1753.05 4600.01 1375.47 7669.96 2598.52 962.203 804.619 3923.3 5071.43 5799.84 4645.09 786.849 607.435 3039.3 3858.24 697.202 626.538 268.235 395.716 92.838 883.999 849.765 596.238 514.597 182.443 74.2887 1154.75 27.4253 693.967 1127.32 46.1662 253.527 108.154 55.2855 70.6642 52.8689
internal_count=268644 205246 185599 145886 39713 141492 120026 19647 18416 2735 63398 52359 13498 38861 34928 8809 17910 8916 31388 15681 21297 21466 3540 11039 3281 16174 6171 6863 2638 8994 4152 4689 2053 3933 4842 7758 6765 2005 891 3092 4760 2390 2042 953 5123 332 841 4394 2774 559 1737 1234 993 73 3736 920 1203 1620 503 236 348 267
is_linear=0
shrinkage=0.1


Tree=12
num_leaves=63
num_cat=0
split_feature=31 131 98 73 133 36 58 58 73 30 130 106 38 101 134 0 107 30 134 73 108 136 81 89 125 94 53 29 73 47 3 117 73 73 100 97 100 38 124 71 73 134 11 24 105 108 35 112 112 30 30 30 104 30 32 107 35 53 31 75 76 30
split_gain=629.004 1003.19 1121.46 943.861 824.733 753.759 2365.49 979.761 692.567 1122.84 604.091 652.569 420.495 368.243 321.784 365.938 276.134 396.042 315.047 360.469 258.163 256.293 233.478 225.775 225.714 222.627 213.909 206.78 189.148 292.439 180.107 178.299 172.543 145.333 222 177.544 141.772 281.35 140.504 140.157 134.984 130.463 124.893 97.009 96.9568 90.2459 88.9323 84.5143 74.8307 71.2537 59.3219 58.4255 100.511 52.0035 42.4245 41.8121 38.7174 32.1467 24.179 10.9466 6.90706 2.25072
threshold=1.0064426064491274 1.0000000180025095e-35 -0.99204015731811512 -0.91248914599418629 1.0000000180025095e-35 0.90953791141510021 0.85564681887626659 0.82884740829467785 -0.76603096723556507 1.0698392987251284 1.0000000180025095e-35 -0.84608227014541615 0.84457549452781688 -0.93154248595237721 1.0000000180025095e-35 0.61084663867950451 -0.87211677432060231 1.0838919281959536 1.0000000180025095e-35 -0.75135418772697438 -0.8837531805038451 1.0000000180025095e-35 -1.328768730163574 -1.2227149605751035 -1.1112708449363706 -0.95069313049316395 1.0705500245094302 1.1113944649696352 -0.82387244701385487 1.0812123417854311 0.54766094684600841 -0.97575911879539479 -0.75423264503478993 -0.81315651535987843 -0.85581853985786427 -0.99538573622703541 -0.95379066467285145 0.9136929214000703 -1.1908161640167234 -0.46894231438636774 -0.90573835372924794 1.0000000180025095e-35 0.98644599318504345 1.3762100934982302 -0.8488197624683379 -0.87905567884445179 0.907262682914734 -0.90884876251220692 -0.9316485822200774 1.0765179991722109 1.0922819375991824 1.0631685853004458 -0.83015406131744374 1.0562785863876345 0.97169291973114025 -0.889289230108261 0.93920341134071361 1.0014486908912661 1.0066081881523135 -1.1138699054718015 -1.2061817646026609 1.046773433685303
decision_type=2 2 2 2 2 2 2 2 2 2 2 2 2 2 2 2 2 2 2 2 2 2 2 2 2 2 2 2 2 2 2 2 2 2 2 2 2 2 2 2 2 2 2 2 2 2 2 2 2 2 2 2 2 2 2 2 2 2 2 2 2 2
left_child=1 3 24 13 5 7 -7 -5 12 -10 16 33 -6 14 15 -1 17 18 19 -2 -16 30 42 40 36 -20 28 46 29 -18 -19 -25 54 35 49 38 48 -38 -12 -36 -24 50 53 -23 -37 -43 -13 -30 -3 -35 -15 52 -29 -4 -28 60 -34 -53 -48 -44 -26 -57
right_child=10 2 22 4 8 6 -8 -9 9 -11 11 27 -14 41 20 -17 26 21 25 -21 -22 43 23 31 55 -27 32 51 47 -31 -32 -33 56 34 39 44 37 -39 -40 -41 -42 45 59 -45 -46 -47 58 -49 -50 -51 -52 57 -54 -55 -56 61 -58 -59 -60 -61 -62 -63
leaf_value=-0.069538258474321796 0.022567877192243777 0.0058017016832639327 -0.10948824426792723 0.055499286560574582 0.01056561610098225 -0.021353147917955138 0.056202805404285398 0.088814678702252181 0.015956883597849792 0.12188615563305359 0.11659110421402059 0.1033719788467987 -0.089631041076558782 -0.12696273234034211 -0.14781212570014024 0.025362039697613682 0.094493089129316032 0.027814120270503839 0.10515559378720998 0.087936552214686714 0.25929830444724944 0.1119305704853325 -0.13939309049649315 -3.0803964547627922e-05 0.14001394389410579 -0.085213789775928722 -0.15306893042162453 -0.1747714567399653 0.10522355742834988 0.01372654668264027 0.10051203938704414 -0.077177804752036061 0.15808989585802852 0.10200784159940918 -0.1508756640519619 -0.11467401622873846 -0.14245843189239335 0.24563781534595949 -0.080781189121523711 -0.0072370991471353147 0.24214709369348519 -0.14188111152720664 0.36299528050904284 -0.18300218836440621 -0.00034068615445109231 0.13477720324925377 0.010295675960790784 0.1451391119370313 0.1481568751535865 -0.043474524080427408 -0.02301728603040867 0.030146264219809683 0.10179607497259641 -0.060554114326967216 -0.0041763760378029976 -0.1068989757487421 -0.0041191334305989069 0.15433667473237869 -0.15185555321501917 0.16586557052343956 0.011212122563472097 -0.1538705612890289
leaf_weight=536.28919532336295 3548.8120146468282 39.671837780624628 429.64194447547197 27302.995757644065 944.87070463225245 4512.9047554228455 30589.346615108661 13044.899229007773 4691.3113214951009 1271.9679428860545 87.123422712087631 27.50551363825798 752.35048395767808 324.0525033082813 19.144707456231117 1676.6530759595335 2221.6954765245318 376.12803287804127 1161.143146045506 1106.6447061449289 83.572332918643951 14.66112297773361 11.364738127216695 986.95742124691606 6.4205534607172039 64.861900050193071 65.06313755735755 15.049299597740172 2306.054665543139 561.63209298998117 3627.3133770301938 430.14207929931581 43.275363743305206 220.55398737639189 87.525889977812767 359.25657464563847 51.959879040718079 29.164089635014534 61.546771973371506 303.44817941635847 50.370495870709419 16.734033606946468 4.5167007446289062 46.599059924483299 93.46773024648428 39.913721732795238 11.70358671247959 688.92099828273058 533.52109169960022 39.730061024427414 66.10392864048481 22.132172524929047 103.60273917019367 439.16108271479607 27.110982991755009 33.734030354768038 22.296166688203812 357.82634160667658 42.919586315751076 7.4852478206157667 11.843018043786286 14.623326256871222
leaf_count=2804 8810 114 3618 60974 3668 16035 73403 27965 19706 2449 98 31 3891 2531 94 8164 2183 735 1062 1649 70 17 65 5053 5 335 345 65 2748 1665 3871 3500 23 476 456 1545 281 37 207 901 68 83 1 193 339 78 32 561 703 148 213 52 156 2439 89 1120 51 291 218 49 37 74
internal_value=0 0.0498509 -0.00621812 0.0518623 0.0537736 0.0569478 0.0462319 0.0662705 0.0225107 0.0385516 0.070485 0.0161348 -0.0338499 -0.00564273 0.0103949 0.0023637 0.076759 0.0665725 0.0499837 0.0381066 0.18342 0.0905758 -0.0395686 -0.0152924 0.102938 0.0950841 0.0938271 0.103756 0.0969636 0.0781957 0.093682 -0.0234478 -0.0210644 -0.0244871 0.00824463 -0.0599328 0.120793 -0.00293772 0.0348825 -0.0393929 0.17191 -0.0887613 -0.0803273 -0.112417 -0.0910692 0.0530509 -0.0432709 0.114405 0.138304 0.0798012 -0.109351 0.127974 0.0667175 -0.0847531 -0.109275 -0.0724169 0.102934 0.147103 -0.117113 0.240052 0.0564924 -0.121103
internal_weight=0 88953.7 3080.58 85873.1 83110.6 75450.1 35102.3 40347.9 7660.5 5963.28 17715.6 1833.39 1697.22 2762.46 2315.66 2212.94 15882.2 9946.16 5881.46 4655.46 102.717 4064.7 2359.64 1478.83 720.938 1226.01 5936.05 580.739 5778.3 2783.33 4003.44 1417.1 157.746 1252.65 651.258 601.394 654.317 81.124 148.67 390.974 61.7352 446.804 880.805 61.2602 452.724 56.6478 82.1287 2994.98 573.193 260.284 390.156 498.611 118.652 868.803 92.1741 66.6209 65.5715 379.959 54.6232 12.0019 18.2636 48.3574
internal_count=268644 239292 17164 222128 208091 178377 89438 88939 29714 22155 29352 5015 7559 14037 11132 10968 24337 16672 11856 10459 164 4816 14793 8686 2371 1397 7665 845 7157 3848 4606 8553 508 4170 1981 2189 1135 318 305 1357 133 2905 6107 210 1884 161 281 3309 817 624 2744 564 221 6057 434 1236 74 343 250 50 42 1194
is_linear=0
shrinkage=0.1


Tree=13
num_leaves=59
num_cat=0
split_feature=93 75 92 114 76 116 75 113 73 96 31 75 75 115 91 82 107 75 92 31 122 76 27 55 100 29 32 37 71 33 127 0 37 73 104 30 92 97 74 114 99 30 30 104 136 52 30 93 74 38 136 30 31 31 1 131 1 73
split_gain=572.855 1718.63 833.259 661.222 1808.72 1023.23 699.222 1040.12 555.666 614.459 550.228 527.417 506.693 494.765 422.495 413.811 401.393 399.743 560.712 390.394 359.675 351.194 288.881 280.255 233.278 471.038 301.702 198.087 176.619 162.439 164.971 157.031 148.137 424.083 163.279 147.291 122.861 115.261 113.756 116.864 109.993 100.665 99.6866 97.8487 93.0909 74.1869 60.8051 53.8223 89.5402 38.8855 29.4576 3.05189 2.46578 0.638019 0.496095 0.286871 0.174786 0.00457482
threshold=-1.1024184823036192 -1.1148223876953123 -1.121809124946594 -0.94138500094413746 -1.1843190193176267 -0.96847704052925099 -1.0922111868858335 -0.95731434226036061 -0.82571679353713978 -1.0003320574760435 0.95667180418968212 -1.1389413475990293 -1.2075787782669065 -0.90129709243774403 -1.1204625964164732 -1.404515206813812 -0.79431426525115956 -1.1083094477653501 -1.1142434477806089 1.0094011425971987 -1.0941460728645322 -1.1942615509033201 1.3693899512290957 1.0393277406692507 -0.90275484323501576 1.1557205319404604 0.93396112322807323 0.94772616028785717 -0.46224237978458399 0.64872744679451 -1.6813362240791319 0.50032156705856334 0.94152778387069713 -0.80483913421630848 -0.80175310373306263 1.0859966874122622 -1.1855774521827696 -1.0085704922676084 -1.006436228752136 -0.88699293136596669 -0.96505454182624806 1.0523795485496523 1.0708448290824892 -0.94689998030662526 1.0000000180025095e-35 1.0637331008911135 1.051407039165497 -1.0830338001251218 -1.0000910162925718 0.97182992100715648 1.0000000180025095e-35 1.0560596585273745 0.92530322074890148 1.0026354193687441 0.55843216180801403 1.0000000180025095e-35 0.55076575279235851 -0.91248914599418629
decision_type=2 2 2 2 2 2 2 2 2 2 2 2 2 2 2 2 2 2 2 2 2 2 2 2 2 2 2 2 2 2 2 2 2 2 2 2 2 2 2 2 2 2 2 2 2 2 2 2 2 2 2 2 2 2 2 2 2 2
left_child=8 2 11 4 5 44 14 -8 9 12 35 29 52 15 -6 -13 19 18 -12 -14 38 -7 46 -19 25 26 -4 -15 -18 -2 -31 32 34 36 41 43 -34 -27 55 -40 -37 -10 51 -5 -3 -36 -22 48 -26 -35 -49 56 57 -54 -53 -11 -33 -1
right_child=1 3 24 10 6 21 7 -9 31 20 17 13 16 27 -16 -17 28 23 -20 -21 22 -23 -24 -25 47 37 -28 -29 -30 30 -32 42 33 49 45 40 -38 -39 39 -41 -42 -43 -44 -45 -46 -47 -48 50 -50 -51 -52 54 53 -55 -56 -57 -58 -59
leaf_value=-0.10286719675612868 0.62428384935362025 -0.13354783581023269 0.17903524406504578 0.39594723138842586 0.025866971086212793 -0.1092226104157478 0.04384706308399669 0.076140585612669412 -0.010313547271959366 -0.14174946285650161 0.065811649041162615 -0.12380856431863196 0.051145466301246424 0.19544462559790035 -0.056374546091441102 0.025720039145181187 -0.036835804002952104 0.086439417947738753 -0.060369874369760407 0.093387423564645022 -0.12752749629884316 0.051893157085825162 0.56390984601474026 -0.06747017996287076 -0.12267422335852425 -0.012771489239092963 -0.087154064393882805 0.061548144776306157 0.25782104970261621 0.096488175505826279 -0.13287562690111343 -0.14794673941175882 0.1410374717225476 0.16125262980277055 0.025744997351529061 -0.044713430589943981 -0.10070269729522537 -0.14447384586884768 0.047529265189542633 0.22609734971117637 0.091919835020925864 0.13042262581676561 0.082483355093008026 -0.081007395613835853 -0.052489075684073974 0.21106803827608098 -0.047717699487216172 -0.1290019796296871 0.071750752795405048 0.092331505158871174 -0.03942489245725702 -0.2160032864495848 -0.1267171203571181 -0.16981866323969422 -0.17911287482028007 -0.11380790028598896 -0.11586790466669745 -0.10455414659584453
leaf_weight=87.28886815533042 3.0488280951976767 843.09060348570347 131.49465313926339 4.3642953075468531 1839.564651036635 163.18791375681758 62886.996099914424 11853.494482256472 55.097475603222847 17.600460268557075 1357.1242184564471 209.84046075120568 6346.1274048928171 213.79338086023927 945.8249082043767 1568.3469188287854 23.488255089148879 8765.4874119088054 475.57582740485668 3338.9411159306765 269.13802039157599 791.43173807114363 6.6744800936430684 119.92892640084028 60.035237409174442 94.958413258194923 62.969233959913254 228.6615736335516 151.88926937431097 35.010689601302147 300.62101159244776 2.9265355914831188 25.340271856635809 260.86419825255871 22.956479519605637 106.34863901138306 123.42981930077076 221.33558930084109 114.47703608870506 53.908971697092056 132.10731561481953 655.20786567777395 29.373736828565598 298.04198258556426 170.29770305752754 365.75903903692961 147.93155937641859 709.50547980889678 39.123679921030998 119.2996026687324 38.714829795062542 14.273051247000696 47.760717898607254 3.7004688233137122 4.8957053273916236 4.6438722349703303 4.047798428684473 19.704615000635386
leaf_count=3404 2 4599 246 15 4555 767 166927 21523 184 89 2507 954 15291 161 3554 4134 151 13878 1954 2924 1776 1691 23 476 286 258 249 399 144 69 1616 14 23 142 64 622 516 1114 292 56 436 504 35 3521 533 197 563 3902 82 146 106 58 295 17 22 45 47 486
internal_value=0 0.045145 -0.0197053 0.0479444 0.044732 -0.0499417 0.0471353 0.0489687 0.0680713 0.0596199 0.0706253 0.0138914 0.0655727 0.0316198 -0.00205949 0.00807446 0.0684235 0.0755913 0.0330682 0.0657084 -0.0374549 0.0243511 -0.0887745 0.0843621 -0.0830162 -0.029634 0.0928406 0.126247 0.218358 -0.102349 -0.10895 0.121453 0.127093 0.0836104 0.14802 -0.0277843 -0.0595267 -0.104934 0.0766212 0.104698 0.030983 0.119506 -0.0439335 -0.074124 -0.119926 0.200123 -0.0992195 -0.115192 -0.0459628 0.139624 -0.124367 -0.185972 -0.111829 -0.129816 -0.206581 -0.135916 -0.129329 -0.103178
internal_weight=0 94670.3 3917.46 90752.9 79493.9 1968.01 77525.9 74740.5 12316.7 10633.3 11259 2559.32 10018.9 2220.64 2785.39 1778.19 9860.45 10718.1 1832.7 9685.07 614.374 954.62 423.744 8885.42 1358.14 510.758 194.464 442.455 175.378 338.681 335.632 1683.47 1627.95 528.934 1099.02 540.862 148.77 316.294 190.63 168.386 238.456 710.305 55.5168 302.406 1013.39 388.716 417.07 847.379 99.1589 380.164 748.22 26.1431 158.455 51.4612 19.1688 22.2443 6.97433 106.993
internal_count=268644 241136 13578 227558 204149 7590 196559 188450 27508 25556 23409 7335 22712 5648 8109 5088 18510 18815 4461 18215 2844 2458 2362 14354 6243 1867 495 560 295 1687 1685 1952 1776 827 949 4594 539 1372 482 348 1058 688 176 3536 5132 261 2339 4376 368 288 4008 141 4202 312 80 134 61 3890
is_linear=0
shrinkage=0.1


Tree=14
num_leaves=57
num_cat=0
split_feature=31 131 99 73 133 31 46 72 77 72 126 97 34 97 108 113 108 2 104 98 50 110 98 127 68 3 69 74 6 108 74 134 30 105 51 17 73 73 120 35 128 31 25 31 125 95 72 96 29 77 46 32 74 96 111 98
split_gain=533.583 604.283 1177.52 807.71 638.656 748.775 711.394 669.516 633.374 606.31 372.985 563.816 454.808 301.034 311.957 291.423 397.16 602.737 215.748 251.183 208.074 201.25 197.412 353.469 189.587 178.996 159.75 157.273 149.159 126.685 114.6 81.041 84.1067 76.5222 97.9592 71.5022 70.0557 64.1822 58.1101 55.7325 51.4477 43.821 43.418 38.7243 31.7812 159.596 141.495 33.428 30.4891 50.0707 4.11483 3.99525 2.26491 1.2692 0.356236 0.258422
threshold=1.0116500258445742 1.0000000180025095e-35 -0.95633915066719044 -0.91248914599418629 1.0000000180025095e-35 0.99537560343742382 1.1988837122917178 -0.52038842439651478 -1.134970963001251 -0.60111945867538441 -1.3858982324600218 -0.98476600646972645 0.81970551609992992 -0.99669596552848805 -0.95081225037574757 -0.90541738271713246 -0.87955933809280384 0.65861210227012645 -0.85496726632118214 -0.85951155424118031 0.96188688278198253 -0.90139821171760548 -1.0045605301856992 -1.443268835544586 0.13461693376302722 0.5774083435535432 -0.19404169172048566 -1.0305771827697752 0.61452713608741771 -1.0316439270973203 -1.0112870335578916 1.0000000180025095e-35 1.0870705246925356 -0.88267204165458668 1.098700284957886 1.0444533228874209 -0.81229200959205616 -1.0041487216949461 -1.1423032283782957 0.85796052217483532 1.0000000180025095e-35 1.0107641816139223 1.4369564056396487 1.0075159072875979 -1.2911942005157468 -1.0673210024833677 -0.74171534180641163 -1.0492730140686033 1.1904646754264834 -1.2172401547431944 1.1070598363876345 0.86034741997718822 -1.0211198329925535 -1.0321041941642759 -0.82345104217529286 -0.99523371458053578
decision_type=2 2 2 2 2 2 2 2 2 2 2 2 2 2 2 2 2 2 2 2 2 2 2 2 2 2 2 2 2 2 2 2 2 2 2 2 2 2 2 2 2 2 2 2 2 2 2 2 2 2 2 2 2 2 2 2
left_child=1 3 20 15 6 9 7 -5 -7 -6 11 27 -13 25 29 16 17 -1 28 26 51 -18 39 -24 -8 36 -20 -4 38 42 -30 41 -33 34 -31 -21 52 -12 -16 -22 -35 -17 50 -39 48 47 -47 -46 49 -27 -15 54 53 -2 -3 -53
right_child=13 2 10 4 5 8 24 -9 -10 -11 37 12 -14 14 18 31 21 -19 19 35 22 -23 23 -25 -26 44 -28 -29 30 33 -32 32 -34 40 -36 -37 -38 43 -40 -41 -42 -43 -44 -45 45 46 -48 -49 -50 -51 -52 55 -54 -55 -56 -57
leaf_value=-0.10216404459606938 -0.1204260952061959 -0.1218826700921638 -0.041992035496456838 0.045273126503197481 -0.047965296272707326 -0.12994276786634903 -0.074826250482100717 0.073255586680319118 0.062089999846576552 0.022439818420315383 0.21213736841821437 0.16939754586398353 -0.038913232095757172 -0.24175397137906174 -0.02096946663158776 -0.12549889173730622 -0.11888337004562938 0.018334168533092981 -0.15088351822894686 0.075208026901214267 0.11787865721633128 0.15624724999080697 0.12501300988418171 0.0026263986319352479 0.0023964730199451632 0.12253195991261925 0.092152154869478559 0.13110546590288316 -0.12311597341937247 0.087349922259166005 0.020723854674354156 -0.076780225819790882 0.197281986920573 -0.14668719985495743 0.16571347224169597 -0.14332916396065692 0.12980711353743699 -0.1277159427587489 -0.15820188648471098 0.01395161939484544 0.17394399275412081 0.056985913262600663 0.11793246632011851 -0.058286846997320153 0.11069960246241575 0.042711582742170663 -0.21099193632121227 0.073234261050214342 0.18144508884375515 0.03881707076179363 -0.15112602151745272 -0.18521107430372813 -0.20713121541874802 -0.16156730328797642 -0.10227231018724631 -0.15740873999142968
leaf_weight=548.31648636609316 12.981069326400755 16.605674320831891 63.244825601577759 73156.086367897689 2052.3783661685884 180.41625615209341 444.94147687032819 9682.100720282644 3577.6725861728191 3027.4623494073749 6.1622932199388734 109.46562993340194 2464.6432701721787 10.273905590176588 52.206383571028709 275.34607262164354 30.297825368121266 1708.7639583423734 28.043882369995117 19.190903142094612 810.63263944163918 217.0313641410321 367.54492268711329 659.27594712842256 1113.6479482045397 615.16313734650612 759.9765788950026 308.65033210813999 58.739466041326523 1042.1031385362148 971.12581050395966 30.725673824548721 17.618874967098236 20.816711217164997 188.35304641723633 68.096585921943188 11.106707587838171 371.02762230485678 75.449107632040977 55.108100801706314 6.5882739126682273 13.819642320275305 5.5747539550065985 102.53492791205645 1256.7197584956884 103.47267371416092 27.913435205817223 293.83165420591831 71.355837047100067 80.834340736269951 9.7778757214546186 8.1615579277276975 7.0240213423967388 17.754404529929161 20.950189245864753 5.6629746556282035
leaf_count=2759 98 145 210 161373 10592 755 3386 14826 7816 12043 17 285 12997 43 152 3516 307 6672 136 46 775 822 379 2370 12719 331 1439 397 238 1167 2241 119 7 106 163 369 5 3508 359 93 6 17 3 289 625 143 117 267 27 126 45 34 29 77 1033 25
internal_value=0 0.0411807 0.00853415 0.0430053 0.0446061 0.0190301 0.0472844 0.0485437 0.052871 -0.00600555 -0.0267416 -0.0134263 -0.0300547 0.07233 0.0525814 -0.00951193 0.00224372 -0.0109387 0.0282109 0.0656743 0.0706991 0.122544 0.0760898 0.046434 -0.0196488 0.0985462 0.0835031 0.101668 -0.000118553 0.0911802 0.0125198 -0.0967418 0.0231001 0.0956645 0.0993455 -0.0952819 -0.0909617 -0.108511 -0.102079 0.111263 -0.0696061 -0.116778 -0.128929 -0.112683 0.102327 0.0946331 -0.0111886 0.1036 0.119192 0.112809 -0.197561 -0.127862 -0.155899 -0.144191 -0.110943 -0.173822
internal_weight=0 101446 5369.67 96076.6 93234.7 8837.93 84396.8 82838.2 3758.09 5079.84 3425.73 2946 2574.11 5814.47 3316.32 2841.92 2504.41 2257.08 2032.83 875.308 1943.94 247.329 1892.56 1026.82 1558.59 2498.16 788.02 371.895 1157.52 1283.49 1029.87 337.51 48.3445 1257.86 1230.46 87.2875 48.8662 479.725 127.655 865.741 27.405 289.166 25.6265 473.563 2449.29 1681.94 131.386 1550.55 767.353 695.997 20.0518 51.3804 37.7595 30.7355 37.5559 13.8245
internal_count=268644 260286 22557 237729 223510 31206 192304 176199 8571 22635 17703 13889 13282 8358 6513 14219 10560 9431 4980 1990 4854 1129 3617 2749 16105 1845 1575 607 2990 1533 2479 3659 126 1442 1330 415 209 3814 511 868 112 3533 91 3797 1636 1152 260 892 484 457 88 1237 204 175 1178 59
is_linear=0
shrinkage=0.1


Tree=15
num_leaves=63
num_cat=0
split_feature=36 59 70 103 50 4 38 58 73 109 72 102 38 73 37 16 45 37 37 59 73 33 32 107 136 39 71 31 36 71 60 21 15 39 31 38 134 31 71 32 32 37 7 134 30 70 46 136 136 106 108 18 71 34 73 73 14 32 132 32 0 62
split_gain=519.255 1803.16 1493.53 1506.12 803.659 728.2 682.109 1580.52 897.9 719.041 655.771 1509.13 706.641 643.592 590.933 684.473 587.514 545.761 508.227 643.467 460.146 430.156 426.142 416.186 408.165 406.397 374.475 361.498 331.204 354.245 327.935 305.65 304.058 364.56 272.245 264.563 260.931 257.279 226.44 219.362 189.465 163.318 155.481 121.407 101.066 98.4165 88.1936 81.3046 71.0792 71.0674 144.335 95.9017 63.3935 61.2375 25.9745 31.2812 23.71 9.47511 2.27585 1.52151 0.169239 0.0224923
threshold=0.91066601872444164 0.7951754927635194 -0.29563096165657038 -0.82260677218437184 1.1820995807647707 0.47338867187500006 0.97520926594734203 0.87913769483566295 -0.81754055619239796 -0.8462955355644225 -0.68612673878669728 -0.8621283471584319 0.90099799633026134 -0.79341354966163624 0.93208050727844249 1.0562897920608523 1.1438468098640444 0.93166548013687145 0.9097857177257539 0.77020442485809337 -0.7999734878540038 0.84192699193954479 0.96438816189765941 -1.0058009028434751 1.0000000180025095e-35 0.97991794347763073 -0.44995266199111933 0.97470670938491832 0.89749071002006542 -0.47664684057235712 0.75686275959014904 1.2650458216667178 0.98085254430770885 0.97815907001495372 1.0024101138114931 0.94504338502883922 1.0000000180025095e-35 1.0018687248229983 -0.40347073972225184 0.96887773275375377 0.91520324349403392 0.94194743037223827 0.6459861993789674 1.0000000180025095e-35 1.0369646549224856 -0.33326868712902064 1.0825329422950747 1.0000000180025095e-35 1.0000000180025095e-35 -0.87795090675353993 -1.0443847775459287 0.92689931392669689 -0.42825374007225031 0.87336787581443798 -0.8114703595638274 -0.81229200959205616 0.87304317951202404 0.95896944403648388 1.0000000180025095e-35 0.85855725407600414 0.14026309549808505 0.72837483882904064
decision_type=2 2 2 2 2 2 2 2 2 2 2 2 2 2 2 2 2 2 2 2 2 2 2 2 2 2 2 2 2 2 2 2 2 2 2 2 2 2 2 2 2 2 2 2 2 2 2 2 2 2 2 2 2 2 2 2 2 2 2 2 2 2
left_child=2 14 3 5 18 27 8 30 25 20 11 -7 -12 48 15 34 -15 28 21 35 -10 58 42 -21 32 26 -3 52 29 -5 31 -8 33 -16 38 -20 -29 -32 -2 -34 -23 -11 -17 -36 -19 -30 -24 -27 -9 50 53 -52 -1 -6 55 -26 -46 -56 -4 61 -61 -51
right_child=1 6 4 17 49 10 7 13 9 41 12 -13 -14 16 24 22 -18 44 19 23 -22 40 46 -25 54 47 -28 36 45 -31 37 -33 39 -35 43 -37 -38 -39 -40 -41 -42 -43 -44 -45 56 -47 -48 -49 -50 59 51 -53 -54 -55 57 -57 -58 -59 -60 60 -62 -63
leaf_value=-0.12201271658462931 -0.05285633636664825 -0.034870284771018382 -0.11021094723766307 -0.08725875427226959 -0.13147871768834735 0.035925173060538121 -0.066702022340107858 -0.13123973043692214 -0.012585084659642143 0.17226063154349824 0.077104226006624768 -0.082040816573703809 0.041022970309097843 0.066401473617371656 0.077391464919583042 -0.055060207833963662 0.028269625334156636 -0.1246933747370941 0.03015894047679149 -0.023872651636682736 0.06061893512971174 0.093768030530242366 -0.17238263837002202 0.082730027229083458 -0.13925563372781177 -0.10306991278823326 0.12864748468689655 -0.0093962715727832734 0.035762426210452107 0.030752499883658548 -0.021632067949939281 0.088231315926647555 -0.097608537184036198 -0.033074647326754039 0.072248460245781104 -0.073925488896040767 0.23329574850296453 0.064618827528975922 0.22600161943239161 0.057159104922515018 0.15482747637604022 0.1037454487489532 -0.16501087682882781 0.15186780758007901 0.14288981457829028 -0.1303692023412589 0.12166328045081994 0.29709453680885772 0.21733167846450954 -0.10745124419515979 0.10446081551027826 -0.041319902740217941 0.02853811242385056 0.19339296779061266 -0.19796438440774555 0.11515740144834255 0.26404248106628547 -0.15523590031006909 -0.16523171244779639 -0.1215066855014376 -0.13534060475419515 -0.10310285387992663
leaf_weight=365.46552498172969 230.95526640862226 392.38698684424162 64.244620425626636 529.59818319045007 109.34674447402358 24974.104127922095 2003.0818385314196 235.09056573547423 940.02952249906957 528.59329185634851 8390.2539016455412 1133.6841932162642 15373.789394816384 6298.0549013316631 350.13694142736495 389.5083292350173 11272.568750908598 9.0730711445212346 869.39356334879994 381.68096140772104 9921.0291418209672 841.82180184870958 11.031265713274477 9045.2471385896206 13.979170780628921 483.77031529136002 217.78668601065874 1095.5661051124334 37.783710680902004 489.44388038106263 1298.9449209542945 135.97486325353384 916.29612963832915 2035.6830686796457 588.56379530578852 339.59721957892179 46.167932078242302 471.33174893260002 33.320884317159653 101.74951422959566 1282.2392340824008 1017.7716144286096 192.01253740862012 283.8952948525548 22.972048573195934 633.96758735924959 135.38488547503948 5.1312135756015769 5.9993318617343894 13.366628479212521 87.044600425288081 93.704474536702037 30.286982176825404 6.1273502781987181 68.670369267463684 7.3865261524915686 54.421420991420746 212.48097116500139 8.5141070149838907 28.148613415658474 12.893963567912577 108.06784983724356
leaf_count=2346 890 1594 1598 4332 1431 63765 8316 1294 3077 350 14603 5263 34122 10187 583 1345 33529 64 1741 1433 18064 1516 50 13097 86 2643 350 4080 129 2137 4206 393 4841 7856 1063 1196 25 895 21 256 1161 1281 996 159 40 3072 189 4 4 296 494 495 81 5 279 11 29 1074 58 221 70 3858
internal_value=0 0.0296861 0.0440173 0.0365243 0.0740008 0.0396532 0.0380464 0.0270736 0.0556928 0.0633666 0.0417429 0.0308027 0.053762 0.0397111 -0.0231787 0.0227384 0.0419377 -0.0539811 0.0786497 0.0696054 0.0542831 0.122438 -0.0529727 0.0784139 -0.0462794 -0.0309375 0.0234934 -0.0281307 -0.0665126 -0.0305782 -0.030505 -0.0568533 -0.0363864 -0.0168629 0.071222 0.000922338 0.000417388 0.00133202 -0.0176969 -0.0821401 0.130628 0.127166 -0.0913648 0.0981563 0.191065 -0.121025 0.0995093 -0.09887 -0.122566 -0.0560597 -0.0269084 0.0288847 -0.110491 -0.11424 -0.157595 -0.0513002 0.228082 -0.165672 -0.116649 -0.109207 -0.125853 -0.103581
internal_weight=0 40798.6 66478 53186.6 13291.4 51409.3 35227.5 21721 13506.5 12407.4 49871.8 26107.8 23764 17811.7 5571.05 1864.67 17570.6 1777.26 12832.7 10635.9 10861.1 2196.82 727.937 9426.93 3706.38 1099.08 610.174 1537.49 1690.79 1019.04 3909.33 2139.06 3403.87 2385.82 1136.74 1208.99 1141.73 1770.28 264.276 1018.05 2124.06 1546.36 581.521 872.459 86.4665 671.751 146.416 488.902 241.09 458.7 296.223 180.749 395.753 115.474 302.517 21.3657 77.3935 281.151 72.7587 162.477 41.0426 121.434
internal_count=268644 105886 162758 134088 28670 124285 86187 58824 27363 22772 117753 69028 48725 45014 19699 4713 43716 9803 21800 17467 21141 4333 2580 14530 14986 4591 1944 6532 9670 6469 13810 8709 13536 8439 2133 2937 4105 5101 911 5097 2677 1631 2341 1222 133 3201 239 2647 1298 6870 2425 989 2427 1436 1450 97 69 1353 1656 4445 291 4154
is_linear=0
shrinkage=0.1


Tree=16
num_leaves=63
num_cat=0
split_feature=31 71 36 44 71 107 67 30 72 37 39 104 130 106 44 71 60 40 106 134 97 127 72 93 108 38 16 30 106 56 98 105 68 34 26 73 71 33 60 39 15 27 39 131 119 0 54 106 38 43 68 59 31 74 118 109 69 38 41 18 30 104
split_gain=532.971 644.83 1017.93 837.658 653.254 667.68 660.785 527.337 671.476 960.495 690.796 526.314 473.322 472.228 386.918 759.658 373.956 359.416 438.937 303.444 325.665 497.441 302.283 274.299 180.001 160.529 154.537 148.236 142.463 140.105 481.254 136.257 130.185 195.097 160.306 155.666 125.693 115.129 110.893 110.3 133.83 94.9639 87.0848 82.0068 139.33 71.5301 69.1421 57.7478 52.7462 49.4424 39.9292 39.1782 36.8011 35.8053 56.5018 36.9933 35.0825 77.8987 26.9887 20.3175 15.5582 52.5064
threshold=1.0058138966560366 -0.35944537818431849 0.96062439680099498 1.1458228230476382 -0.32929480075836176 -0.99711632728576649 0.2851738333702088 1.032162129878998 -0.57238066196441639 0.95942649245262157 0.96408534049987804 -0.8910696506500243 1.0000000180025095e-35 -0.84608227014541615 1.1176529526710512 -0.40347073972225184 0.78550705313682567 1.0687039494514468 -0.92280495166778553 1.0000000180025095e-35 -1.0218333005905149 -1.4189982414245603 -0.60540324449539173 -0.97645598649978627 -1.0795885920524595 1.0130858421325686 0.96716415882110607 1.0631685853004458 -0.83224767446517933 0.8925195336341859 -0.91885289549827565 -0.82962265610694874 -0.061163267120718949 0.90131163597106945 1.3591246604919436 -0.75611346960067738 -0.47410671412944788 0.93178859353065502 0.79014694690704357 1.0315191149711611 0.88693583011627208 1.1543906331062319 0.91011521220207225 1.0000000180025095e-35 -0.94646897912025441 0.3303543627262116 0.98571708798408519 -0.86167433857917775 1.0195306539535525 1.0882028937339785 0.11075455695390703 0.9316941797733308 1.0071298480033877 -0.87252762913703907 -1.1504507064819334 -0.91098752617835987 -0.18235169351100919 0.91536518931388866 0.98693805932998668 1.054329574108124 1.0420756340026858 -0.78971239924430836
decision_type=2 2 2 2 2 2 2 2 2 2 2 2 2 2 2 2 2 2 2 2 2 2 2 2 2 2 2 2 2 2 2 2 2 2 2 2 2 2 2 2 2 2 2 2 2 2 2 2 2 2 2 2 2 2 2 2 2 2 2 2 2 2
left_child=1 2 7 24 17 11 -7 14 9 -9 -10 -6 19 32 15 -1 -16 18 -5 20 43 22 -22 29 49 26 -26 31 -23 30 -21 45 34 36 46 -35 -34 -33 -27 40 50 -42 -36 44 -2 -15 -14 -31 -19 59 -4 -51 -45 55 -55 -25 57 -29 -58 -3 -41 -62
right_child=12 3 39 4 5 6 -8 8 10 -11 -12 -13 13 27 16 -17 -18 48 -20 23 21 28 -24 53 25 38 -28 56 -30 47 -32 37 33 35 42 -37 -38 -39 -40 60 41 -43 -44 52 -46 -47 -48 -49 -50 51 -52 -53 -54 54 -56 -57 58 -59 -60 -61 61 -63
leaf_value=-0.013370513473582363 -0.27269919542000198 0.15055853171923539 0.17331546569850254 -0.16394833490272651 0.099538800808020703 0.075965539520221365 -0.017851167684524757 0.03073531572152537 0.13097099859821598 -0.035470829285805465 0.046981824399876373 -0.10213497603532684 -0.14211953349059112 0.20847158747307781 -0.063592975984824426 0.074430621459253485 0.0083761137866669479 -0.061879236471016112 0.023090696595093888 0.10281041504908087 0.038398447188360989 -0.17881897869444741 0.076723782622321851 -0.14401088135214532 0.090253378541250637 -0.1348871191452333 0.019284530359486567 0.1038558018218043 0.095806556993817238 0.072534383348110673 -0.19272074116564553 0.099080532345171848 0.0031922135102435685 -0.090249227679909644 0.011445698826380239 0.04142654822994471 0.11237335465610386 -0.044419725776504965 0.055667514327344972 -0.12695884546070163 -0.11971205882330545 0.040288336149981917 0.32568037892421331 0.023350321678680053 0.053134973722063709 -0.168601918128372 -0.056995666308455629 0.11204727812771623 -0.14215531394733799 -0.14130486350897345 -0.027901191944733023 0.13998387832142289 0.099268468748463068 -0.14701868395000187 0.17932776969888986 0.11047427360012058 0.15454207281446142 -0.18473678021830536 0.097698991198707036 -0.035138476548310142 -0.14630367967621447 0.21698577330032723
leaf_weight=2395.3552031163126 13.873661175370215 11.629885241389276 32.783849405124784 144.32987037673593 175.89035001210868 3917.3977607274428 928.75063931941986 57715.245527472347 1159.2048856839538 2277.7627402506769 6308.8876040056348 489.61735327076167 191.78764170408249 5.6480374336242667 1347.7299839248881 1674.1169863361865 1555.0130985211581 122.74216218292713 960.15175783261657 222.0276907980442 10146.868616934866 126.47852215915918 2581.5815274268389 61.434318903833628 5068.8903844859451 55.116419233381748 326.59855625219643 41.415261432528496 22.205948606133461 479.26366970688105 73.291175812482834 166.61002756655216 335.82431670278311 324.50454599410295 91.637298360466957 124.12114685773849 153.70279096066952 84.144592583179474 68.489730641245842 427.26296455226839 136.20531086064875 50.979058030992746 9.7584642320871335 66.502284303307533 242.73831267654896 46.034205600619316 189.90217922627926 1620.5757800340652 245.68139419332147 53.057757787406445 14.104988701641558 5.4611875861883155 1601.7666596919298 9.8810028582811373 11.456219419836996 6.2976940423250189 165.78538057208061 12.081722572445868 168.34194526076317 11.942126229405401 12.811006568372251 5.7703317552804938
leaf_count=15497 60 8 40 742 193 6711 10172 146326 1607 8680 12437 4602 804 1 5942 2765 5471 523 2398 200 20119 543 3474 382 5012 212 684 46 16 705 352 210 1025 1389 219 293 159 288 116 2357 610 138 6 106 288 219 684 727 1197 385 41 2 958 54 3 5 67 53 208 44 67 2
internal_value=0 0.0314331 0.0279231 0.0523812 0.0292784 0.0450879 0.0579858 0.0290357 0.0317417 0.0282217 0.0600187 -0.0488336 0.0497507 0.00505349 0.00285379 0.0227495 -0.0250388 -0.0298812 -0.00135092 0.0552099 0.0497821 0.0440473 0.0461716 0.0875509 0.0811898 0.0833762 0.0859575 0.0729255 -0.137804 0.0939588 0.0294666 0.0204543 -0.0279008 -0.00618263 -0.0700774 -0.0538185 0.0374731 0.0509268 -0.0293015 -0.0938793 -0.0382921 -0.0761365 0.0416881 0.0881469 0.0355188 -0.127394 -0.0997678 0.103029 -0.115411 -0.0657989 0.112786 -0.115054 0.0962421 -0.0847627 0.0282008 -0.120349 0.113865 0.0386802 0.125903 0.0564801 -0.123063 -0.0334862
internal_weight=0 87699 75113.2 12585.7 6984.56 5511.66 4846.15 74433.3 67461.1 59993 7468.09 665.508 19397.5 2111.3 6972.22 4069.47 2902.74 1472.91 1104.48 17286.2 14802 12877.1 12728.5 2484.23 5601.19 5519.1 5395.49 690.061 148.684 2395.16 295.319 302.437 1421.24 938.153 483.086 448.626 489.527 250.755 123.606 679.918 234.073 187.184 101.396 1924.88 256.612 51.6822 381.69 2099.84 368.424 82.091 46.8888 58.5189 1668.27 89.0692 21.3372 67.732 387.624 53.497 334.127 23.572 445.844 18.5813
internal_count=268644 234981 201980 33001 26538 21678 16883 198725 169050 155006 14044 4795 33663 5671 29675 18262 11413 4860 3140 27992 25564 24152 23593 2428 6463 6024 5696 1092 559 1984 552 718 4579 2866 1713 1682 1184 498 328 3255 829 748 225 1412 348 220 1488 1432 1720 439 81 387 1064 444 57 387 374 99 275 52 2426 69
is_linear=0
shrinkage=0.1


Tree=17
num_leaves=59
num_cat=0
split_feature=94 75 113 76 73 1 127 82 96 73 117 118 75 105 134 126 96 74 31 97 59 76 38 29 103 30 131 123 38 117 10 75 104 35 36 105 0 31 75 36 31 72 91 96 127 122 32 121 122 31 131 44 65 95 131 102 43 97
